loc,t,aDotUA,bDotUA,gDotUA,aUA,bUA,gUA,xUA,yUA,zUA,qE,qDotE,emgA,emgB,aDotSH,bDotSH,gDotSH,aSH,bSH,gSH,xSH,ySH,zSH,aDotUB,bDotUB,gDotUB,aUB,bUB,gUB,xUB,yUB,zUB,xHand,yHand,zHand,aHand,bHand,gHand,enable
3,0,-0.3841187,-1.789876,0.1547292,-1.359406,-3.98726,3.079094,0.6061167,1.230098,0.5080128,-1.542281,-0.0438136,3.1,3.3,-0.4375354,0.6336762,-0.1346132,-0.7842525,-4.381481,0.05241474,0.6553167,1.439051,0.428149,-0.3123437,0.3185269,0.04211454,-0.9701086,0.421474,-0.08893573,0.7921267,1.541302,0.2754116,0.4310066,1.084907,0.290362,300.0686,219.5979,3.107962,True
3,0.01111111,-0.3841187,-1.789876,0.1547292,-1.359406,-3.98726,3.079094,0.6061167,1.230098,0.5080128,-1.542384,-0.009149686,3.1,3.3,-0.4375354,0.6336762,-0.1346132,-0.7842525,-4.381481,0.05241474,0.6553167,1.439051,0.428149,-0.3123437,0.3185269,0.04211454,-0.9701086,0.421474,-0.08893573,0.7921267,1.541302,0.2754116,0.4320104,1.085032,0.2856565,300.026,219.4663,2.195108,True
3,0.02222222,-0.3160322,-1.699173,0.1677938,-1.365923,-3.951236,3.077026,0.6013131,1.229713,0.5042121,-1.546422,-0.3693236,3.1,3.3,-0.4105845,0.7027213,-0.1014966,-0.7848655,-4.357392,0.0438058,0.6526215,1.439027,0.4265194,-0.3295047,0.312217,0.0262596,-0.9703382,0.4296189,-0.08595885,0.7918108,1.541389,0.2752967,0.434437,1.084847,0.2801682,300.0656,218.7452,1.163,True
3,0.03333334,-0.2894925,-1.634354,0.1480909,-1.37115,-3.915401,3.075638,0.596349,1.229412,0.5004508,-1.540297,0.5628979,0,3.8,-0.3765527,0.8306522,-0.139568,-0.7883282,-4.32605,0.02913525,0.650093,1.438934,0.4248784,-0.3475655,0.304741,0.03169111,-0.9701704,0.4376663,-0.08237503,0.7915555,1.541419,0.2751665,0.4376147,1.08452,0.2749526,300.0418,217.8701,0.1646082,True
3,0.04444445,-0.2821388,-1.606778,0.1340551,-1.37341,-3.897827,3.075233,0.5939025,1.229254,0.4986918,-1.540371,-0.01202931,0,3.8,-0.3626806,0.8839412,-0.1500978,-0.7900491,-4.309502,0.02095561,0.6489766,1.438907,0.4240274,-0.3505894,0.3110314,0.05305935,-0.9689922,0.4422787,-0.0809878,0.7914422,1.541438,0.2750549,0.4405438,1.083476,0.2677387,300.2953,217.2462,359.7363,True
3,0.05555556,-0.2726412,-1.550628,0.09309705,-1.373843,-3.882199,3.074714,0.5919811,1.229135,0.4969273,-1.543699,-0.3033381,0,3.8,-0.3424367,0.8934968,-0.1512604,-0.7915522,-4.294882,0.01376881,0.6479213,1.439054,0.4230108,-0.3525819,0.3237279,0.07020213,-0.9677395,0.4473917,-0.0798911,0.7913364,1.541508,0.2748811,0.44423,1.082115,0.2587602,300.7198,215.963,359.36,True
3,0.06666667,-0.272707,-1.51033,0.07365,-1.375291,-3.865927,3.074682,0.589799,1.229118,0.4952109,-1.543335,0.03608961,0,3.8,-0.3307225,0.8668204,-0.1450585,-0.7928337,-4.282876,0.008642224,0.6467541,1.439157,0.422143,-0.3557389,0.3151812,0.07551291,-0.9669347,0.4513627,-0.07803594,0.7912235,1.541507,0.2747486,0.4491542,1.081113,0.2502313,300.9664,214.1755,358.4009,True
3,0.07777778,-0.2675042,-1.438145,0.03899562,-1.375294,-3.852335,3.074814,0.5881377,1.229108,0.4935458,-1.543578,-0.02308238,0,3.8,-0.2942416,0.8388915,-0.1017514,-0.7922744,-4.271236,0.002265817,0.6457852,1.439257,0.4212222,-0.3633451,0.2982314,0.05631892,-0.9673011,0.4545746,-0.07561327,0.7912076,1.541459,0.2744999,0.4544684,1.080584,0.2430019,301.0345,212.4685,357.1872,True
3,0.08888889,-0.2613386,-1.326526,0.008389335,-1.375453,-3.841037,3.075658,0.5865808,1.229323,0.4922397,-1.542856,0.06621075,0,3.8,-0.2310198,0.8044546,-0.04052898,-0.7903485,-4.260433,-0.005304484,0.6450244,1.439405,0.4204798,-0.3602592,0.2961776,0.04243737,-0.9675978,0.4586132,-0.07398261,0.7911369,1.541422,0.2743142,0.4593147,1.08043,0.2372791,300.9967,210.9364,356.3025,True
3,0.1,-0.2614609,-1.22764,-0.01582705,-1.374937,-3.831179,3.076582,0.5852227,1.229447,0.4909241,-1.542996,-0.01361595,0,3.8,-0.2115231,0.7477289,0.01876648,-0.7880341,-4.251751,-0.009838516,0.6443037,1.439559,0.419755,-0.3550227,0.2951566,0.0317323,-0.9679291,0.4624162,-0.0724007,0.7910928,1.541386,0.274158,0.4630643,1.080518,0.2328416,300.9604,209.7954,355.7843,True
3,0.1111111,-0.2614609,-1.22764,-0.01582705,-1.374937,-3.831179,3.076582,0.5852227,1.229447,0.4909241,-1.542654,0.03150379,0,3.8,-0.2115231,0.7477289,0.01876648,-0.7880341,-4.251751,-0.009838516,0.6443037,1.439559,0.419755,-0.3550227,0.2951566,0.0317323,-0.9679291,0.4624162,-0.0724007,0.7910928,1.541386,0.274158,0.465486,1.080775,0.229545,300.9317,208.923,355.6741,True
3,0.1222222,-0.2670064,-1.052119,-0.04485687,-1.373843,-3.825657,3.078751,0.5841408,1.229815,0.4897892,-1.545463,-0.2573546,0,3.8,-0.2136317,0.6644962,0.049345,-0.7862498,-4.245903,-0.01162124,0.6437451,1.439743,0.4190111,-0.3625167,0.3037121,0.02543744,-0.9681986,0.4668574,-0.07076525,0.7911129,1.541336,0.274035,0.466637,1.081269,0.2275061,300.8985,208.3334,355.6919,True
3,0.1333333,-0.2834244,-0.6262704,-0.07586239,-1.371211,-3.824619,3.085517,0.5824435,1.230491,0.4884181,-1.539551,0.5426592,0,3.9,-0.2127526,0.5334976,0.04455493,-0.7857348,-4.234857,-0.01474273,0.6427378,1.440385,0.4175711,-0.3605578,0.2729235,0.003969427,-0.9691275,0.4728588,-0.06634014,0.791289,1.541334,0.2734673,0.4664532,1.081913,0.2267765,300.7218,208.2294,355.8431,True
3,0.1444445,-0.2803397,-0.4824955,-0.07805693,-1.370458,-3.824005,3.088381,0.5814373,1.230924,0.4878285,-1.541275,-0.1625748,0,3.9,-0.2158878,0.4321832,0.07506178,-0.7837545,-4.233348,-0.01339144,0.6424122,1.440871,0.4169123,-0.341534,0.227177,-0.01344115,-0.9699062,0.4734877,-0.06369536,0.7915039,1.541261,0.273061,0.4648483,1.082471,0.2258946,300.8294,208.1299,356.5291,True
3,0.1555556,-0.274187,-0.2141618,-0.09297501,-1.36853,-3.831087,3.092538,0.5808457,1.231531,0.4876053,-1.542124,-0.07544511,0,3.9,-0.2008207,0.3584999,0.1140768,-0.7810487,-4.231484,-0.01310355,0.6422454,1.441357,0.4161801,-0.3279036,0.1825354,-0.03825883,-0.9711962,0.4736537,-0.06065749,0.7918215,1.541099,0.2726312,0.4625674,1.083323,0.2253951,300.8787,207.9946,357.1719,True
3,0.1666667,-0.267911,-0.1056348,-0.1108891,-1.366478,-3.833966,3.095828,0.5800662,1.232112,0.4872444,-1.542464,-0.03058406,0,3.9,-0.183588,0.3210441,0.1500235,-0.7781869,-4.228222,-0.0141017,0.6419187,1.441714,0.4154854,-0.3120884,0.1623794,-0.05871877,-0.9726264,0.4747314,-0.0585243,0.7920365,1.540991,0.2722342,0.4598196,1.084555,0.2253139,300.7662,208.1934,357.5709,True
3,0.1777778,-0.2712775,0.02506832,-0.1524159,-1.362839,-3.838525,3.099834,0.5794101,1.23274,0.4870095,-1.542685,-0.02005961,0,3.8,-0.1533964,0.2941238,0.2093723,-0.7735524,-4.224915,-0.01598349,0.6418929,1.442078,0.4147947,-0.2962737,0.1336927,-0.07815617,-0.974163,0.4750357,-0.0560132,0.7922932,1.540936,0.2717643,0.4569084,1.086132,0.2255675,300.5376,208.423,357.9551,True
3,0.1888889,-0.2842104,0.103435,-0.2105499,-1.358159,-3.842333,3.104216,0.5787312,1.233495,0.4868338,-1.542664,0.001984522,0,3.8,-0.1510989,0.28551,0.2338164,-0.7702091,-4.220581,-0.01759391,0.641742,1.442486,0.4139938,-0.2824128,0.1358146,-0.07826211,-0.9751963,0.4768129,-0.0545972,0.7926167,1.540791,0.271291,0.4538002,1.087996,0.2261236,300.2334,208.5934,358.3637,True
3,0.2,-0.297096,0.1392469,-0.256622,-1.353677,-3.844593,3.10859,0.5780967,1.234392,0.4866011,-1.542221,0.04034452,0,3.8,-0.1362592,0.2951353,0.2199103,-0.7684892,-4.214837,-0.02078704,0.6417228,1.442908,0.4132979,-0.276025,0.1411419,-0.07934861,-0.9761508,0.4789057,-0.05295749,0.793014,1.540717,0.2706873,0.4506754,1.089998,0.2268028,299.8556,208.6218,359.0064,True
3,0.2111111,-0.3207305,0.172399,-0.37298,-1.344988,-3.84752,3.113578,0.577286,1.235564,0.48649,-1.541636,0.05312512,0,3.8,-0.1362358,0.2481996,0.2346415,-0.7653435,-4.21338,-0.02029675,0.6418439,1.443371,0.4126856,-0.2640615,0.1207493,-0.04758216,-0.9755085,0.479667,-0.05091165,0.7934628,1.540669,0.2700727,0.4476353,1.092003,0.227482,299.4865,208.4087,359.8289,True
3,0.2222222,-0.3261414,0.1826085,-0.4231215,-1.338758,-3.84928,3.117746,0.5765909,1.236712,0.486362,-1.541307,0.02969687,0,3.8,-0.1446702,0.2076401,0.2569103,-0.761613,-4.212095,-0.01934627,0.6420989,1.443968,0.4119937,-0.2415107,0.1003849,-0.02441995,-0.9749321,0.4800704,-0.04935104,0.7938603,1.540522,0.269424,0.4447934,1.09396,0.2280849,299.2009,208.0642,0.707781,True
3,0.2333333,-0.3390613,0.1861486,-0.5126185,-1.329722,-3.851301,3.122447,0.5756271,1.238201,0.4863596,-1.54091,0.03610791,0,3.8,-0.1467114,0.1820039,0.2760033,-0.7578717,-4.210232,-0.01899366,0.6423166,1.444552,0.4113767,-0.2223996,0.08231382,-0.03211691,-0.9756416,0.4804386,-0.04780268,0.7944707,1.540316,0.2685359,0.4422684,1.095859,0.2285163,299.0155,207.5454,1.640168,True
3,0.2444444,-0.3583755,0.197153,-0.5968486,-1.319961,-3.853456,3.127786,0.5748541,1.239786,0.4864419,-1.541548,-0.05854794,0,3.8,-0.1303421,0.1273743,0.3449187,-0.7514125,-4.210895,-0.01774251,0.642859,1.445292,0.4107113,-0.2129198,0.06639487,-0.0450529,-0.9766951,0.480703,-0.04585591,0.7951396,1.54021,0.2678866,0.4399787,1.097727,0.2287873,298.9439,206.6066,2.74458,True
3,0.2555556,-0.3797691,0.2062794,-0.6533587,-1.310433,-3.856113,3.133495,0.5738434,1.241276,0.4864726,-1.541252,0.02764865,0,3.8,-0.09692583,0.08976329,0.4105901,-0.7442699,-4.211279,-0.01764131,0.6434932,1.44588,0.4101207,-0.1917897,0.03132486,-0.06562907,-0.9781487,0.4794162,-0.04375947,0.7958637,1.540052,0.2670803,0.437938,1.099637,0.2289673,298.8907,205.7263,3.686678,True
3,0.2666667,-0.3797691,0.2062794,-0.6533587,-1.310433,-3.856113,3.133495,0.5738434,1.241276,0.4864726,-1.540723,0.04812801,0,3.8,-0.09692583,0.08976329,0.4105901,-0.7442699,-4.211279,-0.01764131,0.6434932,1.44588,0.4101207,-0.1917897,0.03132486,-0.06562907,-0.9781487,0.4794162,-0.04375947,0.7958637,1.540052,0.2670803,0.4359963,1.101623,0.2291102,298.8829,204.6112,4.731058,True
3,0.2777778,-0.457835,0.2784534,-0.8093643,-1.287152,-3.864531,-3.134597,0.5719509,1.24483,0.4873428,-1.545472,-0.4345545,0,3.7,-0.0788065,0.008687876,0.4293233,-0.7340162,-4.214631,-0.01419278,0.6446387,1.447214,0.4085596,-0.1579873,-0.02498378,-0.1002648,-0.9815634,0.4762053,-0.0396763,0.7973486,1.539749,0.2654159,0.4341671,1.10375,0.2293476,298.7542,203.6797,5.737303,True
3,0.2888889,-0.5027431,0.3332057,-0.8864298,-1.274469,-3.870651,-3.125602,0.5708146,1.24702,0.488003,-1.534213,1.033168,0,3.7,-0.09351541,-0.03619514,0.4697366,-0.7270893,-4.217621,-0.01032827,0.6452922,1.448133,0.4076271,-0.1324111,-0.07508311,-0.09751208,-0.9823954,0.4729241,-0.03734471,0.7984518,1.539661,0.2642822,0.4326362,1.105751,0.229705,298.388,202.9399,6.553176,True
3,0.3,-0.5316199,0.3689529,-0.9378093,-1.262464,-3.876245,-3.116968,0.5698534,1.249122,0.4884448,-1.539228,-0.4675737,0,3.7,-0.10902,-0.06203809,0.5453771,-0.7182178,-4.21995,-0.006729808,0.6460453,1.449061,0.4068084,-0.1185238,-0.10282,-0.09135567,-0.9829754,0.4703351,-0.03510499,0.7991749,1.539522,0.2633243,0.4301011,1.107941,0.229916,298.9363,200.6935,8.159248,True
3,0.3111111,-0.5542032,0.4182176,-1.039352,-1.247603,-3.883815,-3.107304,0.5685562,1.251714,0.4892862,-1.539184,0.009489449,0,3.7,-0.1212841,-0.08791107,0.6263254,-0.7082847,-4.222732,-0.002856507,0.6469517,1.450068,0.4061055,-0.1090448,-0.1421656,-0.1033376,-0.9844764,0.4668824,-0.0323875,0.800172,1.539316,0.2622163,0.4267663,1.110826,0.2305883,299.2404,198.9421,9.63716,True
3,0.3222222,-0.554294,0.4284259,-1.091634,-1.234072,-3.889524,-3.099387,0.567331,1.25417,0.4897575,-1.539716,-0.04881985,0,3.3,-0.1209051,-0.1275819,0.6900811,-0.6984832,-4.227095,0.001704689,0.6480053,1.451115,0.4052832,-0.105031,-0.1867763,-0.1323424,-0.9868386,0.4623521,-0.0288447,0.8011759,1.539214,0.2610683,0.4227068,1.114486,0.2318245,299.2068,197.805,11.0862,True
3,0.3333333,-0.5576144,0.4257174,-1.16403,-1.219018,-3.895511,-3.090726,0.565787,1.257042,0.4904156,-1.539734,-0.001080661,0,3.3,-0.1101002,-0.1575466,0.7197154,-0.6894796,-4.231555,0.005985455,0.6489961,1.452116,0.4045498,-0.1051605,-0.2111473,-0.1484408,-0.9890597,0.4591696,-0.02627022,0.8021967,1.538901,0.2597437,0.4181482,1.118834,0.2335273,298.9572,196.6174,13.00396,True
3,0.3444445,-0.5182745,0.4050292,-1.220395,-1.203887,-3.900108,-3.084731,0.5642779,1.260076,0.4907823,-1.541212,-0.1350232,0,3.3,-0.09503657,-0.1896335,0.7471794,-0.6803759,-4.236805,0.0103059,0.6499661,1.453192,0.4037869,-0.1009542,-0.2494685,-0.1539856,-0.9908072,0.4542926,-0.02275272,0.8031565,1.538838,0.2586179,0.4131636,1.123761,0.2356193,298.6859,195.0565,15.37724,True
3,0.3555556,-0.5129716,0.3780366,-1.264951,-1.188362,-3.904425,-3.077874,0.5627202,1.263018,0.4909127,-1.540956,0.0245851,0,3.3,-0.08084899,-0.2527707,0.8107584,-0.6688066,-4.245404,0.01725489,0.6512823,1.454329,0.402832,-0.09992579,-0.287809,-0.1563084,-0.9925122,0.4486682,-0.01861523,0.8042058,1.538664,0.257339,0.4079667,1.129048,0.2379065,298.347,193.4301,17.93423,True
3,0.3666667,-0.5673797,0.3100805,-1.359163,-1.169993,-3.906594,-3.068473,0.5611954,1.266518,0.4910386,-1.543222,-0.2075185,0,3.3,-0.0957126,-0.291173,0.8288164,-0.6591585,-4.253319,0.02526062,0.6523917,1.455417,0.4019659,-0.1074305,-0.3176082,-0.1617215,-0.9944776,0.4432676,-0.0143073,0.8052813,1.538557,0.2561998,0.4027091,1.134495,0.2402039,298.0986,191.7573,20.52593,True
3,0.3777778,-0.5972465,0.2681145,-1.403522,-1.153337,-3.909638,-3.059499,0.5596447,1.269818,0.4913409,-1.542526,0.06537997,0,2.5,-0.1167919,-0.3445886,0.8745574,-0.6479428,-4.263594,0.03559608,0.6536547,1.456796,0.4012341,-0.1117594,-0.334615,-0.1692261,-0.9965959,0.438043,-0.01005503,0.8063645,1.538362,0.2549496,0.3976393,1.139852,0.242367,297.9018,189.9826,23.22213,True
3,0.3888889,-0.6356074,0.2197137,-1.46062,-1.13502,-3.912228,-3.050083,0.5579253,1.273487,0.4914737,-1.53915,0.3078992,0,2.5,-0.1099011,-0.3928702,0.9595457,-0.6343863,-4.274322,0.04518079,0.6550293,1.45842,0.4003367,-0.1120498,-0.3664105,-0.203468,-1.000094,0.4318728,-0.005463475,0.8075298,1.538176,0.253479,0.3929037,1.144882,0.2442043,297.8611,188.157,25.8845,True
3,0.4,-0.6612373,0.1819089,-1.514627,-1.116081,-3.914767,-3.040387,0.5564479,1.277279,0.4916005,-1.5398,-0.06205777,0,2.5,-0.1098226,-0.4153155,0.9775621,-0.6231099,-4.284608,0.05478415,0.6562535,1.459888,0.3994613,-0.1282364,-0.3833314,-0.2279247,-1.003507,0.4260433,-0.0002170476,0.8088524,1.537987,0.2520852,0.38867,1.149626,0.2455835,298.191,186.3102,28.31378,True
3,0.4111111,-0.6580378,0.1784807,-1.551918,-1.097169,-3.919194,-3.031285,0.5547491,1.281055,0.4917881,-1.539646,0.0152529,0,2.5,-0.115155,-0.4558305,0.9859564,-0.6121206,-4.297299,0.06660806,0.6576145,1.461219,0.3985276,-0.1389913,-0.3949915,-0.2406757,-1.006629,0.420182,0.004841627,0.8100597,1.537798,0.2507954,0.3849759,1.154243,0.2465181,298.6455,184.544,30.34828,True
3,0.4222222,-0.6580378,0.1784807,-1.551918,-1.097169,-3.919194,-3.031285,0.5547491,1.281055,0.4917881,-1.539642,0.0004275273,0,2.5,-0.115155,-0.4558305,0.9859564,-0.6121206,-4.297299,0.06660806,0.6576145,1.461219,0.3985276,-0.1389913,-0.3949915,-0.2406757,-1.006629,0.420182,0.004841627,0.8100597,1.537798,0.2507954,0.3817133,1.158891,0.2470182,299.2115,182.7207,32.20641,True
3,0.4333333,-0.8467748,0.2908123,-1.597296,-1.061308,-3.935623,-2.99886,0.552798,1.288719,0.4930887,-1.548262,-0.7881937,0,2.4,-0.1713075,-0.414329,1.020604,-0.5889517,-4.315686,0.08716047,0.6600694,1.464007,0.3962004,-0.1625869,-0.3927527,-0.2607217,-1.013226,0.409789,0.01467775,0.8125871,1.537274,0.2480104,0.3790649,1.163655,0.2472893,299.4136,181.0465,34.07745,True
3,0.4444444,-0.8435699,0.3333851,-1.608325,-1.043625,-3.944756,-2.98508,0.5508214,1.292746,0.4927588,-1.528261,1.835088,0,2.4,-0.228499,-0.3216504,1.049071,-0.5763464,-4.318323,0.09403995,0.6613171,1.465519,0.3951001,-0.1732222,-0.3831701,-0.259528,-1.01614,0.4051017,0.01937796,0.8139508,1.537033,0.2465193,0.3773318,1.167975,0.2474811,299.0963,179.3567,35.84146,True
3,0.4555556,-0.8393492,0.3589767,-1.602131,-1.027404,-3.953433,-2.971593,0.5494407,1.296666,0.492913,-1.537107,-0.8252232,0,2.4,-0.2507499,-0.285428,1.057893,-0.5646008,-4.323871,0.1023269,0.662431,1.466892,0.3941178,-0.1891446,-0.3725471,-0.2518986,-1.018802,0.4007678,0.02437991,0.8151169,1.536781,0.2453854,0.3745188,1.172911,0.2471497,300.9653,176.9253,37.08006,True
3,0.4666667,-0.8382451,0.3877573,-1.605592,-1.010606,-3.963246,-2.95757,0.5479603,1.300564,0.4928811,-1.540586,-0.3078414,0,2.4,-0.2518296,-0.2939371,1.056808,-0.5535029,-4.333181,0.1128355,0.6637167,1.468234,0.3931425,-0.2093971,-0.3341695,-0.2558175,-1.021839,0.3980247,0.02878158,0.8162463,1.536516,0.2442749,0.3710304,1.179324,0.2472799,302.1225,174.8826,38.44577,True
3,0.4777778,-0.8382451,0.3877573,-1.605592,-1.010606,-3.963246,-2.95757,0.5479603,1.300564,0.4928811,-1.541294,-0.06275275,0,2.4,-0.2518296,-0.2939371,1.056808,-0.5535029,-4.333181,0.1128355,0.6637167,1.468234,0.3931425,-0.2093971,-0.3341695,-0.2558175,-1.021839,0.3980247,0.02878158,0.8162463,1.536516,0.2442749,0.3666187,1.187024,0.2476089,302.2739,173.053,40.56801,True
3,0.4888889,-0.8542456,0.406921,-1.601452,-0.9945719,-3.972969,-2.942372,0.5463874,1.304457,0.4928982,-1.550224,-0.8164276,0,2.3,-0.2489601,-0.3236188,1.019382,-0.5442766,-4.344234,0.1249483,0.664867,1.469627,0.3921368,-0.2232667,-0.3128425,-0.2598704,-1.024989,0.3948511,0.03333931,0.8174493,1.536175,0.2432649,0.3623365,1.195395,0.2485625,301.6169,171.0034,43.93018,True
3,0.5,-0.8639328,0.4250632,-1.602581,-0.9783889,-3.984212,-2.926032,0.5449578,1.308438,0.4929371,-1.541891,0.7685094,0,2.3,-0.2523403,-0.3576325,1.000089,-0.5344954,-4.357153,0.1388852,0.6659303,1.470901,0.391099,-0.2360498,-0.2702147,-0.2627571,-1.028022,0.3931044,0.03727254,0.8186094,1.535974,0.2423947,0.3593161,1.202942,0.2500874,300.1994,168.5496,48.13563,True
3,0.5111111,-0.86612,0.4452474,-1.602731,-0.9620818,-3.995611,-2.909662,0.5437248,1.312366,0.4927704,-1.53957,0.204671,0,2.3,-0.2674113,-0.3447379,0.9768047,-0.5248148,-4.366853,0.1508883,0.6669749,1.472085,0.39012,-0.2413413,-0.2425279,-0.2593943,-1.030996,0.3911586,0.04122041,0.8197729,1.535637,0.2414644,0.3563181,1.209339,0.2511375,300.2767,166.2925,51.03439,True
3,0.5222223,-0.8703285,0.4537975,-1.601762,-0.9457375,-4.007273,-2.893214,0.5423951,1.316163,0.4923842,-1.539474,0.007851619,0,2.3,-0.2962993,-0.3094257,0.950521,-0.5153936,-4.374441,0.1618526,0.6680717,1.473127,0.3892133,-0.233793,-0.2372548,-0.2487804,-1.033525,0.3883643,0.04493818,0.8209635,1.535301,0.2402835,0.3529361,1.2151,0.2517295,301.254,164.8611,52.34962,True
3,0.5333334,-0.8788009,0.4464127,-1.593195,-0.9298714,-4.018527,-2.876583,0.5413753,1.319901,0.4918575,-1.539989,-0.04671806,0,3.5,-0.3143293,-0.2689286,0.9550647,-0.5050318,-4.381575,0.1722043,0.6692349,1.474294,0.3880389,-0.2252277,-0.2671044,-0.2415502,-1.036284,0.3840364,0.04933826,0.8221906,1.535027,0.2391253,0.349134,1.220803,0.2521267,302.293,164.093,53.00441,True
3,0.5444446,-0.8798504,0.4368519,-1.588856,-0.9143341,-4.029932,-2.859975,0.54031,1.323799,0.4914379,-1.540518,-0.0477721,0,3.5,-0.3185923,-0.2657213,0.9540416,-0.4951717,-4.391242,0.1843688,0.6703501,1.475444,0.3870878,-0.2147849,-0.3042708,-0.2641912,-1.040256,0.3791698,0.05398653,0.823549,1.534613,0.2380126,0.3451112,1.226782,0.2525062,303.1433,163.4107,53.95925,True
3,0.5555557,-0.8840523,0.4178115,-1.573789,-0.8993927,-4.040892,-2.843413,0.5391393,1.327637,0.4909375,-1.540502,0.001916364,0,3.5,-0.3208036,-0.3136514,0.9559979,-0.4857813,-4.406129,0.201111,0.6716688,1.47663,0.3861375,-0.2129465,-0.3222148,-0.2994444,-1.04485,0.3747133,0.05858395,0.8247169,1.534323,0.2370257,0.3411026,1.233151,0.2529073,303.8196,162.5252,55.44665,True
3,0.5666668,-0.8882972,0.4029703,-1.566188,-0.8845152,-4.052506,-2.826202,0.5380709,1.33146,0.4904237,-1.540922,-0.03839088,0,3.5,-0.3144009,-0.3243321,0.9601725,-0.4760843,-4.419274,0.2160082,0.6728425,1.477795,0.385205,-0.2088174,-0.3167989,-0.3165045,-1.049122,0.3713214,0.06243515,0.8258547,1.533961,0.2360091,0.3374218,1.239909,0.2533348,304.3972,161.4884,57.2145,True
3,0.577778,-0.887165,0.3701048,-1.547817,-0.8698577,-4.063074,-2.809701,0.5370356,1.335272,0.4896357,-1.541026,-0.009016816,0.4,26.4,-0.3083188,-0.3924077,0.9300272,-0.4686061,-4.437864,0.2355942,0.6741419,1.478732,0.3841465,-0.19822,-0.3071748,-0.3250672,-1.053147,0.3680859,0.06577902,0.8269976,1.533586,0.2350368,0.334158,1.247021,0.2537021,304.9411,160.2616,59.07196,True
3,0.5888891,-0.8871269,0.35853,-1.53813,-0.8553711,-4.075322,-2.791987,0.5361498,1.339172,0.4891424,-1.541045,-0.001597896,0.4,26.4,-0.305328,-0.4371047,0.9138367,-0.4609037,-4.456936,0.2559591,0.6754365,1.479836,0.3831372,-0.1981838,-0.2997135,-0.3186681,-1.056895,0.3652219,0.06960171,0.8281518,1.533212,0.2340529,0.3312546,1.254402,0.2538653,305.4504,158.852,60.98418,True
3,0.6000003,-0.8860478,0.3564678,-1.529592,-0.8412234,-4.087889,-2.773937,0.5351455,1.342904,0.4885283,-1.541332,-0.02619592,0.4,26.4,-0.3034206,-0.4721557,0.8891918,-0.4538639,-4.476257,0.2765621,0.6766446,1.480726,0.3821421,-0.1927745,-0.2827095,-0.310108,-1.06016,0.362661,0.07273572,0.8291961,1.532957,0.233176,0.3286637,1.261949,0.2537566,305.9601,157.3328,62.93217,True
3,0.6111114,-0.8892016,0.3545494,-1.506129,-0.8281754,-4.100617,-2.755613,0.5344205,1.346486,0.4878769,-1.541446,-0.0101495,0.4,26.4,-0.3344918,-0.4634824,0.8638691,-0.4470361,-4.49237,0.2959172,0.6777736,1.481603,0.3812439,-0.194836,-0.2709846,-0.3026148,-1.063729,0.360427,0.07598185,0.8301196,1.532542,0.2321029,0.3263843,1.269521,0.2533514,306.5077,155.7708,64.85294,True
3,0.6222225,-0.8923758,0.3546726,-1.490146,-0.8149257,-4.114045,-2.736437,0.5334842,1.350186,0.4872477,-1.541539,-0.008306841,0.4,26.4,-0.3546246,-0.4091273,0.8663562,-0.4386066,-4.505224,0.3122056,0.678793,1.482512,0.3803174,-0.1883987,-0.2646225,-0.2973076,-1.067063,0.3576131,0.07922745,0.8311055,1.532182,0.2311924,0.324405,1.277031,0.2527997,307.1253,154.1809,66.65337,True
3,0.6333337,-0.8933899,0.3506403,-1.461351,-0.8024157,-4.12743,-2.717184,0.5327251,1.353909,0.4865758,-1.541566,-0.002422814,0.4,26.4,-0.3632022,-0.3920401,0.8579513,-0.4310347,-4.521206,0.3311068,0.6798846,1.48346,0.3794332,-0.1808586,-0.264621,-0.2867683,-1.070617,0.3551023,0.08213508,0.8322879,1.531867,0.2301764,0.3225922,1.284412,0.2521447,307.7484,152.635,68.36398,True
3,0.6444448,-0.892292,0.339181,-1.428225,-0.7903463,-4.140646,-2.697919,0.5320551,1.35757,0.4857886,-1.54138,0.0171277,0.9,34.9,-0.3537948,-0.3738219,0.8270657,-0.4245164,-4.535822,0.3480387,0.6808677,1.48436,0.3785386,-0.1786893,-0.2699766,-0.2825325,-1.073745,0.3517441,0.08561983,0.8329102,1.531363,0.2293522,0.3209211,1.291603,0.2514639,308.364,151.2383,69.9447,True
3,0.655556,-0.890033,0.3256506,-1.397243,-0.7787866,-4.154002,-2.678876,0.531361,1.361114,0.4851201,-1.541444,-0.00599953,0.9,34.9,-0.3475166,-0.3673722,0.8089381,-0.4179634,-4.552148,0.3665362,0.6818633,1.485266,0.3775079,-0.181957,-0.2741913,-0.2910548,-1.077603,0.3484997,0.08932695,0.8339181,1.530878,0.2285068,0.3192634,1.298619,0.2507532,309.0388,150.0277,71.32607,True
3,0.6666671,-0.8878714,0.318322,-1.376948,-0.7673377,-4.167653,-2.659337,0.5308318,1.364721,0.484334,-1.541511,-0.006009962,0.9,34.9,-0.3549533,-0.3652573,0.8143172,-0.410897,-4.569946,0.3871086,0.6828403,1.486345,0.3765755,-0.1927044,-0.2699209,-0.3047533,-1.081367,0.3449875,0.09343328,0.8347358,1.530364,0.2277415,0.3176478,1.305502,0.2500571,309.7172,149.0416,72.54165,True
3,0.6777782,-0.8834656,0.3081165,-1.346014,-0.7565615,-4.181796,-2.639885,0.5301704,1.368262,0.4835243,-1.541996,-0.0442959,0.9,34.9,-0.3560312,-0.3609669,0.8100891,-0.4042455,-4.587287,0.4069438,0.6838034,1.48716,0.3756132,-0.2045064,-0.2677377,-0.3152976,-1.085386,0.3421211,0.09745599,0.8356253,1.529982,0.2269835,0.3161121,1.312274,0.2493672,310.3831,148.1752,73.69972,True
3,0.6888894,-0.8780884,0.2987979,-1.315054,-0.7463248,-4.195417,-2.620536,0.5297617,1.371532,0.482635,-1.541894,0.009755194,3.5,71.5,-0.3699301,-0.3523812,0.800631,-0.3980052,-4.604381,0.4271931,0.6847311,1.488189,0.3745804,-0.208765,-0.2496744,-0.3183267,-1.088817,0.3394904,0.100974,0.8363831,1.529748,0.2262816,0.3147033,1.318932,0.2487124,311.0393,147.3367,74.83676,True
3,0.7000005,-0.8737702,0.2809333,-1.284026,-0.7363645,-4.208366,-2.601516,0.5292168,1.374773,0.4818685,-1.542418,-0.04803909,3.5,71.5,-0.381436,-0.3204803,0.8210975,-0.3901163,-4.621031,0.4471242,0.6856554,1.488914,0.3735852,-0.2097354,-0.2348109,-0.3065297,-1.091954,0.3375526,0.1042409,0.8371736,1.529357,0.22544,0.3134038,1.325514,0.2480302,311.7075,146.5685,75.89969,True
3,0.7111117,-0.8726537,0.2749088,-1.246684,-0.7271032,-4.222445,-2.581487,0.5289453,1.377913,0.4810178,-1.54178,0.05811107,3.5,71.5,-0.3844839,-0.2896373,0.8350916,-0.3822978,-4.637426,0.4667099,0.6864982,1.489785,0.372613,-0.2042644,-0.2179011,-0.291538,-1.094573,0.3350896,0.10727,0.8381561,1.529199,0.2246571,0.3121747,1.332025,0.2473057,312.3526,145.7677,76.98631,True
3,0.7222228,-0.8704991,0.2814843,-1.223301,-0.7182343,-4.237032,-2.561045,0.528463,1.381072,0.4802995,-1.540667,0.1000736,3.5,71.5,-0.3673392,-0.2470652,0.8383565,-0.3744532,-4.652226,0.4839097,0.6872933,1.490612,0.3716681,-0.2042415,-0.206193,-0.2893517,-1.097878,0.3333611,0.11031,0.8388857,1.528879,0.2239358,0.3110791,1.338371,0.2465764,312.9532,144.951,78.12231,True
3,0.7333339,-0.8629762,0.2914261,-1.182921,-0.7104089,-4.251742,-2.54077,0.5281674,1.384107,0.4794855,-1.539017,0.1485254,5,99.9,-0.3589204,-0.223556,0.8181453,-0.368019,-4.666841,0.5012496,0.6880373,1.491354,0.3708048,-0.2020761,-0.2030559,-0.2861364,-1.10103,0.3308408,0.113538,0.8398381,1.528545,0.2232277,0.3101035,1.344472,0.245838,313.5462,144.1625,79.19892,True
3,0.7444451,-0.8522682,0.293954,-1.131811,-0.7035459,-4.265515,-2.521271,0.5278981,1.3871,0.4787359,-1.537032,0.1786223,5,99.9,-0.3515421,-0.2160906,0.8074608,-0.3616652,-4.684213,0.5211511,0.688844,1.492261,0.3699503,-0.204131,-0.1924406,-0.2775528,-1.104012,0.3291911,0.1165895,0.8405256,1.52824,0.2223418,0.3092093,1.350325,0.2450889,314.1597,143.4717,80.12209,True
3,0.7555562,-0.8457831,0.2837418,-1.085934,-0.6967133,-4.279103,-2.501872,0.5274712,1.390057,0.4779866,-1.534794,0.2009213,5,99.9,-0.3347181,-0.2287944,0.7785273,-0.3565595,-4.702523,0.5413911,0.6896294,1.492943,0.3690066,-0.1976604,-0.1754594,-0.2700548,-1.10682,0.3277146,0.1191,0.841483,1.52788,0.2215772,0.3082836,1.35598,0.2443444,314.7819,142.8535,80.90063,True
3,0.7666674,-0.8404387,0.2775698,-1.053929,-0.6898322,-4.293042,-2.481739,0.5272676,1.393047,0.4771855,-1.531749,0.2741151,5,99.9,-0.3232816,-0.2638751,0.7505985,-0.3523655,1.558601,0.5654362,0.69059,1.493684,0.3681602,-0.1890524,-0.1638097,-0.2594058,-1.109508,0.3262714,0.1216202,0.8424093,1.527632,0.2208672,0.3073184,1.361461,0.2436688,315.3379,142.3341,81.61131,True
3,0.7777785,-0.8243737,0.2693954,-1.017676,-0.6836367,-4.306625,-2.462724,0.5269361,1.395929,0.4764705,-1.527879,0.3482733,5,99.9,-0.3180852,-0.280861,0.7345178,-0.3479106,1.537331,0.5887991,0.6914333,1.494388,0.3673661,-0.1804866,-0.1563808,-0.2541084,-1.112321,0.3249977,0.1239377,0.843201,1.527335,0.2202218,0.3062949,1.366752,0.243094,315.8321,141.8703,82.31096,True
3,0.7888896,-0.8093419,0.2494873,-0.9834832,-0.6773143,-4.319816,-2.444046,0.5269271,1.398759,0.4756205,-1.522998,0.4398748,11.4,100,-0.3106636,-0.2883551,0.734427,-0.3430961,1.514503,0.613608,0.6922376,1.495262,0.366518,-0.1739931,-0.154322,-0.2413528,-1.114655,0.3233771,0.1263667,0.8439864,1.527034,0.2195275,0.3051478,1.371832,0.2425995,316.3259,141.4759,82.97457,True
3,0.8000008,-0.7996953,0.2155876,-0.9597969,-0.6705669,-4.331765,-2.426007,0.5266687,1.401572,0.4747405,-1.518747,0.3809394,11.4,100,-0.3106613,-0.2884035,0.7354873,-0.3382417,1.491192,0.639082,0.6929758,1.495948,0.3655145,-0.1655478,-0.1585368,-0.2510259,-1.117973,0.3217674,0.1286461,0.8446726,1.526862,0.2188616,0.3038981,1.376717,0.2421959,316.8372,141.2214,83.53058,True
3,0.8111119,-0.7836742,0.1774284,-0.9360697,-0.663754,-4.343249,-2.408635,0.52651,1.404379,0.473645,-1.513114,0.507497,11.4,100,-0.3203818,-0.2744576,0.7142997,-0.3340605,1.471333,0.6618056,0.6937966,1.496681,0.3645871,-0.1676823,-0.1638693,-0.251027,-1.120993,0.3198745,0.1314707,0.8453443,1.526561,0.2181814,0.302568,1.381393,0.2419345,317.3115,141.0254,84.05377,True
3,0.8222231,-0.7740353,0.1456185,-0.917726,-0.6570343,-4.354475,-2.391431,0.5262471,1.407134,0.4726794,-1.506274,0.6160146,11.4,100,-0.3193115,-0.2563416,0.7090399,-0.3294106,1.450749,0.6847778,0.6943662,1.497225,0.3637831,-0.1634134,-0.1574804,-0.2510361,-1.124039,0.3185494,0.1336702,0.8459898,1.526375,0.2175252,0.3011874,1.385807,0.2418047,317.7578,140.9162,84.5659,True
3,0.8333342,-0.7430797,0.08514762,-0.8863829,-0.649954,-4.363281,-2.376983,0.526127,1.409596,0.4716873,-1.49939,0.6188124,11.4,100,-0.3150632,-0.2232816,0.6984976,-0.324576,1.432326,0.7055723,0.6950167,1.497857,0.3628659,-0.1559305,-0.1521773,-0.2478709,-1.126836,0.3172449,0.1357376,0.8466029,1.526009,0.2168906,0.2996765,1.389932,0.2416645,318.2014,140.8853,85.03172,True
3,0.8444453,-0.7324058,0.05970386,-0.8702089,-0.6434037,-4.373765,-2.360727,0.526041,1.412168,0.4707143,-1.491565,0.7044529,30.3,95.6,-0.3193017,-0.195584,0.6996975,-0.3196172,1.41302,0.7277812,0.6958038,1.498361,0.3620632,-0.1526955,-0.1436743,-0.2435975,-1.129553,0.3162131,0.137728,0.8472121,1.52577,0.2163112,0.2980471,1.393731,0.2414478,318.6522,140.938,85.39693,True
3,0.8555565,-0.7142523,0.03542933,-0.843398,-0.6372992,-4.383222,-2.345842,0.5258839,1.414626,0.4698136,-1.483951,0.6840177,30.3,95.6,-0.3224351,-0.1678805,0.7009024,-0.3144644,1.394096,0.7494066,0.6964332,1.498876,0.3612075,-0.1483526,-0.1341337,-0.232932,-1.13186,0.3153651,0.1396458,0.8477818,1.525488,0.2157547,0.2963654,1.39715,0.2412158,319.0915,141.0261,85.68262,True
3,0.8666676,-0.7014281,0.01320839,-0.8230007,-0.6311138,-4.392599,-2.331,0.5258929,1.416943,0.4688494,-1.474443,0.8568191,30.3,95.6,-0.3129411,-0.1550468,0.684913,-0.310343,1.375268,0.7704565,0.6972221,1.499476,0.360337,-0.1439204,-0.1278489,-0.2116255,-1.133557,0.3142439,0.1415795,0.8482565,1.525296,0.2151864,0.2947333,1.400062,0.2410476,319.5129,141.1439,85.902,True
3,0.8777788,-0.6725631,-0.01732954,-0.7780727,-0.6252702,-4.400057,-2.318398,0.5257443,1.419196,0.4679682,-1.465244,0.8269231,30.3,95.6,-0.2906845,-0.1561364,0.6666523,-0.3068063,1.353974,0.7931464,0.6975819,1.500124,0.359478,-0.1340783,-0.1162782,-0.1807563,-1.134687,0.3134226,0.1430615,0.8487891,1.525182,0.2145298,0.2930524,1.402556,0.2409098,319.9501,141.3857,85.89711,True
3,0.8888899,-0.6586815,-0.02991146,-0.7524137,-0.619684,-4.408807,-2.304326,0.5257769,1.421486,0.4670136,-1.455088,0.9142405,47.1,97.1,-0.2812205,-0.1486375,0.6506305,-0.3032488,1.334438,0.814739,0.698313,1.500785,0.3586056,-0.1361337,-0.1184523,-0.1711718,-1.136598,0.3121547,0.1451995,0.8493298,1.52496,0.2139246,0.2912953,1.404711,0.2408482,320.3624,141.6964,85.78297,True
3,0.900001,-0.6341366,-0.0477545,-0.7213985,-0.6143391,-4.416488,-2.291848,0.5256524,1.4237,0.4660587,-1.445136,0.8947044,47.1,97.1,-0.2664393,-0.1378883,0.6271549,-0.2997676,1.316616,0.8343031,0.6988867,1.501287,0.3578389,-0.1393625,-0.1195007,-0.1743413,-1.138806,0.3109925,0.1474089,0.8498332,1.524785,0.2132037,0.28946,1.406585,0.240888,320.7477,142.0812,85.63029,True
3,0.9111122,-0.6170734,-0.06041521,-0.7053337,-0.608797,-4.424784,-2.278681,0.5256498,1.425851,0.4652472,-1.433776,1.023366,47.1,97.1,-0.2601938,-0.1368296,0.6089973,-0.2970937,1.296452,0.8562798,0.6993368,1.501974,0.3570304,-0.1383001,-0.1173628,-0.174345,-1.140946,0.3100951,0.1493221,0.8501915,1.524533,0.2126093,0.2875273,1.408212,0.2410374,321.0938,142.5059,85.44963,True
3,0.9222233,-0.590389,-0.07936683,-0.6796544,-0.6032693,-4.431941,-2.267135,0.5256076,1.42788,0.4642787,-1.423128,0.9570407,47.1,97.1,-0.2570897,-0.1282359,0.5930379,-0.2939677,1.277944,0.8768336,0.6999155,1.502346,0.3562601,-0.130801,-0.1099254,-0.1690572,-1.14297,0.3094313,0.150851,0.8507997,1.524275,0.2119584,0.2854638,1.409708,0.2412626,321.4288,143.0384,85.18869,True
3,0.9333345,-0.554096,-0.1046477,-0.6443472,-0.5978711,-4.437847,-2.257221,0.5257512,1.429758,0.4633253,-1.411427,1.053726,47.1,97.1,-0.2518175,-0.118622,0.584521,-0.2909136,1.258793,0.8978792,0.7006835,1.502813,0.3553934,-0.127638,-0.1077762,-0.1733334,-1.145192,0.3085621,0.1525192,0.8512796,1.524091,0.2113814,0.2832853,1.411129,0.2415974,321.7567,143.5693,84.94078,True
3,0.9444456,-0.5381044,-0.106628,-0.6262312,-0.5929582,-4.445272,-2.245506,0.5257205,1.431721,0.4623988,-1.40026,1.003941,56.9,86.4,-0.2485904,-0.1100943,0.5856144,-0.2875085,1.238534,0.91996,0.7013028,1.503195,0.3546255,-0.1254971,-0.1035032,-0.1722715,-1.147247,0.308036,0.1540489,0.8517623,1.523877,0.2108405,0.281049,1.412505,0.2421037,322.0733,144.1153,84.72619,True
3,0.9555568,-0.5146152,-0.1149098,-0.5974438,-0.5881889,-4.451609,-2.235308,0.5256329,1.43361,0.4615951,-1.388995,1.01336,56.9,86.4,-0.214656,-0.1036601,0.5630371,-0.2848831,1.221341,0.9376291,0.7017106,1.503688,0.3537996,-0.1265232,-0.09819786,-0.1679785,-1.149102,0.3073385,0.1557403,0.8521228,1.523739,0.2103388,0.2787949,1.413808,0.242755,322.337,144.6728,84.60261,True
3,0.9666679,-0.4943385,-0.1200347,-0.5739934,-0.5835977,-4.457829,-2.225365,0.5255445,1.435458,0.4607232,-1.376507,1.125107,56.9,86.4,-0.2159377,-0.09286146,0.5311348,-0.2826402,1.205737,0.9553045,0.7021388,1.504148,0.3528464,-0.1306532,-0.09079856,-0.1498129,-1.15036,0.3070569,0.1576368,0.8525614,1.523697,0.2096713,0.276585,1.414962,0.2435402,322.5702,145.239,84.50661,True
3,0.977779,-0.4623202,-0.1282281,-0.5345535,-0.579424,-4.462663,-2.217211,0.5256256,1.43714,0.4598057,-1.365158,1.020205,56.9,86.4,-0.222416,-0.06506205,0.5089328,-0.279585,1.191075,0.9719919,0.7024718,1.504593,0.3519483,-0.1304315,-0.07707521,-0.1231209,-1.150955,0.3067334,0.1591423,0.852926,1.523592,0.209022,0.2743071,1.416046,0.2443431,322.8177,145.8363,84.31873,True
3,0.9888902,-0.4431221,-0.1270035,-0.5164775,-0.5752758,-4.468687,-2.207899,0.525579,1.438841,0.4589548,-1.353698,1.031483,56.9,86.4,-0.2193151,-0.04263815,0.4930105,-0.276761,1.176973,0.9880277,0.7027843,1.504962,0.3511119,-0.1303391,-0.07497019,-0.1103397,-1.151941,0.3065466,0.1607431,0.8533291,1.523494,0.2084408,0.271999,1.417077,0.2451776,323.0515,146.4212,84.10758,True
3,1.000001,-0.4153875,-0.1225209,-0.4899233,-0.5714627,-4.474141,-2.199605,0.5255095,1.440454,0.4580674,-1.342841,0.9762755,64.4,91,-0.2075971,-0.008524179,0.4834948,-0.2730582,1.163243,1.003126,0.703051,1.505388,0.3502579,-0.1322817,-0.0686963,-0.08685833,-1.152279,0.3058884,0.1625527,0.8536395,1.523412,0.2077351,0.2697042,1.418057,0.246027,323.2411,147.0317,83.91347,True
3,1.011112,-0.3983203,-0.1170703,-0.474013,-0.5676597,-4.480103,-2.19063,0.5256718,1.441932,0.4572108,-1.331527,1.018957,64.4,91,-0.2011461,0.02767518,0.4846631,-0.2689761,1.148809,1.019149,0.7034547,1.505829,0.3493834,-0.1289304,-0.05809387,-0.0655485,-1.15249,0.3063499,0.1639061,0.8541007,1.523242,0.2070835,0.2675211,1.418931,0.2468963,323.4025,147.6374,83.75748,True
3,1.022224,-0.3769853,-0.1211607,-0.4548328,-0.5638881,-4.485206,-2.182848,0.5256187,1.443437,0.456346,-1.321102,0.9373629,64.4,91,-0.1819144,0.04254897,0.4877971,-0.2652221,1.13255,1.036207,0.7038188,1.506207,0.3486676,-0.1160389,-0.04964971,-0.05282392,-1.152779,0.3059336,0.1649296,0.8541875,1.52315,0.2064929,0.2653929,1.419736,0.2477245,323.594,148.2207,83.57056,True
3,1.033335,-0.3503221,-0.1327176,-0.4366624,-0.5599775,-4.489752,-2.175881,0.5257263,1.444804,0.4555547,-1.310334,0.9698722,64.4,91,-0.1521842,0.04042184,0.475865,-0.2624806,1.117577,1.051498,0.7042266,1.506613,0.3479404,-0.108482,-0.04758063,-0.04116017,-1.153007,0.3054531,0.1659882,0.8544761,1.523096,0.2059257,0.2633499,1.420484,0.2485233,323.7792,148.7765,83.37849,True
3,1.044446,-0.3417817,-0.13797,-0.4270382,-0.5561399,-4.494696,-2.168168,0.5259548,1.446234,0.4546955,-1.300536,0.8809915,68,88.5,-0.150157,0.02661704,0.4651377,-0.2603458,1.101294,1.068959,0.704661,1.507083,0.3470764,-0.1084801,-0.0454621,-0.04114615,-1.153523,0.3048897,0.1674409,0.8547031,1.523027,0.205308,0.2614427,1.421189,0.2493081,323.9663,149.3302,83.18299,True
3,1.055557,-0.334313,-0.1347444,-0.4238893,-0.5523364,-4.500527,-2.15979,0.5260453,1.447594,0.4539371,-1.291097,0.8491976,68,88.5,-0.1406247,0.004255235,0.4617905,-0.2585258,1.082865,1.088013,0.7050819,1.507306,0.3463769,-0.1021738,-0.05713588,-0.05190428,-1.154632,0.3039105,0.1686828,0.8549819,1.522901,0.2047157,0.2596382,1.421867,0.2500434,324.1516,149.8299,83.0174,True
3,1.066668,-0.3311254,-0.1208703,-0.4186752,-0.5490772,-4.50657,-2.151009,0.5262821,1.448897,0.4531581,-1.281263,0.8858841,68,88.5,-0.1299829,0.002110556,0.4606451,-0.2562707,1.065131,1.106223,0.7054839,1.507607,0.3456461,-0.09160505,-0.07418186,-0.06271151,-1.155875,0.3019103,0.1700735,0.8549726,1.522805,0.2042162,0.2580103,1.422472,0.2507803,324.3317,150.3045,82.86937,True
3,1.077779,-0.3364824,-0.08355239,-0.4136385,-0.5468743,-4.514038,-2.140759,0.5264577,1.450201,0.45257,-1.272319,0.8046125,68,88.5,-0.1150195,0.02230492,0.4638245,-0.2530951,1.048381,1.123281,0.7058768,1.507782,0.3450184,-0.07667959,-0.07206703,-0.06175348,-1.156648,0.3012239,0.1706998,0.8550948,1.522767,0.2037332,0.2565145,1.423056,0.2514568,324.5377,150.7977,82.67429,True
3,1.08889,-0.3354387,-0.06545821,-0.4137764,-0.5441893,-4.521022,-2.13111,0.5266595,1.451593,0.4518421,-1.263555,0.7891135,68,88.5,-0.09684186,0.02435616,0.474357,-0.2505108,1.029099,1.142457,0.7062892,1.508193,0.3443534,-0.0435288,-0.05513703,-0.04702121,-1.156833,0.3007642,0.1703454,0.8552805,1.522691,0.2032447,0.2550961,1.423702,0.2520572,324.7688,151.2477,82.463,True
3,1.100002,-0.3482329,-0.05052477,-0.4096155,-0.5418398,-4.528149,-2.120727,0.5268713,1.453041,0.451246,-1.255109,0.7603185,67.8,72.6,-0.06062508,0.007098228,0.4783076,-0.2496634,1.00591,1.163785,0.7068545,1.50702,0.3422537,-0.01781845,-0.04884825,-0.02908177,-1.15663,0.3002932,0.1699587,0.8554153,1.522633,0.2027247,0.2537693,1.424493,0.2526039,324.9778,151.6697,82.24481,True
3,1.111113,-0.3599789,-0.04096678,-0.4117941,-0.5393758,-4.535557,-2.109886,0.5270439,1.454473,0.4506721,-1.247551,0.6797717,67.8,72.6,-0.02571976,-0.04507634,0.4554812,-0.250204,0.9863114,1.182033,0.7077628,1.507441,0.3415952,0.005658146,-0.06380627,-0.02294827,-1.156919,0.2989933,0.1696884,0.855569,1.522676,0.2021737,0.2525032,1.425554,0.2531132,325.1518,152.0483,82.05804,True
3,1.122224,-0.3781038,-0.02290773,-0.4151234,-0.5371521,-4.544188,-2.097593,0.5273774,1.456029,0.4502501,-1.239648,0.7122509,67.8,72.6,0.000844866,-0.1207769,0.4603019,-0.25169,0.9606943,1.206089,0.7082634,1.508711,0.3426583,0.02165486,-0.08621233,-0.01998895,-1.157484,0.2970108,0.1697861,0.8557116,1.522601,0.2015598,0.2513116,1.426924,0.2535869,325.3222,152.3755,81.97572,True
3,1.133335,-0.4100121,0.01758996,-0.4240196,-0.5357838,-4.553894,-2.084023,0.5276956,1.457694,0.4498899,-1.232541,0.6394824,67.8,72.6,0.01138395,-0.1601593,0.4526096,-0.2526701,0.9386272,1.227086,0.7089342,1.50933,0.3425982,0.02918705,-0.1022461,-0.009471245,-1.157524,0.2951394,0.1699587,0.8558159,1.522587,0.2010157,0.2502267,1.428614,0.254028,325.484,152.6434,81.99299,True
3,1.144446,-0.4293237,0.02268276,-0.4356553,-0.5337998,-4.563508,-2.069971,0.5281026,1.459546,0.4494135,-1.225745,0.6119835,64.7,77.2,0.01987866,-0.1953462,0.4587927,-0.2539899,0.9146662,1.249923,0.709712,1.509754,0.3422759,0.0676946,-0.1268843,0.01248283,-1.157055,0.2925297,0.1691302,0.8559369,1.522557,0.2003536,0.2492822,1.430612,0.2544307,325.6522,152.8375,82.09653,True
3,1.155557,-0.4602276,0.008616358,-0.4589493,-0.5306636,-4.573349,-2.055421,0.5284207,1.461582,0.4488654,-1.219368,0.5741922,64.7,77.2,0.03073922,-0.2050791,0.4906456,-0.2543244,0.8867236,1.276224,0.7105725,1.510185,0.3419387,0.08261789,-0.1418243,0.01549547,-1.157077,0.2902499,0.168781,0.85601,1.522585,0.199734,0.2485272,1.432942,0.2548216,325.8318,152.9879,82.20797,True
3,1.166668,-0.4815422,-0.02247143,-0.4799647,-0.5267962,-4.582517,-2.041312,0.5286945,1.46358,0.4483473,-1.213134,0.5616003,64.7,77.2,0.02776164,-0.2201547,0.5310697,-0.2551692,0.8570607,1.304929,0.7114553,1.510637,0.3415294,0.09430154,-0.1652647,0.01315868,-1.157524,0.2873394,0.1686583,0.855953,1.522577,0.1992042,0.2479138,1.43568,0.255156,325.9881,153.099,82.35349,True
3,1.17778,-0.5305344,-0.08897763,-0.5315893,-0.5205873,-4.593431,-2.02427,0.5291196,1.466111,0.447855,-1.20793,0.468376,64.7,77.2,0.01953685,-0.2299166,0.5768983,-0.255934,0.8231063,1.337782,0.7123501,1.511077,0.3410153,0.1005967,-0.1769332,0.00133829,-1.158246,0.2848297,0.1683115,0.8559821,1.522596,0.1986952,0.2474336,1.438838,0.2553373,326.1623,153.1864,82.59764,True
3,1.188891,-0.5646207,-0.1222404,-0.5557761,-0.5154868,-4.603699,-2.007997,0.5294698,1.468346,0.4473219,-1.203655,0.3846311,64.7,77.2,0.02102607,-0.2195319,0.6397814,-0.2559873,0.7859777,1.373549,0.7132151,1.511422,0.3405778,0.1164934,-0.1864529,-0.01262965,-1.158953,0.2822465,0.1678313,0.8560395,1.522571,0.1982083,0.2470999,1.442355,0.2552752,326.4087,153.1689,82.98769,True
3,1.200002,-0.6071956,-0.1876417,-0.6053083,-0.5082249,-4.615891,-1.989455,0.5298991,1.470912,0.4467738,-1.19878,0.440594,61.1,65.9,0.02021879,-0.1972846,0.6718497,-0.2557428,0.7518037,1.406346,0.7141101,1.511831,0.3399985,0.1271261,-0.1896906,-0.01064925,-1.159602,0.2798089,0.1668923,0.8558353,1.5226,0.1977541,0.2469987,1.446083,0.2549647,326.7357,153.0174,83.46596,True
3,1.211113,-0.6433766,-0.2658392,-0.6579444,-0.4998407,-4.628638,-1.970252,0.5303081,1.473753,0.4463263,-1.195983,0.2504604,61.1,65.9,0.006530046,-0.1877754,0.6964806,-0.256285,0.7179568,1.439657,0.7150996,1.51229,0.3395531,0.1356757,-0.191844,-0.006462855,-1.159888,0.277455,0.1661251,0.8557827,1.522692,0.1973679,0.2471702,1.449973,0.2543637,327.1856,152.8385,83.87937,True
3,1.222224,-0.6774459,-0.300105,-0.6725389,-0.4928691,-4.64019,-1.95145,0.530872,1.476645,0.4457002,-1.193055,0.2645385,61.1,65.9,0.001497626,-0.1890059,0.7391416,-0.25737,0.6790981,1.477279,0.7161934,1.512811,0.3389926,0.1485765,-0.1951243,0.009392779,-1.159736,0.274896,0.1651858,0.8557924,1.522732,0.1969709,0.247629,1.453962,0.2534504,327.6425,152.5361,84.32349,True
3,1.233335,-0.725331,-0.3835549,-0.7133886,-0.4831102,-4.653481,-1.930074,0.5314025,1.480189,0.4450717,-1.19085,0.1981989,61.1,65.9,-0.006863415,-0.1901609,0.7636949,-0.2588422,0.641459,1.514029,0.7171791,1.51344,0.3385856,0.1528159,-0.2047074,0.007182958,-1.160202,0.2720426,0.1644704,0.8558294,1.522657,0.1964929,0.2483564,1.458002,0.2522613,328.2377,152.152,84.72157,True
3,1.244446,-0.7455597,-0.4328321,-0.7449375,-0.4739383,-4.66799,-1.908113,0.5320982,1.483537,0.4443097,-1.188554,0.2072943,55.5,58.9,-0.01414704,-0.206243,0.7945741,-0.2612566,0.6025061,1.552132,0.7183847,1.514139,0.3381174,0.1482043,-0.240726,-0.03450559,-1.162627,0.2682076,0.164537,0.8559619,1.522621,0.1961458,0.2493201,1.462092,0.2508502,328.9096,151.7397,85.02473,True
3,1.255558,-0.7604448,-0.5045508,-0.7891161,-0.4631402,-4.684145,-1.884683,0.5327924,1.487285,0.443419,-1.186143,0.2180006,55.5,58.9,-0.01605242,-0.2212988,0.829687,-0.2642591,0.5617402,1.591661,0.719617,1.514882,0.3378177,0.1448096,-0.2565922,-0.0590566,-1.164599,0.2647777,0.1643327,0.8559887,1.522658,0.1958151,0.2504726,1.466282,0.2491826,329.5386,151.3642,85.25311,True
3,1.266669,-0.7859689,-0.5869723,-0.8342535,-0.4513499,-4.701181,-1.859831,0.5338163,1.491281,0.4423833,-1.1855,0.05633314,55.5,58.9,-0.0262391,-0.222658,0.9021794,-0.2673313,0.5157908,1.636701,0.7210199,1.515515,0.337364,0.139309,-0.2650144,-0.08035553,-1.166616,0.2615813,0.1642715,0.8560138,1.522582,0.1955223,0.2517714,1.47063,0.2472387,330.2922,151.017,85.42926,True
3,1.27778,-0.8040454,-0.6533131,-0.8678002,-0.4394653,1.564281,-1.834258,0.5346012,1.495115,0.4414368,-1.184721,0.070405,55.5,58.9,-0.0270474,-0.2430407,0.9425883,-0.2715471,0.4727955,1.678379,0.7223413,1.516177,0.3368778,0.1479157,-0.2618696,-0.07082415,-1.167529,0.2586815,0.1633756,0.8560661,1.52259,0.1952045,0.253263,1.475144,0.2450907,331.1096,150.6048,85.65424,True
3,1.288891,-0.8296036,-0.7496177,-0.9202691,-0.4254714,1.54313,-1.804693,0.5356238,1.4992,0.4401867,-1.18339,0.1205773,55.5,58.9,-0.04591691,-0.2922766,1.005352,-0.2782119,0.4272951,1.723399,0.7239233,1.516899,0.3363013,0.1597584,-0.2630154,-0.05494227,-1.168023,0.2555347,0.162402,0.8561323,1.522494,0.1948667,0.2549279,1.47982,0.2428096,332.0028,150.1592,85.88994,True
3,1.300002,-0.849824,-0.8405439,-0.9653189,-0.4108288,1.52078,-1.77406,0.5364615,1.503548,0.4388804,-1.182668,0.06459625,48,61.3,-0.05305022,-0.2980127,1.055423,-0.2849854,0.3817021,1.767299,0.7257411,1.516311,0.3342438,0.1885875,-0.27799,-0.04565079,-1.168779,0.2516907,0.1608059,0.8561704,1.52242,0.1944883,0.2567975,1.484616,0.2404498,332.939,149.7043,86.15817,True
3,1.311113,-0.8647068,-0.9314449,-1.011462,-0.395652,1.495459,-1.74077,0.5375021,1.508164,0.4374588,-1.181381,0.1168773,48,61.3,-0.07272011,-0.2919801,1.142922,-0.2912785,0.3310734,1.817306,0.7271706,1.51741,0.3334534,0.1917201,-0.3035254,-0.05218972,-1.170288,0.2473591,0.1602315,0.8561257,1.522357,0.1942015,0.2587828,1.489452,0.2380124,333.8945,149.1748,86.51886,True
3,1.322224,-0.8742884,-1.002073,-1.048148,-0.3803574,1.467668,-1.704798,0.5385588,1.512785,0.4360497,-1.181069,0.02731387,48,61.3,-0.07959497,-0.29549,1.213268,-0.2990613,0.2817455,1.865318,0.7285209,1.51904,0.3341892,0.1746144,-0.3237307,-0.05854998,-1.171959,0.2429413,0.160636,0.8561527,1.522333,0.1939461,0.2608114,1.494261,0.2354326,334.9607,148.7102,86.84485,True
3,1.333336,-0.8869822,-1.128277,-1.111099,-0.3621079,1.433477,-1.662842,0.5398244,1.517639,0.4344764,-1.18099,0.006903263,48,61.3,-0.09586692,-0.2916944,1.329505,-0.3077304,0.226388,1.919815,0.7299426,1.520063,0.333427,0.1768316,-0.3184559,-0.04788901,-1.172642,0.2393995,0.1600118,0.8562232,1.522284,0.1936572,0.2628279,1.499013,0.2326804,336.1069,148.2919,87.05724,True
3,1.344447,-0.8943554,-1.259769,-1.167593,-0.3427829,1.394776,-1.616374,0.5411572,1.522627,0.4328716,-1.180503,0.04430464,48,61.3,-0.1258311,-0.2580793,1.459817,-0.3166088,0.167491,1.978441,0.7313364,1.521401,0.3331079,0.2025247,-0.3110858,-0.03207272,-1.172867,0.2360912,0.1581569,0.8561423,1.522287,0.1934402,0.2648881,1.503687,0.2298352,337.2955,147.9129,87.16433,True
3,1.355558,-0.901746,-1.36564,-1.217901,-0.3241296,1.350324,-1.564214,0.5424536,1.527596,0.4312849,-1.180406,0.008392133,37.2,47.3,-0.1551405,-0.2167748,1.527308,-0.32558,0.1133404,2.032661,0.7327557,1.522383,0.3324006,0.2088332,-0.309973,-0.04277047,-1.174246,0.2326346,0.1569622,0.8561755,1.522187,0.1931784,0.2670291,1.508247,0.2269746,338.5358,147.5447,87.2553,True
3,1.366669,-0.8974718,-1.41274,-1.24521,-0.3076377,1.301936,-1.508426,0.5438172,1.532528,0.4297137,-1.180174,0.0209232,37.2,47.3,-0.1925408,-0.1511549,1.651422,-0.3354187,0.05245122,2.093739,0.73406,1.523948,0.3315251,0.1870598,-0.3310002,-0.1002221,-1.177987,0.2283658,0.1573566,0.8562206,1.522151,0.1930277,0.2692898,1.512599,0.2241765,339.9526,147.2056,87.33543,True
3,1.37778,-0.8719063,-1.421407,-1.269723,-0.2931379,1.24658,-1.446959,0.5452302,1.537575,0.4281073,-1.179989,0.01659189,37.2,47.3,-0.2250872,-0.1183101,1.712517,-0.3465311,-0.0006126602,2.147275,0.7352679,1.525276,0.3303978,0.1591048,-0.3318976,-0.1330351,-1.181128,0.2248576,0.1578541,0.8562483,1.522045,0.1927063,0.2716337,1.516694,0.2214463,341.4625,146.8873,87.34959,True
3,1.388891,-0.8357346,-1.399232,-1.298719,-0.2807781,1.183815,-1.378692,0.5469402,1.542686,0.4263253,-1.180202,-0.01959473,37.2,47.3,-0.2660265,-0.03754562,1.783444,-0.3572764,-0.05721961,2.205032,0.7365152,1.526589,0.3291416,0.1279723,-0.3040341,-0.1646236,-1.184435,0.2227834,0.1582895,0.8562413,1.52197,0.192528,0.2739745,1.520578,0.2187452,342.9452,146.5897,87.26102,True
3,1.400002,-0.8198416,-1.355762,-1.327842,-0.2709655,1.11537,-1.304249,0.5485015,1.547893,0.4248743,-1.181258,-0.09639993,26.1,39.4,-0.215453,0.1049867,1.819949,-0.3657878,-0.1163695,2.261111,0.7374701,1.527579,0.3275175,0.1184637,-0.2444018,-0.1589407,-1.18608,0.2222444,0.1573694,0.8561782,1.521945,0.1923084,0.2762642,1.524379,0.21606,344.3477,146.33,87.06571,True
3,1.411114,-0.7932561,-1.315531,-1.362285,-0.2629243,1.040818,-1.224391,0.5501503,1.55307,0.4232543,-1.181639,-0.03408654,26.1,39.4,-0.1637396,0.2292809,1.882974,-0.3758706,-0.1764204,2.317406,0.7383054,1.528573,0.3262258,0.08237608,-0.2050289,-0.1456876,-1.187444,0.221273,0.1578237,0.8560288,1.521937,0.1921537,0.2784668,1.52828,0.213446,345.735,146.1096,86.798,True
3,1.422225,-0.7677438,-1.287945,-1.380642,-0.2564645,0.9626912,-1.141179,0.5516305,1.558193,0.4217052,-1.180862,0.0711071,26.1,39.4,-0.1560589,0.2462271,1.913884,-0.3892365,-0.2252671,2.364512,0.7392471,1.529702,0.3248956,0.04312806,-0.2061773,-0.1240801,-1.188536,0.2188093,0.1595183,0.8559227,1.52193,0.19186,0.2805888,1.532485,0.2109886,347.139,145.9247,86.51817,True
3,1.433336,-0.7103842,-1.239062,-1.403429,-0.2529204,0.8821294,-1.057031,0.553376,1.563362,0.4198759,-1.181146,-0.02674987,26.1,39.4,-0.163937,0.1590581,1.873083,-0.4042865,-0.258216,2.396891,0.739988,1.530932,0.3237967,0.02503847,-0.215771,-0.1207877,-1.19021,0.2160995,0.1608618,0.8558211,1.521898,0.1915662,0.2826102,1.537198,0.2087355,348.5055,145.7388,86.3273,True
3,1.444447,-0.633765,-1.188001,-1.422024,-0.2516666,0.8008546,-0.973784,0.5549944,1.568293,0.4180546,-1.181168,-0.002019095,26.1,39.4,-0.1703771,-0.04071558,1.762541,-0.4210287,-0.270942,2.410592,0.7406635,1.532126,0.3225746,-0.002825052,-0.2284401,-0.1408743,-1.19305,0.2133404,0.1627593,0.855689,1.521834,0.1911886,0.2845294,1.542484,0.2066766,349.8154,145.552,86.36221,True
3,1.455558,-0.5453528,-1.152918,-1.44911,-0.252342,0.7170743,-0.8897454,0.556486,1.573054,0.4160724,-1.182372,-0.1103831,17.8,38.5,-0.16379,-0.1969162,1.673425,-0.4376607,-0.2832401,2.423176,0.7411473,1.533254,0.3214281,-0.03276993,-0.2208946,-0.1565836,-1.195678,0.211363,0.1647916,0.8555027,1.521747,0.1908054,0.2863359,1.548277,0.2047825,351.0398,145.4031,86.61032,True
3,1.466669,-0.4815232,-1.135969,-1.469543,-0.2545087,0.633876,-0.8058385,0.5580581,1.577906,0.4141576,-1.183733,-0.1235569,17.8,38.5,-0.1727339,-0.2873406,1.64219,-0.4547832,-0.2983582,2.439118,0.7415881,1.534505,0.320246,-0.06787705,-0.1633502,-0.1539086,-1.197249,0.2119593,0.1664734,0.8552681,1.521735,0.1904144,0.2880532,1.554487,0.2030208,352.1949,145.3136,87.00269,True
3,1.47778,-0.3622984,-1.092331,-1.496698,-0.2595655,0.5544652,-0.7291317,0.5592593,1.582538,0.4120522,-1.184929,-0.1087852,17.8,38.5,-0.1592891,-0.3798473,1.60231,-0.4723137,-0.3098457,2.450585,0.7417117,1.535656,0.3188787,-0.1030171,-0.1175191,-0.1544793,-1.198932,0.2124823,0.1685349,0.8549594,1.521743,0.1900899,0.2896244,1.56095,0.2014317,353.3139,145.1879,87.54517,True
3,1.488891,-0.3048599,-1.067827,-1.501187,-0.265408,0.4799255,-0.6553928,0.5607144,1.587193,0.410136,-1.183921,0.09244296,17.8,38.5,-0.1463529,-0.4465321,1.490072,-0.4870336,-0.3156746,2.456855,0.7416102,1.536924,0.3175774,-0.1466001,-0.08450264,-0.1443984,-1.200235,0.2129799,0.1713504,0.854645,1.521749,0.1896501,0.2909371,1.56747,0.200086,354.4452,145.0541,88.14417,True
3,1.500003,-0.2228768,-1.021956,-1.50593,-0.2733863,0.4120749,-0.5902122,0.5617739,1.591546,0.4083202,-1.186521,-0.2391806,11.1,33.5,-0.1480489,-0.4610013,1.3963,-0.5002722,-0.3237858,2.465743,0.7415407,1.538126,0.3161886,-0.1689368,-0.06532982,-0.1409368,-1.201702,0.2130927,0.173901,0.8542904,1.521825,0.189105,0.2919035,1.5739,0.1989596,355.5617,145.0527,88.68425,True
3,1.511114,-0.1366943,-0.9599391,-1.48198,-0.2818253,0.3543947,-0.5356493,0.562834,1.595948,0.4065316,-1.184217,0.2124236,11.1,33.5,-0.1819221,-0.4647127,1.278243,-0.5115656,-0.3281776,2.472887,0.7410597,1.539734,0.3148661,-0.2349865,-0.03544563,-0.142413,-1.203258,0.214216,0.178313,0.853712,1.521939,0.1885211,0.2924239,1.580172,0.1981188,356.6756,145.1006,89.14317,True
3,1.522225,-0.0834893,-0.9053376,-1.453699,-0.2909706,0.3031591,-0.4872906,0.5638691,1.600199,0.4048383,-1.185134,-0.08657596,11.1,33.5,-0.1908299,-0.422927,1.206021,-0.5227588,-0.3369099,2.482684,0.7405432,1.541193,0.3131571,-0.3148521,-0.01408523,-0.1395645,-1.204687,0.2153573,0.1838966,0.8532937,1.522136,0.1878273,0.292564,1.586219,0.1976089,357.7049,145.3604,89.51954,True
3,1.533336,0.02616572,-0.7587579,-1.391088,-0.3010831,0.2712623,-0.4608941,0.5642873,1.60415,0.4034207,-1.185225,-0.00780757,11.1,33.5,-0.2251158,-0.3725415,1.15962,-0.5333646,-0.3469679,2.495013,0.7397606,1.542835,0.3116186,-0.3519464,-0.002460867,-0.1157805,-1.205083,0.2158551,0.1889057,0.852782,1.522288,0.1872194,0.2923289,1.59205,0.197384,358.6898,145.7094,89.83974,True
3,1.544447,0.07721364,-0.6881509,-1.359742,-0.3114423,0.2353643,-0.4290568,0.5651751,1.608254,0.4018891,-1.184357,0.07880486,11.1,33.5,-0.2581065,-0.3320433,1.163183,-0.5453541,-0.3580821,2.508671,0.739112,1.544404,0.3098369,-0.3890681,0.006011218,-0.09521469,-1.205334,0.2166916,0.1939924,0.852093,1.522456,0.1864655,0.2918048,1.597709,0.1974296,359.5583,146.1639,90.08616,True
3,1.555558,0.1421199,-0.6239558,-1.332641,-0.3220795,0.202516,-0.4015024,0.565762,1.612014,0.400245,-1.186805,-0.2249924,5.7,28.4,-0.2905262,-0.2480609,1.228761,-0.5583009,-0.3760959,2.528438,0.7382065,1.545658,0.3079369,-0.4049156,0.04536527,-0.08104959,-1.205465,0.2186564,0.19825,0.8512009,1.522756,0.1859231,0.2910489,1.603275,0.1976261,0.3150441,146.6856,90.29696,True
3,1.566669,0.1750182,-0.5983078,-1.320081,-0.3329718,0.169392,-0.3728457,0.5666807,1.615829,0.3986382,-1.184568,0.2062381,5.7,28.4,-0.2507948,-0.186493,1.268156,-0.5708129,-0.3925216,2.543862,0.7374036,1.547027,0.3061559,-0.4066752,0.1357398,-0.04011895,-1.203634,0.2235342,0.2009462,0.8501654,1.523019,0.1853087,0.2900849,1.608907,0.1979989,0.928972,147.0972,90.49587,True
3,1.577781,0.2314409,-0.5586779,-1.301311,-0.3441518,0.1405063,-0.3500773,0.5672338,1.619274,0.3970499,-1.184764,-0.02079786,5.7,28.4,-0.09065461,-0.2139856,1.162604,-0.5803172,-0.3978387,2.543799,0.7363297,1.548178,0.3048728,-0.4021376,0.1888476,-0.007939667,-1.201931,0.2273015,0.2039087,0.8491859,1.523302,0.1846454,0.289014,1.614663,0.1985371,1.538188,147.6446,90.76355,True
3,1.588892,0.2761483,-0.5040724,-1.274116,-0.355319,0.1173181,-0.3329074,0.5677984,1.622495,0.3956244,-1.183206,0.1423516,5.7,28.4,0.01773202,-0.3530427,1.001517,-0.5898428,-0.3914724,2.534931,0.7355305,1.549543,0.3035805,-0.4254745,0.1994917,0.005058192,-1.201254,0.2304227,0.2083074,0.8482889,1.523627,0.1839433,0.2879005,1.620535,0.1991642,2.186654,148.2522,91.14709,True
3,1.600003,0.3048286,-0.4336309,-1.260876,-0.3674006,0.09796824,-0.3189868,0.5684715,1.625574,0.3942347,-1.184187,-0.09147162,2.9,23.6,0.04030156,-0.4580595,0.896569,-0.6001753,-0.3863999,2.529775,0.7347364,1.550755,0.3022568,-0.440326,0.2005272,0.01263581,-1.200465,0.2325916,0.2128545,0.8473169,1.523893,0.1831999,0.2868966,1.626475,0.1998361,2.824609,148.9225,91.60505,True
3,1.611114,0.3228695,-0.3450336,-1.241371,-0.3796538,0.08374949,-0.3099672,0.5690671,1.628486,0.392884,-1.183856,0.03089107,2.9,23.6,0.06178975,-0.5716981,0.800074,-0.6106522,-0.3776028,2.521338,0.7340022,1.551763,0.3010433,-0.4496939,0.1876374,0.04245717,-1.198885,0.2344956,0.2175784,0.846467,1.524061,0.1823685,0.286002,1.632432,0.2004989,3.411544,149.4698,92.14661,True
3,1.622225,0.344095,-0.2499982,-1.215518,-0.3917419,0.07403255,-0.3054838,0.5695882,1.631184,0.3916624,-1.182421,0.1299594,2.9,23.6,0.04427421,-0.6353648,0.7466624,-0.6214092,-0.3725965,2.517531,0.7330652,1.552781,0.2994485,-0.4206566,0.1523139,0.07935848,-1.196518,0.2349864,0.2210069,0.8455448,1.524329,0.1815665,0.2852302,1.638361,0.2012028,3.908491,149.9277,92.69897,True
3,1.633336,0.3557274,-0.1452872,-1.176951,-0.4035435,0.06851155,-0.3046497,0.5700312,1.633743,0.3904612,-1.181121,0.1167236,2.9,23.6,-0.0006358624,-0.6127499,0.7119137,-0.6306259,-0.3714192,2.518022,0.7321473,1.55382,0.2978756,-0.404661,0.1224567,0.08334939,-1.195376,0.2350953,0.2249165,0.8446207,1.524527,0.180783,0.2845504,1.644302,0.201903,4.368433,150.392,93.22221,True
3,1.644447,0.3588763,-0.07366851,-1.146626,-0.4150041,0.06328869,-0.3038875,0.5704359,1.636228,0.3893211,-1.179776,0.1206308,2.9,23.6,-0.02320725,-0.5635357,0.6707102,-0.6381056,-0.3712292,2.518963,0.7310678,1.554931,0.2964303,-0.3985502,0.09814441,0.05120978,-1.195945,0.235947,0.2291291,0.8436085,1.524341,0.1799357,0.2839382,1.650322,0.2025505,4.768148,150.8455,93.74932,True
3,1.655559,0.3630919,0.0268372,-1.103753,-0.4263977,0.06338723,-0.3082244,0.5707074,1.638333,0.3882213,-1.177556,0.2003665,2,20.4,-0.03728884,-0.4726835,0.6104774,-0.6432679,-0.3731378,2.521448,0.7298491,1.555797,0.2949574,-0.3914475,0.09409326,0.00639157,-1.197096,0.2372361,0.2327776,0.8426706,1.524617,0.1790659,0.2833903,1.656446,0.203175,5.071468,151.2522,94.32847,True
3,1.66667,0.3620015,0.1177623,-1.056521,-0.4372383,0.06554798,-0.3142144,0.5708857,1.640275,0.3872366,-1.175036,0.227014,2,20.4,-0.08645201,-0.3669297,0.5600824,-0.6473228,-0.3765959,2.526898,0.7285948,1.556798,0.2935293,-0.3863021,0.08996895,-0.01606223,-1.197887,0.2387865,0.2363793,0.8414496,1.524852,0.1783221,0.2828749,1.662669,0.2037835,5.280787,151.6334,94.98135,True
3,1.677781,0.3598776,0.1691933,-1.014316,-0.4476134,0.06554466,-0.3180232,0.5710711,1.642366,0.3862007,-1.172729,0.2070216,2,20.4,-0.1080433,-0.3080207,0.498701,-0.6512979,-0.3782822,2.530185,0.7274131,1.557662,0.2923152,-0.3916697,0.08573371,-0.02136871,-1.198078,0.2396773,0.2405378,0.8404305,1.525128,0.1776314,0.2823785,1.668923,0.2044096,5.433363,152.0155,95.70953,True
3,1.688892,0.3598831,0.2399746,-0.9541496,-0.4573026,0.07034194,-0.3263624,0.5710123,1.644154,0.3852291,-1.169839,0.2606551,2,20.4,-0.1300348,-0.3214139,0.3986539,-0.6546849,-0.3740456,2.528923,0.7262535,1.558742,0.2909715,-0.373203,0.09723094,0.02433771,-1.196084,0.2409865,0.2436939,0.8395494,1.525433,0.1768711,0.2818881,1.675149,0.2050599,5.484217,152.385,96.49261,True
3,1.700003,0.362059,0.28425,-0.8788694,-0.465773,0.07454894,-0.3341844,0.5708022,1.645985,0.3841536,-1.166727,0.28024,2,20.4,-0.1549073,-0.3531094,0.3518336,-0.6596991,-0.3699096,2.528237,0.7250537,1.559862,0.2896886,-0.3783714,0.1046087,0.04571525,-1.194645,0.2424534,0.2477488,0.8387273,1.525599,0.1761799,0.2813957,1.681264,0.2057699,5.477865,152.7426,97.2845,True
3,1.711114,0.3760229,0.2901525,-0.8054328,-0.4731478,0.07637813,-0.3404559,0.5703865,1.647737,0.3829679,-1.164016,0.2434475,2.1,24.3,-0.2119,-0.3526836,0.2701751,-0.6622163,-0.3646644,2.528345,0.723639,1.560935,0.2882726,-0.4113291,0.1152371,0.05347744,-1.193431,0.2438336,0.2529087,0.8379288,1.525818,0.1754358,0.2808532,1.6872,0.2065149,5.469224,153.1211,98.03732,True
3,1.722225,0.3803795,0.2671234,-0.7541285,-0.4802654,0.07590169,-0.3443699,0.5700161,1.649498,0.381717,-1.161165,0.2567499,2.1,24.3,-0.2821745,-0.2352594,0.2455352,-0.6632262,-0.3683678,2.536802,0.7221609,1.562049,0.2867563,-0.438086,0.1387784,0.03568889,-1.193053,0.2463548,0.2578259,0.8371533,1.525994,0.1747718,0.280205,1.692917,0.2072282,5.361002,153.4772,98.76308,True
3,1.733337,0.3870328,0.1783417,-0.6628846,-0.4841201,0.07046045,-0.3439859,0.5691018,1.650885,0.3803318,-1.158799,0.2121021,2.1,24.3,-0.3340814,-0.1073629,0.2548968,-0.6639889,-0.3754819,2.54791,0.7206002,1.563148,0.2852211,-0.5205697,0.1561813,-0.02433717,-1.194769,0.2495413,0.2651241,0.8364189,1.526048,0.1740324,0.2793807,1.698328,0.2078756,5.203862,153.8085,99.4813,True
3,1.744448,0.3946561,0.1010225,-0.6079546,-0.4885537,0.06447313,-0.3432727,0.5683188,1.652322,0.3789105,-1.155568,0.2915946,2.1,24.3,-0.4271713,0.1089251,0.2957692,-0.6633551,-0.3909734,2.56797,0.7187777,1.56407,0.2835777,-0.5580911,0.1510254,-0.0549702,-1.195941,0.2514527,0.2717396,0.8356912,1.526221,0.1733203,0.2783276,1.703287,0.208516,5.103764,154.1291,100.1554,True
3,1.755559,0.3958571,0.04162002,-0.5765777,-0.4933655,0.05803667,-0.3420886,0.5675175,1.653832,0.3776572,-1.152629,0.2641445,4.9,29.4,-0.4354965,0.1674993,0.3088422,-0.6647186,-0.3992804,2.579486,0.7170895,1.565,0.2819536,-0.5710751,0.1351739,-0.07945023,-1.197215,0.252877,0.2779403,0.8349285,1.526375,0.1725564,0.2770149,1.707672,0.2092039,5.055118,154.4752,100.7828,True
3,1.76667,0.3960232,-0.05718741,-0.5416927,-0.4966444,0.04708575,-0.3367557,0.5665286,1.655083,0.3761518,-1.149772,0.256876,4.9,29.4,-0.4098272,0.223909,0.3099459,-0.6653641,-0.4077811,2.589895,0.7154425,1.565878,0.2803679,-0.5732369,0.1225985,-0.08156112,-1.197871,0.2541578,0.2839324,0.8339572,1.526342,0.1717196,0.2753064,1.711231,0.2099546,5.024302,154.8343,101.3746,True
3,1.777781,0.396138,-0.119926,-0.5241324,-0.5006136,0.03655668,-0.3318541,0.5655991,1.656396,0.3747513,-1.14669,0.277695,4.9,29.4,-0.4012893,0.2185672,0.3141347,-0.6674265,-0.4140655,2.599093,0.7136946,1.566496,0.2789431,-0.5744522,0.1150267,-0.09657076,-1.19886,0.2555996,0.2903557,0.8329228,1.526643,0.1707742,0.2732148,1.713941,0.2108226,5.101756,155.2834,101.6492,True
3,1.788892,0.4090937,-0.2165813,-0.4892774,-0.5027223,0.022433,-0.324376,0.5645091,1.657577,0.3731828,-1.143485,0.2886793,4.9,29.4,-0.3667384,0.1250297,0.2475114,-0.6688412,-0.4126207,2.601051,0.7120371,1.567381,0.2775834,-0.5637181,0.123512,-0.08596748,-1.199025,0.2577339,0.2954929,0.8319339,1.526724,0.1700952,0.2708122,1.715983,0.2118339,5.25746,155.8085,101.6329,True
3,1.800003,0.4273807,-0.2939577,-0.4417821,-0.5041231,0.008991897,-0.3178408,0.5632622,1.658721,0.3718054,-1.140506,0.2678275,4.9,29.4,-0.3066223,0.0548818,0.1744122,-0.6693317,-0.4098781,2.600315,0.7102915,1.56827,0.2762527,-0.5281873,0.1765592,-0.0444558,-1.197213,0.2614889,0.2984474,0.8307148,1.526957,0.1696761,0.2681229,1.717485,0.2129375,5.454605,156.416,101.5085,True
3,1.811115,0.4456495,-0.3349831,-0.3807275,-0.5047542,-0.002215617,-0.3135813,0.5618587,1.65982,0.3705273,-1.137947,0.2295542,9.3,33.9,-0.2467912,-0.06412695,0.06811851,-0.6692204,-0.4020369,2.594753,0.70824,1.569175,0.2748756,-0.5077404,0.2530881,-0.01970343,-1.195044,0.2664121,0.3019212,0.8296294,1.527158,0.1689839,0.2652566,1.718642,0.2141253,5.678822,157.0684,101.305,True
3,1.822226,0.4489236,-0.3505456,-0.3305424,-0.5053833,-0.0119532,-0.3100796,0.5602953,1.660755,0.3692188,-1.135042,0.2612677,9.3,33.9,-0.1907191,-0.154655,0.03438513,-0.6711395,-0.3952038,2.589761,0.7062368,1.570092,0.2733765,-0.5278659,0.2935169,-0.007631466,-1.193406,0.2709119,0.3068343,0.8283612,1.527352,0.1681275,0.2622616,1.719523,0.2154205,5.894132,157.6915,101.1439,True
3,1.833337,0.4511158,-0.3309085,-0.2731545,-0.5056368,-0.0189693,-0.3089392,0.5587407,1.661619,0.3681064,-1.13194,0.2790063,9.3,33.9,-0.1586805,-0.1099602,0.03436163,-0.6714404,-0.3964769,2.591694,0.7042582,1.57086,0.2717087,-0.5809028,0.2987432,0.0194203,-1.191518,0.2740687,0.313621,0.8271013,1.527508,0.1671813,0.2591477,1.720207,0.2168772,6.064382,158.2506,100.9814,True
3,1.844448,0.4468587,-0.3072031,-0.241392,-0.5064214,-0.02480229,-0.3085842,0.5572468,1.662448,0.3669417,-1.127884,0.3659492,9.3,33.9,-0.1871637,-0.002353504,0.04666733,-0.6703885,-0.4018973,2.598952,0.7021883,1.571546,0.2699823,-0.6072642,0.2868484,0.05579267,-1.18887,0.2761582,0.3204294,0.8257588,1.527791,0.1662891,0.2558813,1.720815,0.2184913,6.138787,158.7828,100.8093,True
3,1.855559,0.4426228,-0.2791775,-0.1990032,-0.5066099,-0.02991462,-0.3088039,0.5557231,1.663009,0.3658078,-1.124199,0.331371,11.3,47.9,-0.2157298,0.07331344,0.0546065,-0.6695554,-0.4071976,2.606424,0.7001817,1.572185,0.2683756,-0.5799766,0.251249,0.1427602,-1.18415,0.2762469,0.3257171,0.8243541,1.528177,0.1653056,0.252464,1.721458,0.2202091,6.128018,159.3749,100.65,True
3,1.86667,0.4607472,-0.2500806,-0.1587818,-0.5064192,-0.03422242,-0.310609,0.5541041,1.663375,0.3646815,-1.120314,0.3500216,11.3,47.9,-0.2351452,0.1566627,-0.005671442,-0.6656736,-0.4116163,2.613119,0.6981947,1.572901,0.2668054,-0.4963537,0.2007487,0.2143335,-1.179434,0.2749147,0.328771,0.8229699,1.528399,0.1643376,0.2490344,1.722204,0.2220266,6.046196,160.0223,100.4985,True
3,1.877781,0.4628696,-0.2157874,-0.1335061,-0.5066419,-0.03719597,-0.3131893,0.5524741,1.66385,0.3636017,-1.116572,0.3366772,11.3,47.9,-0.2321046,0.187679,-0.03859545,-0.6628475,-0.4146872,2.61788,0.6961216,1.573569,0.2653625,-0.4568259,0.1718755,0.2298502,-1.176411,0.2747763,0.3323503,0.8215929,1.528618,0.1631746,0.2457086,1.723126,0.2238739,5.914078,160.7172,100.4121,True
3,1.888893,0.4457887,-0.1279956,-0.07669619,-0.5061966,-0.0338802,-0.3202731,0.5505002,1.663975,0.362684,-1.11373,0.2545219,11.3,47.9,-0.1991251,0.2025748,-0.04941265,-0.6606861,-0.4178649,2.62144,0.6938856,1.574208,0.2639277,-0.4433668,0.1507874,0.1817241,-1.175817,0.275658,0.3368419,0.8202065,1.528674,0.1622126,0.2425816,1.724166,0.2257013,5.717812,161.3847,100.4846,True
3,1.900004,0.4319277,-0.09478968,-0.05244559,-0.5059777,-0.0335774,-0.3247467,0.5485681,1.664279,0.3617365,-1.10964,0.369213,11.3,47.9,-0.1876593,0.1952337,-0.08573477,-0.6580101,-0.4188075,2.623931,0.6916513,1.574756,0.262439,-0.4695725,0.1341481,0.09982302,-1.177023,0.2770493,0.3423382,0.8187995,1.528923,0.1611793,0.2396349,1.725243,0.2274919,5.513945,161.9457,100.651,True
3,1.911115,0.4223526,-0.06685811,-0.02070517,-0.5052725,-0.03302053,-0.3295622,0.5465485,1.664396,0.3607292,-1.104789,0.4377739,11.1,54.2,-0.2079304,0.2155501,-0.09510802,-0.6554231,-0.4223367,2.629822,0.6893729,1.575234,0.2609534,-0.4976689,0.114164,0.05201823,-1.177542,0.2780686,0.3486616,0.8173423,1.529232,0.1601248,0.2367596,1.726378,0.2291795,5.272008,162.4169,100.8122,True
3,1.922226,0.419174,-0.06242323,0.0005648211,-0.5044022,-0.03344211,-0.3335567,0.5445418,1.664582,0.3597395,-1.100813,0.3570844,11.1,54.2,-0.2140948,0.286886,-0.08096047,-0.6523711,-0.4298088,2.638327,0.6870793,1.57576,0.2593994,-0.4858164,0.1034034,0.0700008,-1.175831,0.2782358,0.353548,0.8157209,1.529518,0.1590593,0.233846,1.727561,0.230657,4.902946,162.8048,101.0074,True
3,1.933337,0.4139027,-0.05788207,0.03781402,-0.5027409,-0.03366768,-0.3377594,0.5423835,1.664461,0.358711,-1.096939,0.3485083,11.1,54.2,-0.2001663,0.3401391,-0.08404329,-0.6489628,-0.4372641,2.645996,0.6847122,1.576119,0.2578373,-0.4502761,0.1116608,0.1198241,-1.172576,0.2786359,0.3572886,0.8140314,1.529798,0.1577618,0.2309003,1.72869,0.2319767,4.599295,163.168,101.2197,True
3,1.944448,0.4075269,-0.05244249,0.05269078,-0.5016516,-0.03361588,-0.3421022,0.5403141,1.664565,0.3577242,-1.092851,0.3679814,11.1,54.2,-0.1927922,0.3529698,-0.1000347,-0.6454235,-0.4421439,2.651845,0.6823642,1.576507,0.2563059,-0.4253456,0.120946,0.1740249,-1.168502,0.27869,0.3611132,0.812274,1.530149,0.1567051,0.2279347,1.729639,0.2332162,4.347926,163.5138,101.4224,True
3,1.955559,0.3979667,-0.0544855,0.06551155,-0.5003334,-0.03428833,-0.3456759,0.5382395,1.664461,0.3567379,-1.088624,0.3804201,11.1,54.2,-0.2032958,0.3422529,-0.07549976,-0.6438416,-0.4472248,2.658416,0.6800205,1.576829,0.2548313,-0.3949401,0.1290811,0.2484008,-1.163058,0.2784244,0.3646003,0.8104196,1.530506,0.1555927,0.2249396,1.73032,0.2344607,4.115551,163.8377,101.5876,True
3,1.966671,0.3947788,-0.0619303,0.06770933,-0.4992106,-0.03552178,-0.3488017,0.5361445,1.664392,0.3557158,-1.084151,0.4027152,8.7,45.2,-0.2233956,0.3230114,-0.0487963,-0.643065,-0.4517378,2.665195,0.6777157,1.577103,0.2533221,-0.3787357,0.1267861,0.277041,-1.158819,0.2780609,0.3684563,0.8085226,1.530815,0.1545997,0.2218537,1.730654,0.2357575,3.876228,164.1583,101.6952,True
3,1.977782,0.3884102,-0.07679474,0.07317513,-0.4978093,-0.03744058,-0.3512243,0.5340931,1.664238,0.3548148,-1.079551,0.414086,8.7,45.2,-0.2406976,0.3317235,-0.09019394,-0.6390255,-0.4560522,2.672016,0.6752233,1.577191,0.251905,-0.3628405,0.128958,0.2662756,-1.15595,0.2785718,0.3718274,0.80664,1.531106,0.1535349,0.2186581,1.730699,0.237143,3.672438,164.5175,101.6583,True
3,1.988893,0.3809625,-0.08743888,0.07647713,-0.4962811,-0.03919268,-0.3535445,0.5317767,1.664024,0.3538008,-1.074938,0.4150191,8.7,45.2,-0.1949136,0.3764375,-0.1063199,-0.6346691,-0.4633671,2.678485,0.6726878,1.577429,0.2504964,-0.3332575,0.144013,0.2320393,-1.153832,0.2800294,0.3738189,0.8046309,1.531299,0.1525364,0.2153667,1.730507,0.2386426,3.488711,164.9284,101.5489,True
3,2.000004,0.3692492,-0.1045178,0.0734503,-0.4948771,-0.04163067,-0.3549855,0.5293874,1.663821,0.3529103,-1.070017,0.4430395,8.7,45.2,-0.1680706,0.3880093,-0.07875021,-0.6328219,-0.4709024,2.685323,0.6701777,1.57773,0.249079,-0.3259714,0.1611694,0.2086307,-1.151577,0.2818883,0.3764373,0.8027015,1.531505,0.1515617,0.2119911,1.73017,0.2402688,3.330007,165.3782,101.3927,True
3,2.011115,0.3596793,-0.1151562,0.07674658,-0.4933879,-0.04422379,-0.3563515,0.527193,1.663692,0.3519325,-1.064781,0.4715498,7,41.1,-0.1584597,0.3623949,-0.06825231,-0.6311638,-0.4754926,2.690552,0.6676831,1.577899,0.2476742,-0.3229118,0.1964087,0.1885424,-1.149075,0.2847506,0.3787838,0.8007799,1.531715,0.1505711,0.208549,1.729749,0.2420378,3.15958,165.847,101.2488,True
3,2.022226,0.3533114,-0.1300265,0.08220841,-0.4916398,-0.046996,-0.3576415,0.5248542,1.663571,0.3510704,-1.059385,0.4858914,7,41.1,-0.1583834,0.3495573,-0.05231826,-0.6295121,-0.4808497,2.696705,0.6651487,1.578111,0.246273,-0.3206702,0.216572,0.2014179,-1.145298,0.286586,0.3814544,0.7987477,1.531962,0.1494508,0.2049331,1.729331,0.2438671,2.966107,166.3339,101.1435,True
3,2.033337,0.3490607,-0.1417523,0.08125171,-0.490125,-0.05025997,-0.3585177,0.5226669,1.663371,0.3502247,-1.054224,0.4641661,7,41.1,-0.1594918,0.3314571,-0.05343147,-0.6277071,-0.4854486,2.702262,0.6627069,1.578268,0.2448158,-0.3195951,0.1963138,0.2045073,-1.142496,0.2870677,0.3848441,0.796802,1.532194,0.1483893,0.2012089,1.728932,0.2457702,2.77674,166.8616,101.0293,True
3,2.044448,0.3501396,-0.1534424,0.08454021,-0.4883636,-0.05352354,-0.3595177,0.520384,1.663235,0.3492393,-1.049017,0.4685534,7,41.1,-0.1627564,0.306972,-0.05669244,-0.6258732,-0.4887669,2.706897,0.6603014,1.57843,0.2434011,-0.3271506,0.1505519,0.1947515,-1.14075,0.2862829,0.3890527,0.7947361,1.532426,0.1474063,0.1975084,1.728561,0.2477548,2.585133,167.43,100.8926,True
3,2.055559,0.3448315,-0.1705058,0.08362186,-0.4866368,-0.05793108,-0.359319,0.5183249,1.663102,0.3483045,-1.043645,0.4835049,7,41.1,-0.1306728,0.3089856,-0.03878108,-0.6246476,-0.4948425,2.712191,0.6580068,1.578488,0.2420337,-0.3091334,0.1367501,0.1838841,-1.138778,0.2867448,0.3917353,0.7926946,1.53268,0.1462903,0.1938803,1.728226,0.2498259,2.389896,167.9794,100.7822,True
3,2.06667,0.3406065,-0.1885345,0.09442531,-0.4843736,-0.06237762,-0.3590042,0.516196,1.663038,0.3473487,-1.038276,0.4830405,6,42.6,-0.09769052,0.2769574,-0.03592943,-0.6233422,-0.4978849,2.714688,0.6557963,1.578555,0.2407811,-0.2782932,0.1367677,0.1762009,-1.136476,0.287597,0.3933622,0.7906548,1.53288,0.1452835,0.1903732,1.727923,0.2519785,2.189766,168.5369,100.7052,True
3,2.077781,0.3299578,-0.1874774,0.09549303,-0.482674,-0.0657127,-0.3594112,0.5141447,1.662894,0.3464041,-1.032531,0.5173653,6,42.6,-0.09244469,0.2364747,-0.03716633,-0.622483,-0.4996881,2.716969,0.6536175,1.578667,0.2395806,-0.222892,0.1303348,0.1778735,-1.134099,0.2879558,0.3937311,0.7886147,1.533113,0.1441777,0.1869442,1.727668,0.2541554,1.984706,169.1061,100.6535,True
3,2.088892,0.2990278,-0.1534013,0.09846824,-0.4813797,-0.06570151,-0.3616647,0.5121289,1.66275,0.3456209,-1.026807,0.5151649,6,42.6,-0.09783421,0.1831962,-0.03093001,-0.6222934,-0.4997388,2.718355,0.651579,1.578764,0.2385244,-0.1801575,0.1121158,0.1945096,-1.13123,0.2873753,0.394506,0.7866601,1.533338,0.1431744,0.1836496,1.727417,0.2563634,1.79553,169.6835,100.6121,True
3,2.100003,0.2627613,-0.1150883,0.09821789,-0.4804476,-0.06463385,-0.3642563,0.5102201,1.662461,0.3448906,-1.020882,0.533582,6,42.6,-0.1085157,0.1821716,-0.03405222,-0.6210167,-0.5029747,2.722688,0.6495875,1.578836,0.237469,-0.162993,0.08857793,0.2123768,-1.12834,0.2862773,0.3962999,0.7848337,1.533493,0.1420109,0.1804259,1.727164,0.2585456,1.596515,170.2466,100.5769,True
3,2.111114,0.2350888,-0.1278571,0.1058158,-0.4784619,-0.06776147,-0.3630773,0.5082977,1.662065,0.3439615,-1.014088,0.612871,6,45.1,-0.09565227,0.2162329,-0.03188289,-0.619316,-0.5084366,2.727729,0.6477098,1.578961,0.2364905,-0.1511233,0.07355346,0.2335254,-1.125104,0.2852214,0.3981274,0.7829673,1.533607,0.1410127,0.1772737,1.726925,0.2606627,1.378448,170.7936,100.5106,True
3,2.122225,0.2384237,-0.2032508,0.1362476,-0.4743638,-0.07560674,-0.3586942,0.5063314,1.661758,0.3429818,-1.007769,0.5687548,6,45.1,-0.09463759,0.2194599,-0.03934104,-0.6175529,-0.5119593,2.731662,0.6458099,1.578969,0.2355809,-0.1158516,0.02976351,0.2511606,-1.122323,0.2825607,0.3992766,0.7810826,1.533784,0.1400728,0.1742213,1.726764,0.2626352,1.095676,171.3239,100.4206,True
3,2.133336,0.2160802,-0.2320875,0.1301213,-0.4720453,-0.08188701,-0.354822,0.5045009,1.661534,0.3421788,-1.0021,0.5098934,6,45.1,-0.1009952,0.2258617,-0.03714408,-0.6161649,-0.5160793,2.736269,0.6439848,1.579035,0.2346418,-0.104132,0.008445505,0.2520288,-1.119974,0.2807594,0.4007706,0.7793235,1.534115,0.1390932,0.1713483,1.726652,0.2644024,0.793652,171.8294,100.4173,True
3,2.144447,0.1852149,-0.250237,0.1303136,-0.4696149,-0.08758005,-0.3507844,0.5026669,1.661376,0.3412476,-0.9974849,0.4138753,6,45.1,-0.1093373,0.2641664,-0.01990658,-0.6148781,-0.5231399,2.743607,0.6423174,1.579083,0.2338498,-0.06787927,-0.002259482,0.257027,-1.117311,0.2789952,0.4010854,0.7776335,1.534263,0.1382191,0.1686549,1.726394,0.2659591,0.5807976,172.2817,100.5729,True
3,2.155558,0.1490357,-0.2704606,0.1390443,-0.4667115,-0.09412424,-0.3454818,0.5010072,1.66101,0.3403094,-0.9910389,0.5820629,6,45.1,-0.1063015,0.2642541,-0.04549047,-0.6124802,-0.5269749,2.747669,0.6407557,1.579042,0.2330904,-0.04031695,-0.02882802,0.2407057,-1.115747,0.2768175,0.401569,0.7760866,1.534407,0.137388,0.1660675,1.725743,0.267428,0.5256818,172.6135,100.7216,True
3,2.166669,0.1170938,-0.2768388,0.1455395,-0.4638747,-0.09943111,-0.3409815,0.4992975,1.660769,0.3394632,-0.9845611,0.5834199,5.7,40.5,-0.09166723,0.2451779,-0.08187941,-0.6097872,-0.528695,2.749625,0.6393085,1.579012,0.2324288,-0.01701353,-0.04261655,0.2244744,-1.114453,0.2749534,0.4018202,0.7744982,1.534507,0.136575,0.1634527,1.724771,0.2688507,0.5348788,172.9267,100.6233,True
3,2.17778,0.06379227,-0.2535017,0.1411763,-0.4619226,-0.1025975,-0.3369181,0.497826,1.660512,0.3387372,-0.9783341,0.5606323,5.7,40.5,-0.09063177,0.2259971,-0.0808875,-0.6083704,-0.5312657,2.75269,0.6378456,1.578961,0.2317171,0.0136527,-0.05100986,0.1954358,-1.113687,0.2736287,0.401226,0.7730716,1.534686,0.1358156,0.1607685,1.723607,0.2701964,0.5056745,173.3009,100.3656,True
3,2.188891,0.03819499,-0.2461715,0.12943,-0.4602885,-0.1071711,-0.3324573,0.4963174,1.660369,0.3379474,-0.9723665,0.5371302,5.7,40.5,-0.1031898,0.2216385,-0.04567132,-0.6081493,-0.5355005,2.757788,0.6364148,1.578888,0.2310669,0.0380988,-0.04991897,0.187802,-1.112077,0.2722815,0.4006393,0.7715528,1.53484,0.1350925,0.1581102,1.722267,0.271476,0.4623762,173.7227,100.0852,True
3,2.200002,0.02328342,-0.2483194,0.1294708,-0.4580264,-0.1121466,-0.3277323,0.4949133,1.660154,0.3372192,-0.9652872,0.6389686,5.7,40.5,-0.09244981,0.2642282,-0.04559036,-0.6060055,-0.5422223,2.763886,0.6351318,1.578835,0.2305195,0.04780324,-0.02975284,0.2016782,-1.109409,0.2714793,0.400121,0.7701007,1.534968,0.1343234,0.1554904,1.720856,0.2726667,0.4291023,174.1315,99.75719,True
3,2.211113,0.00196445,-0.2440877,0.1284114,-0.4558011,-0.1164472,-0.3231179,0.4935588,1.659908,0.3366051,-0.960444,0.4336991,5.4,34.4,-0.05829075,0.2865266,-0.04254854,-0.6040838,-0.5485462,2.768512,0.6340033,1.578809,0.2301557,0.1205592,-0.02147588,0.2416493,-1.10541,0.2698063,0.3967769,0.7687751,1.535039,0.1336312,0.1529926,1.719528,0.2737026,0.3873238,174.5502,99.38701,True
3,2.222224,-0.02467747,-0.2291718,0.1325848,-0.4537515,-0.1197056,-0.3190531,0.4924096,1.659745,0.3361785,-0.9550495,0.4859001,5.4,34.4,-0.02129352,0.224763,-0.06752016,-0.6024321,-0.5484495,2.767574,0.6329892,1.57882,0.2298408,0.08533666,-0.05551344,0.2353588,-1.103975,0.2667872,0.3984856,0.7675781,1.535244,0.132951,0.1506763,1.718402,0.2745867,0.405151,174.8924,99.06973,True
3,2.233335,-0.0300114,-0.2227877,0.1325413,-0.4516455,-0.1236518,-0.3150048,0.4912049,1.659595,0.3356113,-0.948904,0.5538566,5.4,34.4,-0.003279328,0.1576004,-0.06361774,-0.6020778,-0.5472903,2.766013,0.6319692,1.578892,0.2294695,0.06283576,-0.0511568,0.2185075,-1.102485,0.2656655,0.3991745,0.7664385,1.535469,0.1322763,0.1486189,1.717461,0.2754194,0.4169475,175.1305,98.88092,True
3,2.244446,-0.05027741,-0.2057717,0.131376,-0.449728,-0.1262224,-0.3114604,0.490144,1.659477,0.3351753,-0.9427835,0.5510588,5.4,34.4,-0.002172627,0.1117286,-0.04461349,-0.6023527,-0.5472025,2.765993,0.6311417,1.578887,0.2290676,0.07875322,-0.05752511,0.2108948,-1.100987,0.263785,0.3986379,0.7653977,1.535583,0.1317379,0.1467922,1.716685,0.2762657,0.3944903,175.31,98.78086,True
3,2.255557,-0.06732184,-0.2057977,0.130338,-0.4477083,-0.1301495,-0.3066542,0.4892356,1.659494,0.3347926,-0.9376782,0.458296,5.4,34.4,9.718537E-05,0.1425788,-0.03386381,-0.6013892,-0.5514615,2.769358,0.6304239,1.57886,0.2286704,0.1169677,-0.05958636,0.19248,-1.099889,0.2623639,0.3966605,0.7644045,1.535573,0.1312697,0.145157,1.716067,0.2771556,0.3364848,175.4922,98.71835,True
3,2.266668,-0.08651029,-0.2048015,0.1250326,-0.4458451,-0.1345075,-0.3010972,0.4881443,1.659498,0.3342805,-0.9312813,0.5772192,5,35.7,0.01625278,0.1563181,-0.01048574,-0.601069,-0.555877,2.772389,0.6297843,1.578793,0.2284434,0.1316196,-0.06368889,0.1582553,-1.099676,0.2611759,0.3952546,0.763345,1.535526,0.1307819,0.1436049,1.715596,0.2781011,0.277711,175.6888,98.69061,True
3,2.277779,-0.1088795,-0.2026782,0.128243,-0.4437503,-0.1386194,-0.2953736,0.4873254,1.659425,0.33376,-0.9254096,0.5280171,5,35.7,0.03431491,0.1371188,-0.0138685,-0.6005349,-0.5571551,2.772303,0.6291114,1.578844,0.2281978,0.1384896,-0.07823531,0.08249325,-1.101681,0.2603364,0.3939308,0.7625118,1.535561,0.1302907,0.1421265,1.71524,0.279122,0.1982947,175.9215,98.65919,True
3,2.28889,-0.1269884,-0.2026987,0.1282662,-0.4417731,-0.142737,-0.2896848,0.486522,1.659365,0.3333573,-0.9193014,0.5501997,5,35.7,0.06464858,0.06590679,-0.07611322,-0.5983399,-0.552371,2.766732,0.628625,1.578772,0.2280917,0.129482,-0.09602644,0.01961577,-1.104112,0.2594433,0.3931348,0.7617636,1.535638,0.129771,0.140686,1.714969,0.280207,0.131217,176.187,98.63674,True
3,2.300001,-0.1397735,-0.2144871,0.1209217,-0.4399489,-0.1483133,-0.2826242,0.4859363,1.659221,0.3328815,-0.9131399,0.5548432,5,35.7,0.08797366,0.004072152,-0.07436021,-0.5983292,-0.548804,2.762177,0.6282003,1.578646,0.2279289,0.1177229,-0.10772,0.01538922,-1.104578,0.2576572,0.3930477,0.7609853,1.535693,0.1292381,0.1391939,1.714748,0.2812853,0.0519548,176.5055,98.64209,True
3,2.311112,-0.14617,-0.2305774,0.1082763,-0.4383254,-0.154996,-0.2747173,0.4852588,1.65918,0.3322911,-0.9074082,0.5154687,5,35.7,0.0795515,-0.003428934,-0.05728496,-0.5984224,-0.548284,2.761145,0.6276876,1.578498,0.2276685,0.1168847,-0.1057401,0.0452305,-1.103604,0.2558175,0.3926117,0.7601684,1.535753,0.1286962,0.1377823,1.714454,0.2823369,359.9594,176.8522,98.64926,True
3,2.322223,-0.1589609,-0.2627485,0.08298753,-0.4371936,-0.1639707,-0.2643304,0.4847424,1.659122,0.3315639,-0.9016164,0.5214099,4.8,33.5,0.07445541,0.006055603,-0.02631949,-0.5988389,-0.5495779,2.761571,0.6274737,1.578293,0.2275443,0.1397124,-0.1071186,0.1047119,-1.100996,0.2531176,0.3913976,0.7593442,1.535781,0.1281548,0.1364945,1.714023,0.2833456,359.8966,177.1684,98.63002,True
3,2.333334,-0.1674645,-0.3227067,0.04724833,-0.4364868,-0.1772769,-0.250225,0.4844249,1.65899,0.3306599,-0.8961111,0.4952056,4.8,33.5,0.05768435,0.00168084,0.01425867,-0.6002365,-0.5502228,2.76183,0.6271581,1.578078,0.2273538,0.1837233,-0.09457347,0.1470508,-1.098435,0.2511114,0.3887776,0.7586016,1.535807,0.1277754,0.1353491,1.713427,0.2842882,359.8926,177.4776,98.56557,True
3,2.344445,-0.1599881,-0.3686157,0.03268586,-0.4352473,-0.1895778,-0.237485,0.4838209,1.658877,0.3299468,-0.8901653,0.5357832,4.8,33.5,0.04817535,0.006992646,0.02499527,-0.6006451,-0.5510998,2.762383,0.6268182,1.577887,0.2271576,0.1975193,-0.09029122,0.1405745,-1.097704,0.2496865,0.3869533,0.7578642,1.53584,0.1273143,0.1342337,1.712733,0.2851115,359.962,177.78,98.44219,True
3,2.355556,-0.1429054,-0.4080637,0.02657811,-0.4338683,-0.2030178,-0.2243516,0.4835036,1.658836,0.3294051,-0.8848587,0.4770417,4.8,33.5,0.06722221,0.02088664,0.001477659,-0.5996448,-0.5517871,2.76153,0.626502,1.577889,0.2271287,0.1984331,-0.08059643,0.1193063,-1.097399,0.2488736,0.385022,0.7572803,1.53584,0.1269453,0.133195,1.71197,0.2858033,0.1134298,178.1129,98.2896,True
3,2.366668,-0.1663985,-0.380497,0.01255901,-0.4333032,-0.2101434,-0.2151885,0.4831026,1.658884,0.3290334,-0.8799276,0.4432868,3.9,33.1,0.07676703,0.01449266,-0.0018031,-0.5994781,-0.5516986,2.760366,0.6263304,1.577726,0.22702,0.1875837,-0.07086606,0.09281272,-1.097317,0.2483426,0.3836467,0.7566308,1.535758,0.1266079,0.1322688,1.711155,0.286381,0.3682211,178.4239,98.15411,True
3,2.377779,-0.2122581,-0.3283259,0.01540899,-0.4326705,-0.2142907,-0.2075585,0.4827099,1.659013,0.3286419,-0.8752111,0.4238464,3.9,33.1,0.06850382,0.02610584,0.03238359,-0.6006616,-0.5537431,2.761496,0.6260834,1.577687,0.2268829,0.1692723,-0.06539209,0.06527691,-1.097768,0.2479278,0.3825594,0.7562305,1.53567,0.1262169,0.1313811,1.710315,0.2869186,0.6284656,178.6031,98.03674,True
3,2.38889,-0.2219071,-0.271834,0.02029952,-0.4320846,-0.2165817,-0.2026972,0.4822762,1.659331,0.3282461,-0.868165,0.6370673,3.9,33.1,0.04623285,0.0356878,0.04535311,-0.6014062,-0.5556192,2.763415,0.6259243,1.577539,0.2267776,0.1691502,-0.08663446,0.05132481,-1.098226,0.2459911,0.3816217,0.755907,1.53554,0.1258559,0.1305956,1.70945,0.2875924,0.8719063,178.6957,97.86371,True
3,2.400001,-0.2155853,-0.2217667,0.01988646,-0.4316808,-0.2188916,-0.1983682,0.4820197,1.659375,0.3277035,-0.8615997,0.5913283,3.9,33.1,0.03441142,0.0005755909,0.03892289,-0.601998,-0.5536823,2.761668,0.6258644,1.57745,0.2265511,0.1551078,-0.121663,0.02781541,-1.099547,0.2435804,0.3813729,0.7555476,1.53554,0.1255558,0.1297254,1.708777,0.2883274,0.9554448,178.8699,97.60822,True
3,2.411112,-0.2103118,-0.1930608,0.01113059,-0.4316249,-0.2215532,-0.1936954,0.4818234,1.659531,0.3272581,-0.8575011,0.3665141,3.9,33.1,0.02710263,-0.004816458,0.06132581,-0.6034089,-0.5540637,2.761791,0.6256907,1.577366,0.2263019,0.1357645,-0.1364643,0.006591111,-1.100784,0.2416619,0.3813593,0.7551349,1.535538,0.1252,0.1287479,1.708427,0.288955,0.9131248,179.1741,97.3638,True
3,2.422223,-0.2018906,-0.145306,-0.01270637,-0.4325496,-0.2226019,-0.1906485,0.4819599,1.659499,0.3265729,-0.8531165,0.3945442,3.3,33.8,0.02209216,0.03982186,0.09561285,-0.6048012,-0.5588357,2.765619,0.6256136,1.577311,0.2260566,0.1081019,-0.1151537,0.009036403,-1.100763,0.2411354,0.3812637,0.7548223,1.535553,0.1248248,0.1278102,1.708418,0.2894196,0.8480879,179.4711,97.22215,True
3,2.433334,-0.2093941,-0.1145125,-0.02360236,-0.4331796,-0.2239628,-0.1869968,0.4819728,1.659532,0.3260322,-0.8480341,0.4578778,3.3,33.8,0.02117448,0.0664079,0.1095611,-0.6057386,-0.5624515,2.768347,0.6255704,1.577293,0.2258568,0.1137036,-0.07803576,0.04220381,-1.099143,0.2409024,0.3798823,0.7544608,1.535569,0.1245656,0.1271225,1.708643,0.2897722,0.8054608,179.6947,97.22841,True
3,2.444445,-0.2147615,-0.09007183,-0.03124045,-0.4335845,-0.224681,-0.1837568,0.4819809,1.659634,0.3256276,-0.8430471,0.4485706,3.3,33.8,0.02648369,0.05787417,0.1094995,-0.6067783,-0.5636256,2.768859,0.6257094,1.577164,0.2257485,0.1320883,-0.06224079,0.07730253,-1.097271,0.2398295,0.3782719,0.7542435,1.535485,0.124299,0.1267363,1.709055,0.2900572,0.7837554,179.8625,97.29698,True
3,2.455556,-0.2244003,-0.06035019,-0.04318327,-0.4345309,-0.2243908,-0.18123,0.482096,1.659829,0.3252311,-0.8376132,0.4896178,3.3,33.8,0.03802383,0.02915006,0.09013838,-0.6072636,-0.5626448,2.767138,0.6258543,1.577137,0.2258215,0.1439108,-0.07296975,0.09100451,-1.096385,0.2380206,0.3770415,0.7540445,1.535437,0.1240067,0.1266703,1.709638,0.2902692,0.7476284,180.0151,97.4032,True
3,2.466667,-0.226566,-0.04229718,-0.0507766,-0.4352836,-0.2243888,-0.1786177,0.4821372,1.659962,0.3248549,-0.8323108,0.4772343,2,28.3,0.05265661,-0.02085505,0.06324334,-0.6079187,-0.5596868,2.763721,0.6261988,1.57701,0.2258971,0.152336,-0.08676653,0.07916293,-1.096416,0.2361907,0.3759172,0.7538024,1.535341,0.1237247,0.1267366,1.710391,0.2904022,0.7038668,180.0983,97.57243,True
3,2.477778,-0.2255298,-0.02424157,-0.05731847,-0.4362588,-0.2241545,-0.1763761,0.48232,1.660205,0.3244183,-0.8270399,0.4745308,2,28.3,0.06417173,-0.05489491,0.04387565,-0.6084508,-0.5571791,2.760692,0.6264776,1.577006,0.2259037,0.145673,-0.1217542,0.04601487,-1.097983,0.2337679,0.3756221,0.7538195,1.53528,0.1234145,0.1268167,1.711258,0.2904826,0.6464195,180.1301,97.76418,True
3,2.488889,-0.2255465,-0.01360786,-0.0605925,-0.4369582,-0.2237704,-0.1742464,0.4824566,1.6604,0.3240278,-0.8221711,0.437862,2,28.3,0.08540342,-0.0815573,0.04044407,-0.6093872,-0.5543761,2.756686,0.6267974,1.577016,0.2258034,0.1284042,-0.1333106,0.01731264,-1.099355,0.2322297,0.3755395,0.7537824,1.535199,0.1231608,0.1268634,1.712207,0.2905313,0.5803704,180.1661,97.94043,True
3,2.5,-0.2276949,0.00126645,-0.06603689,-0.4380128,-0.2226083,-0.1728123,0.482708,1.660726,0.3236055,-0.8173268,0.435864,2,28.3,0.08030298,-0.07739536,0.07245423,-0.611482,-0.5545937,2.756153,0.6270912,1.576995,0.2256238,0.1036064,-0.1512251,-0.01986681,-1.101757,0.2304997,0.3760841,0.7538581,1.53513,0.1228573,0.1268696,1.713168,0.2905861,0.5184128,180.2192,98.11018,True
3,2.511111,-0.2308962,-0.009475648,-0.07765763,-0.4390834,-0.2239925,-0.1688495,0.4830531,1.660915,0.3231137,-0.8122844,0.4539473,2,28.3,0.04021184,-0.0497862,0.1228965,-0.6143625,-0.5577647,2.759882,0.6275101,1.576925,0.2253718,0.108961,-0.153387,-0.01564567,-1.102288,0.2285101,0.3755747,0.7538459,1.535012,0.1225536,0.1268833,1.714097,0.2906855,0.4620423,180.2991,98.24346,True
3,2.522222,-0.2372742,-0.04154173,-0.09017744,-0.4402471,-0.2283068,-0.1620454,0.4835042,1.661178,0.3224835,-0.8072339,0.4545492,1.1,30.6,0.007444412,0.01520046,0.1425202,-0.6155109,-0.5632829,2.765485,0.6278734,1.576843,0.2251763,0.1262204,-0.1482048,0.01195167,-1.10164,0.2265422,0.3743888,0.753812,1.534977,0.1223824,0.1268996,1.714964,0.2908478,0.3961901,180.3977,98.34502,True
3,2.533333,-0.238324,-0.07576695,-0.106951,-0.4417103,-0.2336676,-0.1545795,0.4840029,1.661411,0.3218551,-0.8019832,0.4728443,1.1,30.6,0.005431168,0.05993412,0.145884,-0.6162565,-0.5679328,2.769168,0.6282797,1.576887,0.2251148,0.1295264,-0.1376144,0.02475884,-1.101392,0.2250543,0.3734141,0.7538967,1.534931,0.1222141,0.126954,1.715782,0.2910725,0.3338603,180.5319,98.4047,True
3,2.544444,-0.2329919,-0.09288052,-0.11641,-0.4430104,-0.2377986,-0.1484624,0.4844591,1.661543,0.3212783,-0.7967656,0.4697232,1.1,30.6,0.006610081,0.06094302,0.1629303,-0.6183471,-0.5705082,2.771163,0.628852,1.576854,0.2249978,0.1199391,-0.1322816,0.02486475,-1.101573,0.2235841,0.373164,0.7540079,1.534854,0.1219809,0.1270962,1.716517,0.2913509,0.323639,180.7236,98.47814,True
3,2.555555,-0.2329731,-0.1099688,-0.1216079,-0.4443681,-0.2426032,-0.1416884,0.4850817,1.661718,0.3206086,-0.792039,0.4248173,1.1,30.6,0.00761956,0.04497665,0.1586099,-0.619911,-0.5714378,2.771753,0.6294181,1.576819,0.2249136,0.1102382,-0.1258054,0.008987626,-1.102454,0.2225493,0.3727211,0.7543136,1.534684,0.1217327,0.1273229,1.717164,0.29164,0.3921142,180.967,98.54362,True
3,2.566666,-0.2351159,-0.09929729,-0.1195506,-0.4454052,-0.2444544,-0.1372678,0.4855906,1.661871,0.3201315,-0.7873023,0.4261779,1,32.6,0.02252811,0.0364217,0.160615,-0.6216132,-0.5728153,2.772202,0.6300439,1.576742,0.2248654,0.1123027,-0.1257623,0.0004567597,-1.103101,0.2211645,0.3720031,0.7545443,1.534612,0.121475,0.1276137,1.717749,0.2919132,0.4912435,181.1901,98.59664,True
3,2.577777,-0.2393873,-0.08971179,-0.1185579,-0.4466057,-0.2465216,-0.1325756,0.486168,1.662093,0.319659,-0.7822508,0.4548814,1,32.6,0.03740624,0.03108077,0.1562345,-0.6230327,-0.5740992,2.772277,0.6307014,1.576737,0.2249019,0.1196702,-0.1384908,-0.01138616,-1.104361,0.2193605,0.371115,0.7548656,1.534478,0.1212637,0.1279452,1.718293,0.2921674,0.5533527,181.3692,98.64386,True
3,2.588888,-0.2489813,-0.06512177,-0.1059528,-0.447295,-0.2465091,-0.1295186,0.4867959,1.662285,0.3193269,-0.7769048,0.4815291,1,32.6,0.05732471,-0.002922617,0.1197641,-0.6235408,-0.5723815,2.769708,0.6315702,1.576591,0.2249782,0.1238591,-0.1512342,-0.01999993,-1.105518,0.2173392,0.3705261,0.7553101,1.534329,0.1210384,0.1283209,1.718814,0.2924071,0.5977445,181.5346,98.67624,True
3,2.599999,-0.2564592,-0.04380795,-0.103981,-0.4484017,-0.2462107,-0.1267018,0.4874462,1.662525,0.3190045,-0.7717937,0.4599113,1,32.6,0.06569622,-0.04338183,0.1078514,-0.6249598,-0.5697636,2.766452,0.6323448,1.576482,0.2249427,0.1313231,-0.170424,-0.01802341,-1.10655,0.214746,0.3699796,0.7556947,1.534229,0.1208675,0.1286713,1.719361,0.2926136,0.592811,181.669,98.70318,True
3,2.61111,-0.2586093,-0.02354768,-0.1009468,-0.4495293,-0.2456166,-0.1243358,0.4882293,1.662646,0.3185618,-0.7665728,0.4701625,1,32.6,0.05062254,-0.09338683,0.09926389,-0.6268112,-0.5659118,2.76346,0.6331568,1.576377,0.2249565,0.1290861,-0.1927349,-0.02982865,-1.10815,0.211991,0.3699448,0.756184,1.534109,0.1206851,0.1290314,1.719945,0.292794,0.578598,181.7911,98.72443,True
3,2.622221,-0.2607484,-0.005354583,-0.09043495,-0.4502292,-0.2445159,-0.1223485,0.4891634,1.662796,0.3181448,-0.7615772,0.4494636,0.5,27.9,0.05070558,-0.06783569,0.1057468,-0.6280554,-0.5674202,2.764277,0.6341088,1.576372,0.2249703,0.1300947,-0.195899,-0.03731374,-1.109616,0.2099049,0.3693828,0.7567346,1.533888,0.1204963,0.1294409,1.720559,0.2929512,0.5288801,181.896,98.75263,True
3,2.633332,-0.2682018,0.006443352,-0.07880029,-0.4507847,-0.2437277,-0.1198281,0.4900019,1.662802,0.317728,-0.7568102,0.4287741,0.5,27.9,0.05074632,0.0003928393,0.09106627,-0.627796,-0.5714738,2.766827,0.6350355,1.576247,0.2249622,0.1290665,-0.1873988,-0.03300179,-1.110458,0.2081529,0.3687471,0.7573155,1.533757,0.1202996,0.1299188,1.721224,0.2930743,0.4714886,182.0112,98.78712,True
3,2.644443,-0.2735281,0.01934409,-0.06398357,-0.4511528,-0.2422466,-0.1178542,0.4908087,1.662854,0.3173597,-0.7517906,0.451984,0.5,27.9,0.04629339,0.00369291,0.06234343,-0.6275622,-0.5714228,2.766475,0.6361299,1.576176,0.2250214,0.1291311,-0.1810521,-0.02444827,-1.111096,0.2062533,0.3682108,0.7579321,1.533694,0.1200242,0.130554,1.72191,0.2931604,0.4046189,182.1428,98.8452,True
3,2.655554,-0.2777793,0.02473137,-0.05550102,-0.4515762,-0.241419,-0.1154217,0.4916328,1.662883,0.3169951,-0.7465666,0.4704515,0.5,27.9,0.03738204,-0.02062464,0.01224706,-0.6264842,-0.5686785,2.764133,0.6371431,1.576202,0.2251759,0.137784,-0.1896628,-0.00751571,-1.111486,0.2035535,0.3674917,0.7586207,1.533553,0.1198182,0.1313536,1.722586,0.2932042,0.3144273,182.2519,98.94917,True
3,2.666665,-0.2809611,0.02160457,-0.04694486,-0.4518399,-0.2410937,-0.1124794,0.4923393,1.662982,0.3166063,-0.741513,0.4547624,0.5,27.9,0.03849641,-0.03344445,0.02391419,-0.6274402,-0.5679178,2.763127,0.6381849,1.576185,0.2252049,0.1377282,-0.2215989,-0.01193696,-1.113083,0.1999969,0.3676459,0.7593281,1.53334,0.1196067,0.132186,1.723218,0.2931783,0.2171985,182.3273,99.10706,True
3,2.677776,-0.2830546,0.01747608,-0.02986803,-0.4516391,-0.2409751,-0.1093949,0.4931408,1.663036,0.316201,-0.7366927,0.433605,0.4,25.9,0.04317459,-0.06031897,0.09303671,-0.6312358,-0.5676372,2.762228,0.6392893,1.576256,0.225122,0.1333119,-0.2374805,-0.03115936,-1.115249,0.1970682,0.3675895,0.760035,1.533129,0.1193385,0.1329674,1.723777,0.2930797,0.1300786,182.3686,99.2522,True
3,2.688887,-0.2840699,-0.009043187,-0.01580056,-0.4511917,-0.2429632,-0.1043626,0.4939162,1.663095,0.3156903,-0.7316992,0.4495773,0.4,25.9,-0.001230776,-0.06145976,0.1434077,-0.6346835,-0.56867,2.764634,0.640241,1.576126,0.2250118,0.1266466,-0.2543527,-0.06528068,-1.118237,0.1942663,0.3676609,0.760863,1.532948,0.1190484,0.1336651,1.72424,0.2929386,0.08061302,182.3888,99.35217,True
3,2.699998,-0.2904245,-0.02922547,-0.00710975,-0.4508828,-0.2453146,-0.09880488,0.4947559,1.663115,0.3152208,-0.7267772,0.4429063,0.4,25.9,-0.01177675,0.01208263,0.1383978,-0.6348859,-0.5736823,2.76924,0.6412117,1.576031,0.2249446,0.1202301,-0.2447429,-0.06945044,-1.119919,0.1921754,0.367399,0.761665,1.53264,0.1187608,0.1342519,1.724599,0.292784,0.04904333,182.4136,99.40433,True
3,2.711109,-0.30209,-0.06325197,0.002766754,-0.4503064,-0.2496676,-0.09103084,0.4956494,1.663024,0.3147736,-0.721764,0.4512706,0.4,25.9,0.005280137,0.121877,0.108826,-0.632929,-0.5824049,2.775536,0.6423294,1.575807,0.2249734,0.1266604,-0.2341144,-0.06518553,-1.121285,0.1900602,0.3666669,0.7624587,1.532412,0.1185079,0.13481,1.724795,0.2926609,0.01688135,182.4616,99.4338,True
3,2.72222,-0.3126841,-0.09724396,0.01689971,-0.4494628,-0.2545931,-0.08273137,0.496491,1.662908,0.3144228,-0.716598,0.4651729,0.6,27.2,0.03183794,0.1389222,0.09272078,-0.632733,-0.585721,2.776873,0.6434685,1.57557,0.2251768,0.1299399,-0.2224396,-0.05556248,-1.122247,0.1880991,0.3659,0.7633635,1.532205,0.1182108,0.1353478,1.724791,0.2925903,0.02337291,182.549,99.4399,True
3,2.733331,-0.3222492,-0.1100003,0.02233995,-0.4489243,-0.2584256,-0.0753632,0.497323,1.662752,0.3139277,-0.7112222,0.4842766,0.6,27.2,0.03653863,0.07204133,0.01895465,-0.6311362,-0.5818004,2.773007,0.6445826,1.575399,0.225369,0.1417719,-0.2310419,-0.04078468,-1.123266,0.1851411,0.365162,0.7641771,1.531998,0.1179059,0.1359076,1.724583,0.292585,0.06445523,182.6615,99.40826,True
3,2.744442,-0.3286276,-0.116352,0.02878816,-0.448341,-0.2618521,-0.06836867,0.4981533,1.662609,0.3134446,-0.7062559,0.4466806,0.6,27.2,0.04135875,0.0008300124,-0.0335117,-0.6301087,-0.5767395,2.768478,0.6459502,1.575253,0.2255034,0.1482269,-0.2459994,-0.03026632,-1.124479,0.1820237,0.3647806,0.7650387,1.531735,0.1176164,0.1364987,1.724157,0.2926382,0.1361826,182.7895,99.36275,True
3,2.755553,-0.332871,-0.1098461,0.04471703,-0.4472955,-0.2641739,-0.06243461,0.4989125,1.66237,0.3129199,-0.7013046,0.4456974,0.6,27.2,0.04467595,-0.026957,-0.009124044,-0.6312443,-0.5753006,2.766552,0.6470798,1.575123,0.2256036,0.1558136,-0.2514156,-0.01330736,-1.125158,0.1787552,0.364187,0.7658697,1.531602,0.1173551,0.1370541,1.723546,0.2927196,0.2121204,182.9257,99.28117,True
3,2.766664,-0.3360781,-0.1043158,0.06168942,-0.4461636,-0.2665868,-0.05654797,0.4995618,1.662141,0.3124566,-0.6964028,0.4410881,0.6,27.2,0.04040841,-0.008811426,-0.01435886,-0.6308789,-0.5764174,2.76721,0.6481114,1.574955,0.2255769,0.1548388,-0.2461436,-0.001548428,-1.125661,0.1759804,0.3637401,0.7664958,1.531433,0.1170845,0.1375285,1.722834,0.2927625,0.2655354,183.0936,99.13567,True
3,2.777775,-0.3381668,-0.1022039,0.06917353,-0.4448608,-0.2687429,-0.05066025,0.5002575,1.661924,0.3119767,-0.6915521,0.4364988,0.9,27.4,0.03294847,0.02852996,-0.02696552,-0.6296331,-0.5784783,2.768619,0.6491876,1.574796,0.2256112,0.1474399,-0.2269809,0.006030403,-1.126268,0.1744337,0.3631763,0.7674845,1.531304,0.1167321,0.1379423,1.722095,0.2927257,0.2974317,183.258,98.96641,True
3,2.788886,-0.34988,-0.1000274,0.07663146,-0.44377,-0.2710567,-0.04423404,0.5009392,1.661699,0.3114252,-0.6867526,0.4318117,0.9,27.4,0.02244567,0.07646543,-0.01820578,-0.628799,-0.5826908,2.772142,0.650319,1.574657,0.2256074,0.1410494,-0.2248472,0.006090421,-1.127046,0.171915,0.36293,0.7683208,1.531127,0.1164925,0.138303,1.721354,0.292585,0.3011962,183.3793,98.83561,True
3,2.799997,-0.3573233,-0.103181,0.08306013,-0.4425758,-0.2738145,-0.03753113,0.5016043,1.661481,0.3108642,-0.681585,0.4655111,0.9,27.4,0.01507236,0.0956308,-0.01170469,-0.6282413,-0.5853531,2.77437,0.6514164,1.574572,0.2256291,0.1367717,-0.2258749,0.00502672,-1.128099,0.1698384,0.3625577,0.7691838,1.530854,0.1161997,0.1386195,1.720617,0.2923672,0.3172851,183.4429,98.73295,True
3,2.811108,-0.3690265,-0.09773955,0.09795228,-0.440922,-0.275365,-0.03162797,0.5020777,1.661235,0.3102872,-0.6763497,0.4715725,0.9,27.4,0.01316605,0.06993593,0.02869972,-0.6299058,-0.5861213,2.774918,0.6526048,1.574491,0.2256043,0.1399119,-0.2226433,-0.002438452,-1.129197,0.1675388,0.3618839,0.7700374,1.530716,0.1160083,0.1389399,1.719876,0.2920899,0.3330154,183.5025,98.62938,True
3,2.822219,-0.3775269,-0.1019315,0.1086497,-0.4393736,-0.2783612,-0.02449149,0.5026435,1.661109,0.3095162,-0.6717616,0.4124712,1.5,24.2,-0.0166061,0.01665937,0.05322886,-0.6318626,-0.5843738,2.774766,0.6536474,1.574413,0.225719,0.1420209,-0.2151442,-0.005647581,-1.130331,0.1660002,0.3609185,0.7709966,1.530462,0.1157041,0.1392693,1.719149,0.2917244,0.3548301,183.5899,98.52374,True
3,2.83333,-0.3870869,-0.1211189,0.1088116,-0.4382141,-0.2830346,-0.01575766,0.503167,1.6609,0.3087368,-0.6669333,0.4350117,1.5,24.2,-0.06014405,0.03053985,0.06954999,-0.6327415,-0.5863079,2.778481,0.6545742,1.57433,0.2256911,0.1430293,-0.1937841,-0.01619416,-1.131295,0.164759,0.3597036,0.7717116,1.530497,0.1156366,0.1395946,1.718444,0.2912503,0.3784404,183.6623,98.44003,True
3,2.844441,-0.3945166,-0.1381182,0.1153486,-0.4367131,-0.2879052,-0.006718623,0.5037202,1.660658,0.3080373,-0.6625172,0.3971708,1.5,24.2,-0.07927529,0.1020025,0.05606679,-0.6316059,-0.5922734,2.784836,0.6555984,1.574224,0.2256887,0.1451468,-0.1798874,-0.01936516,-1.13228,0.1639174,0.3583193,0.7725836,1.530415,0.1154537,0.1398462,1.71775,0.2906297,0.3682439,183.7213,98.37863,True
3,2.855552,-0.4072592,-0.1572351,0.1251031,-0.4350785,-0.2936613,0.003375823,0.5041144,1.660364,0.3071315,-0.6580655,0.4007982,1.5,24.2,-0.107083,0.1234373,0.03290147,-0.6306802,-0.5951423,2.78901,0.6565384,1.574097,0.2255814,0.1334348,-0.1702956,-0.01922812,-1.133043,0.1623675,0.357879,0.7734312,1.530267,0.115227,0.1400753,1.717031,0.2898616,0.4076877,183.7785,98.30988,True
3,2.866663,-0.4157586,-0.1582152,0.1368472,-0.4331419,-0.2976869,0.01183962,0.5046064,1.660025,0.3063931,-0.6536132,0.4008552,1.5,24.2,-0.127321,0.1245426,0.03304382,-0.6305476,-0.5976121,2.793092,0.6574801,1.574051,0.2255068,0.1089934,-0.1639346,-0.01152922,-1.133301,0.1605099,0.3583374,0.7740296,1.530138,0.1150653,0.1403244,1.71626,0.2889801,0.5206104,183.7997,98.24336,True
3,2.877774,-0.4327902,-0.1507033,0.1463944,-0.4313203,-0.3011989,0.02028743,0.5049216,1.659761,0.3056521,-0.6490933,0.407042,2.3,26.9,-0.1423104,0.1192763,0.02461091,-0.6302355,-0.599475,2.796682,0.6583946,1.573973,0.2255323,0.09422205,-0.1533663,0.005691122,-1.133127,0.1587132,0.3584397,0.7748445,1.530042,0.1149273,0.1405986,1.715402,0.2880184,0.6333649,183.7846,98.18738,True
3,2.888885,-0.447721,-0.1239724,0.1600597,-0.4290827,-0.3022157,0.02673041,0.5051371,1.65949,0.3049219,-0.6449324,0.3742186,2.3,26.9,-0.1390601,0.09898426,0.03837159,-0.6308938,-0.6006868,2.799109,0.6593266,1.573917,0.2255018,0.08998635,-0.1501909,0.008937359,-1.13349,0.1569129,0.3583504,0.7756022,1.529891,0.1148362,0.1408206,1.71443,0.2869678,0.7274297,183.7735,98.13874,True
3,2.899997,-0.451998,-0.0961979,0.1704962,-0.4268637,-0.3026319,0.03227112,0.5054013,1.659221,0.304173,-0.6403443,0.4135703,2.3,26.9,-0.1530318,0.005238041,0.04775333,-0.6327927,-0.5966322,2.797954,0.660246,1.573826,0.2253938,0.08568785,-0.1448489,0.00367485,-1.134194,0.1552624,0.3581725,0.7765185,1.529814,0.1146698,0.1410103,1.713317,0.2858638,0.8045056,183.7267,98.04704,True
3,2.911108,-0.4509598,-0.07172427,0.1671019,-0.4251236,-0.3027236,0.03721208,0.5056702,1.658853,0.3031888,-0.6359453,0.3959729,2.3,26.9,-0.2194422,-0.05736896,0.01178136,-0.6326898,-0.5915979,2.79827,0.6609023,1.573743,0.2252653,0.07280746,-0.1277283,-0.009989472,-1.135036,0.1546205,0.3580537,0.7773125,1.529755,0.1146791,0.1410468,1.712127,0.2846851,0.8591346,183.6763,97.89308,True
3,2.922219,-0.4530841,-0.07493055,0.1660713,-0.4233142,-0.3053217,0.0445965,0.5059754,1.658495,0.3023095,-0.6322238,0.3342294,3.4,27.8,-0.2630405,-0.01360004,0.01115631,-0.6322446,-0.5940236,2.804572,0.6616437,1.573605,0.2251887,0.04503896,-0.09463629,-0.02239132,-1.135694,0.1547242,0.3583179,0.7781142,1.529588,0.1147954,0.1409414,1.710891,0.2834053,0.8643248,183.6324,97.69612,True
3,2.93333,-0.4594522,-0.09623694,0.1673144,-0.4214783,-0.3100524,0.05429759,0.5061505,1.658111,0.3013909,-0.62365,0.7785193,3.4,27.8,-0.2850458,0.1099632,0.02875464,-0.6313385,-0.6033799,2.815992,0.6621836,1.573595,0.2250712,0.02811252,-0.04781351,-0.01030803,-1.135104,0.155639,0.358119,0.7788954,1.529479,0.1148546,0.1408529,1.709566,0.2820013,0.7913467,183.683,97.52532,True
3,2.944441,-0.4615603,-0.1047194,0.1727173,-0.4193797,-0.3138177,0.06290653,0.5062055,1.657763,0.3004003,-0.6290669,-0.5045338,3.4,27.8,-0.3084378,0.1675704,0.01951496,-0.6300975,-0.609485,2.825102,0.6628488,1.573547,0.2249355,0.02182416,-0.02657253,0.001575076,-1.134507,0.1556361,0.3580042,0.7797053,1.529444,0.1148386,0.1407752,1.70805,0.2801414,0.7571056,183.9101,97.39306,True
3,2.955552,-0.4647425,-0.1067786,0.1833906,-0.4170271,-0.317623,0.07176021,0.5062268,1.657328,0.2993851,-0.6206002,0.7760801,3.4,27.8,-0.3372574,0.1378038,0.01962377,-0.6302333,-0.6102405,2.830311,0.6634296,1.573586,0.2248261,0.0004999749,-0.02121879,-0.001431373,-1.134657,0.1556321,0.3586665,0.7805326,1.529425,0.1149547,0.1407735,1.706631,0.2783381,1.143928,183.4141,97.07094,True
3,2.966663,-0.4614971,-0.1290506,0.1942106,-0.412685,-0.3266166,0.08994933,0.5060692,1.656618,0.2976077,-0.6159652,0.4135051,3.8,20,-0.3479241,0.06852172,0.03757572,-0.6315442,-0.6102006,2.838278,0.664638,1.573421,0.2244198,-0.04227265,-0.02323179,-0.02241563,-1.136006,0.1552759,0.3609638,0.7822365,1.529282,0.1148684,0.1407653,1.705369,0.276761,1.315698,183.0442,96.82526,True
3,2.977774,-0.4614971,-0.1290506,0.1942106,-0.412685,-0.3266166,0.08994933,0.5060692,1.656618,0.2976077,-0.6067134,0.8401425,3.8,20,-0.3479241,0.06852172,0.03757572,-0.6315442,-0.6102006,2.838278,0.664638,1.573421,0.2244198,-0.04227265,-0.02323179,-0.02241563,-1.136006,0.1552759,0.3609638,0.7822365,1.529282,0.1148684,0.1406009,1.704178,0.2753197,1.282062,183.0107,96.80964,True
3,2.988885,-0.4593483,-0.15896,0.1837976,-0.411182,-0.3339824,0.1017394,0.50612,1.656342,0.2965746,-0.6127998,-0.5661874,3.8,20,-0.3554446,0.09522355,0.02066801,-0.6306909,-0.6130605,2.844807,0.664993,1.573319,0.2241533,-0.06474852,-0.01037388,-0.03602291,-1.136679,0.1558169,0.3622943,0.7828597,1.529151,0.1149657,0.1401659,1.70276,0.2736168,1.202993,183.33,96.90496,True
3,2.999996,-0.4518794,-0.1867283,0.1744134,-0.409902,-0.3420439,0.1140469,0.5060511,1.656056,0.2955673,-0.6050446,0.711626,3.8,20,-0.3573644,0.1484392,0.03683546,-0.6305907,-0.6193859,2.854091,0.6653568,1.573162,0.223875,-0.07210011,0.04071357,-0.02611665,-1.135776,0.158051,0.3623286,0.783434,1.529295,0.1150236,0.1398689,1.701309,0.2721385,1.529485,182.9945,96.61827,True
3,3.011107,-0.4507921,-0.2251952,0.1598029,-0.4091041,-0.3521327,0.1282994,0.5060735,1.65581,0.294513,-0.5999969,0.4517215,3.8,20,-0.3462714,0.2143219,0.08171496,-0.631673,-0.6283951,2.864824,0.6656841,1.573027,0.2235298,-0.05367272,0.1001728,0.01132819,-1.133344,0.1607931,0.3611358,0.784013,1.529312,0.1150889,0.1396262,1.699962,0.2710088,1.701274,182.7624,96.29105,True
3,3.022218,-0.4454412,-0.2476336,0.1503807,-0.4082509,-0.3611264,0.1411377,0.5060526,1.655556,0.2935133,-0.5960011,0.3590916,3.8,20,-0.3293734,0.2186152,0.05817324,-0.6308411,-0.6320947,2.870837,0.6660331,1.573002,0.2234206,-0.02466576,0.13515,0.04111863,-1.131063,0.1626348,0.359681,0.7845124,1.529317,0.1151769,0.1393559,1.698745,0.2701377,1.838406,182.8069,96.08467,True
3,3.033329,-0.433732,-0.2530419,0.1386844,-0.4075797,-0.3691081,0.1529038,0.5061077,1.655316,0.292484,-0.5919057,0.3687887,3.9,16.7,-0.3053462,0.1238851,0.01722455,-0.630211,-0.628441,2.870577,0.6664835,1.572914,0.223243,-0.01834862,0.1298674,0.03145459,-1.130606,0.1639334,0.3591113,0.7851614,1.529297,0.115139,0.139021,1.697646,0.2694195,1.985112,183.0096,95.98353,True
3,3.04444,-0.4198993,-0.2477265,0.1343586,-0.4066215,-0.3757615,0.1632361,0.506061,1.655092,0.2915266,-0.5882784,0.3258531,3.9,16.7,-0.289629,0.03867254,0.004053079,-0.6304389,-0.624084,2.869794,0.6669931,1.572893,0.2230458,-0.02708859,0.1108224,0.004797341,-1.131245,0.1646687,0.359518,0.7857307,1.529286,0.1151338,0.1386807,1.696638,0.2687597,2.153658,183.2606,95.91126,True
3,3.055551,-0.400743,-0.2381778,0.126792,-0.4059094,-0.381998,0.1726842,0.5061208,1.654883,0.290592,-0.5844158,0.3477077,3.9,16.7,-0.2589614,-0.04124779,-0.006003916,-0.6309401,-0.619109,2.867652,0.6673418,1.572844,0.2228372,-0.03694725,0.0843572,-0.02934689,-1.132577,0.1651234,0.3600173,0.7863953,1.529231,0.1151631,0.1383685,1.695704,0.2680864,2.299295,183.4613,95.83044,True
3,3.066662,-0.370951,-0.2211653,0.1180844,-0.4052836,-0.38717,0.1805932,0.50612,1.654699,0.2898214,-0.5806895,0.3351265,3.9,16.7,-0.235512,-0.01997478,-0.0103583,-0.6306025,-0.6197044,2.870001,0.6676518,1.572768,0.2226062,-0.0370672,0.07377928,-0.04431399,-1.133398,0.1659568,0.3600956,0.7869687,1.529218,0.1151237,0.1381101,1.694843,0.267348,2.409259,183.6036,95.73985,True
3,3.077773,-0.3571261,-0.2127005,0.1094662,-0.404809,-0.3930495,0.1895912,0.5061386,1.654532,0.2889075,-0.5777206,0.2666491,3.5,14.5,-0.2270588,-0.01569395,-0.02211909,-0.6300229,-0.6195755,2.872184,0.667921,1.572758,0.2223053,-0.04662535,0.07482399,-0.04103241,-1.133292,0.1668343,0.3604586,0.7874955,1.529236,0.1150959,0.1378865,1.694045,0.2665038,2.492004,183.6893,95.66346,True
3,3.088884,-0.3422484,-0.192511,0.1007606,-0.4042801,-0.3970486,0.1965695,0.5061506,1.654398,0.2881446,-0.5752689,0.2202055,3.5,14.5,-0.2333478,-0.01572926,-0.007161349,-0.6304789,-0.6194743,2.874899,0.6681207,1.572691,0.2219062,-0.05817542,0.09816449,-0.02058518,-1.132235,0.1685618,0.3607457,0.7879589,1.529274,0.1150827,0.1377451,1.693292,0.2655605,2.596214,183.7113,95.59177,True
3,3.099995,-0.319901,-0.1712122,0.09736316,-0.4035355,-0.4007947,0.2028181,0.5061243,1.654292,0.2873592,-0.5722079,0.2764893,3.5,14.5,-0.2448366,0.02683716,0.01329496,-0.6308858,-0.6224453,2.880419,0.6683357,1.572701,0.2216568,-0.05903263,0.1150695,0.005075321,-1.130804,0.1699179,0.3607939,0.7884405,1.529151,0.1151054,0.1376547,1.6926,0.2645519,2.713438,183.668,95.52139,True
3,3.111106,-0.2996961,-0.1456814,0.09073158,-0.4030119,-0.4034841,0.2079535,0.5061431,1.654095,0.2865458,-0.5701311,0.1862224,3.5,14.5,-0.2223794,0.0512787,0.01747963,-0.6308331,-0.6248688,2.884041,0.668578,1.572739,0.2214673,-0.05129936,0.1276727,0.04023552,-1.128521,0.171205,0.3605305,0.7888573,1.529123,0.115051,0.1375778,1.69197,0.2634628,2.824805,183.6448,95.46056,True
3,3.122217,-0.2869235,-0.1318061,0.09273049,-0.4021821,-0.4067948,0.2137866,0.5060943,1.654047,0.2857828,-0.568651,0.1326707,3.5,14.5,-0.1905733,0.0299551,0.001218878,-0.6304997,-0.6237935,2.884204,0.6688997,1.572722,0.221302,-0.05235512,0.1116784,0.04229615,-1.127866,0.1716093,0.3609212,0.7892164,1.529262,0.1148987,0.1375099,1.691404,0.2622921,2.915004,183.5992,95.40535,True
3,3.133328,-0.2656401,-0.1073196,0.08929865,-0.4015456,-0.4085582,0.2175238,0.5061218,1.653954,0.2851257,-0.5670764,0.141897,3.5,14.2,-0.1505412,-0.04348861,-0.04296842,-0.6293609,-0.6179821,2.879807,0.6691709,1.572735,0.2211192,-0.05994077,0.1000443,0.02631572,-1.127874,0.172426,0.361498,0.7896724,1.529262,0.1148436,0.1374529,1.690879,0.2610652,2.982338,183.5237,95.36948,True
3,3.144439,-0.2454465,-0.07860121,0.08051777,-0.4009528,-0.4086063,0.2195875,0.5061468,1.653865,0.2844868,-0.5654136,0.1499251,3.5,14.2,-0.1422431,-0.1009881,-0.05812237,-0.6290578,-0.6123798,2.876712,0.6694866,1.572739,0.2208638,-0.07191487,0.07356556,-0.003549309,-1.128855,0.1726979,0.362771,0.790127,1.529196,0.1146815,0.1374143,1.690374,0.2598109,3.045676,183.4363,95.34093,True
3,3.15555,-0.2305394,-0.05945411,0.07607815,-0.400361,-0.4093794,0.2220757,0.5061147,1.653788,0.2838442,-0.5647126,0.06202205,3.5,14.2,-0.1517443,-0.09247851,-0.04844257,-0.6290642,-0.6112181,2.877787,0.6696901,1.572786,0.2206266,-0.06874003,0.07250877,-0.005704496,-1.128544,0.1735368,0.3631039,0.7905842,1.529137,0.1146696,0.1373695,1.689879,0.2585521,3.116475,183.3387,95.30086,True
3,3.166661,-0.2071631,-0.02543907,0.06298957,-0.3999248,-0.4073547,0.2217356,0.5061494,1.653779,0.2833576,-0.5636735,0.09383819,3.5,14.2,-0.1558479,-0.04882472,-0.03762088,-0.6288149,-0.6131739,2.881336,0.6698248,1.572823,0.2203035,-0.06451099,0.07359323,-0.009992862,-1.12848,0.1745445,0.3632429,0.7909603,1.529111,0.1146345,0.1373646,1.689392,0.2573425,3.177295,183.2125,95.23299,True
3,3.177772,-0.1975913,-0.01057912,0.05539602,-0.399536,-0.4069214,0.2230626,0.5061395,1.653752,0.2828937,-0.5628447,0.07436709,3.1,8.9,-0.1664658,-0.04562289,-0.0343351,-0.6287148,-0.6121983,2.882633,0.6699657,1.572854,0.2200222,-0.06773126,0.07892828,-0.01313643,-1.128365,0.1756163,0.3636943,0.7913677,1.529169,0.1144667,0.1373695,1.688955,0.2562029,3.203629,183.0937,95.15225,True
3,3.188883,-0.1784603,0.004222915,0.03820433,-0.3995546,-0.4054503,0.2230283,0.5062026,1.653764,0.2824066,-0.5621576,0.06161178,3.1,8.9,-0.1735329,-0.01273343,0.01269288,-0.6301444,-0.614483,2.886667,0.6701058,1.572853,0.2197104,-0.07831854,0.09381029,-0.005523322,-1.12768,0.1771477,0.3643076,0.7916478,1.529209,0.114481,0.1373583,1.688593,0.2551551,3.228062,182.9918,95.07664,True
3,3.199994,-0.1731494,0.01265594,0.02747627,-0.3995269,-0.4047828,0.2240531,0.5061928,1.653787,0.2818787,-0.5611323,0.092755,3.1,8.9,-0.1435555,0.01059128,0.02641699,-0.6307958,-0.6161411,2.888507,0.6702703,1.572774,0.2195821,-0.072902,0.1065328,0.005156925,-1.12668,0.1785258,0.3643159,0.7919379,1.529257,0.1144729,0.1373538,1.688349,0.2542238,3.228974,182.8915,94.99828,True
3,3.211105,-0.1635921,0.0157291,0.01039191,-0.3999535,-0.4038481,0.2246592,0.5063173,1.653831,0.2813873,-0.560769,0.03201086,3.1,8.9,-0.1223683,-0.004324399,0.01343935,-0.6306536,-0.6151099,2.888322,0.6704522,1.57278,0.2194271,-0.06107471,0.1128488,0.01894785,-1.125468,0.1797929,0.3640413,0.7922237,1.52923,0.114538,0.1373495,1.688227,0.2534061,3.223671,182.8358,94.95766,True
3,3.222216,-0.1529475,0.01883255,-0.002429971,-0.4002582,-0.4029123,0.2249231,0.5063738,1.653852,0.2809563,-0.559846,0.08378989,3.1,8.9,-0.0864317,-0.07784005,-0.006216934,-0.6307271,-0.6092184,2.883418,0.670696,1.57282,0.2194746,-0.06012888,0.1171822,0.002985672,-1.125456,0.1813489,0.3640099,0.7924484,1.529196,0.1146429,0.1373609,1.688244,0.2526768,3.216325,182.8232,94.93958,True
3,3.233327,-0.1497887,0.03365862,-0.01320672,-0.4006023,-0.4006824,0.2244475,0.5065485,1.653867,0.2804525,-0.559422,0.03770756,3.6,8.2,-0.06518172,-0.1087779,-0.006464073,-0.6312304,-0.6055219,2.880433,0.6709375,1.57284,0.2193441,-0.05711465,0.1130371,-0.02049592,-1.126044,0.1829108,0.3638722,0.7928065,1.529189,0.1146898,0.1373754,1.688389,0.2519834,3.199356,182.8544,94.95853,True
3,3.244438,-0.1444992,0.0528124,-0.01656492,-0.400638,-0.3975732,0.2231324,0.5067094,1.65386,0.2801347,-0.559291,0.01140198,3.6,8.2,-0.05350125,-0.115182,-0.00975634,-0.6315016,-0.6031808,2.878847,0.6711754,1.572894,0.2192483,-0.05515355,0.09610175,-0.04190345,-1.127015,0.1838915,0.363971,0.7931412,1.529121,0.1147802,0.1374565,1.688639,0.2512937,3.190767,182.8824,95.00066,True
3,3.255549,-0.1391996,0.07831553,-0.02528941,-0.400728,-0.393159,0.2201941,0.5067798,1.654004,0.2799394,-0.558442,0.07729432,3.6,8.2,-0.05993064,-0.1236773,-0.01293024,-0.6317391,-0.6007158,2.877763,0.6713048,1.572888,0.2191503,-0.05319162,0.07276721,-0.06334293,-1.128319,0.1844069,0.3641875,0.7936113,1.529035,0.114682,0.1375985,1.688966,0.2505915,3.166167,182.8766,95.06998,True
3,3.26666,-0.1296508,0.08563364,-0.04453754,-0.401544,-0.3894904,0.2179622,0.5070296,1.654097,0.2796013,-0.5580574,0.03425415,3.6,8.2,-0.07792568,-0.1290256,0.005287679,-0.6327735,-0.5982887,2.877245,0.6714929,1.572893,0.2189524,-0.05653455,0.05794581,-0.0815023,-1.12971,0.1851324,0.3646256,0.793934,1.528986,0.114748,0.1378161,1.689337,0.249834,3.100876,182.8671,95.15391,True
3,3.277771,-0.1254292,0.095153,-0.0552868,-0.4023392,-0.3853111,0.2155483,0.5073483,1.654214,0.2792985,-0.5581741,-0.01106861,3.6,8.2,-0.08310123,-0.1024241,0.01819797,-0.6335303,-0.5982236,2.878133,0.6716874,1.572922,0.2188675,-0.0533697,0.05903874,-0.08684469,-1.130402,0.1863783,0.36446,0.7941326,1.528964,0.1147943,0.138072,1.689717,0.2490072,3.027924,182.7932,95.2394,True
3,3.288882,-0.1169322,0.1025365,-0.06601109,-0.4031328,-0.3812757,0.2128372,0.5076723,1.654307,0.2789874,-0.5579136,0.02374359,5,9.1,-0.08092983,-0.06726016,0.01403351,-0.633419,-0.5990409,2.87962,0.6718764,1.572906,0.2187495,-0.03405549,0.07598796,-0.06986139,-1.130075,0.1879401,0.3635079,0.7943795,1.528904,0.1149054,0.1383192,1.690127,0.2481349,2.972122,182.6582,95.28211,True
3,3.299993,-0.1169495,0.1003519,-0.07346096,-0.4040591,-0.3779665,0.2112441,0.5080374,1.654344,0.2785556,-0.5573666,0.04965239,5,9.1,-0.08188052,-0.05771285,0.02685977,-0.6342238,-0.5986645,2.88015,0.6721941,1.572823,0.2187281,-0.02865875,0.08020116,-0.0613551,-1.130052,0.1890892,0.3631417,0.7947274,1.52891,0.1149378,0.1386334,1.69058,0.2472499,2.950797,182.5462,95.29477,True
3,3.311104,-0.1127024,0.1024291,-0.08094114,-0.4049501,-0.374266,0.2089306,0.5083818,1.654399,0.2782216,-0.557545,-0.01688588,5,9.1,-0.08289032,-0.07053137,0.03854472,-0.6353349,-0.5970591,2.879813,0.6724528,1.572822,0.2186468,-0.02653418,0.06954721,-0.06142483,-1.130526,0.1897858,0.3630512,0.7950305,1.528857,0.1149831,0.1390349,1.6911,0.2463464,2.923204,182.4605,95.31811,True
3,3.322215,-0.1052619,0.0981207,-0.0883779,-0.4059627,-0.3712998,0.2072829,0.5086564,1.65449,0.2780545,-0.5569554,0.05397214,5,9.1,-0.07233573,-0.09929103,0.03199788,-0.6361455,-0.5938722,2.877627,0.6726738,1.572788,0.2187026,-0.02449627,0.054743,-0.07009526,-1.13192,0.1916802,0.3627318,0.795745,1.528875,0.114934,0.1395115,1.691683,0.2454296,2.884152,182.3691,95.39185,True
3,3.333326,-0.09994142,0.1012893,-0.0937437,-0.4069369,-0.3673108,0.204498,0.5089689,1.654608,0.2779248,-0.5571051,-0.01424158,6.8,11.5,-0.0723978,-0.1035264,0.02452186,-0.6363634,-0.5919296,2.876895,0.673065,1.572837,0.2187521,-0.02669867,0.04306892,-0.07865978,-1.133008,0.1922144,0.3628743,0.7961109,1.528835,0.1149647,0.140026,1.692302,0.2444796,2.840235,182.2975,95.51392,True
3,3.344437,-0.09356291,0.1001565,-0.1033325,-0.40818,-0.3639087,0.2022372,0.5093765,1.654725,0.2777267,-0.5570102,0.008737064,6.8,11.5,-0.06477562,-0.0801585,0.04158782,-0.6373786,-0.5921389,2.877548,0.6733445,1.572816,0.2186661,-0.02675434,0.03352211,-0.08404958,-1.134157,0.1930287,0.3630421,0.7962675,1.528581,0.1149836,0.1405427,1.692934,0.2435209,2.821584,182.1682,95.64589,True
3,3.355548,-0.09249634,0.1076319,-0.1012677,-0.4090131,-0.3597784,0.1993656,0.5097287,1.654839,0.2774837,-0.5570651,-0.005202094,6.8,11.5,-0.04756868,-0.06853654,0.06173994,-0.638715,-0.592108,2.877506,0.6736363,1.57278,0.2186525,-0.01711633,0.02815099,-0.07457533,-1.134676,0.1935653,0.3629745,0.7964603,1.528502,0.1150854,0.1410249,1.693569,0.2426166,2.822109,181.9859,95.75696,True
3,3.366659,-0.08505402,0.1118517,-0.107704,-0.4101332,-0.3556532,0.1963045,0.5101047,1.654973,0.2772958,-0.5569623,0.009377048,6.8,11.5,-0.03907227,-0.081337,0.06164074,-0.6397541,-0.5903284,2.876256,0.6739422,1.572754,0.2186277,-0.009508004,0.036573,-0.0554151,-1.134448,0.1942654,0.3625489,0.796765,1.528408,0.1151607,0.141497,1.694205,0.2418186,2.806149,181.818,95.82994,True
3,3.37777,-0.08292741,0.1097061,-0.1087516,-0.4111148,-0.3526036,0.1944366,0.5103396,1.655124,0.2770813,-0.5567764,0.01679107,7.9,12.6,-0.0328696,-0.1025931,0.04022924,-0.6400492,-0.587166,2.873895,0.6741619,1.572737,0.218663,-0.005201254,0.03656556,-0.04801359,-1.134751,0.1954281,0.3621705,0.7971096,1.528503,0.1150985,0.1419817,1.694849,0.2411384,2.774111,181.7244,95.8898,True
3,3.388881,-0.07336035,0.1106827,-0.1215577,-0.4126419,-0.348575,0.1912491,0.5107504,1.655294,0.2768731,-0.5568478,-0.006694708,7.9,12.6,-0.03286788,-0.1164552,0.04444688,-0.6411225,-0.5846138,2.872214,0.6744521,1.572755,0.2185936,-0.006351935,0.02916254,-0.05869563,-1.135645,0.195904,0.3620788,0.7974627,1.528437,0.1151712,0.1424457,1.695505,0.2405366,2.711407,181.6888,95.96245,True
3,3.399992,-0.06270383,0.09997848,-0.1289468,-0.414137,-0.3462221,0.1894232,0.5111067,1.655492,0.2767935,-0.5565586,0.02641186,7.9,12.6,-0.05290946,-0.1186359,0.07440707,-0.6432897,-0.5833272,2.872524,0.6748284,1.572695,0.2185507,-0.01069791,0.02389483,-0.06934552,-1.136716,0.1965203,0.3621417,0.7976148,1.528126,0.1151841,0.1428742,1.696183,0.2399929,2.658414,181.66,96.04427,True
3,3.411103,-0.05203769,0.08504131,-0.1331097,-0.4156587,-0.3444082,0.187996,0.5115415,1.655731,0.2767463,-0.5568606,-0.02790335,7.9,12.6,-0.05595871,-0.07177985,0.08096528,-0.6441542,-0.5849261,2.874429,0.675078,1.572726,0.2185287,-0.01618482,0.02187328,-0.09062207,-1.138278,0.1973541,0.362102,0.7979327,1.528069,0.1153429,0.1432378,1.696881,0.2394745,2.61876,181.6458,96.12682,True
3,3.422215,-0.04669963,0.07867464,-0.1309418,-0.4169221,-0.3420177,0.1861595,0.5119615,1.655849,0.276665,-0.5569724,-0.0100448,7.9,12.6,-0.05486398,-0.04620994,0.07890937,-0.6448003,-0.5857739,2.875732,0.6753878,1.572736,0.2184272,-0.02055836,0.02300706,-0.1054796,-1.139526,0.1980909,0.3621641,0.7980292,1.528089,0.1153097,0.1436449,1.69761,0.2389951,2.608836,181.6124,96.17807,True
3,3.433326,-0.03710271,0.07980549,-0.123509,-0.4178596,-0.3394549,0.1838878,0.512391,1.656038,0.2766895,-0.5569607,0.001080753,9.3,14,-0.03992014,-0.03026116,0.07778563,-0.6454677,-0.5863028,2.875993,0.6757058,1.572797,0.2183986,-0.03025978,0.02095494,-0.1203312,-1.141217,0.1989634,0.3624493,0.7983294,1.527982,0.1153553,0.1441177,1.698384,0.2385996,2.631026,181.5376,96.23678,True
3,3.444437,-0.0296455,0.08843942,-0.1108041,-0.4183933,-0.3358468,0.1808148,0.5128814,1.656222,0.2766681,-0.5567285,0.02109947,9.3,14,-0.01228822,-0.05801442,0.07644819,-0.646819,-0.5840006,2.873406,0.6761755,1.572716,0.2184238,-0.03667378,0.01673133,-0.1213912,-1.142609,0.2000609,0.3627726,0.7988424,1.527858,0.115335,0.1446652,1.699198,0.2383157,2.637095,181.4694,96.32741,True
3,3.455548,-0.0232406,0.08957846,-0.1012268,-0.418928,-0.3333877,0.1786158,0.5132536,1.656312,0.2766738,-0.5568787,-0.01399492,9.3,14,0.02580342,-0.101691,0.05154895,-0.647333,-0.5798289,2.868574,0.6765095,1.572674,0.2184572,-0.03336856,0.007066768,-0.1054912,-1.14328,0.2001822,0.3630829,0.799224,1.527668,0.1153066,0.1452447,1.700019,0.2381231,2.592006,181.4377,96.46477,True
3,3.466659,-0.01153311,0.1077602,-0.09392905,-0.4193818,-0.3286588,0.1740224,0.5136273,1.656428,0.2767866,-0.5566481,0.02117628,9.3,14,0.04162564,-0.1208445,0.03433378,-0.6476834,-0.5765561,2.864945,0.67681,1.572636,0.2184439,-0.03119732,-0.0003874004,-0.100231,-1.144231,0.2007969,0.3630221,0.7996142,1.527598,0.1152625,0.1458368,1.700809,0.2380184,2.516438,181.4202,96.60469,True
3,3.47777,-0.008331478,0.1163547,-0.084413,-0.4197626,-0.3248509,0.1705323,0.5139973,1.656638,0.2768753,-0.5567072,-0.005635267,9.3,14,0.05006227,-0.1336187,0.02571782,-0.6482949,-0.5737071,2.86196,0.6770973,1.572631,0.2184746,-0.02695924,-0.005686909,-0.1024406,-1.145648,0.2014476,0.3629737,0.7999452,1.527438,0.1152415,0.146409,1.701524,0.2379627,2.406781,181.4283,96.74245,True
3,3.488881,-0.00618821,0.1164239,-0.07589407,-0.4200753,-0.3215123,0.1674638,0.5143808,1.656723,0.2769644,-0.5569447,-0.02172983,9.9,14.5,0.05328356,-0.1283053,0.02784284,-0.6489974,-0.5719351,2.859863,0.6773884,1.572579,0.2184346,-0.03013824,-0.004630614,-0.1002802,-1.146585,0.2018349,0.3632525,0.8002267,1.527313,0.1152682,0.1469023,1.70213,0.2379344,2.31947,181.429,96.86838,True
3,3.499992,-0.002988584,0.1121622,-0.07586759,-0.4207816,-0.3187623,0.1649301,0.5148059,1.656754,0.2770298,-0.5566097,0.03073443,9.9,14.5,0.05657868,-0.1059646,0.03534631,-0.6497495,-0.571753,2.858939,0.677717,1.57259,0.2184498,-0.03433803,0.001739692,-0.0927764,-1.147351,0.202714,0.3634277,0.8004829,1.527102,0.1152048,0.1473241,1.702641,0.2379389,2.234277,181.4007,96.91796,True
3,3.511103,-0.0008380823,0.09833296,-0.07363199,-0.4213867,-0.3170397,0.1633194,0.5151845,1.656781,0.2770839,-0.5564936,0.01027319,9.9,14.5,0.06196691,-0.08254554,0.03751307,-0.6502411,-0.5718779,2.858175,0.6780019,1.572565,0.2184227,-0.03005195,0.002786599,-0.08960783,-1.148138,0.2031192,0.3634389,0.8007615,1.526957,0.115221,0.1476925,1.703077,0.2379728,2.154846,181.3853,96.92388,True
3,3.522214,0.008788668,0.07930343,-0.0564569,-0.4214676,-0.3164831,0.1624877,0.5154417,1.65674,0.2772322,-0.5564249,0.006163227,9.9,14.5,0.06508134,-0.08144647,0.02577832,-0.6503823,-0.570479,2.856308,0.6782687,1.572516,0.2185059,-0.02474676,-0.0004074499,-0.09284956,-1.149177,0.2032189,0.363419,0.800787,1.526774,0.1152596,0.1480624,1.703425,0.2380312,2.091215,181.3934,96.93837,True
