loc,t,aDotUA,bDotUA,gDotUA,aUA,bUA,gUA,xUA,yUA,zUA,qE,qDotE,emgA,emgB,aDotSH,bDotSH,gDotSH,aSH,bSH,gSH,xSH,ySH,zSH,aDotUB,bDotUB,gDotUB,aUB,bUB,gUB,xUB,yUB,zUB,xHand,yHand,zHand,aHand,bHand,gHand,enable
1,0,-0.2560391,-0.4502274,-0.05118097,-1.470887,-4.364653,2.994141,0.7059032,1.117487,0.4522176,-1.6887,-0.01179056,0,0,-0.1899041,0.09538667,-0.04776251,-0.7032902,-4.622454,0.1870133,0.7249645,1.347452,0.3904285,-0.07011441,0.1397988,0.004842605,-0.9429188,0.05894268,0.01585939,0.8142321,1.410238,0.2060027,0.4848356,1.000309,0.2856314,297.2194,250.185,346.8016,True
1,0.01111111,-0.2549779,-0.4320635,-0.03955809,-1.471472,-4.360151,2.996456,0.7048418,1.117429,0.4519269,-1.688682,0.001816317,0,0,-0.182407,0.09746379,-0.04246772,-0.7033212,-4.620527,0.187352,0.72463,1.347419,0.390295,-0.06689036,0.133407,0.009070241,-0.9428017,0.0605973,0.01551078,0.8142461,1.410371,0.2060516,0.484208,1.000714,0.284344,297.0866,249.825,346.959,True
1,0.02222222,-0.2539224,-0.4192508,-0.03430057,-1.471855,-4.355886,2.998849,0.7038682,1.117342,0.4515271,-1.688775,-0.008450166,0,0,-0.1760167,0.09423628,-0.04145167,-0.7035549,-4.619011,0.1878812,0.7243785,1.347366,0.390142,-0.06266361,0.1142228,0.01011306,-0.9426429,0.06140317,0.01557789,0.8142772,1.410368,0.2060812,0.4836032,1.001276,0.2829399,296.9367,249.5107,346.9884,True
1,0.03333334,-0.2517951,-0.4203251,-0.03643199,-1.471971,-4.35102,3.001116,0.7030122,1.117214,0.4509966,-1.688906,-0.01202706,0,0,-0.169607,0.09313586,-0.03829494,-0.7036519,-4.617252,0.1882109,0.7240808,1.347275,0.3899207,-0.06593617,0.1142276,0.001612513,-0.9430141,0.06308643,0.01542876,0.8143535,1.410298,0.2060287,0.4830211,1.001969,0.281497,296.7475,249.3049,346.8868,True
1,0.04444445,-0.2539354,-0.4128764,-0.03753477,-1.472118,-4.346594,3.003594,0.7021674,1.117127,0.4505758,-1.688886,0.002022943,0,0,-0.1653822,0.08459568,-0.03836114,-0.7039528,-4.616106,0.1890445,0.7237502,1.347234,0.3897755,-0.06385577,0.1184781,-0.004802878,-0.9432544,0.06489458,0.01503062,0.8144137,1.410287,0.2060404,0.4824821,1.002756,0.2800066,296.5406,249.1321,346.7957,True
1,0.05555556,-0.2571641,-0.3830353,-0.03342681,-1.472339,-4.343195,3.006247,0.7014956,1.117051,0.4501753,-1.68896,-0.006856831,0,0.1,-0.1600985,0.08140567,-0.04373444,-0.7044663,-4.614661,0.1895124,0.7234731,1.347273,0.3895986,-0.06384573,0.1259392,-0.00588055,-0.9433939,0.06703696,0.01443487,0.8144703,1.410406,0.2060997,0.4820268,1.003585,0.2784489,296.3027,248.9373,346.7732,True
1,0.06666667,-0.2582605,-0.3585464,-0.035686,-1.472291,-4.339973,3.008809,0.7007471,1.116976,0.4498236,-1.688815,0.01341376,0,0.1,-0.1590444,0.08034246,-0.04481413,-0.7048807,-4.613225,0.1901667,0.7231264,1.347274,0.3894539,-0.07019975,0.1248927,-0.001558647,-0.9432523,0.06870104,0.01444978,0.8145014,1.410411,0.2060812,0.4817185,1.004395,0.2767988,296.0516,248.6851,346.7939,True
1,0.07777778,-0.2551185,-0.309494,-0.02635938,-1.472534,-4.338051,3.011379,0.7001595,1.116936,0.4495044,-1.688745,0.006263763,0,0.1,-0.1525863,0.09736824,-0.04583369,-0.7050644,-4.610552,0.189645,0.7228186,1.347196,0.3893068,-0.0712347,0.1249021,0.001650303,-0.9430589,0.07045126,0.01425031,0.8144986,1.410454,0.206089,0.4815346,1.005154,0.2750932,295.8398,248.4002,346.7506,True
1,0.08888889,-0.2572761,-0.2806944,-0.01905257,-1.472839,-4.335997,3.01405,0.6995311,1.116879,0.4491951,-1.688872,-0.01163968,0,0.1,-0.1493004,0.1111807,-0.04046106,-0.7050154,-4.607888,0.1891425,0.7225095,1.347191,0.3891232,-0.06911911,0.1227657,0.0005670316,-0.9430738,0.07202679,0.01402234,0.8145202,1.410458,0.206049,0.4814102,1.005853,0.2734252,295.6712,248.1129,346.654,True
1,0.1,-0.254127,-0.2284934,-0.01613434,-1.472964,-4.334874,3.016523,0.6989084,1.116736,0.4489086,-1.689023,-0.01367698,0,0.1,-0.1343073,0.1217412,-0.03410661,-0.7048258,-4.605256,0.1881822,0.722191,1.347154,0.3889525,-0.06277607,0.1206171,-0.003755372,-0.9433039,0.07364945,0.01358612,0.8143792,1.410449,0.2058775,0.4812402,1.006492,0.271881,295.5354,247.8111,346.5642,True
1,0.1111111,-0.2530893,-0.2093155,-0.01624194,-1.472908,-4.332995,3.01915,0.6981403,1.116696,0.448653,-1.688929,0.008641134,0,0.1,-0.1203603,0.1301606,-0.02349253,-0.7043454,-4.602564,0.187024,0.7219186,1.34717,0.3887241,-0.06706695,0.1142229,-0.004777074,-0.9433891,0.07477078,0.01389185,0.8143382,1.410429,0.2057154,0.4809828,1.007099,0.2705742,295.4214,247.6012,346.4501,True
1,0.1222222,-0.2584371,-0.1922829,-0.01739224,-1.472878,-4.331384,3.022044,0.6975969,1.116677,0.4483545,-1.689204,-0.02515024,0,0.1,-0.0871393,0.1213146,0.01568779,-0.7025701,-4.601284,0.1859515,0.7216374,1.347296,0.3884733,-0.07240026,0.1025189,-0.002585773,-0.9433247,0.07569329,0.01431556,0.8143276,1.41044,0.2055879,0.4805752,1.007681,0.2695275,295.3028,247.4587,346.3758,True
1,0.1333333,-0.270168,-0.1816375,-0.01530872,-1.472955,-4.329523,3.025252,0.6971475,1.116684,0.4481051,-1.689,0.0188837,0,0.1,-0.07438864,0.1095244,0.01981686,-0.7021078,-4.600115,0.1856484,0.7213662,1.347335,0.3881791,-0.07775652,0.09614253,-0.003598767,-0.9434317,0.07685843,0.01473767,0.8143591,1.410425,0.2054939,0.4799801,1.008235,0.2687495,295.1665,247.3571,346.3593,True
1,0.1444445,-0.2797892,-0.1507388,-0.01226698,-1.473014,-4.328841,3.028568,0.6967518,1.116659,0.4478242,-1.688733,0.02413443,0,0.1,-0.06265131,0.101977,0.02823284,-0.7013408,-4.598989,0.1850697,0.7210562,1.347376,0.3879807,-0.08948701,0.1036238,-0.006691537,-0.9435867,0.07853209,0.01511051,0.8143711,1.410432,0.2054365,0.4792495,1.008782,0.2681946,295.05,247.2892,346.4163,True
1,0.1555556,-0.2904831,-0.1177294,-0.01137283,-1.472873,-4.328434,3.032099,0.6963778,1.116605,0.447489,-1.688401,0.03016643,0,0,-0.05406401,0.1115123,0.0324932,-0.7005237,-4.596562,0.1835991,0.7206821,1.347396,0.38778,-0.09272628,0.1153463,-0.01413024,-0.9439734,0.08065943,0.01497709,0.8144511,1.41042,0.2053819,0.4785449,1.009375,0.2678132,294.9442,247.281,346.5073,True
1,0.1666667,-0.3150678,-0.04637322,-0.009595565,-1.472637,-4.330319,3.036573,0.6961153,1.11657,0.4472983,-1.688439,-0.003570236,0,0,-0.04639484,0.1326892,0.05278996,-0.6988454,-4.593572,0.181536,0.7203333,1.347445,0.3876033,-0.1075927,0.127101,-0.01187075,-0.9439926,0.08287398,0.01536005,0.8144326,1.410383,0.2053318,0.4779295,1.010056,0.2675033,294.8349,247.3,346.5919,True
1,0.1777778,-0.3471168,0.04106929,0.01340903,-1.473173,-4.333576,3.041812,0.6959414,1.116501,0.4472249,-1.688332,0.009893979,0,0,-0.03328064,0.1740713,0.07634934,-0.6966408,-4.588852,0.1776792,0.7199989,1.34744,0.387454,-0.1086389,0.1324224,-0.01079883,-0.9440134,0.08469705,0.0155257,0.8142957,1.410333,0.2052772,0.4773301,1.010837,0.2671805,294.6884,247.3174,346.6495,True
1,0.1888889,-0.3727474,0.09751598,0.01633157,-1.473161,-4.336598,3.04709,0.6956141,1.116464,0.4471123,-1.6877,0.05776194,0,0,-0.02540316,0.2185976,0.1148637,-0.6935313,-4.583531,0.1736067,0.7197329,1.34759,0.3872769,-0.1054556,0.1313445,-0.01189566,-0.9442024,0.08633755,0.01559068,0.8142734,1.410279,0.2051497,0.4766847,1.011713,0.266817,294.5013,247.278,346.6914,True
1,0.2,-0.425088,0.2306928,0.03272156,-1.473351,-4.343231,3.053927,0.6953434,1.11651,0.447084,-1.687156,0.04931505,0,0.1,-0.0206932,0.2417412,0.1714128,-0.6892362,-4.579351,0.17036,0.7196269,1.34775,0.3870978,-0.09267645,0.1078847,-0.006669962,-0.9441204,0.08690947,0.01586125,0.8143047,1.410253,0.2049651,0.4759005,1.012714,0.2665288,294.3056,247.2428,346.632,True
1,0.2111111,-0.4633831,0.1934437,0.0499997,-1.47441,-4.343823,3.060285,0.6949062,1.116587,0.4469609,-1.68725,-0.008760775,0,0.1,-0.007789165,0.2309012,0.1989876,-0.6857699,-4.5769,0.1681179,0.7194903,1.347863,0.3868151,-0.08105225,0.09613341,-0.013164,-0.9445034,0.08781587,0.01597577,0.8143029,1.41023,0.2047455,0.4748907,1.013893,0.266443,294.0916,247.3387,346.4815,True
1,0.2222222,-0.4942001,0.1434346,0.06840393,-1.47583,-4.343811,3.066771,0.6942767,1.116656,0.4465935,-1.686309,0.08635389,0,0.1,0.005930729,0.1700157,0.2199235,-0.6827104,-4.577992,0.1683568,0.7195033,1.3481,0.3866413,-0.06950086,0.07159398,-0.02496887,-0.9451457,0.08783225,0.01633636,0.8142935,1.410197,0.2045503,0.4735683,1.015273,0.2666071,293.8365,247.4165,346.4179,True
1,0.2333333,-0.5048326,0.1274596,0.07275453,-1.476563,-4.344748,3.072622,0.6937597,1.116833,0.4463446,-1.686391,-0.008052374,0,0.1,0.006756559,0.1210275,0.2143524,-0.6807823,-4.578971,0.1690316,0.719435,1.348298,0.386524,-0.06538428,0.05666389,-0.03777638,-0.9459457,0.08818246,0.01662372,0.8142381,1.410149,0.2044165,0.471884,1.016922,0.2671212,293.5611,247.6941,346.3349,True
1,0.2444444,-0.5528112,0.1389753,0.04504153,-1.476059,-4.346501,3.080551,0.6931432,1.117124,0.4457574,-1.686551,-0.0141389,0,0.1,-0.004265819,0.03906186,0.2108286,-0.6789974,-4.5832,0.1727265,0.7194136,1.348566,0.386411,-0.05799963,0.04705415,-0.04316364,-0.9466302,0.0884272,0.01688071,0.8142338,1.410115,0.2042336,0.470159,1.01888,0.2677394,293.2064,248.2165,346.3182,True
1,0.2555556,-0.5805473,0.1644494,0.03534931,-1.476036,-4.349159,3.08807,0.692675,1.117275,0.4454842,-1.687566,-0.09255076,0,0.1,-0.01728623,-0.01306363,0.20746,-0.6770938,-4.586316,0.1756919,0.7193077,1.348842,0.3862486,-0.05595957,0.0502359,-0.05384135,-0.9475564,0.08935452,0.01690149,0.8142584,1.410099,0.2041714,0.4685124,1.021104,0.2680992,292.7735,248.739,346.3235,True
1,0.2666667,-0.62537,0.2240015,0.0254906,-1.475736,-4.353651,3.097,0.6920675,1.117581,0.4450023,-1.685942,0.1494009,0,0.1,-0.02386497,-0.03105811,0.1893033,-0.675694,-4.587982,0.1774755,0.7193229,1.349129,0.3860712,-0.06031786,0.0491723,-0.06445381,-0.948626,0.09004866,0.01723678,0.8142664,1.410147,0.2040954,0.4670446,1.02351,0.2680912,292.2566,249.0081,346.3739,True
1,0.2777778,-0.6488519,0.2708929,0.03486264,-1.476416,-4.358202,3.105371,0.6914146,1.117805,0.4446898,-1.686548,-0.05660182,0,0.1,-0.02181025,-0.04276936,0.1849744,-0.6739348,-4.589873,0.1791186,0.7192519,1.349414,0.3859065,-0.06790803,0.04704998,-0.07823431,-0.9500039,0.09069661,0.01788233,0.8142971,1.410232,0.2038546,0.4655866,1.026038,0.2676772,291.7403,248.9652,346.4907,True
1,0.2888889,-0.6808576,0.3188487,0.04529378,-1.477104,-4.3635,3.114575,0.6906317,1.118093,0.4442928,-1.685753,0.07364166,0,0.1,-0.01970428,-0.0545169,0.1891667,-0.6719038,-4.592139,0.1810276,0.7192222,1.349731,0.3857374,-0.06898224,0.03640123,-0.07715142,-0.950838,0.09077305,0.0185364,0.8142891,1.410201,0.2036648,0.464151,1.02867,0.2670656,291.1991,248.8576,346.4613,True
1,0.3,-0.7021835,0.3476654,0.06113608,-1.47823,-4.36822,3.123478,0.6898478,1.118363,0.4439173,-1.686568,-0.07494489,0,0.1,-0.01652872,-0.06306873,0.1923057,-0.6697925,-4.594359,0.1828617,0.7191873,1.350035,0.3855081,-0.07538688,0.03322025,-0.07708594,-0.9516034,0.09112884,0.01946957,0.814245,1.410282,0.2034414,0.4624975,1.03141,0.2664203,290.7003,248.7898,346.3465,True
1,0.3111111,-0.7352082,0.3647812,0.08238685,-1.47989,-4.372924,3.133299,0.6888294,1.118592,0.4434934,-1.686245,0.03053654,0,0.1,-0.01229642,-0.07268209,0.1943686,-0.6677578,-4.596729,0.1847201,0.7191048,1.3503,0.3852286,-0.07760262,0.0300181,-0.08558771,-0.9529142,0.09137146,0.02024562,0.8142389,1.410274,0.2032421,0.4606356,1.034268,0.2659491,290.1773,248.8884,346.135,True
1,0.3222222,-0.787406,0.3583038,0.08034147,-1.480688,-4.376417,-3.139187,0.6877393,1.118821,0.4430633,-1.686755,-0.04678927,0,0.1,-0.01669525,-0.09500866,0.1889602,-0.666235,-4.600152,0.1878866,0.7189469,1.350509,0.3850172,-0.07562269,0.03319657,-0.102655,-0.9546223,0.09205043,0.0205612,0.8142012,1.410226,0.2030096,0.4585157,1.037245,0.2657481,289.6454,249.1324,345.9294,True
1,0.3333333,-0.8161693,0.3528948,0.07186344,-1.481096,-4.38006,-3.129041,0.68672,1.119112,0.4425275,-1.686205,0.05096012,0,0.1,-0.04140694,-0.1086279,0.1634734,-0.6656294,-4.603,0.1913902,0.7187294,1.350829,0.3847728,-0.08311239,0.03214459,-0.1057813,-0.9558927,0.09246149,0.02149863,0.8140767,1.410263,0.2027657,0.4562309,1.040328,0.2658444,289.074,249.548,345.7092,True
1,0.3444445,-0.8534768,0.3516556,0.0474034,-1.480868,-4.383823,-3.117975,0.6853795,1.119443,0.4419808,-1.685496,0.06457503,0,0.1,-0.07872449,-0.08920266,0.1446149,-0.6647676,-4.603896,0.1942259,0.7184345,1.351132,0.3845246,-0.08406104,0.03003509,-0.09298186,-0.9564184,0.09290158,0.02219745,0.8139502,1.410195,0.2026167,0.453743,1.0435,0.2661348,288.48,250.1124,345.4684,True
1,0.3555556,-0.8896756,0.3142217,0.02844593,-1.480646,-4.386037,-3.106776,0.684034,1.119951,0.4412944,-1.686371,-0.08018903,0,0,-0.103018,-0.04650678,0.1492268,-0.6627905,-4.602984,0.1953482,0.718129,1.351463,0.384264,-0.08610661,0.03004246,-0.08444424,-0.9570943,0.09323674,0.02294739,0.8139784,1.410268,0.2024636,0.4511726,1.046769,0.2664921,287.8782,250.5724,345.4076,True
1,0.3666667,-0.9098954,0.2875036,0.01688689,-1.480513,-4.388386,-3.095801,0.6823765,1.120356,0.4405241,-1.685938,0.04062918,0,0,-0.1124405,-0.01987514,0.1579339,-0.6606626,-4.602577,0.1965937,0.7177855,1.351798,0.3839839,-0.08486196,0.04283811,-0.06848741,-0.9572732,0.09439468,0.02317243,0.8138863,1.410296,0.202316,0.4486138,1.050136,0.2668127,287.2463,250.877,345.4796,True
1,0.3777778,-0.9109728,0.2864198,0.01368764,-1.480694,-4.391541,-3.085415,0.6808981,1.120809,0.4399741,-1.685971,-0.003228368,0,0,-0.1292645,0.0163545,0.1699289,-0.6581725,-4.601347,0.1975783,0.7174535,1.35217,0.3836415,-0.09122019,0.05777083,-0.06737226,-0.9579417,0.09589124,0.0237016,0.8138664,1.410299,0.2020738,0.4459742,1.053602,0.2669804,286.6278,251.0883,345.593,True
1,0.3888889,-0.9216545,0.3066243,0.009330094,-1.480894,-4.395657,-3.074415,0.6791012,1.121226,0.4392421,-1.686577,-0.05510393,0,0,-0.1536808,0.04418282,0.1648763,-0.656343,-4.599573,0.1986998,0.7169914,1.352502,0.3832564,-0.09557281,0.06522317,-0.07905991,-0.9592605,0.09704612,0.02426433,0.8138566,1.410256,0.2018371,0.4433336,1.057204,0.2668773,286.0154,251.282,345.6942,True
1,0.4,-0.9419078,0.3172557,0.01248547,-1.481449,-4.399513,-3.062913,0.6773317,1.121539,0.4384923,-1.687594,-0.09224129,0,0,-0.1845614,0.03681484,0.1724856,-0.6542034,-4.600267,0.2022879,0.7166498,1.35278,0.3829725,-0.09888302,0.06096458,-0.08967456,-0.9605281,0.09778515,0.0251192,0.8138306,1.410193,0.2016213,0.440696,1.060931,0.2664526,285.3533,251.4063,345.7281,True
1,0.4111111,-0.9429686,0.3119167,0.01038393,-1.481762,-4.402786,-3.052044,0.6754415,1.121925,0.4377003,-1.687389,0.01958703,0,0,-0.210122,0.02195421,0.1842813,-0.6519375,-4.601431,0.2063337,0.716135,1.353132,0.3826394,-0.1011579,0.05456282,-0.1034983,-0.9621223,0.09827277,0.02600657,0.8137475,1.410149,0.2013936,0.4381595,1.064731,0.2658484,284.6384,251.4624,345.667,True
1,0.4222222,-0.948283,0.2991382,0.01576242,-1.482301,-4.405449,-3.041066,0.6733782,1.122354,0.4366996,-1.687032,0.03261879,0,0,-0.225122,0.01139799,0.1779287,-0.6502576,-4.602316,0.2100014,0.7156094,1.353528,0.382309,-0.1054371,0.05457371,-0.1055847,-0.9632723,0.09910568,0.02680099,0.8136927,1.410086,0.2012448,0.4354959,1.068547,0.2651445,283.8978,251.5004,345.5702,True
1,0.4333333,-0.9493459,0.2970375,0.02110615,-1.483088,-4.408722,-3.030014,0.6713814,1.12286,0.4358103,-1.687784,-0.06889116,0,0,-0.246605,-0.00973995,0.1619782,-0.6491833,-4.604057,0.2146774,0.7149969,1.353775,0.3819067,-0.122292,0.06634831,-0.08838955,-0.9635817,0.1005169,0.02791792,0.8135587,1.410037,0.201004,0.4327376,1.072349,0.2644502,283.1714,251.6287,345.4338,True
1,0.4444444,-0.9397589,0.2959728,0.01897216,-1.483627,-4.411989,-3.019453,0.6691176,1.123328,0.4347551,-1.68788,-0.008138616,0,0,-0.2701086,-0.01493075,0.1546371,-0.6477878,-4.605232,0.2194647,0.7142576,1.354127,0.3815579,-0.1402049,0.09942609,-0.07546736,-0.9639471,0.1032649,0.0285355,0.8133419,1.41005,0.2008803,0.4299166,1.076111,0.2637861,282.4718,251.8097,345.3326,True
1,0.4555556,-0.9322954,0.2896078,0.02218321,-1.48428,-4.414957,-3.009007,0.6668718,1.123744,0.4335883,-1.687999,-0.01067344,0,0.1,-0.2827327,0.03204048,0.1474855,-0.6458911,-4.602469,0.2207057,0.7134539,1.354428,0.3811359,-0.1602399,0.1282545,-0.06039043,-0.9640808,0.1062252,0.02928758,0.8131021,1.410116,0.2006552,0.4270353,1.079825,0.2631065,281.8275,252.0885,345.1821,True
1,0.4666667,-0.9205652,0.2821812,0.02540725,-1.48507,-4.417773,-2.998935,0.6645294,1.124191,0.4325109,-1.688609,-0.05559708,0,0.1,-0.2911508,0.06833708,0.1391881,-0.6442341,-4.599733,0.2220283,0.7126366,1.354754,0.3807244,-0.1686222,0.1368083,-0.04753541,-0.9641171,0.1084598,0.03017042,0.812884,1.410131,0.2004981,0.4241208,1.083513,0.2624361,281.2206,252.371,345.0117,True
1,0.4777778,-0.9173581,0.2768838,0.03181139,-1.485979,-4.420515,-2.988658,0.6624205,1.124746,0.4315586,-1.688825,-0.01929812,0,0.1,-0.3177742,0.1058563,0.1139648,-0.6432999,-4.596148,0.2235396,0.7118132,1.355006,0.3802793,-0.1728178,0.1378863,-0.04111067,-0.9644291,0.1102147,0.03112064,0.8127645,1.410112,0.200325,0.4210935,1.087171,0.2617529,280.5867,252.653,344.8621,True
1,0.4888889,-0.9120075,0.2620097,0.03827608,-1.486988,-4.422723,-2.97873,0.6601207,1.125262,0.4305141,-1.689217,-0.03575059,0,0.1,-0.3422226,0.1272969,0.1078229,-0.6419049,-4.592974,0.2256174,0.710915,1.355368,0.3798478,-0.1845072,0.1453817,-0.03995087,-0.9649091,0.1125866,0.03215048,0.8125736,1.410142,0.2002015,0.4180332,1.090765,0.2610547,279.9459,253.0466,344.6185,True
1,0.5,-0.9013337,0.2524869,0.04896003,-1.488252,-4.425039,-2.968788,0.657813,1.12578,0.429539,-1.689039,0.01662568,0,0.1,-0.3779776,0.1623615,0.1593383,-0.6378644,-4.589499,0.2282164,0.7097793,1.355791,0.3793375,-0.1887561,0.1634988,-0.04312334,-0.9654263,0.1155768,0.03271054,0.8123266,1.410094,0.2000787,0.4150476,1.094271,0.2603667,279.3437,253.5127,344.2726,True
1,0.5111111,-0.8896308,0.2685216,0.05526406,-1.489807,-4.428472,-2.958747,0.6553611,1.126339,0.4283824,-1.689296,-0.02366362,0,0,-0.3745016,0.1888478,0.1871383,-0.6342627,-4.585705,0.2292564,0.708769,1.356191,0.3788731,-0.1962105,0.1762962,-0.04626294,-0.9660137,0.1185263,0.03345862,0.8120824,1.410012,0.1999147,0.4122365,1.097703,0.259719,278.8051,254.0251,343.8682,True
1,0.5222223,-0.8715103,0.2696764,0.06802547,-1.491559,-4.431305,-2.949285,0.6528876,1.126838,0.427202,-1.689291,0.0005845873,0,0,-0.342081,0.2610334,0.2117959,-0.6299793,-4.578042,0.225697,0.7075764,1.356522,0.3782434,-0.2259816,0.2104549,-0.04814268,-0.9664888,0.1228546,0.03459579,0.8117356,1.410041,0.1998098,0.4094873,1.101097,0.2590451,278.2764,254.6126,343.3829,True
1,0.5333334,-0.8576593,0.2793254,0.07541624,-1.493216,-4.434501,-2.939859,0.6503452,1.127265,0.4259496,-1.689242,0.004391188,0,0,-0.337688,0.2897745,0.2129698,-0.6268309,-4.572207,0.2246765,0.7064862,1.356739,0.377624,-0.2311846,0.2200689,-0.0374507,-0.9664718,0.1262386,0.03540539,0.8113692,1.410043,0.1995795,0.4066993,1.104484,0.258322,277.7553,255.3112,342.7555,True
1,0.5444446,-0.8544708,0.2846505,0.07432023,-1.494676,-4.437649,-2.930154,0.6478718,1.127667,0.4247828,-1.689715,-0.04324884,0,0,-0.3526677,0.3059247,0.1907657,-0.6245939,-4.566058,0.22415,0.7053314,1.356944,0.3770182,-0.2235183,0.2243318,-0.01621947,-0.9658359,0.1294577,0.03583283,0.8109611,1.410074,0.1993551,0.4037243,1.107914,0.2575536,277.233,256.1965,341.9469,True
1,0.5555557,-0.8512621,0.2804121,0.07967642,-1.496437,-4.440257,-2.920523,0.6453506,1.128118,0.4235728,-1.689754,-0.003288292,0,0,-0.3763799,0.2880573,0.1588716,-0.6232106,-4.562369,0.2262409,0.7041584,1.357105,0.376399,-0.205212,0.2093971,0.008129392,-0.9648164,0.1315776,0.03624615,0.8105378,1.410038,0.1990929,0.4006519,1.111359,0.2567761,276.67,257.3834,340.8693,True
1,0.5666668,-0.8438091,0.2879055,0.08494538,-1.498225,-4.443343,-2.911157,0.642892,1.128478,0.4223206,-1.689384,0.03374426,0,0,-0.3851254,0.2690338,0.1353944,-0.6219067,-4.55861,0.2277823,0.7030164,1.357282,0.3758442,-0.2008996,0.1976768,0.01662396,-0.9643264,0.1338036,0.03714204,0.8100702,1.410073,0.1988268,0.3975438,1.114765,0.2560153,276.0773,258.728,339.6428,True
1,0.577778,-0.8246555,0.3049832,0.0880383,-1.500235,-4.446951,-2.902286,0.6403576,1.128812,0.4210224,-1.689313,0.006198934,0,0,-0.3789289,0.2574107,0.1108045,-0.6207269,-4.554527,0.2284169,0.7018098,1.357408,0.3751667,-0.1998268,0.1923499,0.01874933,-0.9639956,0.1361668,0.03798174,0.8096204,1.410077,0.1985927,0.3944936,1.1181,0.25531,275.5156,260.2549,338.2336,True
1,0.5888891,-0.8033599,0.3220937,0.09644842,-1.50251,-4.450581,-2.893757,0.6378797,1.129065,0.4197354,-1.689557,-0.0223329,0,0,-0.3790444,0.2446798,0.100091,-0.6193538,-4.55084,0.2296074,0.7006001,1.357493,0.374541,-0.2018811,0.1987495,0.02515237,-0.9634678,0.139084,0.03864247,0.809188,1.410066,0.198319,0.3915121,1.121379,0.2546372,274.9995,262.2476,336.3778,True
1,0.6000003,-0.792741,0.356241,0.1047826,-1.505162,-4.455152,-2.884916,0.6354214,1.129294,0.418366,-1.690035,-0.0435353,0,0,-0.3824137,0.2116955,0.09462608,-0.6182262,-4.54909,0.2325739,0.6993499,1.357543,0.3738856,-0.1932246,0.2093892,0.03679012,-0.9624105,0.1423071,0.03864433,0.808571,1.410076,0.1980336,0.3885804,1.124605,0.2539879,274.4871,264.6663,334.0985,True
1,0.6111114,-0.7789105,0.3754891,0.1163964,-1.508007,-4.459244,-2.876427,0.6330279,1.129565,0.4170923,-1.690299,-0.02394402,0,0,-0.3835469,0.2053449,0.08819878,-0.6171279,-4.545818,0.2342232,0.6981289,1.357664,0.3733203,-0.1857064,0.2104328,0.04311091,-0.9616643,0.1449729,0.03892263,0.8080134,1.410122,0.1977842,0.3856344,1.127764,0.2533724,273.9694,267.8277,331.069,True
1,0.6222225,-0.7576187,0.4022541,0.1364777,-1.511484,-4.463804,-2.868588,0.63066,1.129789,0.4157035,-1.689925,0.03423715,0,0,-0.3836163,0.2139502,0.07012594,-0.6164206,-4.541429,0.2347904,0.696758,1.357662,0.372678,-0.178075,0.2168224,0.06007915,-0.9603567,0.1480843,0.0388438,0.8074133,1.410128,0.1975071,0.3826768,1.130813,0.2528201,273.4725,272.2186,326.8152,True
1,0.6333337,-0.7469642,0.4118824,0.1460259,-1.514738,-4.467674,-2.860677,0.6282363,1.130155,0.4144883,-1.690056,-0.01244246,0,0,-0.380438,0.2257138,0.05844476,-0.6154736,-4.536711,0.2349632,0.6955649,1.35777,0.3719835,-0.1716112,0.216797,0.06748101,-0.9592323,0.1505891,0.03903155,0.8068001,1.410113,0.1972313,0.3796617,1.133758,0.2523593,273.0572,277.9069,321.2869,True
1,0.6444448,-0.7160735,0.4247811,0.1608314,-1.518214,-4.471938,-2.853563,0.6258053,1.130377,0.4129937,-1.690599,-0.04949694,0,0,-0.3729566,0.2523855,0.04361326,-0.6146565,-4.530453,0.2337243,0.6942422,1.357784,0.3712685,-0.1715862,0.2146694,0.07067874,-0.9582629,0.1533412,0.03934447,0.8061365,1.410125,0.1969087,0.3766562,1.136613,0.2520132,272.7399,285.0796,314.3132,True
1,0.655556,-0.6936831,0.4152478,0.1672584,-1.521438,-4.475416,-2.846492,0.6233463,1.130599,0.4116402,-1.690357,0.0224307,0,0,-0.3676821,0.2620319,0.02765252,-0.6140408,-4.524902,0.2330242,0.6928025,1.357775,0.3705797,-0.1694411,0.2103942,0.07278994,-0.9574085,0.1557833,0.03967151,0.8054145,1.41013,0.1965985,0.3736649,1.139392,0.2517698,272.5128,294.0916,305.5378,True
1,0.6666671,-0.6648976,0.3982461,0.1673293,-1.524381,-4.478574,-2.839896,0.62086,1.130767,0.4101269,-1.690934,-0.05316408,0,0,-0.368794,0.2471205,0.03078064,-0.6130953,-4.521031,0.2340567,0.6913921,1.35779,0.3698554,-0.1640873,0.2093196,0.07593673,-0.9563779,0.1585337,0.03970294,0.8047351,1.410154,0.1962695,0.3706737,1.142127,0.2515818,272.3698,304.256,295.6394,True
1,0.6777782,-0.6361051,0.3716482,0.1674361,-1.527107,-4.481121,-2.833626,0.618353,1.130875,0.4087217,-1.690775,0.01484347,0,0,-0.3709635,0.2354186,0.02967435,-0.6122735,-4.517403,0.2350328,0.6899095,1.357719,0.3690848,-0.1597241,0.2135701,0.08655432,-0.9548199,0.161393,0.03977671,0.8038596,1.410267,0.1958313,0.3676826,1.144799,0.2513869,272.2923,316.4425,283.7545,True
1,0.6888894,-0.6254149,0.3503671,0.1686095,-1.529997,-4.483711,-2.82687,0.6157605,1.131071,0.4072423,-1.690967,-0.01783725,0,0,-0.3795348,0.2419074,0.01697465,-0.611825,-4.512339,0.235449,0.6883149,1.357757,0.3682616,-0.1596338,0.2231523,0.09399593,-0.9535155,0.1645996,0.03974102,0.8031185,1.410408,0.1954324,0.3647373,1.147365,0.2511224,272.3153,329.0683,271.4243,True
1,0.7000005,-0.5859552,0.3109791,0.1655838,-1.532316,-4.48524,-2.821594,0.6131173,1.131257,0.405709,-1.69104,-0.006676638,0,0,-0.3985173,0.2792459,0.02259446,-0.6104024,-4.505195,0.2346772,0.6867365,1.357789,0.3674185,-0.1669482,0.2242484,0.1089784,-0.9516971,0.1676313,0.04007445,0.8022833,1.410432,0.1950474,0.3618597,1.149782,0.2507076,272.424,340.8453,259.918,True
1,0.7111117,-0.5667626,0.2907363,0.1624757,-1.534801,-4.487234,-2.815756,0.6106641,1.131469,0.4042323,-1.690326,0.0651422,0,0.1,-0.3981527,0.3430857,0.03782798,-0.6080289,-4.495795,0.2313408,0.6851027,1.357761,0.366493,-0.176531,0.2295939,0.1079926,-0.9505301,0.1708684,0.04040814,0.8015803,1.410543,0.1946368,0.3590572,1.152015,0.2500981,272.5967,350.3388,250.6141,True
1,0.7222228,-0.5390233,0.2652314,0.1647124,-1.53726,-4.488594,-2.810629,0.6080755,1.131699,0.4026811,-1.691451,-0.1036586,0,0.1,-0.3872654,0.3856103,0.0464891,-0.6059543,-4.486295,0.2275008,0.6834754,1.357783,0.3656271,-0.181793,0.2487834,0.1101553,-0.9490702,0.1749636,0.04021,0.8007796,1.410608,0.1942768,0.3562356,1.154125,0.2492583,272.7989,356.7734,244.3163,True
1,0.7333339,-0.5219556,0.2556818,0.1690252,-1.540115,-4.490333,-2.805411,0.6056287,1.131951,0.4011374,-1.690792,0.06104767,0,0.1,-0.3785681,0.4046727,0.06357586,-0.6036113,-4.478217,0.2248704,0.6818379,1.35771,0.3647885,-0.1828443,0.2530377,0.1112269,-0.9477077,0.1782946,0.04035035,0.7999514,1.410606,0.1939213,0.3535034,1.156088,0.2481946,272.994,2.082387,239.0952,True
1,0.7444451,-0.4910697,0.2663974,0.1742713,-1.543208,-4.492757,-2.800836,0.6030599,1.13216,0.3994169,-1.691131,-0.03181641,0,0.1,-0.3903044,0.4004616,0.06362652,-0.6019266,-4.471048,0.2237244,0.6801147,1.357749,0.3638511,-0.1902739,0.260513,0.1123552,-0.9462973,0.1821255,0.04048458,0.7990799,1.410677,0.1935139,0.3508817,1.157923,0.2469607,273.1743,5.825886,235.3695,True
1,0.7555562,-0.4719221,0.2866833,0.1784146,-1.546553,-4.495707,-2.796018,0.6005468,1.132353,0.3977456,-1.690852,0.02569487,0,0.1,-0.3989583,0.3867073,0.05295447,-0.6009263,-4.464462,0.2231793,0.6784045,1.357744,0.3628821,-0.192304,0.2583926,0.1230299,-0.9444203,0.1853681,0.04072053,0.7982358,1.410716,0.1931033,0.3483191,1.159681,0.2455913,273.3597,8.815825,232.3551,True
1,0.7666674,-0.4357102,0.3112432,0.1814483,-1.549954,-4.498972,-2.792462,0.5978699,1.132504,0.3959558,-1.691223,-0.03432968,0,0,-0.4195103,0.3517674,0.02627762,-0.6009583,-4.459607,0.2246209,0.6765276,1.357791,0.3618374,-0.2060099,0.2595035,0.1380723,-0.9421998,0.1889172,0.04145876,0.7973036,1.410852,0.1926572,0.3457717,1.161411,0.2441611,273.5535,11.19036,229.9335,True
1,0.7777785,-0.4080507,0.3378779,0.174891,-1.553184,-4.502825,-2.788771,0.5952448,1.132718,0.3941627,-1.69078,0.04062239,0,0,-0.4486318,0.3233096,-0.01097232,-0.6017258,-4.454385,0.2264885,0.6745166,1.357769,0.3607581,-0.2122823,0.2701702,0.1487783,-0.9399819,0.1928768,0.04173519,0.7963281,1.411036,0.1921659,0.3431242,1.163145,0.2427478,273.7703,13.76008,227.3222,True
1,0.7888896,-0.3665369,0.3634314,0.1651499,-1.556434,-4.506785,-2.786165,0.5924869,1.13284,0.3924887,-1.691719,-0.08645696,0,0,-0.4636538,0.3191836,-0.02581615,-0.6017609,-4.448199,0.2271306,0.6725253,1.357799,0.3596835,-0.2292995,0.2766039,0.1499972,-0.9381491,0.1969055,0.04247396,0.7953421,1.411191,0.1917608,0.3403364,1.164888,0.241458,274.0089,16.12705,224.9415,True
1,0.8000008,-0.3409512,0.3517674,0.1694475,-1.559544,-4.509232,-2.783279,0.5897537,1.133061,0.390763,-1.691399,0.02983532,0,0,-0.4935881,0.3311687,-0.0532759,-0.6023335,-4.440242,0.227011,0.6703767,1.357804,0.3585398,-0.2537017,0.2926359,0.1566159,-0.9358689,0.2013189,0.0434761,0.7942116,1.411243,0.1913478,0.3373744,1.166597,0.2403582,274.2868,18.59924,222.5278,True
1,0.8111119,-0.3143132,0.3389918,0.1652366,-1.562386,-4.511771,-2.780541,0.5869634,1.133299,0.389189,-1.692094,-0.06410736,0,0,-0.5242475,0.3781486,-0.04754594,-0.601354,-4.42995,0.2254693,0.6680779,1.35788,0.3573673,-0.2685636,0.3097027,0.1578038,-0.9339359,0.2059701,0.04409263,0.7931271,1.411316,0.1909952,0.3342565,1.168213,0.2395043,274.5607,20.62226,220.6287,True
1,0.8222231,-0.2801492,0.2740133,0.1580857,-1.5641,-4.512049,-2.778602,0.5839847,1.133577,0.3874991,-1.691521,0.05269274,0,0,-0.54208,0.4368009,-0.04395548,-0.6001135,-4.41798,0.2220943,0.6657971,1.35798,0.3561118,-0.2929485,0.342787,0.1622642,-0.9317607,0.2119844,0.04459969,0.7919845,1.411433,0.1906652,0.3310354,1.169657,0.2389181,274.8602,22.07538,219.3838,True
1,0.8333342,-0.2502216,0.1908726,0.1435853,-1.565073,-4.511006,-2.776864,0.5809906,1.133796,0.3857753,-1.691268,0.02245421,0,0,-0.5471151,0.4868318,-0.03090138,-0.5984842,-4.405902,0.2183049,0.6633238,1.358058,0.354768,-0.3067077,0.3598632,0.1677043,-0.9295284,0.2173645,0.04518798,0.7908025,1.41158,0.1902962,0.3277903,1.170902,0.238484,275.1469,22.32658,219.4421,True
1,0.8444453,-0.2405917,0.1492831,0.1331398,-1.566185,-4.510806,-2.774564,0.5781361,1.134103,0.384059,-1.691716,-0.04135969,0,0,-0.5661053,0.5476961,-0.04327909,-0.5976453,-4.39152,0.2132604,0.6608393,1.358221,0.3534575,-0.3342627,0.3780466,0.1786,-0.9269878,0.223193,0.0463177,0.7896109,1.411759,0.1899667,0.3245373,1.171981,0.2380611,275.3893,22.15237,219.9773,True
1,0.8555565,-0.2192033,0.06821026,0.1079855,-1.565939,-4.508858,-2.772887,0.5752503,1.134501,0.3822987,-1.691642,0.006873685,0,0,-0.579661,0.6031153,-0.0344125,-0.5960682,-4.376944,0.20797,0.6582513,1.358337,0.3521492,-0.3501609,0.3876737,0.1851382,-0.9244823,0.2286936,0.04738403,0.7884707,1.411945,0.1895745,0.321355,1.172892,0.237404,275.6158,22.12479,220.403,True
1,0.8666676,-0.1935859,0.01165574,0.08482028,-1.565566,-4.507268,-2.771621,0.5723779,1.134953,0.3805885,-1.690769,0.07953864,0,0,-0.5847375,0.6446277,-0.02246438,-0.5942003,-4.362224,0.2023342,0.6558126,1.358476,0.3508315,-0.3735217,0.3941252,0.1917438,-0.9219102,0.2342606,0.04898246,0.7872325,1.412078,0.1892364,0.3183379,1.173612,0.2362981,275.788,22.11065,220.7049,True
1,0.8777788,-0.1753703,-0.06502346,0.08520902,-1.565415,-4.503923,-2.770361,0.5694633,1.135389,0.3788321,-1.691029,-0.02463253,0,0,-0.5812901,0.6978519,-0.01797734,-0.5924532,-4.345731,0.1949482,0.6532831,1.358534,0.3494463,-0.3894883,0.4048068,0.1908116,-0.9197285,0.2400995,0.0502669,0.7860265,1.412272,0.188869,0.3154875,1.174212,0.2346821,275.8516,21.71161,221.2156,True
1,0.8888899,-0.1582836,-0.09802497,0.08536509,-1.565552,-4.501587,-2.769129,0.566568,1.135709,0.376894,-1.69123,-0.01825821,0,0,-0.5899315,0.7033293,-0.04134943,-0.5922828,-4.331218,0.1897779,0.650772,1.358713,0.3480763,-0.3991471,0.402692,0.1834447,-0.9177413,0.245509,0.05169702,0.7847363,1.412411,0.1884723,0.3128502,1.174751,0.2325246,275.8158,21.51655,221.3568,True
1,0.900001,-0.1337482,-0.1267976,0.07803357,-1.565286,-4.499176,-2.768569,0.5636258,1.136071,0.375051,-1.690984,0.02243632,0,0,-0.599733,0.6693383,-0.05209547,-0.5919318,-4.319917,0.1874724,0.6481838,1.358883,0.3465874,-0.4003176,0.3856357,0.1770823,-0.915746,0.2499423,0.05351835,0.7833916,1.412481,0.1880882,0.3103989,1.175277,0.2299016,275.7387,21.50723,221.1328,True
1,0.9111122,-0.1294844,-0.1278443,0.08017024,-1.565742,-4.497537,-2.767215,0.5607603,1.136339,0.373219,-1.690739,0.02197603,0,0.1,-0.617245,0.6163376,-0.09166439,-0.5933923,-4.310462,0.1871819,0.6456483,1.358945,0.3451812,-0.3982231,0.3717852,0.1760083,-0.9136331,0.2544777,0.05504168,0.7820408,1.412706,0.1877284,0.3080986,1.175823,0.2268801,275.6966,21.56254,220.7425,True
1,0.9222233,-0.1210352,-0.08103936,0.06500673,-1.566244,-4.498108,-2.766187,0.5579339,1.136418,0.371434,-1.691149,-0.03778676,0,0.1,-0.6143243,0.5866138,-0.1152633,-0.594392,-4.299892,0.1852545,0.6431051,1.358836,0.3437283,-0.3970335,0.3685986,0.1909142,-0.9107702,0.2593723,0.05655542,0.78057,1.413008,0.1872222,0.305844,1.176406,0.2235884,275.6608,22.11603,219.7781,True
1,0.9333345,-0.1200226,-0.04166801,0.05628268,-1.566916,-4.498747,-2.764967,0.554998,1.136508,0.3696129,-1.690185,0.08824444,0,0.1,-0.5963883,0.5750366,-0.1463491,-0.5959079,-4.288208,0.1815844,0.6404995,1.358894,0.3423669,-0.3937395,0.3717909,0.2015503,-0.9077379,0.2645957,0.05774745,0.7791257,1.413183,0.1867938,0.3035959,1.176983,0.2202242,275.6115,23.17609,218.2339,True
1,0.9444456,-0.1201117,0.02649894,0.05379643,-1.568359,-4.501114,-2.763608,0.5523263,1.136483,0.3677938,-1.690228,-0.004822974,0,0.1,-0.5742521,0.5653859,-0.1667403,-0.5972293,-4.276753,0.1779149,0.6378063,1.358823,0.3408568,-0.3850405,0.3792439,0.2185074,-0.9044457,0.270063,0.05840445,0.7776151,1.413454,0.1863484,0.3012643,1.177543,0.2170278,275.5637,24.293,216.6042,True
1,0.9555568,-0.1095172,0.08515837,0.06520427,-1.570527,-4.503201,-2.762808,0.5496784,1.136568,0.3660004,-1.689911,0.02896165,0,0.1,-0.5489171,0.5526427,-0.1957172,-0.5992507,-4.265459,0.1740091,0.6351821,1.358865,0.339427,-0.3923233,0.3952366,0.2334825,-0.9011056,0.2758859,0.05941512,0.7760713,1.413755,0.1858709,0.2987273,1.178065,0.2142736,275.5393,25.74712,214.713,True
1,0.9666679,-0.1010239,0.1182596,0.07780658,4.710531,-4.505032,-2.762002,0.5471098,1.136596,0.364224,-1.689626,0.02574138,0,0.1,-0.5361503,0.5697039,-0.2106272,-0.6008683,-4.252762,0.1689608,0.6326305,1.35881,0.3379939,-0.3975053,0.4059129,0.2463058,-0.8976802,0.2817957,0.0602668,0.7745521,1.414032,0.1854336,0.2959158,1.178541,0.2121222,275.5603,26.68586,213.5287,True
1,0.977779,-0.08088861,0.2152996,0.09326609,4.706964,-4.509468,-2.761906,0.544753,1.136567,0.362365,-1.69005,-0.03901578,0,0.1,-0.5095837,0.6070448,-0.2457585,-0.603312,-4.23766,0.161346,0.6300168,1.358775,0.3364077,-0.3919493,0.4208262,0.2675502,-0.893686,0.2878842,0.06060183,0.7728566,1.414222,0.1849382,0.2929069,1.178958,0.2106858,275.6225,26.57426,213.6326,True
1,0.9888902,-0.08092776,0.2494096,0.09734717,4.704497,-4.512567,-2.761009,0.542327,1.136469,0.3604927,-1.689978,0.006906847,0,0.1,-0.4966977,0.6218733,-0.2393798,-0.6045685,-4.224273,0.1553765,0.6274425,1.358626,0.3348713,-0.3716028,0.4293181,0.2769322,-0.8901435,0.2940788,0.06014243,0.771254,1.414384,0.1844511,0.2897866,1.179342,0.2099065,275.7512,25.5178,214.9441,True
1,1.000001,-0.07035585,0.3176543,0.1076298,4.701027,-4.517237,-2.76056,0.5400316,1.136342,0.3586476,-1.690519,-0.04967313,0,0.1,-0.4955172,0.6367482,-0.2307846,-0.6055176,-4.21063,0.1496443,0.6249539,1.358495,0.3332534,-0.3619619,0.4442122,0.2789589,-0.8866931,0.3008067,0.05956,0.7696854,1.414618,0.1839473,0.2866457,1.179699,0.2096137,275.93,24.25907,216.6299,True
1,1.011112,-0.06718204,0.3347021,0.1075358,4.698418,-4.520686,-2.759986,0.5376308,1.136257,0.3568437,-1.689632,0.08140449,0,0.1,-0.4846825,0.6547356,-0.2137179,-0.606144,-4.196553,0.1430679,0.6224243,1.358426,0.3317485,-0.3650755,0.4506234,0.2853722,-0.8830611,0.3072928,0.05954775,0.7681336,1.414886,0.1834924,0.2834857,1.180034,0.2096861,276.1753,23.29634,218.1207,True
1,1.022224,-0.05657432,0.3762833,0.1126389,4.69504,-4.525238,-2.75985,0.5353001,1.136096,0.355124,-1.689835,-0.019363,0,0,-0.4587413,0.6885238,-0.1732236,-0.6053972,-4.180988,0.134557,0.6199275,1.358228,0.3301432,-0.3606593,0.4559472,0.3013183,-0.8787633,0.3136759,0.05940261,0.7666306,1.415177,0.1829031,0.2803199,1.180342,0.2098982,276.4322,22.6164,219.3801,True
1,1.033335,-0.04911669,0.3837712,0.1179222,4.692018,-4.528643,-2.759701,0.5329151,1.136034,0.3533604,-1.689653,0.01674757,0,0,-0.4489818,0.7086613,-0.159336,-0.6055549,-4.165722,0.1266325,0.6174808,1.35811,0.3285601,-0.3478187,0.4537965,0.3075874,-0.8749054,0.3198178,0.05886412,0.7649502,1.415489,0.1823397,0.2771632,1.180635,0.2101143,276.6873,21.98584,220.5554,True
1,1.044446,-0.04165935,0.3880698,0.1232186,4.68892,-4.532155,-2.759588,0.5306877,1.135895,0.3516316,-1.689945,-0.02686252,0,0,-0.4546126,0.6725847,-0.1829073,-0.6075448,-4.154081,0.1223981,0.6149762,1.357823,0.326968,-0.3404244,0.4527084,0.301127,-0.8715194,0.3260058,0.05836717,0.7633748,1.41576,0.1818125,0.2740428,1.180912,0.2101805,276.9108,21.46477,221.553,True
1,1.055557,-0.03847322,0.3944086,0.1157378,4.686226,-4.535722,-2.759523,0.5284921,1.135734,0.3500032,-1.689868,0.007207125,0,0,-0.465584,0.6312014,-0.2054015,-0.6098351,-4.143762,0.1195331,0.6124715,1.35775,0.3253682,-0.339403,0.4548392,0.2957942,-0.8681005,0.3325,0.05789126,0.7616178,1.415936,0.1813028,0.2709826,1.181161,0.2100581,277.1203,20.93085,222.462,True
1,1.066668,-0.03209852,0.3921871,0.09656526,4.684246,-4.539531,-2.759458,0.5262864,1.135547,0.3482342,-1.689772,0.00864069,0,0,-0.4636883,0.6217581,-0.237418,-0.6128072,-4.131869,0.1148786,0.6100372,1.357501,0.3237987,-0.3478449,0.4548663,0.3043962,-0.8641776,0.3387807,0.05792988,0.7600409,1.41619,0.180769,0.2680265,1.181374,0.2096846,277.3108,20.31421,223.3987,True
1,1.077779,-0.02356767,0.3697083,0.07430106,4.682919,-4.542598,-2.759615,0.5241928,1.135467,0.346581,-1.689702,0.006214066,0,0,-0.4304459,0.6631447,-0.2320963,-0.614215,-4.115974,0.1054481,0.6076437,1.357212,0.3223448,-0.3445093,0.4570097,0.3171306,-0.860094,0.3452414,0.05729391,0.7585471,1.416456,0.1802175,0.2652579,1.181519,0.2090625,277.463,19.84222,224.0977,True
1,1.08889,-0.01822837,0.3461912,0.05736742,4.681769,-4.545392,-2.759646,0.5219744,1.135313,0.3448565,-1.689594,0.00985668,0,0,-0.3951185,0.712029,-0.2384666,-0.6160696,-4.099216,0.09490947,0.6052952,1.356919,0.3208132,-0.3413238,0.4612615,0.3149661,-0.8564236,0.351862,0.05657353,0.7569928,1.416656,0.1796978,0.2626354,1.181597,0.2082346,277.568,19.70298,224.3776,True
1,1.100002,-0.01393177,0.3034965,0.0394773,4.68112,-4.547308,-2.759674,0.5196298,1.135244,0.3433199,-1.689737,-0.01329155,0,0,-0.3714013,0.7266865,-0.2055276,-0.6166533,-4.084433,0.08613701,0.6028712,1.356627,0.319263,-0.3434247,0.4687326,0.3117873,-0.8528363,0.3589175,0.05546672,0.7553,1.41696,0.1789911,0.2600884,1.181611,0.2072518,277.6237,19.75566,224.4281,True
1,1.111113,-0.01071209,0.2746725,0.02683733,4.680474,-4.549314,-2.759696,0.5173898,1.135139,0.3417013,-1.689552,0.01695452,0,0,-0.3575839,0.7191682,-0.205628,-0.6181628,-4.07103,0.07870813,0.6005497,1.356432,0.3177817,-0.3403622,0.463385,0.2979045,-0.8498855,0.3651696,0.0549221,0.7537193,1.417133,0.1783838,0.257623,1.181558,0.2061649,277.644,19.77649,224.4863,True
1,1.122224,-0.002160556,0.2319345,0.00148651,4.680809,-4.550687,-2.76,0.5151144,1.135098,0.3403864,-1.689479,0.006522595,0,0,-0.3382688,0.6890708,-0.1654053,-0.618198,-4.059486,0.07223319,0.5983286,1.35632,0.3162169,-0.3190734,0.4452354,0.3009141,-0.8461507,0.3708593,0.05411943,0.7520612,1.417262,0.1776998,0.2551288,1.181468,0.2049892,277.6586,19.76239,224.5608,True
1,1.133335,0.001063178,0.2116452,-0.006934457,4.680467,-4.552373,-2.760338,0.5128304,1.135092,0.3390071,-1.689404,0.006709886,0,0,-0.3127484,0.6398457,-0.1412741,-0.6185234,-4.049883,0.06689541,0.5960557,1.356142,0.3147681,-0.3073725,0.4324256,0.3018837,-0.8424846,0.3765672,0.05334738,0.7504052,1.417453,0.17715,0.2525884,1.181357,0.203751,277.6553,19.64145,224.7203,True
1,1.144446,0.01384765,0.1998716,-0.02073566,4.680456,-4.55432,-2.760988,0.5106926,1.135156,0.3376701,-1.689637,-0.02134665,0,0,-0.2937842,0.5736539,-0.1289238,-0.6192616,-4.042498,0.06351613,0.5939567,1.355968,0.3133125,-0.2913053,0.4100313,0.316668,-0.8382757,0.3813874,0.05281794,0.7487864,1.417654,0.1764283,0.2500704,1.181215,0.2024965,277.6273,19.49475,224.8956,True
1,1.155557,0.02235303,0.1933559,-0.04415207,4.681025,-4.556468,-2.76155,0.5086405,1.135196,0.3365963,-1.689618,0.00190426,0,0,-0.2842336,0.5383989,-0.1152962,-0.6198412,-4.034091,0.05924628,0.5919378,1.355801,0.3118453,-0.2817272,0.3982896,0.3187265,-0.8344536,0.3865232,0.0521937,0.7472056,1.417889,0.1757665,0.2476068,1.181038,0.201279,277.5595,19.4159,224.9628,True
1,1.166668,0.03407486,0.1858527,-0.05371278,4.681219,-4.55837,-2.762445,0.5064869,1.135342,0.3354383,-1.689832,-0.01967262,0,0,-0.2499432,0.5199189,-0.06872825,-0.6188952,-4.025103,0.0536872,0.5899422,1.355577,0.3102942,-0.2700164,0.382286,0.321827,-0.8305702,0.3912517,0.05156919,0.7456539,1.418092,0.1750176,0.2451528,1.180863,0.2001539,277.5047,19.0896,225.2853,True
1,1.17778,0.04476072,0.1602923,-0.0535925,4.681453,-4.559393,-2.763296,0.5043007,1.135496,0.3343375,-1.689672,0.01464726,0,0,-0.2359163,0.5325553,-0.04851194,-0.6185192,-4.01383,0.04672756,0.5877892,1.355536,0.3087182,-0.2626119,0.3705528,0.3175101,-0.8269531,0.3961834,0.05084987,0.7440633,1.418215,0.1741748,0.2427701,1.180676,0.1991834,277.4339,18.86049,225.537,True
1,1.188891,0.05332014,0.134709,-0.0545229,4.681697,-4.559907,-2.764311,0.5021379,1.135629,0.3330605,-1.689895,-0.02055628,0,0,-0.2251196,0.5388083,-0.0293712,-0.6179029,-4.003061,0.04007791,0.5857502,1.355472,0.3072124,-0.2607064,0.3524231,0.2972633,-0.8242074,0.4006083,0.05065119,0.7425935,1.418339,0.1733854,0.2404437,1.180482,0.198421,277.3477,18.76106,225.6743,True
1,1.200002,0.05339551,0.08462658,-0.05532001,4.682446,-4.559348,-2.765039,0.5000126,1.135957,0.3318856,-1.689807,0.00820181,0,0,-0.2184327,0.5449482,0.0185619,-0.6159162,-3.992019,0.03353426,0.5838053,1.35564,0.3056827,-0.2598065,0.3172552,0.2887725,-0.8210099,0.4036802,0.0515074,0.7410907,1.418468,0.1725941,0.2380696,1.180328,0.1978381,277.3146,18.50587,226.0425,True
1,1.211113,0.05770255,0.04621387,-0.06791794,4.68388,-4.559231,-2.765918,0.4979019,1.136223,0.330292,-1.689867,-0.005725052,0,0,-0.2098111,0.5437676,0.03554855,-0.6148323,-3.981452,0.02700765,0.5818383,1.355734,0.3042781,-0.2620797,0.2938161,0.2802995,-0.8178552,0.4070545,0.05228211,0.7394786,1.41853,0.1718521,0.2356682,1.18021,0.1973341,277.3409,18.15124,226.6086,True
1,1.222224,0.05771188,0.01945433,-0.09228085,4.685817,-4.559279,-2.766556,0.4959458,1.136566,0.3290606,-1.689527,0.03107741,0,0,-0.2023427,0.514854,0.06093761,-0.6131684,-3.973043,0.02225524,0.5799499,1.355785,0.302897,-0.2471671,0.2501142,0.2908528,-0.8141997,0.4086152,0.05344645,0.7380255,1.418719,0.17102,0.2333075,1.180104,0.1967494,277.3879,17.71631,227.319,True
1,1.233335,0.05452378,0.006619398,-0.100734,4.687138,-4.559554,-2.767083,0.4940864,1.136732,0.3276339,-1.689548,-0.002195075,0,0,-0.1992411,0.4946069,0.06080756,-0.6126053,-3.964432,0.0174738,0.5781018,1.355816,0.3015094,-0.2407995,0.2351907,0.292933,-0.8107488,0.4114279,0.05408241,0.7364483,1.418899,0.1701782,0.2310438,1.180023,0.195914,277.3949,17.27069,228.0359,True
1,1.244446,0.04919637,0.001246948,-0.1081573,4.68855,-4.559946,-2.767452,0.4921864,1.136979,0.326391,-1.68925,0.02718045,0,0,-0.1982475,0.4796935,0.05966447,-0.6119167,-3.956082,0.01282312,0.5763295,1.355854,0.3001549,-0.2365709,0.2159959,0.2950422,-0.8072755,0.4135127,0.05521718,0.7349727,1.418962,0.1694129,0.228901,1.179954,0.1947104,277.3296,17.27943,228.204,True
1,1.255558,0.04175325,-0.0008635547,-0.101746,4.68939,-4.560194,-2.767773,0.4904101,1.137156,0.3252838,-1.689066,0.01660871,0,0,-0.1939825,0.4796579,0.06496444,-0.6109787,-3.946333,0.007191068,0.5745535,1.355809,0.2988744,-0.2324089,0.2010709,0.288623,-0.8042011,0.4158743,0.05613198,0.7336265,1.419031,0.1685853,0.2269564,1.179868,0.1932007,277.1889,17.45644,227.9978,True
1,1.266669,0.0353703,-0.0008271344,-0.09321767,4.690088,-4.560463,-2.767968,0.4887368,1.137259,0.3240819,-1.688879,0.0169796,0,0,-0.2005181,0.4733862,0.0457979,-0.6110905,-3.937553,0.00245357,0.5728838,1.355801,0.2975597,-0.2252069,0.1861181,0.2651315,-0.8019897,0.4178407,0.05698419,0.7323635,1.419107,0.1678469,0.2251573,1.179772,0.1914837,277.0556,17.63381,227.6682,True
1,1.27778,0.0204442,0.006629415,-0.08898041,4.690814,-4.56105,-2.767656,0.4871245,1.137327,0.3230634,-1.688825,0.004782962,0,0,-0.2063025,0.4267137,0.008326136,-0.6120759,-3.931856,0.0005736449,0.5713265,1.35582,0.2964005,-0.2287494,0.1786375,0.2310874,-0.8003556,0.4202404,0.05806517,0.7311692,1.419334,0.1670604,0.2234215,1.179695,0.1896979,276.9046,17.69938,227.3658,True
1,1.288891,0.01299125,0.01093918,-0.07833636,4.691126,-4.561509,-2.767553,0.4854869,1.137395,0.3219273,-1.688719,0.009695462,0,0,-0.2024491,0.3970901,-0.03765137,-0.6139129,-3.92569,-0.002332397,0.5696139,1.355778,0.295083,-0.2309884,0.1818401,0.2172518,-0.7982745,0.4232295,0.05852989,0.7298864,1.419389,0.1662357,0.22177,1.179635,0.1879949,276.7811,17.65823,227.1754,True
1,1.300002,0.002342208,0.02693518,-0.07200804,4.69125,-4.5624,-2.767534,0.4839042,1.137338,0.3208127,-1.68824,0.04375815,0,0,-0.2147265,0.3473414,-0.09215239,-0.6167178,-3.921619,-0.002713761,0.5679975,1.355762,0.293643,-0.2310689,0.1914176,0.2066004,-0.7960668,0.4264777,0.0588476,0.7285993,1.419567,0.165447,0.2201916,1.179591,0.186462,276.6895,17.75374,226.9155,True
1,1.311113,-0.001945259,0.03967603,-0.07952642,4.692002,-4.563618,-2.767416,0.4823865,1.137276,0.3196862,-1.688471,-0.02146275,0,0,-0.210654,0.3421227,-0.116712,-0.6186843,-3.914917,-0.005753759,0.5663908,1.355531,0.2922714,-0.2235152,0.1935595,0.2150509,-0.7932609,0.4296512,0.05877117,0.727288,1.419608,0.1645844,0.2186255,1.17959,0.1851694,276.615,17.90331,226.661,True
1,1.322224,-0.01050639,0.07054977,-0.0807455,4.692306,-4.565577,-2.76714,0.4809303,1.137143,0.3186536,-1.688645,-0.01564604,0,0,-0.2063185,0.3548723,-0.1134811,-0.6198774,-3.907462,-0.009681922,0.5647601,1.355377,0.2909708,-0.2170669,0.1978048,0.2203166,-0.790472,0.4325983,0.05892457,0.726015,1.419765,0.1638243,0.2170164,1.179657,0.1841224,276.5999,18.16385,226.3915,True
1,1.333336,-0.01801768,0.112103,-0.07882139,4.692093,-4.568259,-2.766771,0.4795317,1.137013,0.3175776,-1.688607,0.003681043,0,0,-0.1923342,0.3867591,-0.110215,-0.6209144,-3.898112,-0.01543169,0.5632499,1.355145,0.2897291,-0.2085032,0.2063139,0.2234169,-0.7878222,0.4360018,0.05861405,0.7247085,1.419833,0.1631434,0.2153802,1.179745,0.1833104,276.6282,18.76486,225.8658,True
1,1.344447,-0.01593083,0.1526365,-0.06944685,4.691422,-4.571246,-2.76672,0.4781928,1.13679,0.3164871,-1.688481,0.01152361,0,0,-0.1921976,0.4155113,-0.107947,-0.6221315,-3.888608,-0.02104297,0.5617171,1.354859,0.2884202,-0.2052324,0.2169644,0.2287028,-0.7849593,0.4396704,0.05818581,0.7235063,1.419891,0.1625092,0.213729,1.179804,0.1827031,276.6461,19.63717,225.1135,True
1,1.355558,-0.01815522,0.2304843,-0.05279725,4.689516,-4.575891,-2.766494,0.4769705,1.136554,0.3154938,-1.688422,0.005368989,0,0,-0.1953818,0.4315359,-0.1131837,-0.62378,-3.879518,-0.02584838,0.560043,1.354741,0.2872598,-0.2000394,0.2276013,0.2115907,-0.7830796,0.4437208,0.05739831,0.722405,1.419862,0.1619132,0.2120417,1.179818,0.1823082,276.6671,20.28548,224.591,True
1,1.366669,-0.00864625,0.303025,-0.03613998,4.687256,-4.581236,-2.766841,0.475791,1.136265,0.3144164,-1.688786,-0.03328356,0,0,-0.1997345,0.4177311,-0.1185504,-0.6254386,-3.872339,-0.02925695,0.558519,1.354511,0.2860408,-0.1926629,0.2233154,0.2040679,-0.7809102,0.4469053,0.0570505,0.7212783,1.419888,0.1612959,0.2102945,1.179802,0.1821287,276.7098,20.52787,224.5245,True
1,1.37778,0.001946044,0.3649361,-0.01516598,4.6847,-4.586459,-2.767336,0.4746057,1.136027,0.3134124,-1.688655,0.01228186,0,0,-0.196639,0.3942664,-0.1144153,-0.6266066,-3.866237,-0.03189428,0.5569806,1.354298,0.2847493,-0.2078926,0.2467511,0.1647718,-0.7802071,0.4517466,0.05647632,0.7202429,1.419857,0.1607423,0.2085153,1.179743,0.1821604,276.7782,20.52529,224.7373,True
1,1.388891,0.01578261,0.3841962,-0.002497479,4.682509,-4.590926,-2.768109,0.4734069,1.135851,0.3123925,-1.689203,-0.05023812,0,0,-0.1933697,0.3856435,-0.09636598,-0.6271755,-3.859445,-0.03535586,0.5555227,1.354147,0.2835701,-0.2025262,0.2467427,0.1689825,-0.7780287,0.4554985,0.05588404,0.7191288,1.419883,0.16013,0.20667,1.179669,0.1824568,276.8683,20.18063,225.3153,True
1,1.400002,0.04241217,0.392837,0.01234347,4.680305,-4.594987,-2.769487,0.4722322,1.13572,0.3114743,-1.689393,-0.01689144,0,0,-0.1965921,0.3429122,-0.06777486,-0.6268229,-3.854952,-0.03651673,0.5543367,1.354066,0.28249,-0.1781709,0.2370759,0.1570453,-0.7764254,0.4585499,0.054953,0.7180741,1.419922,0.1596434,0.204764,1.179577,0.1830348,276.9939,19.80746,226.0054,True
1,1.411114,0.06586339,0.3843468,0.01129755,4.678785,-4.598775,-2.771125,0.4711221,1.135802,0.3104761,-1.689644,-0.02284191,0,0,-0.2031482,0.2949651,-0.05838141,-0.6273385,-3.851525,-0.03653058,0.5531334,1.353887,0.2813592,-0.1750228,0.2317573,0.1516902,-0.7748126,0.462182,0.05415538,0.7170507,1.419855,0.1589243,0.2028222,1.179461,0.1838378,277.1514,19.2694,226.9566,True
1,1.422225,0.08400004,0.3619834,0.008198291,4.677576,-4.601909,-2.7728,0.4700129,1.135743,0.3095059,-1.690188,-0.04971256,0,0,-0.1948302,0.2437855,-0.0565478,-0.6279446,-3.84964,-0.03611593,0.5519224,1.353741,0.2802937,-0.1570775,0.2093344,0.1419559,-0.7733777,0.4644454,0.0540145,0.7160655,1.419884,0.158253,0.2009102,1.179304,0.1847256,277.3156,18.64755,228.0594,True
1,1.433336,0.09681772,0.3257255,-0.003344201,4.67702,-4.604483,-2.774296,0.4690816,1.135533,0.3084559,-1.690372,-0.01653038,0,0,-0.1874893,0.2213853,-0.05563551,-0.6286333,-3.846166,-0.03673564,0.5506748,1.353587,0.2792363,-0.1475131,0.2029244,0.1408049,-0.7717505,0.467452,0.05323313,0.7151974,1.419871,0.1576748,0.1990914,1.179089,0.1855585,277.4667,17.90428,229.2848,True
1,1.444447,0.102175,0.2915716,-0.01702134,4.676831,-4.606789,-2.775704,0.4680693,1.135432,0.3075151,-1.69028,0.00845743,0,0,-0.1758332,0.188251,-0.04308205,-0.6286903,-3.844476,-0.03653324,0.5495166,1.353417,0.2781599,-0.141109,0.1954553,0.1439477,-0.7699188,0.4700916,0.05269517,0.7142981,1.419865,0.1570928,0.19739,1.178811,0.1861962,277.5707,17.21201,230.4298,True
1,1.455558,0.1085863,0.2616355,-0.03923974,4.677103,-4.609091,-2.77724,0.467059,1.135091,0.3064914,-1.689955,0.02951716,0,0,-0.1855772,0.1755794,-0.05693977,-0.6299276,-3.841503,-0.03627518,0.5483052,1.353159,0.2769978,-0.141199,0.1986363,0.1343602,-0.7685542,0.4732966,0.05208797,0.7134346,1.419912,0.1565757,0.195868,1.17842,0.1865329,277.6565,16.85442,231.1659,True
1,1.466669,0.133107,0.2178033,-0.07525934,4.678725,-4.610706,-2.779617,0.4661001,1.134957,0.3056524,-1.689717,0.02141347,0,0,-0.1855179,0.1733788,-0.04309931,-0.6299888,-3.838233,-0.0366182,0.5469817,1.352938,0.27578,-0.1488316,0.2114282,0.1109732,-0.7680546,0.4774579,0.05091751,0.7126062,1.419836,0.1559498,0.1945572,1.177878,0.1864887,277.6956,16.60581,231.6826,True
1,1.47778,0.1437754,0.1814858,-0.09851897,4.68011,-4.61232,-2.781514,0.465121,1.134878,0.3048351,-1.689726,-0.001078581,0,0,-0.1671598,0.2222621,-0.03780747,-0.6302546,-3.832782,-0.0396289,0.5457565,1.352751,0.2746305,-0.1594483,0.224231,0.1121282,-0.7665803,0.4814319,0.05020778,0.711648,1.419879,0.155472,0.1933298,1.177226,0.1860561,277.6609,16.33381,232.0765,True
1,1.488891,0.1619551,0.1110617,-0.1258668,4.682516,-4.6122,-2.783978,0.4642094,1.134677,0.3042331,-1.690481,-0.06914622,0,0,-0.1669869,0.254195,-0.02685501,-0.6306691,-3.824698,-0.04419143,0.5445204,1.35257,0.2735517,-0.1625726,0.2338343,0.1174791,-0.7648226,0.4855301,0.04919604,0.7107453,1.419978,0.1549025,0.1921559,1.176446,0.1852977,277.5585,16.13605,232.2849,True
1,1.500003,0.174793,0.06523843,-0.1320345,4.684363,-4.612101,-2.786364,0.4633855,1.134522,0.3036346,-1.689946,0.04946867,0,0,-0.1582662,0.2892727,-0.01821675,-0.6307873,-3.817209,-0.04875795,0.5433317,1.352427,0.2724767,-0.1594069,0.2380837,0.1131837,-0.7635624,0.4895006,0.048012,0.7098584,1.420046,0.1544225,0.191043,1.175525,0.1843113,277.3594,15.73841,232.5897,True
1,1.511114,0.1833519,0.03863189,-0.1318946,4.68556,-4.61247,-2.788651,0.4624984,1.134467,0.3030853,-1.690354,-0.03788052,0,0,-0.1549419,0.3084006,-0.008562572,-0.6308538,-3.810225,-0.05261794,0.542139,1.352352,0.2714853,-0.1572727,0.2380846,0.1131643,-0.7621946,0.4932977,0.0469004,0.7089747,1.42009,0.1538486,0.1899578,1.174498,0.1832196,277.127,14.86692,233.3167,True
1,1.522225,0.1951107,0.01096672,-0.1285678,4.687112,-4.612154,-2.791155,0.4618796,1.134313,0.3025846,-1.690177,0.01637044,0,0,-0.1269754,0.3262419,0.02331325,-0.6297225,-3.802944,-0.05800578,0.5411705,1.352265,0.2705963,-0.1486829,0.2327461,0.1216113,-0.760447,0.4966235,0.04581356,0.7081594,1.420133,0.1533895,0.1890307,1.173336,0.1820958,276.8942,13.88841,234.1439,True
1,1.533336,0.1983132,0.008856731,-0.1253626,4.688192,-4.612709,-2.793424,0.4610761,1.134104,0.3018689,-1.689897,0.02535766,0,0,-0.1140646,0.327158,0.04560217,-0.6288677,-3.796608,-0.0620655,0.5401567,1.352234,0.2697697,-0.1423027,0.2188792,0.1236948,-0.7589492,0.4992247,0.04526601,0.7073682,1.420115,0.1529105,0.188182,1.172106,0.1810036,276.6814,12.35358,235.5181,True
1,1.544447,0.2079104,0.01320265,-0.1115467,4.688783,-4.613239,-2.796036,0.4604959,1.133969,0.3013144,-1.689981,-0.007963159,0,0,-0.09922332,0.3175343,0.04013924,-0.6287723,-3.791247,-0.06584267,0.5393113,1.352123,0.2689567,-0.128535,0.2017974,0.1193203,-0.7577087,0.5015079,0.04454616,0.7066506,1.420101,0.1524713,0.187333,1.170899,0.1800302,276.4955,10.39051,237.349,True
1,1.555558,0.2132359,0.03035606,-0.09247238,4.688894,-4.614335,-2.798545,0.4600276,1.133861,0.3006837,-1.689628,0.03230447,0,0,-0.1025716,0.3005593,0.03049338,-0.6289923,-3.78644,-0.068117,0.5384778,1.352015,0.2681584,-0.1190462,0.1921844,0.1117773,-0.7567548,0.5041552,0.04371153,0.7060256,1.420142,0.1520061,0.1865734,1.169719,0.1792089,276.342,8.728318,238.9577,True
1,1.566669,0.2185571,0.03784247,-0.08825599,4.689461,-4.615245,-2.801145,0.4594833,1.133724,0.3001595,-1.689835,-0.01926749,0,0,-0.104938,0.2580032,0.02071542,-0.6291692,-3.784299,-0.06858172,0.5377188,1.351851,0.267488,-0.1042209,0.1719041,0.107396,-0.7556959,0.5057815,0.04312856,0.7054021,1.420136,0.151603,0.1857575,1.168627,0.1785378,276.2343,7.249056,240.4355,True
1,1.577781,0.2175038,0.04109468,-0.07654907,4.68972,-4.61586,-2.803553,0.4589526,1.133567,0.2996516,-1.689655,0.01654067,0,0,-0.09673762,0.2069183,0.004437719,-0.6297433,-3.783206,-0.068525,0.5368317,1.351804,0.2669711,-0.09693255,0.1612247,0.09135575,-0.7552245,0.5080078,0.04230005,0.7047748,1.420167,0.1513329,0.1849984,1.167613,0.1780501,276.1707,5.59915,242.1099,True
1,1.588892,0.2164489,0.0368543,-0.07226472,4.690223,-4.616333,-2.805925,0.4584272,1.133436,0.2991002,-1.689641,0.001071066,0,0,-0.08753902,0.140916,-0.01191987,-0.6303692,-3.783979,-0.06702217,0.5359744,1.351725,0.2663467,-0.09163663,0.1526886,0.09024882,-0.7542126,0.5099431,0.0417083,0.7041399,1.420159,0.1509421,0.1842912,1.166689,0.1777449,276.1358,4.075899,243.7075,True
1,1.600003,0.2111599,0.01770005,-0.06470594,4.690931,-4.615899,-2.808076,0.4577885,1.133381,0.298605,-1.689384,0.02344482,0,0,-0.09199536,0.1047499,-0.01952389,-0.6308379,-3.784166,-0.06572389,0.5352228,1.351706,0.2657814,-0.09277811,0.1335153,0.08708796,-0.7532112,0.5112271,0.0418545,0.7034559,1.420081,0.150758,0.183605,1.165843,0.1775858,276.1071,3.072089,244.819,True
1,1.611114,0.208024,-0.01959602,-0.0655694,4.692125,-4.614777,-2.810474,0.45726,1.133227,0.2981501,-1.68927,0.01014676,0,0,-0.08558075,0.1068399,-0.0152908,-0.6308842,-3.78152,-0.06692124,0.5344487,1.351654,0.2650883,-0.09494266,0.1249901,0.08711813,-0.7521172,0.5127024,0.04212268,0.7028299,1.420229,0.150362,0.1829322,1.165054,0.1775084,276.1119,2.278975,245.7539,True
1,1.622225,0.2091526,-0.06431967,-0.06214218,4.693401,-4.612885,-2.812838,0.4568024,1.133116,0.2976892,-1.689031,0.02181503,0,0,-0.08324857,0.1462157,-0.008723989,-0.6309721,-3.776366,-0.07022356,0.5337547,1.351593,0.2645316,-0.09714346,0.1164676,0.08182045,-0.7513278,0.5141235,0.04228327,0.7022856,1.420219,0.1500962,0.1822575,1.164306,0.1774162,276.123,1.531345,246.6721,True
1,1.633336,0.2102624,-0.09306239,-0.05879851,4.694537,-4.611278,-2.815265,0.4563984,1.132946,0.2972651,-1.689246,-0.01980877,0,0,-0.07785303,0.1717791,-0.01288731,-0.6313066,-3.771574,-0.07327368,0.5331852,1.351517,0.2639987,-0.09198871,0.1015326,0.067945,-0.7508953,0.5151971,0.0424151,0.7018107,1.420193,0.149929,0.181606,1.163583,0.1771945,276.1215,0.7487887,247.6131,True
1,1.644447,0.2060713,-0.1420491,-0.05427786,4.696037,-4.608314,-2.817389,0.4560858,1.132714,0.2968607,-1.68923,0.001570984,0,0,-0.09402636,0.168792,-0.04263264,-0.6329476,-3.76863,-0.07404999,0.5325897,1.351395,0.2634971,-0.0911016,0.09405649,0.05089836,-0.7508665,0.5163879,0.04253335,0.701329,1.42015,0.1497338,0.1811241,1.162815,0.1767491,276.0966,0.05890939,248.4083,True
1,1.655559,0.2007694,-0.1644269,-0.05415045,4.697318,-4.606169,-2.819346,0.455794,1.132401,0.2965064,-1.689252,-0.00199879,0,0,-0.09845175,0.1593139,-0.06076352,-0.6343463,-3.766384,-0.07438102,0.5320479,1.351181,0.2628927,-0.08689933,0.09296943,0.04447394,-0.7504548,0.5177624,0.0422934,0.7009141,1.420057,0.1494343,0.1808431,1.161976,0.1760084,276.0482,359.1679,249.3051,True
1,1.66667,0.1869406,-0.1750706,-0.04875342,4.698401,-4.60407,-2.820936,0.4556389,1.132006,0.2960813,-1.688951,0.02751193,0,0,-0.1030657,0.1382352,-0.1045151,-0.6371464,-3.765385,-0.07383481,0.5315101,1.350925,0.2624512,-0.08585393,0.09722504,0.04126374,-0.7500165,0.5195346,0.04192748,0.7004017,1.41997,0.1491971,0.1807415,1.161052,0.1749794,275.9767,358.1499,250.2208,True
1,1.677781,0.1752026,-0.1558737,-0.04138263,4.69893,-4.603158,-2.822462,0.4556214,1.131574,0.2956533,-1.688737,0.01931528,0,0,-0.1003972,0.1012288,-0.1654327,-0.6409749,-3.76609,-0.07220149,0.5310126,1.350613,0.2620389,-0.08689946,0.1131985,0.04019673,-0.7494732,0.5220006,0.04123026,0.6999807,1.420019,0.148916,0.1808126,1.160037,0.1736675,275.8762,356.97,251.2029,True
1,1.688892,0.1655827,-0.1292379,-0.03831438,4.6994,-4.602754,-2.82398,0.4555766,1.131077,0.2951982,-1.688382,0.03228116,0,0,-0.09144118,0.0664207,-0.2455564,-0.6463252,-3.767239,-0.07052264,0.5303519,1.350308,0.2615438,-0.08258428,0.1323642,0.04120776,-0.7488207,0.5250501,0.03979162,0.6994978,1.420057,0.1487899,0.1809548,1.158957,0.1721693,275.7491,355.6228,252.2531,True
1,1.700003,0.1580558,-0.07810354,-0.03643917,4.699457,-4.603744,-2.825504,0.4556741,1.130401,0.2947958,-1.688329,0.004650912,0,0,-0.09700855,0.0623492,-0.2807028,-0.6508169,-3.76687,-0.06937375,0.5296541,1.349911,0.261013,-0.09312744,0.1536968,0.04767617,-0.7480068,0.5284906,0.03869174,0.6990795,1.42013,0.1486523,0.1811438,1.157842,0.1706189,275.6249,353.9579,253.5824,True
1,1.711114,0.1515997,-0.01620941,-0.01438341,4.698346,-4.60532,-2.826921,0.4557341,1.129712,0.2943776,-1.688392,-0.005692731,0,0,-0.09563807,0.106979,-0.2581276,-0.6528398,-3.762405,-0.07170881,0.5289848,1.34962,0.2604604,-0.09627458,0.1792625,0.0466164,-0.7474476,0.5323705,0.03703685,0.6985928,1.420181,0.148613,0.1813196,1.15674,0.1691903,275.5131,352.1754,255.036,True
1,1.722225,0.1568552,0.05635837,0.008670703,4.696534,-4.608005,-2.828877,0.4558584,1.129038,0.2940366,-1.688462,-0.006295029,0,0,-0.08767244,0.1867018,-0.2279658,-0.6546476,-3.754417,-0.07739412,0.5283914,1.349258,0.2598734,-0.09414168,0.1973635,0.04231767,-0.7470076,0.5364426,0.03502137,0.698174,1.420133,0.1486075,0.1814266,1.15567,0.168036,275.4124,350.8047,256.1322,True
1,1.733337,0.1695732,0.1267976,0.03068086,4.694274,-4.610902,-2.831347,0.4557863,1.128373,0.2937262,-1.688424,0.003524154,0,0.1,-0.09043095,0.222699,-0.1787739,-0.6553347,-3.748708,-0.08070816,0.5277391,1.348906,0.2593565,-0.09096973,0.2122717,0.03588095,-0.7467173,0.5406805,0.03280402,0.6977327,1.420009,0.1484792,0.1814523,1.154617,0.1673194,275.3591,349.8759,256.8653,True
1,1.744448,0.1833756,0.1877033,0.06230885,4.691368,-4.614272,-2.833918,0.4558614,1.127816,0.2934005,-1.688993,-0.05196654,0,0.1,-0.08677031,0.25545,-0.1243079,-0.6551946,-3.742135,-0.08506589,0.5272417,1.34859,0.2589376,-0.08673134,0.2282349,0.02943357,-0.7464808,0.5452613,0.03028893,0.6973406,1.419971,0.1484244,0.1813226,1.153605,0.1671328,275.4109,348.9267,257.7525,True
1,1.755559,0.1961318,0.2218849,0.07704202,4.689005,-4.617056,-2.836617,0.4558462,1.127373,0.2931426,-1.689562,-0.05158808,0,0.1,-0.06004104,0.249917,-0.1031953,-0.656041,-3.737983,-0.08844917,0.5267837,1.348338,0.2586713,-0.07285491,0.2250057,0.03357086,-0.7458209,0.5485892,0.02822205,0.6969402,1.420027,0.1483636,0.1810188,1.152638,0.1675168,275.5366,348.1346,258.6447,True
1,1.76667,0.2078292,0.2453864,0.08649495,4.686666,-4.620116,-2.839445,0.4559252,1.127009,0.2928638,-1.68965,-0.007660584,0,0.1,-0.04643023,0.1720233,-0.08767396,-0.6566429,-3.738971,-0.08733357,0.5263288,1.34809,0.2585325,-0.04734418,0.2015087,0.03335276,-0.7454209,0.5506436,0.02630244,0.6966012,1.42001,0.1482189,0.1805174,1.151694,0.1684157,275.7342,347.5469,259.5033,True
1,1.777781,0.2184713,0.2453967,0.08543671,4.684845,-4.622255,-2.842155,0.4560278,1.126839,0.292644,-1.689707,-0.005247517,0,0.1,-0.03598477,0.1037464,-0.07634494,-0.6570088,-3.740938,-0.08572902,0.5259694,1.347938,0.2583547,-0.03364073,0.1716393,0.02579896,-0.7453234,0.5517793,0.02544038,0.6963173,1.419879,0.1479466,0.1799284,1.150746,0.1697112,275.9928,346.8055,260.6733,True
1,1.788892,0.2270035,0.234733,0.08122139,4.683456,-4.624183,-2.845045,0.4561102,1.126573,0.2923629,-1.689742,-0.003197121,0,0.1,-0.02027536,0.01519739,-0.06194451,-0.6569694,-3.745169,-0.08265334,0.5257851,1.347794,0.2581611,-0.01981291,0.1471076,0.02995017,-0.7448388,0.5530375,0.02438284,0.6959678,1.41987,0.1477587,0.179324,1.149786,0.1712023,276.2495,345.962,262.039,True
1,1.800003,0.2345072,0.1835475,0.06657179,4.683016,-4.624541,-2.847791,0.4562176,1.126408,0.2921357,-1.689559,0.01665529,0,0.1,0.0008821711,-0.01790241,-0.06436157,-0.6575941,-3.747572,-0.08148287,0.5256073,1.347636,0.258014,-0.005926982,0.1247129,0.03942872,-0.74406,0.5539097,0.02331518,0.6956977,1.419882,0.1475999,0.1788009,1.148817,0.1726985,276.498,344.9125,263.6241,True
1,1.811115,0.2388113,0.1419547,0.05506106,4.682722,-4.624831,-2.850535,0.4563124,1.126157,0.2919457,-1.689643,-0.007902289,0,0.1,0.0008348282,-0.01037976,-0.0771119,-0.6590264,-3.74703,-0.08185439,0.5253514,1.347487,0.2577069,0.005793497,0.09911564,0.04573268,-0.7433788,0.5541628,0.02266936,0.6955421,1.419846,0.1475275,0.1784127,1.147868,0.1739983,276.7163,343.7912,265.2391,True
1,1.822226,0.2474256,0.04484348,0.02039977,4.684367,-4.62256,-2.85349,0.4562262,1.126133,0.2918463,-1.689482,0.01476861,0,0.1,-0.001208745,0.0109344,-0.07699805,-0.6599505,-3.745845,-0.08271725,0.5250992,1.347402,0.2575345,0.006715931,0.06821254,0.03829586,-0.7431817,0.553748,0.02284007,0.6953441,1.419848,0.1474094,0.1781864,1.146933,0.1749332,276.8837,342.9904,266.4456,True
1,1.833337,0.2442675,0.01497563,0.01203418,4.684639,-4.622088,-2.856143,0.4561917,1.125907,0.2917094,-1.6894,0.007276947,0,0.1,-0.002193075,0.01622162,-0.06630792,-0.6602232,-3.745181,-0.08310687,0.5247778,1.347269,0.2574084,0.001357317,0.06289533,0.03729066,-0.7427258,0.5545667,0.02254978,0.6950393,1.419832,0.1473925,0.1781563,1.145998,0.1753594,276.9818,342.2067,267.4828,True
1,1.844448,0.2422343,-0.08962918,-0.02683795,4.687505,-4.618154,-2.85868,0.4560909,1.125946,0.2916954,-1.689618,-0.02002249,0,0.1,-0.005268142,0.02041428,-0.04922399,-0.6602226,-3.744597,-0.0834134,0.5245518,1.347246,0.2572031,-0.01037517,0.04801068,0.03954581,-0.7421995,0.5545821,0.02307496,0.6948377,1.419828,0.1473062,0.1782659,1.145054,0.1752276,277.0136,341.2997,268.4677,True
1,1.855559,0.2422772,-0.1355247,-0.04364503,4.689362,-4.615517,-2.861305,0.456023,1.125875,0.2916205,-1.689232,0.03538041,0,0.1,-0.01477732,0.03748812,-0.04695037,-0.6607217,-3.743042,-0.08409917,0.524394,1.347191,0.2570109,-0.0178055,0.04269462,0.04387698,-0.7416052,0.5548327,0.0233506,0.6945966,1.419888,0.1472318,0.1784611,1.144092,0.1745001,276.947,340.0447,269.5997,True
1,1.86667,0.2327433,-0.1867428,-0.05721806,4.691507,-4.612134,-2.863496,0.4559263,1.12582,0.291611,-1.689123,0.009707203,0,0.1,-0.004887309,0.06392858,-0.01492425,-0.6598871,-3.740175,-0.08666432,0.5241444,1.347115,0.2568233,-0.02208902,0.04163729,0.04178759,-0.7412089,0.5554629,0.023296,0.6943608,1.4199,0.1471391,0.1786839,1.143105,0.1733315,276.8717,338.456,270.8995,True
1,1.877781,0.2231894,-0.2241096,-0.07300058,4.693544,-4.609554,-2.865595,0.4559263,1.12576,0.2916341,-1.689143,-0.001966504,0,0.1,0.005874127,0.09051255,-0.01379667,-0.6601635,-3.737042,-0.08955146,0.5239129,1.347003,0.2567039,-0.02208169,0.03525449,0.0439261,-0.7406283,0.5559616,0.02311304,0.6942351,1.419781,0.1469617,0.1790156,1.142083,0.1717782,276.7263,336.2953,272.6945,True
1,1.888893,0.2125592,-0.2508169,-0.08456898,4.695803,-4.606411,-2.86752,0.4558352,1.12567,0.2916701,-1.688719,0.03882825,0,0.1,0.008013047,0.08301643,-0.007453512,-0.6600767,-3.73596,-0.09056985,0.5236312,1.346907,0.2565141,-0.02309204,0.03526615,0.04926243,-0.7398986,0.5565876,0.02286963,0.6939528,1.419746,0.1468451,0.1794042,1.141044,0.1700117,276.5853,333.9086,274.6124,True
1,1.900004,0.2019201,-0.2732792,-0.09935533,4.698325,-4.603241,-2.869376,0.4557635,1.125535,0.2917254,-1.688583,0.01220548,0,0.1,0.001515411,0.07137011,-0.01705766,-0.660595,-3.735356,-0.09084442,0.5233309,1.346816,0.2563159,-0.02831291,0.0374193,0.05996304,-0.7388828,0.5572608,0.02283501,0.6936627,1.419763,0.1467381,0.1798233,1.140013,0.1682076,276.4606,331.3425,276.6739,True
1,1.911115,0.1944694,-0.2807759,-0.1067685,4.700513,-4.600684,-2.871335,0.4556414,1.125382,0.2917624,-1.688454,0.01173535,0,0.1,-0.001747955,0.05753935,-0.0181678,-0.6608741,-3.735288,-0.09065853,0.5230307,1.346705,0.2560966,-0.03251346,0.04381384,0.06531866,-0.7380477,0.55799,0.02285498,0.6933491,1.419861,0.1466477,0.1802436,1.139019,0.166555,276.3404,328.795,278.7435,True
1,1.922226,0.1838184,-0.2882857,-0.1141751,4.702902,-4.597747,-2.872976,0.4555682,1.125221,0.2918217,-1.688429,0.002208862,0,0.1,0.005750664,0.0820563,-0.02768419,-0.6616309,-3.732688,-0.09301676,0.5226924,1.346536,0.2558424,-0.03980249,0.0598238,0.07922167,-0.7367108,0.5597127,0.02224858,0.6930203,1.419863,0.1465538,0.1806264,1.138078,0.1651553,276.2277,326.5938,280.5643,True
1,1.933337,0.1731785,-0.29043,-0.1162838,4.704959,-4.595212,-2.874766,0.4553617,1.125107,0.2918653,-1.68858,-0.01376235,0,0.1,0.004749075,0.111935,-0.03712448,-0.662595,-3.729126,-0.09585968,0.5222955,1.346426,0.2555907,-0.04509535,0.06728527,0.08138964,-0.7358234,0.560917,0.02206695,0.6927233,1.419962,0.1464798,0.1809606,1.137187,0.1640523,276.1204,324.7816,282.0962,True
1,1.944448,0.1593286,-0.2775879,-0.1014208,4.706288,-4.592741,-2.876082,0.4552777,1.124919,0.2918637,-1.688343,0.02182379,0,0.1,0.005951121,0.1438839,-0.03591386,-0.6632235,-3.724822,-0.09935269,0.5219451,1.34622,0.2553537,-0.04396749,0.06835407,0.08777009,-0.7345994,0.5620835,0.0216507,0.692414,1.419996,0.1463909,0.1812132,1.136336,0.163262,276.0404,323.36,283.3391,True
1,1.955559,0.1561453,-0.2765106,-0.09822673,4.707995,-4.590043,-2.877871,0.4552132,1.124593,0.2915211,-1.688521,-0.01639147,0,0.1,0.008201823,0.1683682,-0.03368054,-0.6637434,-3.720494,-0.1030113,0.5218046,1.346105,0.255151,-0.04079761,0.06834193,0.08453729,-0.7338899,0.5631086,0.02115269,0.6922907,1.419922,0.1463101,0.1814003,1.135515,0.1627337,275.9897,322.0627,284.5553,True
1,1.966671,0.1422785,-0.2412369,-0.07176141,4.708206,-4.588648,-2.87893,0.4551868,1.124475,0.2914746,-1.688144,0.03469245,0,0.1,0.01151477,0.1746779,-0.01875778,-0.6636816,-3.716888,-0.1061067,0.5215311,1.346089,0.2550085,-0.03550378,0.05874082,0.08343115,-0.7330084,0.5635408,0.02102459,0.6920478,1.419904,0.1462009,0.1814872,1.134737,0.1623949,275.9757,320.9275,285.6736,True
1,1.977782,0.1348141,-0.2230249,-0.05266156,4.708479,-4.586946,-2.880123,0.4550954,1.12437,0.2913153,-1.688646,-0.04617089,0.1,0.1,0.008327976,0.144759,0.003493156,-0.6628842,-3.715846,-0.1068474,0.5213933,1.346197,0.2549324,-0.02388413,0.03847642,0.07693748,-0.7325754,0.5633213,0.02093404,0.6919057,1.41984,0.1459398,0.1815653,1.13399,0.1621489,276.0071,320.2502,286.4352,True
1,1.988893,0.1337461,-0.2091084,-0.03994933,4.709026,-4.585153,-2.881623,0.4550575,1.124292,0.2912755,-1.688049,0.05496822,0.1,0.1,0.003979251,0.1138528,0.009764098,-0.662563,-3.715591,-0.1069336,0.5212553,1.346202,0.2548811,-0.01219899,0.02886013,0.07577111,-0.7317802,0.563242,0.02070501,0.6917118,1.419835,0.1458473,0.1816867,1.133244,0.1618426,276.0344,319.7483,287.0374,True
1,2.000004,0.1284302,-0.2004885,-0.01974721,4.709003,-4.5832,-2.882838,0.4550485,1.124228,0.2912431,-1.688203,-0.01449296,0.1,0.1,0.01029635,0.06259135,0.03185237,-0.6613263,-3.717233,-0.1059211,0.5212348,1.346271,0.255003,0.001485709,0.01709426,0.06179787,-0.7316609,0.5628523,0.02059769,0.6915514,1.419828,0.1457539,0.1817808,1.132565,0.1614668,276.1237,318.667,288.1046,True
1,2.011115,0.1263234,-0.2014612,0.0005106926,4.708899,-4.58061,-2.884166,0.4549369,1.124058,0.2912326,-1.688626,-0.03838474,0.1,0.1,0.02617836,0.0444317,0.02953222,-0.6612405,-3.717167,-0.1066836,0.5211104,1.346243,0.2550433,0.01204601,-0.001048012,0.05639254,-0.7311528,0.5619883,0.0207668,0.691438,1.419766,0.1456108,0.1818584,1.131997,0.1610078,276.2015,317.5302,289.1918,True
1,2.022226,0.1210135,-0.1992442,0.01861539,4.708649,-4.578365,-2.885287,0.4549701,1.123972,0.2912076,-1.688453,0.01617973,0.1,0.1,0.04199721,0.02418765,0.01655573,-0.6614892,-3.717969,-0.1071017,0.5211683,1.346208,0.2551773,0.02268359,-0.02024535,0.05950668,-0.730405,0.5606671,0.02115056,0.691357,1.419757,0.1454937,0.1820137,1.131523,0.1604819,276.2368,316.5712,290.0523,True
1,2.033337,0.1125051,-0.2034856,0.02399241,4.708611,-4.575892,-2.886242,0.4549568,1.123872,0.291013,-1.688601,-0.01366783,0,0.1,0.04918043,0.008336183,-0.01659512,-0.6628821,-3.718824,-0.1070857,0.521202,1.346241,0.2553318,0.03003136,-0.035193,0.05092307,-0.7302142,0.5592124,0.02158066,0.6911286,1.419903,0.1454852,0.1822462,1.131137,0.1598954,276.2736,316.0636,290.4356,True
1,2.044448,0.1018685,-0.2120001,0.02830969,4.708803,-4.573228,-2.886996,0.4551216,1.123764,0.2909703,-1.688471,0.0120552,0,0.1,0.0489339,-0.02353078,-0.03592131,-0.6638126,-3.72121,-0.1057291,0.5212724,1.34617,0.2555082,0.03317203,-0.04585654,0.04770767,-0.7298222,0.5578628,0.02210211,0.6910264,1.419923,0.1454194,0.182542,1.130806,0.1592303,276.3031,315.9736,290.389,True
1,2.055559,0.09441197,-0.2151926,0.02837189,4.708601,-4.570774,-2.887724,0.4553122,1.123497,0.2908077,-1.688356,0.01050566,0,0.1,0.05293306,-0.03938328,-0.06585488,-0.6654052,-3.722979,-0.1047445,0.5211939,1.346181,0.2557063,0.03528124,-0.04905906,0.04662207,-0.7293743,0.5569465,0.02242941,0.6908844,1.419891,0.1454418,0.1829012,1.130507,0.1584901,276.3335,315.8315,290.399,True
1,2.06667,0.08907646,-0.2077374,0.02940436,4.708768,-4.568682,-2.888525,0.4554688,1.123347,0.2907729,-1.688224,0.01206999,0,0.1,0.05822924,-0.04044972,-0.07015339,-0.6662766,-3.723923,-0.1048383,0.521191,1.34613,0.2558661,0.03319581,-0.04691939,0.05090103,-0.7286664,0.556257,0.02266004,0.6907595,1.419906,0.1453822,0.1833112,1.130225,0.1576576,276.3459,315.5706,290.5299,True
1,2.077781,0.08798886,-0.1928138,0.03040591,4.708635,-4.567033,-2.889402,0.4556458,1.123064,0.2904327,-1.688274,-0.004713917,0,0.1,0.07520755,-0.03084684,-0.08618903,-0.667679,-3.723871,-0.1061981,0.5210539,1.346088,0.2557316,0.03004094,-0.04584829,0.05626256,-0.7277631,0.5553791,0.0232691,0.6906746,1.419932,0.1454399,0.183855,1.129931,0.1567622,276.3385,315.2262,290.701,True
1,2.088892,0.08264263,-0.1778823,0.03459586,4.708485,-4.565536,-2.890079,0.4558054,1.122861,0.2903879,-1.688439,-0.01493604,0,0.1,0.07623847,-0.02013758,-0.0989283,-0.6692561,-3.723848,-0.1071169,0.5210147,1.345992,0.2558017,0.02691765,-0.04050832,0.06267896,-0.72684,0.5549772,0.02338069,0.690575,1.41995,0.1454043,0.1844648,1.129616,0.1558298,276.3296,315.0003,290.7191,True
1,2.100003,0.08258682,-0.139459,0.04508685,4.707164,-4.565134,-2.890762,0.4560299,1.12261,0.2904332,-1.688602,-0.01477012,0,0.1,0.06785768,0.01076888,-0.09446981,-0.6702271,-3.722155,-0.1087275,0.5208986,1.34592,0.2557352,0.02059232,-0.03302451,0.06806299,-0.7258419,0.554939,0.02341984,0.6905862,1.419777,0.1453078,0.1850375,1.129281,0.1549121,276.3102,314.6717,290.835,True
1,2.111114,0.08361553,-0.1170488,0.04927843,4.705952,-4.564353,-2.891553,0.4561829,1.122528,0.2904923,-1.688477,0.01164787,0,0.1,0.05205309,0.04381343,-0.08676452,-0.6711214,-3.719888,-0.1104775,0.5210083,1.345752,0.2557611,0.01741983,-0.02449484,0.06808208,-0.7251399,0.5549317,0.02328002,0.6906003,1.41979,0.1452501,0.1855225,1.12891,0.1540446,276.3014,314.4244,290.9004,True
1,2.122225,0.08039565,-0.09464898,0.05555703,4.705198,-4.563856,-2.892335,0.4563949,1.122321,0.2904942,-1.688522,-0.004214757,0,0.1,0.02892474,0.08320662,-0.06193535,-0.6711709,-3.716155,-0.1129582,0.5210369,1.345675,0.2557244,0.005591672,-0.01595807,0.05433587,-0.7249694,0.5550693,0.02348908,0.6906329,1.419699,0.1453066,0.185923,1.128505,0.1533181,276.326,313.8207,291.2767,True
1,2.133336,0.07715762,-0.07333779,0.05229298,4.704161,-4.563738,-2.892929,0.4565398,1.122205,0.2906039,-1.688694,-0.01565434,0,0.1,0.01830664,0.08215997,-0.05548718,-0.6717488,-3.714899,-0.1138563,0.5210794,1.345534,0.2557995,0.003379945,-0.004246924,0.04369568,-0.724775,0.5554751,0.02331225,0.6905814,1.419741,0.1454055,0.1862251,1.128107,0.1528537,276.427,313.1731,291.7208,True
1,2.144447,0.07501135,-0.06376426,0.05011474,4.703779,-4.563247,-2.89369,0.4567396,1.122037,0.2905955,-1.688746,-0.0045417,0,0.1,0.006455205,0.06200715,-0.06403353,-0.6727496,-3.715106,-0.1133622,0.521112,1.345414,0.2557912,-0.004089531,0.007484751,0.03949354,-0.7244619,0.5562215,0.02307176,0.6905805,1.419733,0.1453867,0.1864399,1.127754,0.1526711,276.5428,312.693,292.1285,True
1,2.155558,0.07499621,-0.05425081,0.03729139,4.703774,-4.562775,-2.894696,0.4568239,1.121855,0.2904253,-1.688597,0.01360808,0,0.1,0.005344227,0.06097838,-0.07042686,-0.6739156,-3.714277,-0.1140432,0.5210394,1.345259,0.2557156,-0.009360377,0.01069622,0.04379798,-0.7238275,0.5564759,0.02303874,0.6906189,1.419763,0.1451757,0.1866158,1.127435,0.1527377,276.62,312.5393,292.3081,True
1,2.166669,0.06433006,-0.05221432,0.02237816,4.704167,-4.562292,-2.895127,0.4569503,1.121736,0.290426,-1.688789,-0.01761231,0,0.1,0.01814252,0.0630526,-0.06942918,-0.674723,-3.713213,-0.1155367,0.5210652,1.345116,0.2557297,-0.01248344,0.01177607,0.05128377,-0.7229475,0.5567023,0.02309999,0.6906527,1.419768,0.1451366,0.1867363,1.127167,0.1530079,276.6978,312.6525,292.2843,True
1,2.17778,0.05578252,-0.05015801,0.008571309,4.704001,-4.561851,-2.895347,0.4570947,1.121624,0.2905524,-1.689081,-0.0265254,0,0.1,0.02985229,0.05339238,-0.06316004,-0.6752903,-3.712742,-0.1165492,0.5210762,1.345049,0.2556386,-0.01250084,0.01922744,0.04701973,-0.7225055,0.5573325,0.02266803,0.6906562,1.419749,0.1451681,0.1868491,1.126921,0.1533668,276.7433,313.1207,291.9986,True
1,2.188891,0.05470688,-0.0459189,0.004289222,4.704124,-4.561532,-2.895936,0.4573047,1.121517,0.2905905,-1.688554,0.04844727,0,0,0.02658057,0.03208977,-0.06110448,-0.6757761,-3.713411,-0.1161298,0.5212641,1.345017,0.2556148,-0.0211348,0.02562981,0.0343102,-0.7225981,0.5581289,0.02269812,0.6907353,1.419652,0.1451638,0.1869356,1.126658,0.153674,276.7541,313.6411,291.6719,True
1,2.200002,0.05573874,-0.03320653,-0.00962745,4.704679,-4.561739,-2.896567,0.4574658,1.121544,0.2906897,-1.688323,0.02062068,0,0,0.01593206,0.02037426,-0.05257274,-0.6760328,-3.713799,-0.1156366,0.5213345,1.345033,0.2555645,-0.02866923,0.02670456,0.02585732,-0.722595,0.5586407,0.02288827,0.6908302,1.419626,0.1451504,0.1870417,1.126364,0.153874,276.7681,313.6058,291.7981,True
1,2.211113,0.05678913,-0.02256529,-0.01077365,4.705126,-4.561839,-2.897264,0.4576969,1.121348,0.2903292,-1.688736,-0.03780701,0,0,0.008583192,0.02885537,-0.03865132,-0.6762309,-3.712885,-0.1160417,0.5214124,1.345069,0.2554965,-0.03193329,0.02244746,0.0195001,-0.7225587,0.5588247,0.02318788,0.6909468,1.419595,0.1450841,0.1871925,1.126072,0.153973,276.8158,313.2357,292.1759,True
1,2.222224,0.05997182,-0.01833303,-0.01719126,4.705534,-4.561867,-2.898027,0.457847,1.121382,0.2904398,-1.688864,-0.01138642,0,0,0.001317661,0.04583443,-0.01828618,-0.6758538,-3.711029,-0.117247,0.5215204,1.345108,0.2554312,-0.02992293,0.00964991,0.009905121,-0.7228256,0.5583223,0.02383609,0.6910383,1.419577,0.1449983,0.1874009,1.125799,0.1539807,276.8415,312.7064,292.6847,True
1,2.233335,0.05675986,-0.009826857,-0.01723174,4.7057,-4.561902,-2.898485,0.458088,1.121428,0.2904308,-1.688959,-0.008554589,0,0.1,-0.001812637,0.04685688,-0.007607698,-0.675621,-3.710266,-0.1176912,0.5216243,1.345218,0.2553594,-0.0246262,-0.001014842,0.009864435,-0.7226871,0.5577672,0.02437671,0.6912026,1.419629,0.1449883,0.1876061,1.125556,0.1539218,276.8261,312.2692,293.1173,True
1,2.244446,0.05672872,0.001824393,-0.03007644,4.706365,-4.56252,-2.899104,0.4582107,1.12147,0.2905831,-1.689041,-0.007409149,0,0.1,-0.001832193,0.02122508,0.006121096,-0.6749505,-3.711211,-0.1169343,0.521692,1.345291,0.2553127,-0.02358847,-0.004215211,0.007726977,-0.7227042,0.5575148,0.02479802,0.6912574,1.419628,0.1449127,0.1879247,1.125203,0.1539753,276.859,312.5853,292.8481,True
1,2.255557,0.05244979,0.006006636,-0.04287349,4.707158,-4.562826,-2.899564,0.4582438,1.121488,0.2906363,-1.688752,0.0265079,0,0.1,0.0012922,0.01271554,0.0007357425,-0.675163,-3.711501,-0.1167642,0.5216026,1.345213,0.2552373,-0.02888063,-0.0009955913,0.009902172,-0.722555,0.5579223,0.0249144,0.6913267,1.419592,0.144851,0.1880458,1.124954,0.153828,276.8459,311.55,293.8665,True
1,2.266668,0.04817873,0.005902791,-0.06097903,4.708373,-4.563107,-2.900114,0.4582278,1.121561,0.2907939,-1.68889,-0.01295992,0,0.1,0.01088177,0.01801856,-0.002493288,-0.6753308,-3.710927,-0.1176704,0.5215962,1.345157,0.2551718,-0.02874523,0.001148004,0.02374837,-0.7217928,0.5580285,0.02513385,0.6913419,1.419577,0.1447611,0.188197,1.124744,0.1536589,276.8552,310.7132,294.6097,True
1,2.277779,0.04604838,0.005842793,-0.06845807,4.709721,-4.563243,-2.900696,0.4582385,1.121588,0.2906866,-1.688776,0.01063053,0,0.1,0.02055723,0.03073191,0.003899781,-0.6751534,-3.70955,-0.1192857,0.5214683,1.345126,0.2551413,-0.0297657,0.003287196,0.02802616,-0.7211968,0.558225,0.02534184,0.6912389,1.419605,0.1448081,0.1882907,1.124589,0.1535484,276.8166,310.0063,295.2007,True
1,2.28889,0.04284559,0.003668982,-0.07590026,4.710782,-4.563465,-2.901049,0.4582682,1.121563,0.2908213,-1.688873,-0.00893075,0,0.1,0.0249256,0.05734677,0.003998686,-0.6752754,-3.706958,-0.1217813,0.52143,1.345076,0.2550552,-0.02966802,0.006492071,0.03761034,-0.7203947,0.5584871,0.02547314,0.691263,1.419602,0.144778,0.1882047,1.123983,0.1535563,276.712,306.8177,298.408,True
1,2.300001,0.03962676,0.01425344,-0.08660881,4.712015,-4.56419,-2.90147,0.4582413,1.121588,0.2908905,-1.688934,-0.005509202,0,0.1,0.006869819,0.05203133,0.01793538,-0.6746346,-3.706138,-0.1217296,0.5213933,1.344984,0.2548888,-0.02442048,0.01179943,0.02797594,-0.7202988,0.5590269,0.02514157,0.6912012,1.419577,0.1448774,0.1878293,1.121933,0.1539092,276.6968,296.2626,309.3497,True
1,2.311112,0.03535337,0.01633135,-0.09513505,-1.569996,-4.564679,-2.901736,0.4582208,1.121618,0.2910199,-1.688728,0.01889302,0,0.1,-0.008017667,0.04778899,0.02545953,-0.6741899,-3.705653,-0.1215097,0.5214235,1.344908,0.2547677,-0.02868116,0.02245041,0.02587589,-0.7200927,0.5596979,0.02516155,0.6912962,1.419629,0.1448317,0.1872374,1.119405,0.1546509,277.2809,289.7415,316.3382,True
1,2.322223,0.02682717,0.01201365,-0.1036252,-1.56862,-4.565014,-2.901752,0.458151,1.121624,0.2911339,-1.688797,-0.006450127,0,0.1,-0.01213916,0.05517783,0.04362976,-0.6732205,-3.704142,-0.1223762,0.5213832,1.344811,0.2546597,-0.03399013,0.03418009,0.02484953,-0.7198461,0.560886,0.02482013,0.6913223,1.419594,0.1448462,0.1869298,1.118837,0.1554143,277.8533,293.9119,312.1772,True
1,2.333334,0.01829933,0.006678448,-0.1077996,-1.568103,-4.565396,-2.901539,0.4581717,1.121791,0.2916484,-1.688684,0.01042404,0,0.1,-0.005701549,0.07114051,0.04152898,-0.6731113,-3.702029,-0.1241219,0.5214136,1.344748,0.2546818,-0.0360866,0.0448389,0.02592834,-0.7194546,0.5620853,0.02438044,0.6913936,1.419555,0.1448429,0.1868429,1.118613,0.1554931,277.9324,294.274,311.6509,True
1,2.344445,0.003389201,0.001314057,-0.1109505,-1.566756,-4.565532,-2.901054,0.4581267,1.121788,0.291791,-1.688463,0.02014497,0,0.1,-0.004666351,0.08932605,0.02456294,-0.6735976,-3.69957,-0.126016,0.5213881,1.344653,0.2546208,-0.03391612,0.04909808,0.02909999,-0.7190045,0.5631135,0.02393623,0.6914263,1.419565,0.1448333,0.1866862,1.118689,0.1551993,278.1353,300.2003,305.44,True
1,2.355556,-0.006213238,0.006657062,-0.1088041,-1.566283,-4.566224,-2.900526,0.4581915,1.121868,0.2920349,-1.688276,0.0168965,0,0.1,-0.0004640073,0.08614697,0.017067,-0.6737558,-3.698359,-0.1270709,0.5213796,1.344709,0.2545447,-0.03392262,0.04589935,0.02910266,-0.7186849,0.5635975,0.02391652,0.6915151,1.419533,0.1448429,0.1868636,1.11947,0.1550153,277.7289,299.1826,306.2844,True
1,2.366668,-0.02113976,0.01944697,-0.1035276,-1.565499,-4.567139,-2.899725,0.4582022,1.121908,0.2921808,-1.688077,0.01828011,0,0.1,0.007959284,0.06481728,0.01478519,-0.6736658,-3.69834,-0.1274605,0.5214059,1.344676,0.2545424,-0.02649078,0.03948918,0.02797334,-0.7184223,0.5639092,0.02371145,0.6915456,1.419528,0.144814,0.1870905,1.120381,0.1548987,277.3352,298.87,306.3885,True
1,2.377779,-0.0382282,0.05787301,-0.08770649,-1.565938,-4.569296,-2.898653,0.4582101,1.122052,0.2923143,-1.688121,-0.00419161,0,0.1,-0.001807988,0.04362174,-0.000169252,-0.6740866,-3.698791,-0.126718,0.5214005,1.344785,0.2545078,-0.02335913,0.0330862,0.02262561,-0.7183222,0.5641579,0.02368988,0.6914866,1.419519,0.1448624,0.1873112,1.121125,0.1548731,277.0721,299.0723,306.0437,True
1,2.38889,-0.04144568,0.08243377,-0.0761134,-1.565896,-4.571105,-2.898104,0.4582553,1.122126,0.2924654,-1.687973,0.01370539,0,0,-0.01470663,0.01276789,0.001894951,-0.6738682,-3.700105,-0.1250405,0.5214335,1.344824,0.2545578,-0.01696247,0.0266815,0.02470211,-0.7179642,0.5642387,0.02359081,0.6915382,1.419522,0.1448486,0.1874722,1.121672,0.154929,276.9871,299.9818,304.9869,True
1,2.400001,-0.05321695,0.1369152,-0.04653594,-1.567475,-4.574283,-2.897018,0.4583653,1.12223,0.2925642,-1.687819,0.01403051,0,0,-0.01263836,0.002121605,-0.001363555,-0.6739257,-3.700657,-0.124535,0.5215204,1.344861,0.2546034,-0.005371692,0.0159956,0.01394919,-0.7182045,0.5639804,0.02351092,0.6915145,1.419559,0.1448033,0.1875086,1.122069,0.1550718,276.961,300.5358,304.3175,True
1,2.411112,-0.05749879,0.157221,-0.03491342,-1.568081,-4.576644,-2.896211,0.458491,1.12228,0.2924683,-1.688446,-0.05731947,0,0,-0.005166595,-5.6474E-05,0.001774961,-0.6738405,-3.700688,-0.1247952,0.5216657,1.344828,0.2545187,0.0009757029,0.01384357,0.009633293,-0.7181768,0.5641198,0.02320972,0.6915973,1.419577,0.1448529,0.1873638,1.122394,0.1553909,276.9927,300.5854,304.2004,True
1,2.422223,-0.06179164,0.1924586,-0.01804853,-1.569249,-4.579748,-2.895373,0.4586185,1.122318,0.2926319,-1.688086,0.03348044,0,0,0.008746338,0.01586722,0.001765497,-0.6738943,-3.6996,-0.1262309,0.5217925,1.344882,0.2545693,-0.001182018,0.002130308,0.009664476,-0.7180937,0.5635914,0.02369574,0.6916807,1.419606,0.1448362,0.1871471,1.122641,0.1559168,277.0373,300.4995,304.2892,True
1,2.433334,-0.07031282,0.202154,0.003229942,4.71242,-4.582021,-2.894205,0.4587399,1.122339,0.2926421,-1.688403,-0.0292833,0,0,0.009801863,0.01801299,-0.001420856,-0.6739709,-3.699069,-0.1267718,0.5218674,1.344875,0.2544513,-0.0001363198,-0.001068031,0.008592883,-0.7180197,0.5634207,0.02382996,0.6917249,1.419643,0.1448252,0.18685,1.122845,0.1566592,277.1682,300.6865,304.2044,True
1,2.444445,-0.08097363,0.2171142,0.01488196,4.711165,-4.584739,-2.892946,0.4589078,1.122387,0.2928483,-1.688494,-0.007917095,0,0.1,0.004531316,0.02547128,0.002907254,-0.6738772,-3.698081,-0.1274283,0.522048,1.34494,0.2545488,0.005124771,-0.01812792,0.006427083,-0.7180128,0.5622,0.02457325,0.6918938,1.419676,0.1448157,0.1865372,1.123023,0.1575684,277.2177,300.7663,304.3678,True
1,2.455556,-0.08949506,0.22143,0.02659694,4.709757,-4.587036,-2.891623,0.4590284,1.122426,0.2929523,-1.688239,0.02340056,0,0.1,0.00982372,0.01907076,0.0007110881,-0.6739859,-3.698132,-0.1277359,0.5221592,1.344921,0.2546728,0.01253973,-0.02560119,0.004237388,-0.7180207,0.5615173,0.02477299,0.691942,1.419671,0.1448631,0.1861025,1.123391,0.1587742,277.0502,301.7132,303.8717,True
1,2.466667,-0.09375995,0.2310269,0.02974793,4.708635,-4.589698,-2.89056,0.4591533,1.12251,0.2931464,-1.688203,0.003126623,0,0.1,0.01505346,-0.0001105629,-0.002606423,-0.6740471,-3.699254,-0.1272136,0.5223467,1.344938,0.2548447,0.01574561,-0.02986783,0.00634191,-0.7179019,0.5607709,0.02506194,0.6920286,1.419692,0.1448929,0.1857193,1.124207,0.1602828,276.9364,304.0616,301.9817,True
1,2.477778,-0.1012225,0.2331624,0.03187876,4.707516,-4.592222,-2.889149,0.459296,1.12249,0.2930553,-1.688232,-0.002597895,0,0.1,0.02564569,-0.005451314,-0.009080997,-0.6742266,-3.699743,-0.1274498,0.5225663,1.344898,0.2549684,0.02529327,-0.03095704,0.003055666,-0.7179834,0.560312,0.02492772,0.6921492,1.419793,0.144768,0.1854349,1.125424,0.1619281,276.8313,307.7678,298.6956,True
1,2.488889,-0.1033431,0.2299847,0.03509329,4.706427,-4.594493,-2.887974,0.4594541,1.122531,0.2932618,-1.688577,-0.03145415,0,0.1,0.03090116,-0.01182429,-0.01660506,-0.6746767,-3.700153,-0.1276088,0.5227181,1.34485,0.2551622,0.03273253,-0.03417137,0.001923362,-0.7180117,0.5595838,0.02485981,0.6922801,1.419801,0.1447992,0.1852438,1.126854,0.1635368,276.6813,311.6982,295.1658,True
1,2.5,-0.1086776,0.2331978,0.03934616,4.705132,-4.596984,-2.886497,0.4596972,1.122488,0.2932975,-1.688335,0.02233621,0,0.1,0.03721558,-0.02461319,-0.02096446,-0.6749521,-3.701303,-0.1273305,0.523028,1.344799,0.2554119,0.0433054,-0.04591617,-0.003492434,-0.7182572,0.5582671,0.02504383,0.6924335,1.419713,0.1448913,0.1851288,1.128312,0.1649977,276.5118,315.7155,291.5043,True
1,2.511111,-0.1097475,0.233213,0.0425366,4.704024,-4.599364,-2.885159,0.4599599,1.122299,0.2933705,-1.688606,-0.0247488,0,0.1,0.04033193,-0.03738916,-0.02637437,-0.6753612,-3.702833,-0.126706,0.5232785,1.344852,0.2555749,0.04968069,-0.04699508,-0.004613716,-0.7183099,0.5574742,0.02494237,0.692564,1.419729,0.1449475,0.1850637,1.129638,0.1662019,276.3789,319.5065,288.0104,True
1,2.522222,-0.1150664,0.2310918,0.04574975,4.702783,-4.601644,-2.883726,0.4602191,1.122272,0.2936578,-1.688398,0.01919281,0,0.1,0.04343772,-0.05336113,-0.03072921,-0.6756967,-3.704754,-0.1257806,0.5236747,1.34477,0.2558763,0.06772459,-0.05024391,-0.01116549,-0.7185475,0.556345,0.02441027,0.6927699,1.419768,0.1451466,0.1850689,1.130717,0.167135,276.293,322.4871,285.1994,True
1,2.533333,-0.1235713,0.2193558,0.04475328,4.700709,-4.605818,-2.880849,0.4609145,1.122248,0.2941811,-1.68857,-0.01589108,0,0,0.06990839,-0.08219668,-0.03848377,-0.6764477,-3.708889,-0.1247806,0.5245501,1.344787,0.2567012,0.08466707,-0.05241659,-0.02090723,-0.7192058,0.5547372,0.02336658,0.6932784,1.419791,0.1452048,0.1851224,1.13149,0.1678158,276.2498,324.6522,283.132,True
1,2.544444,-0.1288828,0.2097363,0.04054546,4.69995,-4.607719,-2.879346,0.4612623,1.122176,0.2944005,-1.687222,0.1235042,0,0,0.08152182,-0.102469,-0.04184283,-0.6767497,-3.711862,-0.1236673,0.5250019,1.344778,0.2571514,0.09314828,-0.06095842,-0.02310495,-0.7194561,0.5533264,0.02315911,0.6935296,1.419708,0.1452477,0.1852053,1.131676,0.1686264,276.2908,324.9787,282.8887,True
1,2.555555,-0.1288828,0.2097363,0.04054546,4.69995,-4.607719,-2.879346,0.4612623,1.122176,0.2944005,-1.688487,-0.116666,0,0,0.08152182,-0.102469,-0.04184283,-0.6767497,-3.711862,-0.1236673,0.5250019,1.344778,0.2571514,0.09314828,-0.06095842,-0.02310495,-0.7194561,0.5533264,0.02315911,0.6935296,1.419708,0.1452477,0.1851079,1.131131,0.1700494,276.4688,323.0746,285.0351,True
