loc,t,aDotUA,bDotUA,gDotUA,aUA,bUA,gUA,xUA,yUA,zUA,qE,qDotE,emgA,emgB,aDotSH,bDotSH,gDotSH,aSH,bSH,gSH,xSH,ySH,zSH,aDotUB,bDotUB,gDotUB,aUB,bUB,gUB,xUB,yUB,zUB,xHand,yHand,zHand,aHand,bHand,gHand,enable
2,0,-0.3132832,0.2221268,-0.1954567,-1.399538,-4.222007,-3.102196,0.6906437,1.134293,0.4488349,-1.464538,-0.05842243,0,0.1,0.1103028,-0.2939456,0.2674497,-0.615382,-4.659885,0.2879359,0.7519964,1.359421,0.3900938,0.08788945,-0.2556698,-0.09472192,-0.995251,0.04739481,0.05757941,0.8480911,1.405067,0.2058845,0.4780303,0.9982333,0.2619448,297.997,236.422,357.8669,True
2,0.01111111,-0.2930402,0.2243427,-0.1816277,-1.398194,-4.224712,-3.099,0.6910005,1.134904,0.4490974,-1.464008,0.04878933,0,0.1,0.1113846,-0.3131505,0.276949,-0.6134602,-4.668051,0.2933389,0.7526284,1.35976,0.3897908,0.08585714,-0.2684649,-0.08404163,-0.9959892,0.04315706,0.05905586,0.8481121,1.404989,0.205281,0.4802883,1.002849,0.2582278,296.6749,234.8616,356.3727,True
2,0.02222222,-0.2781237,0.2318527,-0.1731562,-1.39669,-4.227653,-3.095933,0.6913061,1.135421,0.4492283,-1.464619,-0.05640113,0,0.1,0.1145716,-0.3430257,0.2863987,-0.6115577,-4.677845,0.2999923,0.7533325,1.360066,0.3894322,0.08368252,-0.2791164,-0.08721247,-0.9972686,0.03911664,0.06038851,0.8481656,1.404863,0.204633,0.4822212,1.00564,0.2545364,295.8734,233.5402,355.6819,True
2,0.03333334,-0.2493627,0.2489787,-0.1583544,-1.395577,-4.23103,-3.093487,0.6917134,1.13592,0.4494197,-1.464321,0.02760683,0,0.1,0.1188252,-0.3515706,0.2895366,-0.6096024,-4.686543,0.3057644,0.7540742,1.360513,0.3890955,0.08132812,-0.2812649,-0.1084905,-0.9993709,0.03520007,0.0616615,0.8482851,1.404872,0.204206,0.4835822,1.006741,0.2517198,295.704,232.5335,355.2596,True
2,0.04444445,-0.2088802,0.2608041,-0.1435372,-1.394537,-4.234447,-3.091764,0.6923257,1.13647,0.449599,-1.46428,0.00330571,0,0,0.1316601,-0.3430923,0.2926797,-0.6075288,-4.694158,0.3099989,0.7547231,1.360901,0.3887749,0.06631494,-0.2578305,-0.1189899,-1.001168,0.03252971,0.06295313,0.8484185,1.404862,0.2035115,0.4843544,1.00654,0.2502531,296.0687,232.053,354.9513,True
2,0.05555556,-0.1864971,0.2555464,-0.1328752,-1.393529,-4.23721,-3.089903,0.692754,1.137092,0.4496911,-1.464804,-0.04790155,0,0,0.1551823,-0.3314568,0.3011016,-0.6050414,-4.701636,0.3136351,0.7553933,1.361361,0.3884795,0.05572119,-0.2322522,-0.1156875,-1.002463,0.03050758,0.06374782,0.8484678,1.404786,0.2029846,0.4845031,1.005525,0.2502496,296.7649,231.9841,354.8366,True
2,0.06666667,-0.1396074,0.2267714,-0.1402214,-1.391823,-4.238897,-3.089537,0.6932379,1.137857,0.449713,-1.465371,-0.05166997,0,0,0.1659316,-0.3038098,0.306468,-0.6024103,-4.707907,0.3166251,0.7561224,1.361832,0.3880908,0.04422727,-0.2098828,-0.09638886,-1.002949,0.02826333,0.06482188,0.8485601,1.404745,0.2023699,0.4841676,1.004218,0.2516329,297.5762,232.289,354.8887,True
2,0.07777778,-0.09271162,0.2055551,-0.1284316,-1.390818,-4.240674,-3.08968,0.693733,1.138589,0.4497747,-1.464918,0.04159925,0,0,0.1725151,-0.2676718,0.3236139,-0.5989284,1.569945,0.3188717,0.7568204,1.362359,0.3876846,0.03058203,-0.1981469,-0.07813622,-1.003372,0.02612827,0.0660432,0.8486524,1.4047,0.2017715,0.4834965,1.003037,0.2540763,298.3405,232.8568,355.1283,True
2,0.08888889,-0.06925553,0.1864584,-0.1155692,-1.39002,-4.242247,-3.089217,0.6942164,1.139219,0.4498694,-1.465884,-0.08890884,0,0,0.1801424,-0.2560581,0.3449218,-0.595363,1.562953,0.3223945,0.7576044,1.362958,0.3871877,0.02422103,-0.1960274,-0.07487179,-1.004331,0.0232948,0.06755694,0.8488827,1.40463,0.2011042,0.4825326,1.002271,0.2570185,298.9828,233.5211,355.561,True
2,0.1,-0.03725355,0.1311384,-0.1046566,-1.389183,-4.24185,-3.089972,0.694683,1.139799,0.4498785,-1.466188,-0.02721996,0,0,0.1941123,-0.2668282,0.3660926,-0.5919477,1.554449,0.3267246,0.7582878,1.363476,0.3866615,0.02737162,-0.2077495,-0.07809839,-1.005481,0.02016319,0.06883739,0.8490296,1.404576,0.2003465,0.4815406,1.002093,0.2599648,299.3844,234.0734,356.1599,True
2,0.1111111,-0.01698443,0.0917773,-0.0959532,-1.388244,-4.241563,-3.090388,0.6953083,1.140287,0.4499431,-1.465216,0.08869559,0,0,0.1941992,-0.2754182,0.3820402,-0.5885176,1.545774,0.3317358,0.7589386,1.363982,0.3861821,0.03474092,-0.2429314,-0.08348831,-1.006868,0.01535632,0.07070586,0.8491533,1.404491,0.1996589,0.480701,1.002495,0.2625122,299.4976,234.5615,356.6625,True
2,0.1222222,0.005416198,0.05454477,-0.08832221,-1.387497,-4.24079,-3.091428,0.6958604,1.140626,0.4498682,-1.465646,-0.0403007,0,0,0.1827186,-0.2797987,0.4193824,-0.5840339,1.536691,0.3376228,0.7593877,1.364455,0.3856962,0.03366128,-0.2695625,-0.0824049,-1.008034,0.01080924,0.0728095,0.849246,1.404422,0.1989629,0.4801217,1.003364,0.2643572,299.3792,234.9199,357.0584,True
2,0.1333333,0.03312931,0.04932366,-0.07020585,-1.387412,-4.241282,-3.092554,0.6963931,1.140931,0.4498034,-1.465091,0.0510293,0,0,0.1605515,-0.24147,0.4377875,-0.5793004,1.530996,0.3413981,0.7597218,1.36477,0.3852463,0.03258519,-0.2823488,-0.08238931,-1.009203,0.006667357,0.07470939,0.8493127,1.40436,0.198441,0.4800209,1.004508,0.2653392,299.0746,235.002,357.4328,True
2,0.1444445,0.06083883,0.05795063,-0.05215717,-1.387553,-4.242222,-3.093968,0.6968026,1.141106,0.4497366,-1.465273,-0.01738684,0,0,0.1446323,-0.2030663,0.4337806,-0.5752844,1.526684,0.3439579,0.760006,1.365059,0.3848364,0.03374164,-0.2695643,-0.07494728,-1.009929,0.003750929,0.07583751,0.8493069,1.404291,0.1979721,0.4804654,1.005695,0.2654594,298.701,234.8436,357.6842,True
2,0.1555556,0.09386647,0.08152276,-0.02993401,-1.388049,-4.243943,-3.095841,0.6973063,1.141075,0.4496274,-1.465338,-0.005908699,0,0,0.1316118,-0.1292779,0.3713064,-0.5730542,1.527658,0.34214,0.7600725,1.365071,0.3845584,0.02119698,-0.1992486,-0.05884528,-1.009923,0.004073704,0.07581487,0.8490239,1.404233,0.1977525,0.4813349,1.006692,0.264811,298.3517,234.5503,357.729,True
2,0.1666667,0.1119775,0.1008027,-0.01087316,-1.38861,-4.245626,-3.097291,0.6978716,1.141106,0.449595,-1.465421,-0.007764975,0,0,0.1236187,-0.06172487,0.2640268,-0.5732918,1.530784,0.3383075,0.7601365,1.365035,0.3842912,0.006568439,-0.1321243,-0.03739725,-1.009589,0.004668388,0.07597839,0.8489245,1.404201,0.1975217,0.4824287,1.00734,0.2636583,298.1074,234.2521,357.5071,True
2,0.1777778,0.1364851,0.1479156,0.03254187,-1.390597,-4.24882,-3.099128,0.6984215,1.140677,0.4494345,-1.465723,-0.0278287,0,0,0.1357431,-0.01441395,0.1458838,-0.5751213,1.53486,0.3329838,0.7600508,1.364864,0.3840821,-0.01014207,-0.07883587,-0.01060066,-1.008793,0.005603424,0.07613072,0.8488327,1.404237,0.1972399,0.4835433,1.007539,0.2623354,297.9688,233.9814,357.1507,True
2,0.1888889,0.1407396,0.1799609,0.04835375,-1.391691,-4.251827,-3.100206,0.6989706,1.140638,0.4492245,-1.465019,0.0644115,0,0,0.148095,0.0103516,0.07026689,-0.5763368,1.536986,0.3290711,0.7600446,1.364877,0.383781,-0.01843327,-0.05113846,0.00972347,-1.008053,0.005469201,0.07677308,0.8488731,1.404319,0.1967266,0.484613,1.00726,0.2612092,297.938,233.8195,356.749,True
2,0.2,0.1481828,0.2280077,0.06834069,-1.393315,-4.256,-3.101374,0.69959,1.140212,0.449007,-1.465309,-0.02729379,0,0.1,0.1497607,0.04583395,-0.01376452,-0.5788551,1.542053,0.3230721,0.7598456,1.364672,0.3835864,-0.02447889,-0.02875821,0.04067521,-1.006617,0.005702094,0.07715577,0.8488038,1.404293,0.1962779,0.4855512,1.006548,0.2605196,298.0508,233.842,356.3323,True
2,0.2111111,0.1449706,0.2578752,0.07671417,-1.394599,-4.259754,-3.102133,0.7002277,1.139986,0.4487135,-1.46431,0.09145349,0,0.1,0.1229832,0.09291552,-0.05282126,-0.5796285,1.547284,0.3182709,0.7597976,1.364532,0.3832726,-0.02000732,-0.008525446,0.0587354,-1.005319,0.006080662,0.07700344,0.8487576,1.40437,0.1959124,0.486208,1.005459,0.2603599,298.2623,234.1804,355.8612,True
2,0.2222222,0.1428302,0.2941759,0.09250823,-1.396404,-4.264375,-3.102832,0.7007828,1.139586,0.4484146,-1.464288,0.00100144,0,0.1,0.09317253,0.1388436,-0.06629685,-0.579719,1.553203,0.3132455,0.7596537,1.364358,0.3830183,-0.005055718,0.01809195,0.05963481,-1.004594,0.007390538,0.07575229,0.8487555,1.404346,0.1956413,0.4865639,1.004159,0.2607352,298.6245,234.5984,355.5512,True
2,0.2333333,0.1439071,0.2931504,0.09996548,-1.397725,-4.267383,-3.103992,0.7012582,1.139177,0.4480727,-1.463669,0.05657582,0,0.1,0.07309517,0.1750662,-0.0532372,-0.5787758,1.558779,0.3084851,0.7596264,1.364144,0.3827169,0.004331697,0.0212655,0.04035426,-1.004912,0.007636881,0.07521406,0.8488462,1.404408,0.1953926,0.486622,1.002804,0.261591,298.9869,235.1342,355.3354,True
2,0.2444444,0.1449843,0.2771828,0.1021777,-1.399019,-4.269859,-3.105219,0.70166,1.138855,0.4477632,-1.463582,0.007373129,0,0,0.06996989,0.1856975,-0.04678503,-0.5783502,1.562947,0.3041833,0.7596732,1.363933,0.3824549,0.01282702,0.03936725,0.0359995,-1.00452,0.008785635,0.07421458,0.8488152,1.404469,0.1952004,0.4864412,1.001553,0.2627786,299.3447,235.7474,355.208,True
2,0.2555556,0.1375658,0.206823,0.09402382,-1.399712,-4.269502,-3.10659,0.7019306,1.138495,0.4473617,-1.463678,-0.008803381,0,0,0.08485503,0.1654102,-0.04376135,-0.5783582,1.565007,0.3010381,0.7597867,1.363736,0.3821247,0.02351424,0.05214111,0.03801359,-1.003948,0.009966081,0.07293732,0.8488081,1.404514,0.1949353,0.4860431,1.000503,0.2641094,299.6012,236.4171,355.1278,True
2,0.2666667,0.1311842,0.1716245,0.08568986,-1.400405,-4.270355,-3.107627,0.7023633,1.13825,0.4471352,-1.463582,0.008767392,0,0,0.09853372,0.1089477,-0.05152702,-0.5793616,1.564051,0.300175,0.7599282,1.363509,0.3819134,0.03004242,0.04999726,0.05073153,-1.002865,0.0102075,0.07222173,0.8488268,1.404572,0.1946328,0.4856072,0.9996864,0.2653804,299.7432,237.0039,355.1646,True
2,0.2777778,0.1120218,0.1310491,0.06993514,-1.400646,-4.270363,-3.10826,0.7026934,1.137921,0.446753,-1.463166,0.03795028,0,0,0.1120451,0.04831794,-0.08274938,-0.5817132,1.562448,0.299779,0.760108,1.363269,0.3817465,0.04380037,0.02654566,0.04420022,-1.002625,0.009596301,0.07160814,0.8487732,1.404649,0.1943512,0.485289,0.9990873,0.2663934,299.7928,237.4732,355.2687,True
2,0.2888889,0.1024314,0.1267604,0.06463628,-1.401241,-4.271889,-3.10884,0.7030776,1.137562,0.4463995,-1.462965,0.01803729,0,0,0.1182199,0.008982562,-0.1042491,-0.5837575,1.561764,0.2987292,0.7601068,1.363019,0.3815844,0.04914422,0.02120434,0.04627572,-1.002071,0.009458616,0.0709775,0.8486515,1.404698,0.1941071,0.485254,0.9986443,0.2669418,299.7849,237.7322,355.4214,True
2,0.3,0.08750609,0.1523507,0.07090843,-1.402331,-4.274449,-3.108861,0.703543,1.137246,0.4460607,-1.462415,0.05021927,0,0,0.1137266,-0.03886991,-0.1235853,-0.5864206,1.559133,0.2998192,0.7602319,1.362813,0.3814328,0.05669418,0.02439544,0.05471774,-1.001143,0.009832391,0.06988534,0.8485881,1.404766,0.1938925,0.4855461,0.9983228,0.2670061,299.7542,237.8553,355.4477,True
2,0.3111111,0.0810953,0.1853827,0.07287581,-1.403365,-4.277734,-3.109022,0.7037889,1.136865,0.4457538,-1.462606,-0.01790339,0,0,0.1104943,-0.05057086,-0.1257382,-0.5879312,1.558483,0.2992426,0.7601354,1.362568,0.3812807,0.05778158,0.02439361,0.05683751,-1.000406,0.01010616,0.06909651,0.8484651,1.404832,0.1937323,0.4860169,0.9980469,0.2665755,299.7129,237.8533,355.3824,True
2,0.3222222,0.07893835,0.2461702,0.08641291,-1.404964,-4.28256,-3.109042,0.7042847,1.136508,0.4454873,-1.462312,0.02712066,0,0,0.1073786,-0.02394539,-0.1224163,-0.5888585,1.560327,0.2966628,0.7600902,1.362454,0.3811224,0.06191739,0.03503887,0.04400643,-1.000331,0.01100032,0.06777585,0.8484091,1.404887,0.1935337,0.4865527,0.9977949,0.2658232,299.6715,237.8533,355.1352,True
2,0.3333333,0.07146081,0.3005722,0.1021178,-1.406795,-4.287696,-3.10873,0.7046951,1.136172,0.4452906,-1.462603,-0.02673295,0,0,0.1084905,-0.00690221,-0.1212858,-0.5898523,1.562016,0.2939943,0.7600963,1.362225,0.3809373,0.06185139,0.03929012,0.03761736,-1.000078,0.01156877,0.06684028,0.848277,1.40486,0.1933818,0.4870081,0.9975662,0.264969,299.6476,237.9108,354.7592,True
2,0.3444445,0.06611649,0.3432254,0.1104169,-1.408332,-4.292809,-3.108484,0.7051201,1.135807,0.4449084,-1.462801,-0.01788115,0,0,0.1150169,0.0218017,-0.1105619,-0.5903296,1.564547,0.290361,0.7601315,1.362104,0.3807111,0.05858272,0.02436325,0.03233214,-0.999863,0.01098394,0.06667384,0.8482302,1.404813,0.193131,0.4872306,0.9973525,0.2642406,299.6148,238.0051,354.3615,True
2,0.3555556,0.05439531,0.3560344,0.1167522,-1.409996,-4.297167,-3.108016,0.7055173,1.135565,0.4446673,-1.462569,0.02140678,0,0.1,0.1184485,0.01945114,-0.07438482,-0.5903424,1.564978,0.2885977,0.7602379,1.362027,0.3804936,0.06805705,0.0009149909,0.02371576,-0.9999312,0.01007287,0.06608022,0.8481423,1.404832,0.1928411,0.4872453,0.9971858,0.2639074,299.5735,238.254,353.9412,True
2,0.3666667,0.04480127,0.360262,0.111417,-1.411232,-4.301311,-3.107542,0.7058764,1.135304,0.4444768,-1.462638,-0.006516358,0,0.1,0.1227716,0.001331471,-0.05848984,-0.5903003,1.563426,0.2882973,0.7602688,1.361717,0.3802836,0.06693812,-0.007615954,0.01946891,-0.999853,0.009540642,0.06567222,0.8480002,1.404887,0.1926463,0.4869873,0.9970622,0.264065,299.5339,238.6454,353.6068,True
2,0.3777778,0.0234764,0.37938,0.1028131,-1.412239,-4.306238,-3.106238,0.7062904,1.135016,0.4442267,-1.462355,0.02600637,0,0.1,0.1334658,-0.02325268,-0.04374155,-0.5906066,1.561521,0.2880302,0.7602412,1.361572,0.3800311,0.0646763,-0.003356479,0.00670734,-1.000253,0.009718673,0.06490896,0.8478731,1.404906,0.1923881,0.4864909,0.9969735,0.2646799,299.494,239.1105,353.4471,True
2,0.3888889,0.001068272,0.4251181,0.09193908,-1.413059,-4.312572,-3.104525,0.7066773,1.134834,0.4440618,-1.462345,0.0007069891,0,0.1,0.139905,-0.03290554,-0.03210245,-0.5908462,1.560296,0.2873697,0.7601645,1.361442,0.37988,0.05275484,0.01156234,-0.01340835,-1.000942,0.01055983,0.06433877,0.84771,1.404957,0.1922266,0.4858793,0.9969378,0.2656507,299.4703,239.6095,353.3996,True
2,0.4,-0.02133292,0.4751409,0.08637247,-1.414101,-4.319456,-3.102564,0.7069335,1.134554,0.4439044,-1.461738,0.05565276,0,0,0.1378695,-0.02549434,-0.02034254,-0.590704,1.560027,0.2860797,0.7599509,1.361231,0.3796558,0.04612329,0.03180183,-0.03784735,-1.002126,0.01188103,0.06334435,0.847549,1.404936,0.1920297,0.4851961,0.9969421,0.2668248,299.4314,240.0849,353.4282,True
2,0.4111111,-0.03414065,0.5092055,0.08301116,-1.415195,-4.326322,-3.100657,0.7069341,1.13437,0.4438174,-1.461618,0.01051484,0,0,0.1272219,0.01399855,-0.0329009,-0.5910199,1.562892,0.2826184,0.7597133,1.361058,0.3794422,0.04069895,0.04990381,-0.04845043,-1.002931,0.01309809,0.06241997,0.8474903,1.404934,0.1917872,0.4844052,0.9969917,0.2680742,299.4082,240.5597,353.4351,True
2,0.4222222,-0.04054887,0.5208988,0.07868855,-1.416139,-4.332489,-3.099034,0.706977,1.134223,0.4436407,-1.461612,0.0006783574,0,0,0.1207458,0.04285963,-0.05511554,-0.5919302,1.565895,0.2790503,0.7594776,1.360914,0.3792207,0.03430442,0.05843202,-0.04945057,-1.003465,0.01425777,0.0616354,0.8473423,1.404972,0.1915843,0.4834338,0.9971318,0.2693608,299.3918,241.0344,353.38,True
2,0.4333333,-0.06187632,0.5153998,0.04784037,-1.415887,-4.338097,-3.096782,0.7064872,1.134231,0.4435067,-1.461822,-0.01909405,0,0,0.1099683,0.07175445,-0.08369101,-0.5932298,1.569658,0.2751368,0.7592142,1.360736,0.3789425,0.0195053,0.06271131,-0.03863883,-1.003391,0.01518042,0.06148147,0.8470236,1.404984,0.1913524,0.4822035,0.9973843,0.2706575,299.3444,241.5397,353.2737,True
2,0.4444444,-0.07466877,0.513146,0.02443708,-1.415807,-4.343845,-3.094799,0.7062656,1.134136,0.4434359,-1.462158,-0.03038847,0,0,0.1057823,0.0749159,-0.07299798,-0.5933784,-4.711883,0.2727255,0.7589179,1.360602,0.378659,0.01533874,0.06697914,-0.03007309,-1.003353,0.01625966,0.06088625,0.8468635,1.40503,0.1911004,0.4807499,0.9977775,0.2719533,299.258,242.0544,353.188,True
2,0.4555556,-0.1056241,0.5490994,-0.02366215,-1.41428,-4.351236,-3.09142,0.7057651,1.134189,0.4431939,-1.46161,0.05043044,0,0,0.08909108,0.09501085,-0.02594256,-0.5916175,-4.709625,0.270358,0.7585655,1.360622,0.3784783,0.01544391,0.06058234,-0.01941475,-1.003078,0.01660002,0.06048678,0.8466747,1.405104,0.1908348,0.4791872,0.9983018,0.2731998,299.1252,242.4837,353.2148,True
2,0.4666667,-0.1397851,0.6020953,-0.07291378,-1.412328,-4.359896,-3.087521,0.7053202,1.1344,0.4429917,-1.461976,-0.03386221,0,0,0.07346331,0.1353665,0.01480068,-0.5892223,-4.705358,0.2665952,0.7582768,1.360531,0.3782206,0.01014428,0.05845546,-0.01616015,-1.00313,0.01725236,0.06025801,0.8465897,1.40519,0.1906269,0.477461,0.9989251,0.2743325,298.981,242.7259,353.3533,True
2,0.4777778,-0.1696533,0.6392573,-0.09332173,-1.411067,-4.368402,-3.083284,0.7046998,1.134531,0.4427917,-1.461059,0.08429821,0,0,0.02813447,0.2045148,0.06543387,-0.5856568,-4.69831,0.2619901,0.75791,1.360529,0.377938,0.01467307,0.05526321,0.009361392,-1.002077,0.0177505,0.05967398,0.8464019,1.405242,0.1903632,0.4757108,0.9996441,0.2754208,298.7862,242.9121,353.4823,True
2,0.4888889,-0.2250986,0.6817046,-0.119062,-1.409579,-4.377499,-3.077507,0.7039642,1.134704,0.4426095,-1.460857,0.01777925,0,0,-0.00913088,0.2152502,0.06465467,-0.5843577,-4.694053,0.2597716,0.7575752,1.360386,0.3776331,0.02231393,0.04673678,0.02739819,-1.001089,0.01792867,0.05903509,0.8462578,1.405238,0.1901562,0.4737093,1.000437,0.2765117,298.6425,242.9913,353.6483,True
2,0.5,-0.2879922,0.7294922,-0.1426916,-1.40795,-4.38749,-3.070788,0.7030259,1.135018,0.4424641,-1.46076,0.008987588,0,0,-0.0602593,0.2014956,0.07025754,-0.5830128,-4.691382,0.2599354,0.7573372,1.360498,0.3773203,0.01896251,0.02862815,0.01465471,-1.001369,0.01765236,0.05914748,0.8461528,1.405265,0.1898565,0.4714354,1.001389,0.2777717,298.5188,243.0719,353.8232,True
2,0.5111111,-0.3423762,0.7804549,-0.1695426,-1.405977,-4.398159,-3.063457,0.7019695,1.135496,0.4422333,-1.459633,0.1033908,0,0,-0.0624401,0.1663271,0.07439078,-0.5819721,-4.690538,0.2599051,0.7572325,1.360642,0.3770645,0.01956952,0.005172029,-0.02689226,-1.00306,0.01684409,0.05929635,0.8460764,1.405231,0.1894927,0.4688554,1.002541,0.279254,298.343,243.2849,353.9803,True
2,0.5222223,-0.387133,0.8059447,-0.1802968,-1.404421,-4.408165,-3.056252,0.7010121,1.135864,0.4420037,-1.459117,0.04643064,0,0,-0.05394326,0.1161877,0.08692048,-0.5807539,-4.691742,0.2610907,0.7571065,1.360787,0.3767934,0.02462117,-0.008688055,-0.05144488,-1.00447,0.01634289,0.05914055,0.8459742,1.405228,0.1891572,0.4659097,1.003941,0.2809504,298.1497,243.5464,354.187,True
2,0.5333334,-0.4787765,0.8303069,-0.1963283,-1.402651,-4.418684,-3.046133,0.6996704,1.136592,0.4417727,-1.459058,0.005524396,0,0,-0.04640573,0.02971184,0.1280824,-0.5786873,-4.697698,0.2662338,0.7571235,1.361069,0.3765502,0.02758199,-0.02468572,-0.07277813,-1.006028,0.0153426,0.05916478,0.8458618,1.405287,0.1888583,0.4625473,1.005687,0.2828616,297.9431,243.8071,354.4643,True
2,0.5444446,-0.5331198,0.857942,-0.2017519,-1.401351,-4.42924,-3.036993,0.6984614,1.137217,0.4415753,-1.459562,-0.04580586,0,0,-0.04520996,-0.02050738,0.1662299,-0.5761222,-4.702453,0.2707636,0.7570733,1.361349,0.376286,0.03186347,-0.035339,-0.0696246,-1.006659,0.01461822,0.05909847,0.8456694,1.405361,0.1886134,0.4588641,1.007874,0.2849981,297.6458,244.0736,354.8468,True
2,0.5555557,-0.5970809,0.9185903,-0.2084043,-1.400211,-4.441833,-3.026094,0.6970583,1.138016,0.4412918,-1.457324,0.2053438,0,0.1,-0.03764275,-0.06965519,0.2000789,-0.573458,-4.708228,0.2757623,0.7571033,1.361545,0.3759778,0.02566914,-0.04171868,-0.05038054,-1.006628,0.0138238,0.05943696,0.8454726,1.40544,0.18822,0.4550544,1.010502,0.2873006,297.2072,244.39,355.2752,True
2,0.5666668,-0.6343884,0.955862,-0.2064261,-1.399545,-4.453901,-3.01605,0.6958495,1.138674,0.4409981,-1.458654,-0.1229553,0,0.1,-0.03121863,-0.1283607,0.2253818,-0.5711676,1.5675,0.2821438,0.7570701,1.361806,0.3755629,0.02152594,-0.05556037,-0.03755083,-1.006712,0.01255467,0.06008491,0.8453521,1.405498,0.1877024,0.4509908,1.013603,0.2896132,296.7656,244.7134,355.7114,True
2,0.577778,-0.7100487,1.039007,-0.1876146,-1.400001,-4.468374,-3.003464,0.694167,1.139547,0.4406562,-1.458036,0.05818549,0,0.1,-0.04499467,-0.1646429,0.248764,-0.5686307,1.560396,0.2890664,0.7569624,1.362166,0.3751869,0.01847991,-0.08644438,-0.02046598,-1.006527,0.0102545,0.06122208,0.8451002,1.405556,0.187155,0.4468331,1.017192,0.291899,296.1836,245.0074,356.1439,True
2,0.5888891,-0.7452161,1.07742,-0.171799,-1.400549,-4.48173,-2.991906,0.692655,1.140358,0.4402688,-1.459281,-0.1140058,0,0.1,-0.0534967,-0.1806385,0.2572806,-0.5663622,1.554252,0.2951142,0.756832,1.362442,0.3747966,0.01850328,-0.104559,-0.01620014,-1.006724,0.008143014,0.0621976,0.8449653,1.405605,0.1866088,0.4425153,1.021226,0.2941534,295.5035,245.3255,356.5206,True
2,0.6000003,-0.7878342,1.135083,-0.1411507,-1.402308,-4.496215,-2.97961,0.6910185,1.141207,0.4398556,-1.457847,0.1324787,0,0,-0.05216703,-0.169064,0.293538,-0.5625747,1.549058,0.3000163,0.7565416,1.362759,0.374361,0.01732974,-0.1216038,-0.02470682,-1.00742,0.005962019,0.06321972,0.8447053,1.405653,0.186085,0.438162,1.025607,0.2964006,294.6918,245.6672,356.8485,True
2,0.6111114,-0.8229908,1.170341,-0.1168009,-1.404202,-4.51047,-2.966964,0.6891245,1.142037,0.4393964,-1.45906,-0.1116339,0,0,-0.04885809,-0.1307238,0.2968575,-0.5594598,1.547179,0.3019495,0.7562062,1.363016,0.3739324,0.008756265,-0.1258614,-0.02887398,-1.007965,0.004171842,0.06441761,0.8444444,1.405631,0.1856267,0.4335068,1.03027,0.298638,293.8988,246.1617,357.0169,True
2,0.6222225,-0.8496231,1.1864,-0.09768739,-1.406172,-4.524108,-2.954446,0.6873015,1.142811,0.4390008,-1.459175,-0.009027964,0,0,-0.0711357,-0.06566048,0.2887348,-0.5563045,1.548205,0.3025745,0.7557369,1.363293,0.3734834,-0.009306565,-0.1119928,-0.02549274,-1.00819,0.003363839,0.06560431,0.8441416,1.405667,0.1851203,0.42882,1.035172,0.3009127,293.0354,246.6624,357.2267,True
2,0.6333337,-0.90503,1.212028,-0.07858583,-1.408846,-4.538594,-2.940135,0.6850297,1.143775,0.4384127,-1.459238,-0.005413879,0,0,-0.1168474,-0.03787688,0.2933957,-0.5529985,1.547103,0.3062976,0.7551625,1.363703,0.3730986,-0.01138778,-0.08750425,-0.02334299,-1.008303,0.002890462,0.06601977,0.8436539,1.405659,0.1847155,0.4240738,1.040223,0.3032222,292.1464,247.2834,357.3266,True
2,0.6444448,-0.9263256,1.204598,-0.07212952,-1.410924,-4.551635,-2.92726,0.6829387,1.144659,0.4379325,-1.459696,-0.04155918,0,0,-0.1380726,-0.01334714,0.2978916,-0.549539,1.546096,0.3094135,0.754625,1.363967,0.3726573,-0.01139561,-0.08004763,-0.02441541,-1.008742,0.002080195,0.0665769,0.8432481,1.405766,0.1843348,0.4192655,1.045339,0.3055491,291.2385,247.8973,357.4428,True
2,0.655556,-0.9476022,1.188726,-0.04859409,-1.413994,-4.564208,-2.914017,0.6804518,1.145554,0.4371507,-1.458525,0.1077559,0,0.1,-0.1605888,0.03159267,0.2609238,-0.5474581,1.548672,0.3098361,0.7538475,1.364356,0.3721435,-0.03038194,-0.07256661,-0.007170734,-1.008319,0.001383246,0.06790102,0.8427625,1.405875,0.1838374,0.4144642,1.050448,0.3078782,290.3515,248.5105,357.5432,True
2,0.6666671,-0.9508068,1.183451,-0.03790352,-1.41697,-4.577263,-2.901189,0.6782355,1.146467,0.4364123,-1.460028,-0.1380565,0,0.1,-0.1959825,0.06167535,0.2144048,-0.5461275,1.550892,0.3112801,0.7530544,1.364694,0.371491,-0.0397798,-0.0746804,0.01103821,-1.007679,0.0002387524,0.06928107,0.8422812,1.40591,0.1833258,0.4094817,1.055576,0.3101591,289.5685,249.2126,357.5575,True
2,0.6777782,-0.9550261,1.16014,-0.01434118,-1.420613,-4.589228,-2.888589,0.6753347,1.147441,0.4354529,-1.46015,-0.009604085,0,0.1,-0.2494893,0.07581185,0.1711269,-0.5452971,1.552839,0.314082,0.7520251,1.364887,0.3708787,-0.05232028,-0.06933446,0.033542,-1.006559,-0.0005747101,0.070753,0.84173,1.406017,0.1828027,0.404584,1.060729,0.3123792,288.7575,249.8463,357.6581,True
2,0.6888894,-0.960357,1.155922,-0.004715234,-1.424216,-4.601805,-2.875684,0.6727434,1.14848,0.4346819,-1.460933,-0.07128438,0,0.1,-0.3116726,0.06018543,0.1150095,-0.5456614,1.553157,0.3192667,0.7509108,1.365183,0.3702843,-0.06713326,-0.0522709,0.04115295,-1.005899,-0.0006273076,0.07191414,0.841158,1.406163,0.182384,0.3997086,1.065883,0.3144295,287.9478,250.6249,357.6194,True
2,0.7000005,-0.956095,1.162328,-0.004757583,-1.427685,-4.614932,-2.863179,0.6699825,1.149396,0.4340186,-1.46131,-0.03374125,0,0.1,-0.3664014,0.04028168,0.0609545,-0.5466857,1.553421,0.3248915,0.7495127,1.3654,0.3696456,-0.08092413,-0.0277546,0.04449011,-1.005247,-0.000103597,0.07298739,0.8405865,1.406249,0.1819203,0.3949422,1.07102,0.3162989,287.1414,251.4205,357.5039,True
2,0.7111117,-0.9571573,1.153789,-0.00790897,-1.431086,-4.627364,-2.850574,0.6669286,1.150328,0.4332511,-1.461311,0.0004104061,0,0.1,-0.4166058,0.03727567,0.04208765,-0.5466846,1.554103,0.330551,0.7479082,1.365596,0.368988,-0.1044135,0.001018688,0.03727461,-1.004999,0.0007996141,0.07443082,0.8399379,1.40641,0.1815162,0.3900677,1.076124,0.3179206,286.3667,252.2527,357.273,True
2,0.7222228,-0.9517858,1.111207,-0.005561888,-1.434365,-4.638051,-2.838761,0.6638051,1.151236,0.4324837,-1.461932,-0.05674509,0,0.1,-0.4464116,0.06506729,0.03493574,-0.5458341,1.556939,0.3337878,0.7464045,1.365799,0.3683233,-0.1321677,0.02340488,0.03010726,-1.004791,0.001721467,0.07630835,0.8392239,1.406504,0.181109,0.3852681,1.081208,0.3194147,285.616,252.9132,357.0594,True
2,0.7333339,-0.934681,1.046302,0.006477922,-1.437757,-4.647154,-2.827771,0.6606688,1.152203,0.431637,-1.461911,0.002427313,0,0.1,-0.480635,0.1313628,-0.008259475,-0.5461105,1.564622,0.3337684,0.7443798,1.36605,0.3676207,-0.1682193,0.06712082,0.0421945,-1.003742,0.004298209,0.0780719,0.8383065,1.406667,0.1808169,0.3804462,1.086255,0.3209393,284.8357,253.4357,356.9017,True
2,0.7444451,-0.9261329,1.004818,0.01841864,-1.441576,-4.656608,-2.816378,0.6576366,1.153097,0.4308586,-1.462529,-0.05644024,0,0.1,-0.4933912,0.2508547,-0.04500149,-0.5456982,-4.70539,0.3283028,0.742085,1.366417,0.3669171,-0.204022,0.1278852,0.07664023,-1.001532,0.008079232,0.07947938,0.8372697,1.406881,0.1805313,0.3755178,1.091248,0.322561,284.0557,254.0402,356.7409,True
2,0.7555562,-0.9047911,0.9686979,0.03562978,-1.445631,-4.665443,-2.805874,0.6543944,1.154014,0.4299324,-1.463231,-0.06362787,0,0,-0.5028059,0.3585118,-0.05516925,-0.5442085,-4.690653,0.3216774,0.7398977,1.366724,0.3662074,-0.237596,0.1684138,0.1217283,-0.9984228,0.01165932,0.08133747,0.8361809,1.407174,0.1802464,0.3706561,1.096143,0.3242251,283.2835,254.8175,356.5398,True
2,0.7666674,-0.8792136,0.9634023,0.03776908,-1.449674,-4.675567,-2.795624,0.6512674,1.154952,0.4291553,-1.462918,0.02909535,0,0,-0.5269837,0.4970374,-0.05339959,-0.5415336,-4.671991,0.3122666,0.7375011,1.367046,0.3654535,-0.2541241,0.1908227,0.1687694,-0.9949378,0.01464046,0.08303976,0.8351668,1.407457,0.1799302,0.3660212,1.100884,0.3257965,282.5402,255.7578,356.2189,True
2,0.7777785,-0.8547136,0.9772319,0.0291602,-1.453624,-4.686424,-2.785564,0.6479992,1.155976,0.4283607,-1.463625,-0.0649847,0,0,-0.5567784,0.5834927,-0.0784338,-0.540414,-4.653864,0.3038688,0.7349075,1.36742,0.3645985,-0.2634187,0.2153441,0.1944292,-0.9917117,0.01810896,0.08436255,0.8340192,1.407744,0.1796217,0.361573,1.105461,0.3272065,281.8598,256.8572,355.673,True
2,0.7888896,-0.8376824,0.9836191,0.02593839,-1.457844,-4.697015,-2.775445,0.6448414,1.156979,0.4275677,-1.464021,-0.03557374,0,0,-0.574742,0.6261089,-0.07068531,-0.538521,-4.638109,0.2973177,0.7324163,1.36806,0.3638291,-0.2889487,0.2249518,0.1968224,-0.98935,0.02113059,0.08669415,0.8329378,1.408049,0.1792893,0.3571821,1.109886,0.3284195,281.2258,257.9546,355.0257,True
2,0.8000008,-0.8014188,0.970943,0.04195514,-1.462549,-4.706386,-2.766834,0.6414789,1.157983,0.4267447,-1.464171,-0.01367018,0,0,-0.5818241,0.6824343,-0.03207493,-0.5350093,-4.62124,0.2895205,0.7295901,1.368665,0.3629458,-0.3263007,0.224987,0.190824,-0.9872775,0.02394848,0.09009367,0.8316424,1.40837,0.1789384,0.3527889,1.114174,0.3295652,280.6438,258.8683,354.412,True
2,0.8111119,-0.7598388,0.9455771,0.07722384,-1.468166,1.568401,-2.75877,0.6381769,1.158996,0.4258564,-1.463919,0.02301291,0,0,-0.5599675,0.7983267,0.01298411,-0.529985,-4.598063,0.275149,0.7268662,1.369296,0.3620391,-0.3558998,0.2143652,0.21458,-0.9839064,0.02595637,0.09406525,0.8301905,1.408838,0.1784289,0.3483043,1.118366,0.3308173,280.1065,259.7647,353.7776,True
2,0.8222231,-0.7086344,0.9127647,0.1093078,-1.473657,1.560611,-2.751834,0.6348269,1.160104,0.4249947,-1.465057,-0.1042401,0,0,-0.5415629,0.8770644,0.03021318,-0.5260611,-4.574769,0.2603759,0.7240936,1.369676,0.3610425,-0.3618868,0.2122468,0.2572565,-0.9794638,0.02815787,0.09754946,0.8287185,1.409237,0.1778722,0.3438043,1.122504,0.3322729,279.5984,261.0476,352.8544,True
2,0.8333342,-0.660683,0.8937042,0.1274467,-1.479045,1.552795,-2.74533,0.6314557,1.161201,0.4240656,-1.46536,-0.02691147,0,0,-0.525097,0.942871,0.08256689,-0.5202586,-4.551188,0.2451477,0.7213456,1.370224,0.3600736,-0.3552378,0.2101175,0.2816899,-0.9752879,0.03043234,0.1000046,0.827281,1.409658,0.1775033,0.3393549,1.126582,0.3338797,279.0714,263.0196,351.3939,True
2,0.8444453,-0.6329459,0.8873495,0.1296403,-1.484306,1.544336,-2.738518,0.6280959,1.162165,0.4232602,-1.466095,-0.06726965,0,0,-0.5345365,0.9545348,0.1029078,-0.5160365,-4.530928,0.2340128,0.7185882,1.370654,0.3591521,-0.3486228,0.2069222,0.3029224,-0.9710605,0.03258244,0.1023879,0.8258774,1.410043,0.1771312,0.335057,1.130561,0.3354968,278.5669,265.7254,349.2973,True
2,0.8555565,-0.6020514,0.8830906,0.1264426,-1.489322,1.535926,-2.732203,0.6246266,1.163198,0.4223263,-1.466202,-0.009475201,0,0.1,-0.5718762,0.9301162,0.1030534,-0.5127299,-4.512815,0.2259498,0.7159145,1.371114,0.3582034,-0.3462042,0.1920194,0.3274054,-0.9664835,0.0339364,0.1048577,0.8242121,1.410213,0.1775076,0.3309044,1.134392,0.3369906,278.0874,268.5723,347.0411,True
2,0.8666676,-0.5849654,0.8639725,0.1308029,-1.494437,1.528166,-2.72566,0.6212713,1.164213,0.4214268,-1.465538,0.06036485,0,0.1,-0.5823501,0.9097629,0.138189,-0.5081216,-4.495367,0.2175861,0.7132124,1.371682,0.3573992,-0.3407574,0.1898842,0.3369292,-0.9624121,0.03589768,0.1070817,0.8225223,1.410765,0.1771455,0.3268232,1.138026,0.338311,277.6284,271.2791,344.8099,True
2,0.8777788,-0.5561359,0.7990794,0.1438884,-1.498913,1.523028,-2.720357,0.617697,1.165169,0.4205368,-1.465574,-0.00411406,0,0.1,-0.5438564,0.9096005,0.1592435,-0.5036528,-4.476075,0.2051888,0.7106262,1.372057,0.3565283,-0.3214803,0.1674983,0.348451,-0.9581164,0.03659743,0.1094815,0.820824,1.411104,0.1767459,0.3227009,1.141448,0.3395234,277.2249,273.8966,342.5463,True
2,0.8888899,-0.5465151,0.7650482,0.1547396,-1.503968,1.51727,-2.714355,0.6142205,1.166137,0.4195757,-1.464964,0.05568847,0,0.1,-0.5034215,0.8882089,0.1589121,-0.5000634,-4.458416,0.1937578,0.7080456,1.372439,0.3556015,-0.2745897,0.1280663,0.3532895,-0.954192,0.03662153,0.1107555,0.8190045,1.411393,0.1758962,0.3185101,1.144677,0.3406853,276.9012,276.6046,340.1749,True
2,0.900001,-0.5422248,0.7320601,0.1602376,-1.508699,1.511696,-2.708215,0.6107312,1.167057,0.4185812,-1.465619,-0.06056596,0,0.1,-0.4600939,0.7667283,0.1453665,-0.4982151,-4.450325,0.1902,0.7053384,1.372779,0.3547213,-0.26379,0.108888,0.369166,-0.9494755,0.0366905,0.1133625,0.8170495,1.411811,0.175395,0.314352,1.147744,0.3417865,276.6564,279.6157,337.5548,True
2,0.9111122,-0.5560687,0.7416834,0.1687123,-1.514182,1.504858,-2.701229,0.6073835,1.167794,0.4175668,-1.464747,0.08013999,0,0,-0.4362403,0.6358576,0.09036472,-0.4987147,-4.445286,0.1897348,0.7028221,1.373059,0.3539393,-0.2701168,0.1109839,0.3745585,-0.9451292,0.0369985,0.116386,0.8151777,1.412396,0.1756327,0.3102797,1.150648,0.3426851,276.4284,282.8872,334.7104,True
2,0.9222233,-0.5730897,0.7694147,0.1771476,-1.520483,1.497253,-2.694175,0.6040012,1.168491,0.4165211,-1.464229,0.04641294,0,0,-0.4068494,0.5229755,0.0630983,-0.4983296,-4.440474,0.1892426,0.7001292,1.373438,0.3530912,-0.2751368,0.112064,0.4033726,-0.939568,0.03785164,0.1191576,0.8130302,1.412853,0.1751902,0.3062669,1.153437,0.3433288,276.2676,286.2306,331.7266,True
2,0.9333345,-0.5869417,0.7896909,0.1855803,-1.526751,1.48969,-2.686769,0.6006104,1.169084,0.4154947,-1.463244,0.08956843,0,0,-0.3763646,0.4367488,0.02953581,-0.4987579,-4.436179,0.1886626,0.6974058,1.373719,0.3523397,-0.260986,0.1013816,0.4319967,-0.9336286,0.03756482,0.1216497,0.8109225,1.413074,0.1746304,0.3022918,1.156183,0.3437478,276.1208,289.3174,328.8824,True
2,0.9444456,-0.5890452,0.7929533,0.1983439,-1.533027,1.4829,-2.680035,0.5972563,1.169748,0.4146469,-1.463016,0.02014581,0,0,-0.3618422,0.3857432,-0.01124095,-0.4994652,-4.429534,0.1866551,0.6944764,1.374051,0.3516331,-0.2447453,0.08752555,0.4584688,-0.9275662,0.03728452,0.1240492,0.8086065,1.413598,0.1740899,0.2983194,1.158983,0.3440975,275.9933,292.5603,325.7664,True
2,0.9555568,-0.5858268,0.7909572,0.2249842,-1.539948,1.476662,-2.673494,0.5938938,1.170269,0.4137499,-1.462603,0.03757303,0,0.1,-0.3512855,0.3921785,-0.02832918,-0.4995355,-4.419941,0.1817461,0.6916399,1.37436,0.350873,-0.2436031,0.08539629,0.465915,-0.9221169,0.03754178,0.1265294,0.8063241,1.414033,0.1736069,0.2943042,1.161936,0.3445588,275.8591,296.3922,322.0509,True
2,0.9666679,-0.5761994,0.7719173,0.2517103,-1.54681,1.471297,-2.667392,0.5904399,1.170882,0.4127946,-1.463168,-0.05190009,0,0.1,-0.3065264,0.4560757,-0.04647605,-0.4992159,-4.403941,0.1697025,0.6885744,1.374698,0.3500454,-0.2573414,0.07791245,0.4777738,-0.9166142,0.03676733,0.1304262,0.8037597,1.414731,0.1733212,0.2902991,1.165076,0.3452411,275.7021,300.8161,317.8091,True
2,0.977779,-0.5665876,0.7517622,0.2677826,-1.553524,1.466064,-2.66129,0.5870292,1.1715,0.4118485,-1.463359,-0.0169179,0,0.1,-0.2722935,0.5551268,-0.06016068,-0.4989091,-4.383745,0.1537762,0.6855162,1.374988,0.3491786,-0.2634602,0.06727394,0.504476,-0.9100565,0.03617598,0.133937,0.8013685,1.415175,0.1728606,0.2864238,1.168383,0.3461669,275.5268,306.2224,312.6727,True
2,0.9888902,-0.5399199,0.7134453,0.2722203,-1.559384,1.461628,-2.656192,0.5837218,1.172139,0.4108472,-1.463697,-0.03083987,0,0.1,-0.2591601,0.6434277,-0.03539295,-0.4969118,-4.362803,0.1379496,0.6824045,1.375319,0.3482111,-0.2642822,0.06404904,0.5289895,-0.9033128,0.03521937,0.1376239,0.7990022,1.415788,0.1724465,0.2826908,1.171794,0.3472713,275.3918,313.1185,306.1678,True
2,1.000001,-0.5271289,0.701709,0.26481,-1.565142,1.456272,-2.650797,0.5804802,1.17272,0.4099257,-1.463621,0.007122262,0,0.1,-0.261055,0.6880894,-0.01389728,-0.4951344,-4.344424,0.1247896,0.6793785,1.375607,0.3473108,-0.2547263,0.06937841,0.5267611,-0.8975146,0.03561525,0.1400157,0.7967371,1.416128,0.1720107,0.2790509,1.175235,0.3484142,275.3289,320.7212,299.0391,True
2,1.011112,-0.506893,0.6760499,0.2457564,-1.570156,1.451428,-2.645833,0.5771589,1.173258,0.4089956,-1.46446,-0.07685709,0,0.1,-0.2775246,0.7507164,0.0546447,-0.4908962,-4.323153,0.1097851,0.6762011,1.376054,0.3463254,-0.2696742,0.08110425,0.5237014,-0.8919592,0.0362122,0.1432123,0.7939261,1.416367,0.1709578,0.2755102,1.178623,0.349467,275.3331,328.1355,292.0989,True
2,1.022224,-0.4802482,0.6141343,0.2183569,4.70927,1.447926,-2.641394,0.5737333,1.173898,0.4082556,-1.464099,0.03357596,0,0.1,-0.267637,0.7515847,0.1003884,-0.4877452,-4.306133,0.09743255,0.6730878,1.376542,0.3453989,-0.272822,0.07258168,0.5279934,-0.8860294,0.03565799,0.1465375,0.7911226,1.416777,0.1703911,0.2721234,1.18184,0.350318,275.3547,335.0667,285.564,True
2,1.033335,-0.4397457,0.5159888,0.1868527,4.707058,1.446172,-2.637783,0.5702179,1.174597,0.4076109,-1.464294,-0.01834038,0,0.1,-0.2524615,0.741792,0.14393,-0.4840359,-4.289628,0.08515032,0.6699467,1.376939,0.3444366,-0.2771803,0.04701754,0.5205896,-0.8805375,0.03424732,0.1506068,0.7883911,1.417034,0.1697984,0.2687772,1.184825,0.3509973,275.412,341.1619,279.7383,True
2,1.044446,-0.4130835,0.4328007,0.1648644,4.704975,1.44476,-2.634028,0.5666456,1.175362,0.406966,-1.46466,-0.03335408,0,0.1,-0.2351615,0.7341301,0.1885284,-0.4799592,-4.272914,0.07257007,0.6667631,1.377204,0.3434403,-0.2835839,0.03637305,0.5195944,-0.8748527,0.03323758,0.1545249,0.7857268,1.417295,0.1692638,0.2653816,1.187538,0.3515315,275.4907,346.3244,274.7901,True
2,1.055557,-0.369367,0.2888276,0.1293263,4.705642,1.446463,-2.631438,0.5629019,1.176106,0.4064157,-1.465309,-0.0592903,0,0.1,-0.2115734,0.7350581,0.209681,-0.4765631,-4.255552,0.05869154,0.6635865,1.377421,0.3424435,-0.2835571,0.02891693,0.5227924,-0.8690102,0.03214409,0.1583612,0.7829273,1.417569,0.1685941,0.2619107,1.189948,0.3518887,275.5605,350.3351,270.9739,True
2,1.066668,-0.3309801,0.1491019,0.09057869,4.707084,1.448718,-2.628929,0.5592909,1.176599,0.4057777,-1.464977,0.0307206,0,0.1,-0.1902696,0.7456923,0.2063845,-0.4740352,-4.236401,0.04316771,0.6602699,1.377622,0.3414779,-0.2800859,0.01504505,0.551514,-0.8621462,0.02996988,0.1628912,0.7800699,1.418102,0.1680522,0.2583854,1.192024,0.3519832,275.6091,353.2884,268.1852,True
2,1.077779,-0.2990155,0.04766833,0.0399221,4.70939,1.450378,-2.626583,0.5556302,1.177246,0.4050639,-1.465834,-0.07890204,0,0.1,-0.1776188,0.748958,0.1850104,-0.4724006,-4.217488,0.02802178,0.6568879,1.377815,0.3404119,-0.2588761,-0.007343739,0.5448998,-0.8564705,0.0277283,0.1666497,0.7772483,1.418305,0.1673558,0.2547842,1.193794,0.351756,275.6509,355.198,266.4116,True
2,1.08889,-0.2777191,0.004888628,0.004967593,4.710845,1.450911,-2.624205,0.5521081,1.177863,0.4043832,-1.465699,0.01278012,0,0.1,-0.188467,0.7234986,0.163674,-0.4712053,-4.201821,0.01653956,0.6536149,1.377984,0.339448,-0.2539705,-0.01694927,0.5054425,-0.8522616,0.02611376,0.1703033,0.7744362,1.418288,0.1667724,0.2512313,1.195203,0.3510319,275.5859,357.0413,264.6652,True
2,1.100002,-0.2543034,-0.02298262,-0.03325412,-1.570632,1.451008,-2.622159,0.548839,1.178458,0.4036219,-1.465495,0.01831871,0,0.1,-0.197034,0.6755525,0.1720545,-0.469012,-4.188951,0.007469101,0.6502772,1.378225,0.3385346,-0.2770376,-0.02120519,0.4406985,-0.8497982,0.02512932,0.1748054,0.7716945,1.41829,0.1661391,0.2477658,1.196209,0.3497362,275.4506,358.3538,263.2994,True
2,1.111113,-0.2319454,-0.01770984,-0.04608267,-1.569782,1.450549,-2.620348,0.5453852,1.178958,0.4028547,-1.465133,0.03273116,0,0.1,-0.1950278,0.6425488,0.1655286,-0.4672271,-4.175569,-0.002327869,0.6469181,1.378591,0.3375039,-0.3169314,-0.02437258,0.3953166,-0.8469699,0.0240068,0.1803242,0.76879,1.418281,0.1653867,0.2442555,1.196899,0.3479885,275.2503,358.1078,263.276,True
2,1.122224,-0.210637,0.0004576826,-0.03766342,-1.570126,1.449919,-2.618769,0.5419964,1.179326,0.4021769,-1.465147,-0.001710461,0,0.1,-0.19307,0.6245257,0.1462733,-0.4662955,-4.160857,-0.01329929,0.6435326,1.378919,0.3365388,-0.3285493,-0.01583603,0.4039612,-0.8421501,0.02300811,0.1848471,0.765733,1.418415,0.164675,0.2407275,1.197394,0.3460573,275.0535,356.3279,264.6299,True
2,1.133335,-0.1872032,0.04210873,-0.01871561,4.711805,1.448569,-2.617462,0.5385933,1.179615,0.4014754,-1.465123,0.002052646,0,0.1,-0.1825382,0.6107077,0.1323015,-0.4654753,-4.147155,-0.02389628,0.6400863,1.37911,0.3356206,-0.3262086,-0.008375227,0.4231106,-0.836998,0.02191688,0.1890549,0.7626945,1.418553,0.1639912,0.2372555,1.197808,0.3441982,274.8663,354.0796,266.45,True
2,1.144446,-0.1626874,0.08385251,0.01834709,4.709522,1.447379,-2.616415,0.5349921,1.179969,0.4007335,-1.465087,0.003047714,0,0.1,-0.1537232,0.635152,0.1322118,-0.4642358,-4.129402,-0.03898042,0.6365249,1.379194,0.3345673,-0.3319696,-0.01260698,0.4828362,-0.8298565,0.01973003,0.194305,0.7593958,1.418644,0.1633806,0.2337374,1.198259,0.3426422,274.7475,352.4469,267.7261,True
2,1.155557,-0.1488326,0.1084607,0.03845411,4.707593,1.446191,-2.615233,0.531485,1.180161,0.4000082,-1.465095,-0.0009587955,0,0.1,-0.1387197,0.6595994,0.1375374,-0.4629458,-4.111322,-0.05414366,0.6330503,1.379207,0.3335984,-0.3217772,-0.02964294,0.541328,-0.8223144,0.01647711,0.1996937,0.7562286,1.418732,0.1626749,0.2302114,1.198794,0.3415389,274.7313,351.8865,268.0544,True
2,1.166668,-0.1381736,0.147987,0.06062488,4.705029,1.444471,-2.614098,0.5278625,1.180213,0.3992026,-1.465092,8.034018E-05,0,0.4,-0.1344987,0.6884035,0.1248456,-0.4624377,-4.092095,-0.06980278,0.6294659,1.37919,0.3325801,-0.2856061,-0.05097154,0.5377547,-0.8170583,0.01340609,0.2036871,0.7530755,1.418769,0.1621048,0.2266387,1.19944,0.3409613,274.8114,352.2649,267.6214,True
2,1.17778,-0.126453,0.1693479,0.07009586,4.702884,1.44277,-2.613098,0.5242105,1.180212,0.3983862,-1.464708,0.03496085,0,0.4,-0.1431204,0.6831504,0.1099629,-0.4623844,-4.075767,-0.08260273,0.6257389,1.379141,0.3316028,-0.2690103,-0.04673976,0.4949631,-0.8131403,0.01171391,0.2072765,0.7500043,1.418778,0.1614695,0.2229906,1.200204,0.3408586,274.9672,353.4655,266.5641,True
2,1.188891,-0.123268,0.1927965,0.07423341,4.700751,1.440905,-2.611776,0.5206274,1.180275,0.397522,-1.464488,0.01966304,0,0.4,-0.1422187,0.6640458,0.09284662,-0.4623562,-4.060182,-0.09490228,0.6219999,1.379163,0.3304968,-0.2897252,-0.01370713,0.4472349,-0.809674,0.01218223,0.2109421,0.7467885,1.418766,0.1609068,0.219362,1.201008,0.3410918,275.1266,355.4738,264.8331,True
2,1.200002,-0.1211467,0.1991716,0.07099478,4.699068,1.439177,-2.610411,0.5170013,1.180397,0.3966563,-1.464408,0.007003626,0,0.4,-0.1583025,0.651334,0.08331141,-0.4624041,-4.044428,-0.1065965,0.6181579,1.379125,0.329396,-0.317501,0.009752601,0.437934,-0.8049852,0.01208503,0.2155917,0.7436452,1.418766,0.1603155,0.215714,1.201799,0.3415275,275.3112,357.9786,262.6725,True
2,1.211113,-0.1158251,0.198077,0.06460388,4.697548,1.437557,-2.609315,0.51341,1.18035,0.3957829,-1.463913,0.04512023,0,0.4,-0.1740931,0.6523214,0.1121813,-0.4610656,-4.027641,-0.1191898,0.6144503,1.379,0.3283844,-0.3343909,0.05877534,0.4498164,-0.7990442,0.01348731,0.2191497,0.7401454,1.418672,0.1595986,0.212063,1.202506,0.3420138,275.4959,0.2563773,260.7596,True
2,1.222224,-0.1126252,0.1916577,0.06037915,4.696092,1.436338,-2.608284,0.50987,1.180423,0.3950214,-1.463689,0.01998157,0,0.4,-0.1741434,0.6587351,0.1026306,-0.4610768,-4.011044,-0.1322417,0.6106043,1.378865,0.3273838,-0.326718,0.07688579,0.4688978,-0.7931538,0.01356548,0.2223963,0.7369276,1.418668,0.1589897,0.2084096,1.20312,0.3424199,275.6683,1.620729,259.741,True
2,1.233335,-0.1040967,0.1596503,0.04987771,4.695548,1.435794,-2.60744,0.5062182,1.180284,0.3942614,-1.46384,-0.01399324,0,0.4,-0.1837891,0.6449243,0.09837714,-0.4610448,-3.995946,-0.1433838,0.6069123,1.378555,0.3263953,-0.319887,0.1003284,0.5082365,-0.7859659,0.01406296,0.2253042,0.7336251,1.418663,0.1584327,0.204746,1.203661,0.3426414,275.7982,2.501051,259.154,True
2,1.244446,-0.09876286,0.1329879,0.04361513,4.694982,1.435426,-2.606531,0.5025132,1.180172,0.3935061,-1.463829,0.001056727,0,0.4,-0.1764205,0.6374983,0.08870016,-0.461521,-3.980554,-0.1553864,0.6032631,1.378214,0.3253939,-0.3249348,0.109951,0.5327923,-0.7791248,0.01424884,0.2288883,0.7301433,1.418686,0.1579556,0.2011252,1.204112,0.3426138,275.9008,3.282522,258.5708,True
2,1.255558,-0.0987549,0.09137325,0.02997264,4.695301,1.43573,-2.605422,0.4988366,1.179946,0.3927076,-1.463916,-0.008036297,0,0.4,-0.1586646,0.6334074,0.03530276,-0.4640755,-3.966047,-0.1672204,0.5994843,1.377838,0.3244717,-0.3281007,0.1056938,0.5360234,-0.773008,0.01365949,0.2330407,0.7268963,1.418656,0.1574366,0.1975421,1.204483,0.3423183,275.9734,3.979721,257.9805,True
2,1.266669,-0.09556229,0.0764113,0.01832774,4.695143,1.435145,-2.604458,0.4951848,1.179681,0.3918676,-1.463759,0.01443117,0,0.9,-0.1506002,0.6198045,-0.03084891,-0.467723,-3.952639,-0.1777231,0.5955795,1.377474,0.3234558,-0.324225,0.1132385,0.5018487,-0.7686538,0.01572051,0.2354519,0.7238636,1.418904,0.1568854,0.1939453,1.204744,0.3417419,275.9972,4.992589,257.004,True
2,1.27778,-0.08490971,0.05611788,0.006700956,4.695512,1.435079,-2.603877,0.4915096,1.179364,0.3910201,-1.463461,0.02693478,0,0.9,-0.1570466,0.6262524,-0.04143511,-0.4698642,-3.937337,-0.1893973,0.5916983,1.377057,0.3224387,-0.3297657,0.1356065,0.4795263,-0.7636982,0.01737593,0.238117,0.7205791,1.418907,0.1564088,0.1902943,1.204888,0.3409082,275.9975,5.852084,256.1195,True
2,1.288891,-0.07531862,0.05077548,0.003522111,4.695335,1.434707,-2.603399,0.4878363,1.179055,0.3902168,-1.463491,-0.002958674,0,0.9,-0.165563,0.6870797,-0.06031591,-0.4730115,-3.916061,-0.2061122,0.5877517,1.376523,0.3213215,-0.3371775,0.1623087,0.483819,-0.7577987,0.02015454,0.240456,0.7174714,1.41878,0.1559448,0.1866221,1.204896,0.3398384,275.9553,6.422169,255.4666,True
2,1.300002,-0.06572755,0.0454748,0.00673526,4.694986,1.434428,-2.602949,0.4841203,1.178648,0.3893926,-1.46382,-0.03006364,0,0.9,-0.1928825,0.7562575,-0.02791795,-0.4746019,-3.892263,-0.2242589,0.5838944,1.375843,0.3202169,-0.3273464,0.1932011,0.5039446,-0.7507473,0.02266523,0.2419594,0.7140926,1.418741,0.1555269,0.1829215,1.204792,0.3386433,275.8994,6.629081,255.1176,True
2,1.311113,-0.0614663,0.05936367,0.0151812,4.694089,1.433713,-2.602399,0.4804647,1.178073,0.3885872,-1.463861,-0.003541837,0.1,1.1,-0.1956436,0.829601,0.01711741,-0.475689,-3.866085,-0.2450952,0.5800206,1.375266,0.319082,-0.3145147,0.209242,0.508067,-0.7441149,0.02552933,0.2431631,0.7103457,1.418451,0.1550431,0.1792162,1.204576,0.3374101,275.8351,6.657491,254.929,True
2,1.322224,-0.06679022,0.07536666,0.02149626,4.693074,1.432805,-2.601546,0.4766906,1.177464,0.3877211,-1.463788,0.006535203,0.1,1.1,-0.188086,0.8465926,0.02671212,-0.4777391,-3.844875,-0.2621288,0.576241,1.374551,0.3180969,-0.3221324,0.2252274,0.491099,-0.7385979,0.02820873,0.2450841,0.7069244,1.418097,0.1545238,0.1754851,1.204275,0.3362445,275.7977,6.459364,254.9694,True
2,1.333336,-0.0699859,0.09459336,0.03205644,4.691545,1.431682,-2.600682,0.4731054,1.176832,0.3869255,-1.463578,0.01908196,0.1,1.1,-0.1892915,0.7986788,0.02228057,-0.4795038,-3.829567,-0.2735399,0.5725018,1.37391,0.3170834,-0.3285092,0.2401825,0.4911551,-0.7325195,0.03128096,0.2467025,0.7034333,1.417691,0.1541722,0.1717345,1.203899,0.3352164,275.7926,6.364146,254.9485,True
2,1.344447,-0.08383961,0.1212917,0.04578453,4.68956,1.430232,-2.599244,0.4697168,1.176161,0.3861775,-1.463182,0.0360179,0.1,1.1,-0.1830488,0.7657027,0.01144996,-0.4819011,-3.81412,-0.2853119,0.5686795,1.373135,0.3161733,-0.3306337,0.254072,0.490094,-0.7265178,0.03454626,0.2480263,0.7000934,1.417486,0.1537273,0.1679696,1.203455,0.3343867,275.826,6.422829,254.8311,True
2,1.355558,-0.09875353,0.1394473,0.05636002,4.687615,1.428899,-2.597693,0.4661802,1.175432,0.3854599,-1.463091,0.008055497,0.1,1.1,-0.1749157,0.7179173,-0.03246841,-0.4855225,-3.802604,-0.293854,0.5649686,1.372309,0.3153718,-0.2976913,0.2742735,0.480149,-0.7208011,0.03814739,0.2474508,0.6968162,1.417295,0.1534564,0.1641631,1.202979,0.3337785,275.8876,6.310054,254.954,True
2,1.366669,-0.105137,0.1362422,0.05530515,4.686637,1.428017,-2.59647,0.4625201,1.174796,0.3847933,-1.462505,0.05347032,0,1.1,-0.1667739,0.6904006,-0.07949786,-0.4898576,-3.789832,-0.3034113,0.5610836,1.371562,0.3145556,-0.2902336,0.2902466,0.4800573,-0.7148281,0.04165716,0.2478857,0.693226,1.417048,0.1531489,0.1604598,1.202491,0.3333911,275.9789,5.891835,255.4193,True
2,1.37778,-0.109391,0.1266688,0.05855222,4.685426,1.427497,-2.595115,0.4590054,1.17413,0.3841174,-1.462374,0.01155245,0,1.1,-0.1690338,0.6787499,-0.09550886,-0.4935445,-3.776638,-0.31309,0.5573677,1.370786,0.3137715,-0.2741284,0.2827792,0.4926761,-0.7084488,0.04371619,0.2487792,0.6898646,1.416831,0.1528938,0.1568953,1.202056,0.3332231,276.0975,5.461835,255.9449,True
2,1.388891,-0.1051251,0.1128204,0.05967524,4.684599,1.427263,-2.594111,0.4555051,1.173599,0.3832257,-1.462765,-0.03568822,0,1.1,-0.1594512,0.6680815,-0.09348114,-0.4965805,-3.762688,-0.3239597,0.5536715,1.369955,0.3129311,-0.2652545,0.2913238,0.5245293,-0.7011011,0.04653914,0.2492719,0.6865838,1.416646,0.1524959,0.1533427,1.201759,0.3332338,276.2183,5.646898,255.9323,True
2,1.400002,-0.1008554,0.09471273,0.05976179,4.683836,1.427277,-2.593155,0.4518979,1.173057,0.3825481,-1.462729,0.003638248,0,1.1,-0.1444121,0.6477052,-0.06702368,-0.4984569,-3.74968,-0.3343324,0.5500267,1.369155,0.3121612,-0.2630526,0.3062384,0.5298255,-0.6942637,0.05011723,0.2493694,0.6831598,1.416361,0.1522191,0.1497831,1.201599,0.3333144,276.3138,6.509053,255.2898,True
2,1.411114,-0.0891156,0.03819687,0.04724545,4.684588,1.428523,-2.592633,0.4481218,1.172663,0.3820264,-1.463099,-0.03392174,0,1.1,-0.1316791,0.6295719,-0.06611344,-0.5012543,-3.737338,-0.3439901,0.5462836,1.368371,0.3112938,-0.2597442,0.3051797,0.5404379,-0.6874098,0.05286002,0.2500578,0.6797397,1.415939,0.1519175,0.1463057,1.201536,0.3333309,276.4373,7.578318,254.4644,True
2,1.422225,-0.08590834,0.005135702,0.0388816,4.684969,1.429354,-2.591776,0.4443969,1.172077,0.381372,-1.463194,-0.008390074,0.1,0.7,-0.133765,0.6060826,-0.05127791,-0.5033407,-3.725822,-0.3525034,0.5426195,1.367509,0.310456,-0.2567781,0.2998391,0.5191024,-0.6818284,0.05572025,0.2505915,0.6763269,1.415549,0.1515777,0.1428907,1.201546,0.3331437,276.5479,8.778502,253.4915,True
2,1.433336,-0.09016493,-0.04611135,0.01676902,4.686686,1.431028,-2.590568,0.4405837,1.171477,0.3807638,-1.463633,-0.04009504,0.1,0.7,-0.1446197,0.5774233,-0.07049216,-0.5063841,-3.716259,-0.3587739,0.5387836,1.366498,0.3094928,-0.2301272,0.2689283,0.5241469,-0.6759241,0.05635369,0.2517145,0.6728867,1.41519,0.1512179,0.1394293,1.201603,0.3326951,276.6089,10.12283,252.261,True
2,1.444447,-0.1093464,-0.08249986,-0.01498925,4.688725,1.432138,-2.58872,0.4367053,1.17071,0.3800592,-1.463283,0.03231404,0.1,0.7,-0.1627349,0.580661,-0.06929648,-0.5095612,-3.703551,-0.3672526,0.5347966,1.365523,0.3085825,-0.2442081,0.2401691,0.5061891,-0.6705185,0.05709112,0.2544504,0.6693877,1.414883,0.1509185,0.1358775,1.201634,0.3319338,276.5923,11.73618,250.6471,True
2,1.455558,-0.1210784,-0.09540541,-0.03835203,4.690543,1.432796,-2.586971,0.4328718,1.170055,0.3793819,-1.462874,0.03700573,0.1,0.7,-0.1796079,0.6307286,-0.05940275,-0.5130404,-3.687028,-0.3790584,0.5308481,1.364584,0.3076735,-0.2666821,0.2369921,0.4968386,-0.6647772,0.05886744,0.2568099,0.6660422,1.414634,0.150676,0.13226,1.201546,0.3308755,276.5541,13.41297,248.881,True
2,1.466669,-0.1274842,-0.09549639,-0.05646373,4.692111,1.432921,-2.585364,0.4292462,1.169361,0.378798,-1.4622,0.0613661,0.1,0.7,-0.2084576,0.702301,-0.09301911,-0.5188594,-3.669154,-0.3911784,0.5268835,1.363651,0.3067636,-0.2903382,0.2646832,0.4736452,-0.6593524,0.06296472,0.257675,0.662653,1.414442,0.1505232,0.1285565,1.201284,0.3295416,276.4492,15.03039,247.1163,True
2,1.47778,-0.1317499,-0.08377467,-0.05545332,4.69289,1.433071,-2.583749,0.4255088,1.168772,0.3781779,-1.462289,-0.008552135,0.1,0.7,-0.2285826,0.7268084,-0.08320498,-0.522876,-3.652895,-0.4020252,0.5229561,1.362761,0.3058419,-0.2963778,0.2647046,0.5067381,-0.6519807,0.06479365,0.2596388,0.6592523,1.41417,0.1503897,0.1247344,1.20085,0.3280252,276.2892,16.07937,245.8438,True
2,1.488891,-0.1338793,-0.06134903,-0.04278361,4.692924,1.433081,-2.582195,0.4217212,1.168097,0.3775575,-1.462521,-0.02104972,0.1,0.7,-0.2494348,0.7745844,-0.02747807,-0.5253837,-3.632577,-0.4160774,0.519181,1.361702,0.3049526,-0.3058833,0.2647095,0.5143057,-0.645219,0.06673775,0.261797,0.6556588,1.413675,0.1503251,0.1208732,1.200295,0.3264794,276.0991,16.17746,245.45,True
2,1.500003,-0.1392013,-0.02608834,-0.02058426,4.692064,1.432639,-2.580507,0.4178529,1.167499,0.3769777,-1.462602,-0.007114683,0.1,0.7,-0.2481842,0.779806,-0.0008345395,-0.5282401,-3.615811,-0.4279079,0.5154591,1.360752,0.3040969,-0.3016061,0.2689668,0.5153257,-0.6388566,0.06938174,0.2629075,0.6522276,1.413256,0.1502309,0.11708,1.199679,0.3250789,275.9214,15.62029,245.7055,True
2,1.511114,-0.148788,0.0123626,0.001604706,4.690706,1.43194,-2.578541,0.4141167,1.166752,0.3764913,-1.462714,-0.01024047,0.1,0.7,-0.2298034,0.7635884,0.0501246,-0.5294311,-3.599454,-0.4399574,0.5117934,1.359753,0.3033335,-0.2910481,0.273199,0.5056371,-0.6328118,0.07207965,0.2635294,0.6488525,1.412803,0.1501517,0.1132822,1.199123,0.3239483,275.8203,14.855,246.2634,True
2,1.522225,-0.1626248,0.02415121,0.01753416,4.68989,1.431839,-2.576372,0.4103708,1.165978,0.3760648,-1.462626,0.008164349,0.1,0.7,-0.2267532,0.7274042,0.04142544,-0.5325156,-3.587132,-0.4480563,0.508176,1.358606,0.3026252,-0.2783442,0.275297,0.4980543,-0.6268804,0.07457943,0.2641877,0.6456369,1.412322,0.1500669,0.1094423,1.198704,0.3231412,275.8089,14.44301,246.5793,True
2,1.533336,-0.1903089,0.03490324,0.03987484,4.688397,1.431826,-2.573298,0.40673,1.165152,0.3756468,-1.462382,0.02226349,0.1,0.7,-0.2441094,0.6785627,0.009385914,-0.5359015,-3.577554,-0.452992,0.5046891,1.357397,0.3019917,-0.2862944,0.295523,0.4491222,-0.6226849,0.07959948,0.2635432,0.6426359,1.411819,0.1501141,0.1055556,1.198469,0.3226803,275.8668,14.48648,246.5217,True
2,1.544447,-0.2073615,0.03910189,0.02921901,4.688174,1.431401,-2.570539,0.4031824,1.164389,0.3750331,-1.462239,0.0130057,0.1,0.7,-0.2401946,0.6414215,-0.02912888,-0.5399405,-3.568266,-0.4582778,0.5010156,1.356296,0.3012605,-0.4233485,0.3126606,0.3813279,-0.619496,0.08509266,0.268086,0.6399257,1.41109,0.1500754,0.1017524,1.198385,0.3225396,275.9698,15.26878,245.8047,True
2,1.555558,-0.2339993,0.050808,0.02918275,4.687356,1.43076,-2.567038,0.3995599,1.163692,0.3744662,-1.461439,0.07313725,0.1,0.7,-0.2362746,0.5914868,-0.06557177,-0.5439112,-3.561802,-0.461329,0.497476,1.355152,0.3006461,-0.4845178,0.3318796,0.3372178,-0.6161873,0.09125175,0.2706525,0.6371733,1.410473,0.1500351,0.09809243,1.198413,0.3226175,276.0972,16.65153,244.5652,True
2,1.566669,-0.2499893,0.05927376,0.02062111,4.687086,1.430002,-2.563848,0.3959277,1.163095,0.3738863,-1.46181,-0.03446182,0.1,0.4,-0.2405652,0.5659121,-0.05925184,-0.5466639,-3.552267,-0.4665557,0.4938801,1.354181,0.2999253,-0.4398421,0.3403481,0.3303551,-0.6116354,0.09617461,0.2696139,0.6342523,1.409917,0.1500905,0.09458607,1.198556,0.3227929,276.2578,18.08099,243.3493,True
2,1.577781,-0.2563813,0.06140634,0.02168122,4.686455,1.429527,-2.560784,0.3922693,1.162464,0.3733437,-1.46129,0.0479775,0.1,0.4,-0.2445958,0.5487196,-0.01774308,-0.5481499,-3.541444,-0.4729255,0.4904999,1.353172,0.2992392,-0.38036,0.3658438,0.3105457,-0.6075997,0.1031496,0.265979,0.6311767,1.409417,0.1501284,0.09120005,1.198808,0.3229347,276.3748,19.88783,241.7871,True
2,1.588892,-0.2659642,0.05822925,0.02703145,4.685752,1.429413,-2.557543,0.3886985,1.16184,0.3728209,-1.461716,-0.03923283,0.1,0.4,-0.2519725,0.5305448,0.00353764,-0.5499534,-3.531588,-0.4781024,0.4870842,1.35207,0.2985501,-0.3376826,0.3902926,0.3143493,-0.6027831,0.1102422,0.2625198,0.6281102,1.408751,0.1501279,0.08778311,1.199222,0.3229904,276.4879,21.58158,240.2815,True
2,1.600003,-0.2744797,0.03906903,0.02926029,4.685554,1.429707,-2.554159,0.3850813,1.161366,0.3723929,-1.462066,-0.03146436,0.1,0.4,-0.2667741,0.5145072,0.02701401,-0.5513611,-3.521761,-0.4829395,0.4838888,1.350942,0.2978525,-0.2961963,0.3785206,0.3096695,-0.5985465,0.1149444,0.2606199,0.6251097,1.408181,0.1501575,0.08431731,1.19979,0.3229172,276.5898,23.5295,238.4601,True
2,1.611114,-0.2915132,0.01135014,0.02728002,4.685817,1.430511,-2.550366,0.3814722,1.160782,0.3719025,-1.462061,0.0008012001,0.1,0.4,-0.2646616,0.4910413,0.03437202,-0.5529298,-3.513107,-0.4873326,0.4806285,1.349898,0.2971194,-0.2386207,0.353962,0.316532,-0.5941544,0.1184201,0.2583029,0.6224207,1.407583,0.1502125,0.08084861,1.200447,0.3226882,276.7223,25.66387,236.3872,True
2,1.622225,-0.303229,-0.007852692,0.02311924,4.686178,1.431135,-2.546563,0.377959,1.159989,0.3713188,-1.46204,0.001911493,0,0.2,-0.2819439,0.4805499,0.003551446,-0.5562038,-3.505411,-0.4900523,0.4772575,1.348631,0.2962534,-0.2783327,0.3486608,0.2881908,-0.5910103,0.1237841,0.2583416,0.6197281,1.406933,0.1501887,0.07742401,1.201132,0.322282,276.8599,27.67051,234.3917,True
2,1.633336,-0.3319925,-0.03777868,0.006247297,4.687385,1.432068,-2.541869,0.3743608,1.15938,0.3708088,-1.461771,0.02466794,0,0.2,-0.3128276,0.5115403,-0.004649095,-0.559691,-3.494562,-0.4947288,0.4739582,1.347329,0.2954767,-0.3264533,0.3540297,0.2705839,-0.5876478,0.1298567,0.2586174,0.6171787,1.406261,0.1502936,0.07401859,1.201824,0.3216934,276.9606,29.6538,232.3823,True
2,1.644447,-0.3458441,-0.05274977,-0.004328981,4.688341,1.432589,-2.537568,0.370759,1.158734,0.3703339,-1.461867,-0.00880044,0,0.2,-0.3084511,0.5519825,0.002949074,-0.5629161,-3.481502,-0.5024008,0.4706704,1.346035,0.2946975,-0.3361081,0.3795934,0.2632258,-0.5835471,0.1374555,0.2563833,0.6144719,1.40556,0.1504631,0.07067244,1.202471,0.3209068,277.0497,31.88775,230.0968,True
2,1.655559,-0.3628963,-0.05173542,-0.01284231,4.689016,1.432812,-2.532911,0.3673216,1.158137,0.3698156,-1.461164,0.0644491,0,0.2,-0.2826829,0.5827394,0.02421059,-0.5657768,-3.468087,-0.5114633,0.4675207,1.344761,0.2939408,-0.3528206,0.3860153,0.2942942,-0.5781286,0.1434757,0.2559178,0.6119202,1.404915,0.1505585,0.06739412,1.203022,0.3199426,277.1344,34.24926,227.6438,True
2,1.66667,-0.3831374,-0.03789526,-0.01396052,4.6891,1.432602,-2.528108,0.3638521,1.15757,0.3692448,-1.461654,-0.04523659,0,0.2,-0.2718705,0.5815392,0.0518406,-0.5675063,-3.456337,-0.5186064,0.4644454,1.343614,0.2932682,-0.3654157,0.377503,0.31149,-0.5730926,0.1482217,0.2562187,0.6093065,1.404211,0.1506042,0.06405015,1.203544,0.3188604,277.1512,36.26208,225.481,True
2,1.677781,-0.391665,-0.00905758,0.0008171611,4.688209,1.432189,-2.523433,0.3604985,1.15703,0.3687539,-1.461542,0.01086981,0,0.2,-0.2739345,0.5761661,0.0646235,-0.569607,-3.445153,-0.5248353,0.4614635,1.342507,0.292558,-0.3590004,0.348737,0.3167663,-0.5686781,0.1517475,0.2571144,0.6067606,1.403615,0.1506443,0.06066763,1.204067,0.3177613,277.1492,38.04518,223.4972,True
2,1.688892,-0.3991188,0.02834603,0.02513866,4.686506,1.431557,-2.518738,0.3573182,1.156422,0.368206,-1.461544,-0.000214373,0,0.2,-0.2878528,0.5559745,0.06037308,-0.572031,-3.435722,-0.5290513,0.4585082,1.341392,0.2919526,-0.3302774,0.3039679,0.3164899,-0.5647212,0.1535656,0.2581937,0.6043696,1.402982,0.1507463,0.05731108,1.20463,0.3167483,277.158,39.45432,221.898,True
2,1.700003,-0.4076414,0.06252214,0.0430781,4.684754,1.430698,-2.513942,0.3541138,1.155739,0.3676982,-1.461841,-0.02698176,0,0.2,-0.3038676,0.5304291,0.0635767,-0.5738782,-3.426764,-0.5325915,0.4556631,1.340216,0.2912557,-0.3144006,0.2773218,0.3099423,-0.5608234,0.1562126,0.2590787,0.6021106,1.402352,0.151,0.05398089,1.205307,0.3159164,277.207,40.59987,220.6027,True
2,1.711114,-0.4129616,0.1181066,0.08115581,4.681086,1.429378,-2.509169,0.3511241,1.155098,0.3670902,-1.461997,-0.01396039,0,0.2,-0.3421346,0.5166065,0.07762946,-0.5755118,-3.41718,-0.5357055,0.4531037,1.339096,0.2907705,-0.3139028,0.2922132,0.2545327,-0.5588926,0.1625229,0.2572536,0.6001264,1.401715,0.1512628,0.05077681,1.206121,0.3153316,277.3325,41.56589,219.5405,True
2,1.722225,-0.4204136,0.154444,0.1054816,4.677869,1.428237,-2.504321,0.3481032,1.154448,0.3665764,-1.462031,-0.002931335,0,0.2,-0.3324341,0.5197325,0.09147249,-0.5770947,-3.405916,-0.5420878,0.4504595,1.337921,0.2902234,-0.3077604,0.3049852,0.228893,-0.5562267,0.1688488,0.2550887,0.5980618,1.40113,0.1514668,0.04776791,1.207061,0.3150109,277.5521,42.69491,218.404,True
2,1.733337,-0.4299936,0.2100362,0.1456935,4.672947,1.426581,-2.499253,0.3455545,1.153877,0.3659482,-1.462159,-0.01161593,0,0.2,-0.2993244,0.5046777,0.1093081,-0.5781935,-3.396188,-0.5480378,0.4481349,1.336866,0.2897456,-0.2969422,0.3348074,0.2415515,-0.5520387,0.1761678,0.2517859,0.5961083,1.400532,0.1516309,0.04491396,1.208119,0.3149491,277.8466,43.89708,217.2607,True
2,1.744448,-0.4353074,0.227189,0.1679829,4.669269,1.425745,-2.494359,0.3429923,1.153306,0.3654156,-1.462206,-0.004064705,0,0.2,-0.2684915,0.4801326,0.1026441,-0.5796466,-3.38829,-0.5531119,0.445847,1.335946,0.2892962,-0.2883746,0.3230848,0.2457374,-0.5483012,0.1806521,0.2507281,0.5940242,1.399896,0.1517551,0.04220981,1.209296,0.3151294,278.2226,44.69815,216.5827,True
2,1.755559,-0.4395608,0.2336497,0.1828698,4.665532,1.425035,-2.48934,0.3404467,1.152791,0.3648279,-1.462072,0.01234228,0,0.2,-0.2685639,0.4588443,0.09829706,-0.5811561,-3.380576,-0.556561,0.4436471,1.335012,0.288847,-0.2595497,0.2815133,0.2561076,-0.5446771,0.1823687,0.2512429,0.5921457,1.399355,0.1517963,0.03965412,1.210566,0.3154875,278.6201,45.34297,216.1095,True
2,1.76667,-0.4352858,0.2326835,0.2052397,4.661746,1.425075,-2.484585,0.3383517,1.152431,0.3645391,-1.462357,-0.02615247,0,0.2,-0.2548929,0.4066592,0.08948661,-0.5820131,-3.374988,-0.5585959,0.4419613,1.334114,0.2883537,-0.2351252,0.2271556,0.2537434,-0.5417818,0.1825923,0.2528656,0.5904219,1.39876,0.1518664,0.03736837,1.21191,0.3159553,279.0365,45.62146,216.0432,True
2,1.777781,-0.4331419,0.2242179,0.2159326,4.658193,1.425045,-2.479827,0.3360647,1.152,0.3640363,-1.46236,0.0001122016,0,0.4,-0.247423,0.379971,0.09998468,-0.5826006,-3.368247,-0.5616924,0.4401011,1.33325,0.2879741,-0.2193204,0.1983681,0.2397413,-0.5392571,0.1841334,0.2535068,0.5887572,1.398153,0.1520183,0.03528406,1.213322,0.3164149,279.4623,46.29911,215.6171,True
2,1.788892,-0.4203279,0.2008637,0.2320254,4.654823,1.42579,-2.475641,0.3339559,1.151644,0.3634884,-1.462721,-0.03303245,0,0.4,-0.2240188,0.3383404,0.1103178,-0.5825627,-3.36267,-0.564461,0.4383619,1.332374,0.2876282,-0.1728852,0.157823,0.2019803,-0.5382467,0.1843011,0.2536895,0.5873864,1.39761,0.1521649,0.03336001,1.21479,0.3167633,279.8743,46.96017,215.1521,True
2,1.800003,-0.4139263,0.1795786,0.2353238,4.65191,1.426456,-2.471202,0.3318532,1.151384,0.3630445,-1.4628,-0.006938809,0,0.4,-0.2136286,0.2936797,0.08556801,-0.5835396,-3.359498,-0.5649398,0.4369021,1.331675,0.2872939,-0.158405,0.1481987,0.1624151,-0.5373082,0.1866329,0.2531292,0.5861793,1.397164,0.152271,0.03166302,1.216281,0.3169404,280.2698,47.52258,214.6995,True
2,1.811115,-0.3883403,0.1156087,0.2228393,4.650736,1.428361,-2.467639,0.3300598,1.151338,0.3626649,-1.463427,-0.0572763,0,0.4,-0.2051446,0.255286,0.09174933,-0.583358,-3.355914,-0.5659524,0.4355169,1.331056,0.2870398,-0.1447643,0.1428504,0.1430971,-0.5360986,0.1888571,0.2523625,0.585005,1.396674,0.152374,0.03003076,1.217805,0.3169053,280.6852,48.20757,214.111,True
2,1.822226,-0.3723568,0.0761326,0.208105,4.649523,1.429639,-2.463903,0.3282664,1.151187,0.3623049,-1.463216,0.01976118,0,0.7,-0.1999262,0.2340021,0.08524044,-0.5837867,-3.35181,-0.5670304,0.4340775,1.330414,0.2866929,-0.1457904,0.1353942,0.1484394,-0.5338738,0.1902411,0.2529598,0.5837362,1.396124,0.1524341,0.02846728,1.219298,0.3165952,281.087,48.91891,213.4467,True
2,1.833337,-0.3457094,0.001458205,0.1850197,4.650014,1.432348,-2.460767,0.3265792,1.151325,0.3620019,-1.464076,-0.07883117,0,0.7,-0.1784527,0.211454,0.1180351,-0.5826101,-3.347092,-0.5697072,0.4329606,1.329917,0.2864463,-0.1353654,0.1215265,0.1280932,-0.5329587,0.1915218,0.2530365,0.5827144,1.395613,0.1524432,0.02693524,1.220735,0.316009,281.3974,49.5658,212.7617,True
2,1.844448,-0.3318478,-0.04869212,0.1660793,4.650314,1.434547,-2.457402,0.3249156,1.151145,0.3614402,-1.46387,0.01947191,0,0.7,-0.1400706,0.2124295,0.1241859,-0.5827822,-3.341358,-0.5740258,0.4319152,1.329483,0.2862391,-0.09596111,0.1076318,0.1276874,-0.531405,0.1921104,0.2522168,0.581717,1.395137,0.152256,0.02556081,1.222036,0.3151199,281.6076,50.37836,211.8258,True
2,1.855559,-0.3062705,-0.1340795,0.1313297,4.652909,1.43815,-2.454714,0.3234707,1.151464,0.3612416,-1.464392,-0.04815207,0,0.7,-0.1123533,0.1952941,0.1324592,-0.5821846,-3.337239,-0.5771749,0.4308809,1.329085,0.2859523,-0.06716029,0.09162422,0.1327168,-0.5296926,0.1921853,0.2518892,0.5806591,1.394661,0.1521051,0.024259,1.223203,0.3140137,281.7606,51.15853,210.842,True
2,1.86667,-0.283893,-0.2248151,0.09021417,4.656545,1.441991,-2.452079,0.3221305,1.151855,0.3610997,-1.464049,0.03172535,0,0.7,-0.08236371,0.1652573,0.169433,-0.5800274,-3.332793,-0.5806706,0.4301651,1.328924,0.2858057,-0.02779609,0.04150672,0.1323206,-0.5285965,0.1888333,0.2537769,0.5797965,1.394254,0.15184,0.02303175,1.22422,0.3127017,281.8763,52.01478,209.7846,True
2,1.877781,-0.2668464,-0.2750202,0.06275369,4.65963,1.445488,-2.449485,0.3207161,1.152028,0.361063,-1.464603,-0.05099675,0,0.8,-0.0791577,0.1567112,0.1736387,-0.5790687,-3.32852,-0.5835111,0.429331,1.328699,0.2855339,-0.007667325,-6.345287E-05,0.1257319,-0.5278923,0.1853569,0.2561271,0.578882,1.393848,0.1517088,0.02185675,1.225067,0.3112084,281.9544,52.79736,208.7934,True
2,1.888893,-0.2540559,-0.3475841,0.03540541,4.664001,1.449893,-2.446902,0.319443,1.152384,0.3610837,-1.462218,0.2184183,0,0.8,-0.1070905,0.1334454,0.1470859,-0.5791326,-3.326832,-0.5824778,0.4287142,1.328389,0.2853878,0.009403519,-0.01818365,0.1308874,-0.5264372,0.1831038,0.2575405,0.577987,1.393444,0.1517582,0.02054842,1.225842,0.3095011,281.9412,53.86798,207.5553,True
2,1.900004,-0.241252,-0.4019992,0.01862352,4.66842,1.454607,-2.444483,0.3180381,1.152728,0.361074,-1.466635,-0.4058305,0,0.8,-0.1111044,0.1610329,0.1791812,-0.5781786,-3.319251,-0.5872244,0.4279401,1.32793,0.2852581,-0.00354629,0.009522641,0.1129065,-0.5254731,0.1851335,0.2564201,0.5772032,1.393084,0.1518147,0.0190029,1.226665,0.307446,281.7463,54.94592,206.1331,True
2,1.911115,-0.2295322,-0.4703093,-0.009809956,4.67397,1.459616,-2.44222,0.3167703,1.153084,0.3612638,-1.464564,0.1928455,0,0.8,-0.06158286,0.2288741,0.2377292,-0.5769595,-3.306839,-0.5986615,0.4271654,1.327608,0.2852225,-0.004601531,0.02017633,0.1129139,-0.5241282,0.1857715,0.2559838,0.5763704,1.392768,0.1519256,0.01832114,1.227121,0.3054224,281.5673,55.74804,204.6966,True
2,1.922226,-0.2102123,-0.5344881,-0.05092672,4.684152,1.468735,-2.437562,0.3144952,1.153735,0.3616505,-1.464182,0.03270677,0,3.6,-0.02489471,0.161977,0.1679636,-0.5769643,-3.302302,-0.6031058,0.4256513,1.327116,0.2851694,-0.01004085,0.0489444,0.09911176,-0.5218054,0.1883886,0.254024,0.5748804,1.392043,0.1520076,0.01772088,1.227505,0.3035842,281.4547,56.7582,203.2586,True
2,1.933337,-0.2092971,-0.5290941,-0.05214122,4.688474,1.47243,-2.435434,0.3133376,1.154083,0.3617268,-1.462104,0.1897391,0,3.6,-0.03804248,0.1344925,0.1231911,-0.577359,-3.301422,-0.6026102,0.4249698,1.32691,0.285116,-0.01548395,0.05001241,0.08851774,-0.5210677,0.1892469,0.2537321,0.5741397,1.391789,0.1520586,0.01680689,1.227985,0.3018242,281.4216,58.30254,201.5423,True
2,1.944448,-0.212498,-0.5056322,-0.04587159,4.691884,1.475903,-2.432856,0.3124125,1.154472,0.3617585,-1.463795,-0.1561362,0,3.6,-0.03507024,0.1196934,0.09328251,-0.577923,-3.300393,-0.603137,0.4244451,1.326587,0.2851279,-0.005060188,0.05211129,0.06602293,-0.5211828,0.1901374,0.2525779,0.5733937,1.391613,0.151958,0.01543177,1.228631,0.2997906,281.2855,60.35463,199.2995,True
2,1.955559,-0.2125023,-0.4874917,-0.03957468,4.695208,1.479396,-2.430393,0.3115177,1.154855,0.361809,-1.464162,-0.03207339,0,3.6,0.0002830252,0.1333551,0.1218808,-0.5769307,-3.294369,-0.6093278,0.4239359,1.326269,0.2851698,0.007708177,0.04251164,0.06589604,-0.5203636,0.1900151,0.2521667,0.5726643,1.39136,0.1519127,0.01429464,1.229222,0.2976441,281.1213,61.79967,197.3551,True
2,1.966671,-0.210383,-0.4448315,-0.03020188,4.697438,1.481971,-2.428078,0.3106655,1.15521,0.3618379,-1.463598,0.05167859,0,3.6,0.05380473,0.14802,0.1567491,-0.5757179,-3.28776,-0.6174883,0.4234596,1.326119,0.285217,0.02371882,0.02758572,0.06999347,-0.5194954,0.1891522,0.2519888,0.5719955,1.391186,0.1518219,0.0134373,1.229761,0.2956403,280.9825,62.83897,195.7709,True
2,1.977782,-0.2040029,-0.3989546,-0.01766254,4.699303,1.484209,-2.425992,0.3099451,1.155717,0.3618314,-1.463543,0.004394495,0,4.6,0.07494527,0.1214075,0.141591,-0.5750878,-3.286132,-0.6201783,0.4230936,1.326261,0.2852578,0.03975452,0.01585466,0.0762156,-0.5186021,0.1881987,0.2518096,0.5715277,1.391063,0.1518257,0.01285094,1.230314,0.2939203,280.87,63.6925,194.4865,True
2,1.988893,-0.1922901,-0.3476855,0.0065718,4.700031,1.486299,-2.424211,0.3091668,1.156193,0.3618071,-1.463598,-0.004989544,0,4.6,0.04281628,0.08958887,0.1256908,-0.5745024,-3.285363,-0.6200478,0.4226947,1.326409,0.2852514,0.04848062,-0.002255697,0.0974386,-0.5169702,0.1860096,0.2529169,0.5709965,1.390797,0.1518054,0.01242849,1.230967,0.2925299,280.8279,64.5901,193.2885,True
2,2.000004,-0.1784424,-0.3263019,0.02135915,4.701556,1.488978,-2.422605,0.3083183,1.156641,0.3618803,-1.463745,-0.01345579,0,4.6,0.02910867,0.087391,0.1492044,-0.5730164,-3.281374,-0.6230971,0.422394,1.326477,0.285279,0.06363537,-0.002267119,0.1196439,-0.5150628,0.1847798,0.2526802,0.5704035,1.390576,0.1517913,0.01205951,1.231775,0.2915088,280.8587,65.31994,192.3526,True
2,2.011115,-0.1720401,-0.3069954,0.04682556,4.702318,1.492026,-2.420861,0.3075928,1.157156,0.3618314,-1.463966,-0.02015618,0,4.6,0.04648637,0.1191425,0.1929046,-0.571483,-3.273534,-0.6306637,0.4222257,1.326471,0.2853773,0.07225358,0.007315747,0.1280756,-0.5132279,0.1847833,0.2516077,0.5697613,1.39039,0.1517696,0.0117029,1.232757,0.2908466,280.939,65.82217,191.7411,True
2,2.022226,-0.1720401,-0.3069954,0.04682556,4.702318,1.492026,-2.420861,0.3075928,1.157156,0.3618314,-1.464053,-0.007936874,0,4.6,0.04648637,0.1191425,0.1929046,-0.571483,-3.273534,-0.6306637,0.4222257,1.326471,0.2853773,0.07225358,0.007315747,0.1280756,-0.5132279,0.1847833,0.2516077,0.5697613,1.39039,0.1517696,0.01131942,1.233881,0.2904824,281.108,66.15257,191.3959,True
2,2.033337,-0.1709757,-0.2728074,0.06582503,4.70431,1.49714,-2.417023,0.3063545,1.157932,0.3617618,-1.465462,-0.1289165,0.5,9.6,0.06995042,0.07855105,0.2106904,-0.5676789,-3.266339,-0.6389099,0.4218033,1.326662,0.2856944,0.1042414,0.0008933172,0.1309371,-0.5103224,0.183093,0.2496543,0.5687686,1.390145,0.1518843,0.0110688,1.234962,0.2902935,281.3262,66.65769,190.9094,True
2,2.044448,-0.1709757,-0.2728074,0.06582503,4.70431,1.49714,-2.417023,0.3063545,1.157932,0.3617618,-1.461926,0.3242787,0.5,9.6,0.06995042,0.07855105,0.2106904,-0.5676789,-3.266339,-0.6389099,0.4218033,1.326662,0.2856944,0.1042414,0.0008933172,0.1309371,-0.5103224,0.183093,0.2496543,0.5687686,1.390145,0.1518843,0.0110498,1.235808,0.2902506,281.5838,66.93997,190.695,True
2,2.055559,-0.1827005,-0.2247831,0.08263621,4.703689,1.498648,-2.414624,0.3059143,1.158056,0.3615763,-1.464978,-0.2818832,0.5,9.6,0.02530725,-0.03808569,0.0975816,-0.5674099,-3.276418,-0.6291449,0.4216285,1.326662,0.2858217,0.09116381,-0.01295226,0.1044461,-0.5102355,0.1816773,0.2503651,0.5683613,1.3901,0.1518605,0.01072128,1.236731,0.2900467,281.6999,66.67146,191.0998,True
2,2.06667,-0.1891178,-0.1629649,0.0887228,4.703394,1.501415,-2.410156,0.3050917,1.15853,0.3612185,-1.463319,0.1543546,0.5,9.6,0.02901312,-0.1017444,0.03337006,-0.5658248,-3.284403,-0.6227496,0.4211332,1.326691,0.2859578,0.09614561,-0.03535047,0.07350374,-0.5100715,0.1783556,0.2510045,0.5675995,1.389921,0.1514299,0.01063308,1.237421,0.2897018,281.8218,67.01895,190.746,True
2,2.077781,-0.1838013,-0.1352547,0.09071076,4.702948,1.502512,-2.408302,0.3047823,1.158787,0.3610222,-1.460284,0.2757964,1.4,12.6,0.07274654,-0.04853862,0.02797461,-0.5666179,-3.281488,-0.6274674,0.4209272,1.326826,0.2858295,0.09731539,-0.04387095,0.08414014,-0.5090441,0.1760941,0.251836,0.5673546,1.389764,0.1512156,0.0103367,1.238084,0.2891838,281.9023,67.01511,190.7283,True
2,2.088892,-0.1646354,-0.1043469,0.09160039,4.702424,1.503318,-2.407201,0.304464,1.159036,0.3607996,-1.462821,-0.2340473,1.4,12.6,0.08593826,0.02264185,0.07079319,-0.5662546,-3.27479,-0.6343442,0.420755,1.327002,0.2856946,0.07722543,-0.03851798,0.09820046,-0.5075266,0.1748328,0.2528426,0.5671344,1.389659,0.1510596,0.009777093,1.238944,0.2884003,281.8844,66.51599,191.1726,True
2,2.100003,-0.1476011,-0.0819739,0.09041016,4.701816,1.504058,-2.406157,0.3041376,1.159291,0.3606284,-1.463449,-0.05508153,1.4,12.6,0.06597975,0.04277144,0.1082902,-0.5648975,-3.270093,-0.6383232,0.4206606,1.327088,0.285512,0.07735614,-0.03851244,0.1099209,-0.5060112,0.1732274,0.253277,0.5668349,1.389481,0.1509538,0.009425379,1.239868,0.2874429,281.887,66.57811,190.9241,True
2,2.111114,-0.1231027,-0.06490802,0.09136877,4.701119,1.504771,-2.405687,0.3038151,1.159538,0.3604357,-1.464178,-0.06648073,1.4,12.6,-0.004444368,0.04725211,0.09064814,-0.5651861,-3.269004,-0.6364558,0.4207596,1.327103,0.2852287,0.06960374,-0.05129702,0.08337238,-0.5063069,0.1711548,0.2545825,0.5666608,1.389484,0.1509678,0.009336555,1.240801,0.2864531,281.9528,66.9333,190.3093,True
2,2.122225,-0.1135258,-0.06279886,0.08602603,4.700965,1.505805,-2.404644,0.3034784,1.159707,0.3602934,-1.464191,-0.0007091562,3,26.3,-0.0378498,0.05755965,0.1931775,-0.5612782,-3.261483,-0.6410492,0.4207349,1.327033,0.2850871,0.05859345,-0.03958107,0.04832707,-0.5069439,0.1713736,0.2541148,0.5664437,1.389518,0.15096,0.009407826,1.241713,0.2855567,282.1034,67.3889,189.5975,True
2,2.133336,-0.1028874,-0.05753919,0.07107907,4.701066,1.506344,-2.40379,0.3032511,1.159849,0.3600962,-1.464596,-0.03727768,3,26.3,-0.01308063,0.09040543,0.2261829,-0.559593,-3.25396,-0.648166,0.4205927,1.327096,0.2850335,0.0605537,-0.04384622,0.03233168,-0.5071271,0.1702936,0.2542658,0.5662484,1.389638,0.1508763,0.009496244,1.242575,0.2848419,282.2868,67.72425,189.0626,True
2,2.144447,-0.09117818,-0.04904953,0.0635706,4.700899,1.506827,-2.403191,0.3030007,1.160014,0.3598697,-1.463912,0.06284623,3,26.3,-2.174638E-05,0.0716719,0.109902,-0.5619296,-3.256651,-0.6463782,0.4204588,1.327129,0.2849691,0.06554539,-0.05238628,0.001387078,-0.5083767,0.1690286,0.2544291,0.566106,1.389681,0.1508441,0.009526884,1.243323,0.284335,282.4803,67.94807,188.733,True
2,2.155558,-0.07414959,-0.02668313,0.06024605,4.70014,1.506755,-2.4029,0.3028561,1.160138,0.3596509,-1.463877,0.002434911,3,26.3,-0.01462153,-0.006769594,0.0191302,-0.5626333,-3.264796,-0.6386071,0.4203357,1.327079,0.284919,0.06000235,-0.04706356,-0.01986536,-0.5093626,0.1688296,0.2541026,0.5659789,1.389671,0.1506963,0.00946999,1.243906,0.2839997,282.6248,68.0943,188.5661,True
2,2.166669,-0.07414462,-0.02665544,0.06450445,4.699654,1.5075,-2.402073,0.302687,1.16029,0.3593824,-1.464022,-0.01321296,3,26.3,-0.04159798,-0.08649763,-0.009781495,-0.5613304,-3.272415,-0.6306413,0.4202672,1.32697,0.2847521,0.0378009,-0.003358595,-0.007932145,-0.5086669,0.1716219,0.2520586,0.5659232,1.38962,0.1505768,0.009350529,1.244306,0.2837952,282.6951,68.16973,188.5212,True
2,2.17778,-0.07628777,-0.0395249,0.04752222,4.700354,1.508117,-2.40104,0.3025856,1.160479,0.3591306,-1.464211,-0.01730023,3.1,29.6,-0.02611792,-0.02822532,0.06066974,-0.5594844,-3.265289,-0.6369157,0.4203678,1.327013,0.2845199,0.03913589,0.01902253,0.01548818,-0.5073636,0.1730332,0.2503302,0.5658327,1.389572,0.150445,0.00916908,1.244552,0.2836893,282.7047,68.03194,188.7025,True
2,2.188891,-0.08162902,-0.04283822,0.02410486,4.70114,1.508172,-2.399982,0.3025522,1.16066,0.3587985,-1.463581,0.05765487,3.1,29.6,-0.007615797,0.02162155,0.1065554,-0.5585714,-3.259233,-0.642612,0.4204343,1.327253,0.2842603,0.05628321,0.04457445,0.02275326,-0.50653,0.1754704,0.2469469,0.5658692,1.389581,0.1503117,0.008970594,1.244665,0.2836648,282.6824,67.67476,189.1218,True
2,2.200002,-0.07525323,-0.02692583,0.01017114,4.701224,1.507795,-2.399363,0.3025499,1.160811,0.3585489,-1.463219,0.03253943,3.1,29.6,-0.03302116,0.01943776,0.1322789,-0.5567583,-3.256215,-0.6439731,0.4205812,1.327533,0.2838948,0.06676802,0.06266909,0.004520759,-0.5068731,0.1785042,0.243132,0.5659714,1.389634,0.1502018,0.008769937,1.244712,0.283626,282.6285,67.25287,189.6615,True
2,2.211113,-0.06992824,-0.005585741,0.01538413,4.700504,1.507465,-2.398818,0.3025581,1.16095,0.3582778,-1.463117,0.009075882,3.1,29.6,-0.06619337,0.002534002,0.1143093,-0.5560137,-3.25668,-0.641621,0.4208367,1.327579,0.2835989,0.06010169,0.04882171,-0.01990491,-0.5078366,0.1791752,0.2421508,0.5660952,1.389718,0.1501498,0.008615671,1.244752,0.2834761,282.5404,67.16308,189.8699,True
2,2.222224,-0.06353156,0.02970975,0.04289952,4.698387,1.507301,-2.398342,0.3025579,1.161149,0.3582242,-1.463514,-0.03638374,4.3,30.7,-0.09307125,0.007002436,0.07614825,-0.5566838,-3.257266,-0.6389267,0.4211351,1.327316,0.2834673,0.04588509,0.02964776,-0.05277329,-0.5095533,0.1793476,0.2419841,0.5662003,1.389799,0.1500218,0.008531873,1.244853,0.2832035,282.4498,67.27957,189.7889,True
2,2.233335,-0.06139405,0.05428031,0.05662233,4.696707,1.507032,-2.39784,0.3024785,1.161299,0.3579884,-1.463581,-0.005778388,4.3,30.7,-0.0692779,0.03446054,0.1229694,-0.5551434,-3.251954,-0.6436163,0.4211721,1.327256,0.2833233,0.05318658,0.02110939,-0.06669813,-0.5106979,0.1798049,0.2407391,0.5662597,1.389936,0.1499133,0.008520378,1.245054,0.2828837,282.4072,67.33566,189.671,True
2,2.244446,-0.05926697,0.06707548,0.05868725,4.695354,1.506636,-2.397275,0.3024586,1.161486,0.3577473,-1.463583,-0.0002166755,4.3,30.7,-0.04359164,0.04606843,0.1377647,-0.5540222,-3.247988,-0.6474368,0.4211784,1.32741,0.2831771,0.0723429,0.01469702,-0.06796296,-0.5115107,0.1799993,0.2390957,0.5663557,1.389964,0.1497903,0.00855124,1.245385,0.2825991,282.4109,67.13486,189.757,True
2,2.255557,-0.06247103,0.07337853,0.04161229,4.694891,1.50578,-2.396565,0.3024615,1.161722,0.357444,-1.463487,0.008698085,4.3,30.7,-0.04293985,-0.01766583,0.09381703,-0.5531689,-3.252223,-0.6432312,0.4210223,1.327817,0.2829561,0.08519073,0.03066087,-0.06384726,-0.5118399,0.1820036,0.235927,0.5665036,1.389951,0.1496964,0.008580035,1.245877,0.2824341,282.4716,66.70577,190.0875,True
2,2.266668,-0.06247589,0.06585211,0.02673294,4.694743,1.505197,-2.395931,0.3024605,1.161935,0.3572268,-1.46298,0.04566662,4.3,30.7,-0.05719731,-0.09204374,0.05312671,-0.5517047,-3.258427,-0.6368204,0.4211864,1.328016,0.2826769,0.0767198,0.05623746,-0.06163853,-0.5121189,0.185256,0.2325483,0.5666115,1.389994,0.1495752,0.008591646,1.246471,0.2823833,282.6026,66.47253,190.3291,True
2,2.277779,-0.06247589,0.06585211,0.02673294,4.694743,1.505197,-2.395931,0.3024605,1.161935,0.3572268,-1.461912,0.09629968,4.3,30.7,-0.05719731,-0.09204374,0.05312671,-0.5517047,-3.258427,-0.6368204,0.4211864,1.328016,0.2826769,0.0767198,0.05623746,-0.06163853,-0.5121189,0.185256,0.2325483,0.5666115,1.389994,0.1495752,0.00860351,1.247065,0.2824166,282.7567,66.49103,190.3836,True
2,2.28889,-0.0677975,0.04663453,0.01937104,4.694371,1.505016,-2.394354,0.3024656,1.162375,0.356478,-1.461267,0.05691969,4.1,27.1,-0.03556043,-0.04536859,0.09153638,-0.5491257,-3.254278,-0.640063,0.4217143,1.32809,0.2820745,0.06198674,0.06903951,-0.04550936,-0.5122457,0.1892799,0.2281115,0.5668143,1.390076,0.1492233,0.008624319,1.247541,0.2825044,282.9054,66.79118,190.1579,True
2,2.300001,-0.0677975,0.04663453,0.01937104,4.694371,1.505016,-2.394354,0.3024656,1.162375,0.356478,-1.458287,0.2705882,4.1,27.1,-0.03556043,-0.04536859,0.09153638,-0.5491257,-3.254278,-0.640063,0.4217143,1.32809,0.2820745,0.06198674,0.06903951,-0.04550936,-0.5122457,0.1892799,0.2281115,0.5668143,1.390076,0.1492233,0.008641196,1.247764,0.2826065,283.0511,66.9314,190.1104,True
2,2.311112,-0.08167274,0.05188778,0.009755898,4.694059,1.50468,-2.393085,0.302561,1.162782,0.3561561,-1.457438,0.07358559,4.1,27.1,-0.06210193,-0.02404096,0.09925123,-0.548339,-3.251834,-0.6405686,0.4218107,1.328124,0.2817383,0.06832356,0.04027164,-0.04769506,-0.5129653,0.1884569,0.2278787,0.5670326,1.390213,0.1490383,0.008489041,1.247811,0.2826314,283.0689,66.78445,190.3962,True
2,2.322223,-0.09018812,0.04545753,-0.0008482598,4.69407,1.503851,-2.39163,0.3025429,1.163158,0.3558807,-1.454385,0.2769456,4.1,27.1,-0.08655751,-0.04428236,0.1121033,-0.5463198,-3.252048,-0.6385267,0.421921,1.328221,0.2814009,0.07240088,0.02428065,-0.06371541,-0.5143645,0.1884386,0.2268928,0.5672316,1.390238,0.1488783,0.008289911,1.247575,0.2825792,283.0368,66.64051,190.5714,True
2,2.333334,-0.1061748,0.02724412,-0.0199229,4.694987,1.503484,-2.3899,0.3024511,1.163591,0.3557096,-1.451362,0.2720768,6.4,29.9,-0.0945681,-0.01151937,0.1804721,-0.5432369,-3.245778,-0.6426343,0.4220971,1.328566,0.2810199,0.07101843,0.02533183,-0.09353534,-0.5163981,0.1900063,0.2248547,0.5674577,1.39029,0.1486263,0.007952754,1.247161,0.2824465,282.8705,66.12577,191.1096,True
2,2.344445,-0.1072447,-0.01337239,-0.0474217,4.697152,1.503573,-2.388671,0.3022677,1.16407,0.3556807,-1.448442,0.2628063,6.4,29.9,-0.07495119,0.03403067,0.2348638,-0.5409381,-3.237748,-0.649382,0.4221855,1.328994,0.2806156,0.0773097,0.02105756,-0.10212,-0.5176823,0.1908056,0.2231795,0.5675582,1.390449,0.1485112,0.007481142,1.24671,0.2822456,282.6009,65.56237,191.6976,True
2,2.355556,-0.1136397,-0.02941678,-0.0601186,4.698537,1.50346,-2.38718,0.3021861,1.164528,0.3555434,-1.445332,0.2801294,6.4,29.9,-0.05881263,0.04136626,0.2571609,-0.5385007,-3.232373,-0.6538758,0.4223056,1.329373,0.2802956,0.08160777,0.01359766,-0.09790096,-0.518648,0.1910336,0.2219023,0.5676973,1.390517,0.1483374,0.006895314,1.246323,0.2820201,282.3259,65.25304,192.0089,True
2,2.366668,-0.1125667,-0.0154939,-0.0452797,4.698389,1.503199,-2.386027,0.3021503,1.164908,0.3553958,-1.442838,0.2235046,6.4,29.9,-0.03017054,0.04245297,0.2367409,-0.5371836,-3.22957,-0.6570173,0.4224005,1.329607,0.2800279,0.08381598,0.0146615,-0.08939579,-0.5191561,0.1915906,0.2205731,0.5677869,1.390613,0.1479774,0.006265076,1.246041,0.2817853,282.0844,65.26387,191.9854,True
2,2.377779,-0.1104366,0.03048781,-0.01248828,4.696392,1.502376,-2.384771,0.3022287,1.165234,0.3552902,-1.439503,0.3008896,6.4,29.9,-0.02456889,0.03866879,0.1163112,-0.5396342,-3.232311,-0.6545171,0.422609,1.329569,0.2799122,0.08496981,0.01253421,-0.07981655,-0.5196882,0.1919708,0.2194527,0.5678521,1.390725,0.1477849,0.005678683,1.245829,0.2815355,281.8997,65.55628,191.665,True
2,2.38889,-0.1178907,0.05825872,0.00335739,4.694978,1.501656,-2.383272,0.3021374,1.165632,0.3550427,-1.436545,0.2655412,5.3,33.1,-0.004307952,0.017278,0.1267511,-0.5378563,-3.231041,-0.6560681,0.4227531,1.329764,0.2798188,0.09041885,0.01253302,-0.06816132,-0.5200877,0.1924517,0.2178559,0.5680741,1.390856,0.1475661,0.005195344,1.245667,0.2812965,281.7544,65.57923,191.5939,True
2,2.400001,-0.1253599,0.09132148,0.01172088,4.69323,1.500413,-2.381604,0.3021818,1.165997,0.3549175,-1.43309,0.3113941,5.3,33.1,0.008435182,-0.01684825,0.1307895,-0.5357375,-3.230846,-0.6567289,0.4229844,1.329952,0.279578,0.1032954,-0.01304273,-0.05656742,-0.5205132,0.1905098,0.2179827,0.5682151,1.390947,0.1474001,0.004826502,1.245551,0.2811334,281.6568,65.13503,191.9618,True
2,2.411112,-0.1328181,0.09127691,0.003203034,4.692801,1.499507,-2.37999,0.3021227,1.166499,0.3548615,-1.429369,0.3351526,5.3,33.1,-0.006067023,-0.1102746,0.05806467,-0.5345215,-3.239964,-0.6483463,0.4231382,1.330447,0.2794342,0.1180063,-0.04608756,-0.07269062,-0.5222331,0.1878245,0.218473,0.5683886,1.390969,0.1472664,0.004508178,1.245509,0.2811296,281.6047,64.34806,192.7095,True
2,2.422223,-0.1306908,0.07309087,-0.01268889,4.693195,1.498865,-2.378639,0.302117,1.166949,0.3547943,-1.42564,0.3356642,5.3,33.1,-0.01687954,-0.1880164,0.05782637,-0.5311989,-3.246233,-0.6422903,0.42325,1.331001,0.2792323,0.1006412,-0.03755613,-0.1034014,-0.524312,0.1886981,0.2172623,0.5685641,1.391143,0.1472189,0.004138101,1.245565,0.2812789,281.5736,63.72907,193.3759,True
2,2.433334,-0.1211034,0.03145349,-0.03060889,4.694862,1.499,-2.377612,0.3021416,1.167505,0.3546934,-1.422115,0.3170029,5.3,33.1,-0.00401406,-0.1464953,0.05791057,-0.530458,-3.245912,-0.6429486,0.4234149,1.331285,0.27899,0.06750526,-0.02793851,-0.1147745,-0.5259423,0.1895121,0.2169169,0.5686322,1.391367,0.1470444,0.003748822,1.245687,0.281591,281.5409,63.2972,193.8816,True
2,2.444445,-0.1083078,-0.01120164,-0.03998324,4.696316,1.499711,-2.37687,0.3020768,1.168227,0.3547492,-1.418761,0.3015076,4.3,27,0.003674686,-0.05493014,0.06675007,-0.5312133,-3.240914,-0.6474917,0.4234408,1.331485,0.2788053,0.05930805,-0.008739792,-0.08592135,-0.5256137,0.1904454,0.2156609,0.5686833,1.391532,0.146883,0.003342772,1.245838,0.2820187,281.5096,63.15722,194.1464,True
2,2.455556,-0.09232323,-0.04001534,-0.05370533,4.697975,1.499799,-2.376406,0.3020349,1.168823,0.354718,-1.415422,0.3002947,4.3,27,0.004972238,0.006785695,0.08403572,-0.5313038,-3.235762,-0.6520385,0.4234856,1.331698,0.2785573,0.05735838,0.002986953,-0.06992502,-0.525765,0.1913961,0.2142614,0.5687663,1.391693,0.1467276,0.003003648,1.245915,0.2824613,281.4877,63.19236,194.2921,True
2,2.466667,-0.07741233,-0.05711127,-0.06535195,4.699541,1.499808,-2.375981,0.3020089,1.169394,0.3547509,-1.411961,0.3112993,4.3,27,0.00634785,0.05351928,0.1183049,-0.5305006,-3.229788,-0.6572263,0.4236536,1.331945,0.278403,0.0595784,0.01364018,-0.06248298,-0.5259684,0.1924818,0.2125045,0.5688462,1.391864,0.146548,0.002721254,1.245866,0.2827754,281.425,63.24023,194.4277,True
2,2.477778,-0.07315706,-0.0582059,-0.07280902,4.700721,1.499463,-2.375289,0.3020524,1.169912,0.354739,-1.408388,0.3213244,4.3,27,0.009606626,0.06093997,0.125771,-0.5297789,-3.226309,-0.6604427,0.4238032,1.332368,0.2782006,0.0531871,0.002994329,-0.06134604,-0.5266561,0.1920865,0.2124947,0.5689992,1.392009,0.1463611,0.002398154,1.24571,0.2828789,281.3132,63.17445,194.5962,True
2,2.488889,-0.06037521,-0.05393414,-0.07177025,4.701476,1.499282,-2.375026,0.302075,1.170286,0.3547072,-1.40453,0.3473804,3.5,31.9,0.02127831,0.01401441,0.1340328,-0.5274673,-3.226373,-0.6609004,0.4240454,1.332918,0.2781372,0.05945721,-0.03429833,-0.06885734,-0.5280638,0.189325,0.2140801,0.5692186,1.39218,0.1461902,0.002016884,1.245403,0.2827675,281.1676,63.23919,194.5415,True
2,2.5,-0.04545685,-0.04429882,-0.06330691,4.701885,1.499096,-2.375059,0.3022134,1.170768,0.3547249,-1.400316,0.3797101,3.5,31.9,0.01778499,-0.02845326,0.09979858,-0.5264755,-3.22892,-0.6588565,0.4244321,1.33334,0.27791,0.06260491,-0.03643721,-0.0731511,-0.5290843,0.1888538,0.2136822,0.5694605,1.392336,0.1460195,0.001572137,1.244926,0.2825051,280.9692,63.28019,194.4186,True
2,2.511111,-0.04438374,-0.04851687,-0.05476408,4.702597,1.499333,-2.374604,0.3023718,1.171281,0.3547359,-1.39676,0.3191835,3.5,31.9,0.0153952,-0.06881836,0.07195279,-0.525267,-3.232597,-0.6557507,0.4247976,1.333526,0.2778106,0.0358343,-0.008717868,-0.08885981,-0.5303957,0.1911325,0.212243,0.5697235,1.392528,0.145838,0.001083076,1.244295,0.282184,280.7233,63.12499,194.4547,True
2,2.522222,-0.04651208,-0.05383648,-0.0536689,4.703514,1.499508,-2.373963,0.3026032,1.17171,0.3547175,-1.393118,0.3277344,3.5,31.9,0.02385783,-0.05279461,0.05811365,-0.5251168,-3.23215,-0.6566575,0.4251364,1.333673,0.2777042,0.03897848,0.01471223,-0.09636019,-0.5314823,0.1936145,0.2095647,0.5700692,1.392646,0.1456661,0.0005936283,1.24352,0.2818779,280.4582,62.68927,194.7763,True
2,2.533333,-0.05929806,-0.06347165,-0.06213393,4.70493,1.499577,-2.372855,0.3028556,1.172205,0.3546782,-1.388656,0.4024523,3.5,31.9,0.03342203,-0.03999765,0.05064708,-0.5248781,-3.231533,-0.657878,0.4254236,1.333981,0.2775919,0.05405096,0.006178245,-0.0805358,-0.5318945,0.1932663,0.2087292,0.5703419,1.39284,0.1454759,0.0001440877,1.242641,0.28164,280.1561,61.96894,195.4162,True
2,2.544444,-0.07955366,-0.06777271,-0.06849128,4.706276,1.499488,-2.371127,0.3032399,1.172766,0.3545797,-1.384422,0.3809384,3.4,33.3,0.02927915,-0.04859602,0.07194258,-0.5232148,-3.23117,-0.6583185,0.4258168,1.334309,0.2774858,0.06270387,-0.003409542,-0.06676358,-0.5320799,0.192572,0.2084107,0.5705801,1.392979,0.1452637,-0.000252767,1.241727,0.2814699,279.8326,61.16391,196.1994,True
2,2.555555,-0.08807237,-0.06133919,-0.05999691,4.706882,1.499514,-2.369917,0.3033567,1.173229,0.3545687,-1.379987,0.3996913,3.4,33.3,0.02840602,-0.04551386,0.1007245,-0.5213159,-3.229237,-0.6602831,0.4262247,1.334646,0.2773826,0.07663432,-0.0215303,-0.05731536,-0.5325401,0.1909484,0.2084587,0.5708124,1.393105,0.1450949,-0.0005687219,1.24084,0.2813508,279.5213,60.47646,196.9049,True
2,2.566666,-0.09978551,-0.04314872,-0.04303444,4.706769,1.499488,-2.368405,0.303548,1.173674,0.3546336,-1.375425,0.4111318,3.4,33.3,0.0264053,-0.03812421,0.1188725,-0.5197856,-3.227106,-0.6623199,0.4265218,1.334909,0.2774012,0.08096346,-0.03431007,-0.04989643,-0.5330109,0.1897498,0.2084661,0.5709925,1.393173,0.1450064,-0.0008145482,1.240068,0.281265,279.2112,59.88842,197.5281,True
2,2.577777,-0.1029668,-0.01848345,-0.0111981,4.70572,1.499615,-2.367244,0.3036854,1.174182,0.3546674,-1.372018,0.3054755,3.4,33.3,0.02195686,-0.04226535,0.09118601,-0.519383,-3.228038,-0.6615966,0.4269655,1.335126,0.2773869,0.07881732,-0.03856947,-0.05093747,-0.5337161,0.1889021,0.2083948,0.5712342,1.393239,0.1448939,-0.00100691,1.239514,0.2812077,278.9305,59.32413,198.1161,True
2,2.588888,-0.108287,-0.008828795,0.002606396,4.705216,1.4998,-2.365859,0.3038215,1.174706,0.3547277,-1.367909,0.3705777,5.7,47.4,0.04630547,-0.08487719,0.08020918,-0.5176525,-3.231251,-0.6601148,0.4273236,1.335347,0.2775042,0.09666067,-0.0460519,-0.07562391,-0.5355383,0.1882674,0.2072403,0.5715359,1.393382,0.1448524,-0.001217816,1.23922,0.2811985,278.7733,58.82927,198.5952,True
2,2.599999,-0.1146798,-0.01628415,0.00264598,4.705581,1.500059,-2.364295,0.30389,1.175284,0.3548176,-1.364212,0.3320689,5.7,47.4,0.06758463,-0.1126323,0.08421847,-0.515434,-3.233396,-0.6597433,0.4277735,1.335565,0.2775502,0.1260387,-0.04929554,-0.1174843,-0.5384475,0.1880748,0.2050141,0.5719628,1.393447,0.1448023,-0.00141815,1.239147,0.2812606,278.7033,58.16185,199.2304,True
2,2.61111,-0.1221361,-0.05153195,-0.0152826,4.707336,1.500778,-2.362687,0.3039435,1.176002,0.354861,-1.359866,0.3916141,5.7,47.4,0.08329234,-0.1572917,0.05517703,-0.5136774,-3.239022,-0.6563361,0.4281149,1.335944,0.2774696,0.1025879,-0.03222209,-0.1204345,-0.5397205,0.189225,0.2036905,0.5721915,1.393538,0.1446776,-0.001608123,1.239236,0.28139,278.7033,57.43318,199.9621,True
2,2.622221,-0.1263985,-0.1017502,-0.04485861,4.710335,1.501691,-2.361179,0.303977,1.176748,0.3548977,-1.355391,0.4028741,5.7,47.4,0.07248665,-0.1859703,0.04021335,-0.5120353,-3.244032,-0.6524193,0.4284516,1.336378,0.2773674,0.06443715,-0.04496342,-0.09978515,-0.540234,0.187484,0.2058504,0.572482,1.393748,0.1444423,-0.001785228,1.239392,0.2815474,278.7167,57.08945,200.3501,True
2,2.633332,-0.1274623,-0.141262,-0.06383564,-1.56985,1.5028,-2.35973,0.3039554,1.177462,0.3549125,-1.350974,0.397482,5.7,47.4,0.03854665,-0.1838634,0.06281301,-0.5097125,-3.24551,-0.6504545,0.4287531,1.336748,0.2771506,0.05395735,-0.08436042,-0.07941752,-0.5408827,0.1833043,0.2092193,0.5727117,1.393909,0.1442053,-0.001983298,1.239541,0.2816786,278.6976,57.16052,200.3491,True
2,2.644443,-0.1349259,-0.1882721,-0.09129605,-1.565974,1.503918,-2.357927,0.3039142,1.178184,0.3548918,-1.346632,0.3906297,7.3,46.1,0.01554084,-0.1264836,0.112191,-0.5078856,-3.241035,-0.6536921,0.4289932,1.336966,0.2768977,0.05295446,-0.0854182,-0.07300797,-0.5416337,0.1817903,0.209892,0.5730659,1.39411,0.1440468,-0.002201383,1.239613,0.2816954,278.6176,57.58412,200.011,True
2,2.655554,-0.1413199,-0.2085653,-0.09969072,-1.563079,1.504958,-2.356188,0.3038153,1.17893,0.3548992,-1.342178,0.4008018,7.3,46.1,0.01057416,-0.04563587,0.1434432,-0.5070845,-3.234493,-0.6593382,0.4292437,1.337188,0.2765932,0.04118489,-0.07049428,-0.07928161,-0.5427565,0.1816779,0.2099053,0.5733831,1.394216,0.1438701,-0.00244392,1.239544,0.2815269,278.4832,58.26715,199.3752,True
2,2.666665,-0.1509031,-0.2085415,-0.09651125,-1.560758,1.505893,-2.354174,0.3036882,1.179698,0.3549113,-1.337242,0.4448505,7.3,46.1,0.009649836,-0.01585568,0.1552898,-0.5059047,-3.230549,-0.6630435,0.4295716,1.337383,0.276299,0.01129268,-0.04277315,-0.08856852,-0.5440418,0.1831614,0.2094254,0.5738026,1.394253,0.143651,-0.00274527,1.239301,0.2811455,278.3114,58.89081,198.7386,True
2,2.677776,-0.1615629,-0.2032352,-0.09972826,-1.558473,1.506457,-2.352064,0.303528,1.180462,0.3548491,-1.332637,0.414095,7.3,46.1,-0.01265739,-0.01158518,0.1639738,-0.5043223,-3.227947,-0.6644403,0.429785,1.337572,0.2759933,-0.01843716,-0.02356222,-0.08079869,-0.5445057,0.1841182,0.2098289,0.5741038,1.394324,0.1434116,-0.003145816,1.238893,0.2805559,278.0577,59.44044,198.1043,True
2,2.688887,-0.1722171,-0.2012094,-0.1060854,-1.555771,1.508115,-2.349858,0.3035111,1.181187,0.3545825,-1.327585,0.4550738,8,46.1,-0.01998378,-0.03510888,0.1894992,-0.501217,-3.226563,-0.6654071,0.4299855,1.337885,0.2756732,-0.02692105,-0.008638356,-0.07858418,-0.5452066,0.1852264,0.2094653,0.574414,1.394425,0.1431568,-0.003678214,1.238387,0.2798341,277.745,59.50668,197.8683,True
2,2.699998,-0.1892714,-0.203425,-0.1220403,-1.552807,1.508415,-2.347214,0.3033919,1.181943,0.3544877,-1.322531,0.4547863,8,46.1,-0.02115373,-0.05317375,0.1787807,-0.4992048,-3.226431,-0.6652409,0.4302369,1.338206,0.2753706,-0.03637227,0.00309445,-0.06677001,-0.5454345,0.1862064,0.2093351,0.5747299,1.394568,0.1428714,-0.004333441,1.237854,0.2790739,277.3994,59.19707,197.9849,True
2,2.711109,-0.2052552,-0.1970721,-0.1284405,-1.550382,1.508767,-2.344433,0.3033309,1.182748,0.3545415,-1.317348,0.4665502,8,46.1,-0.0255686,-0.06692921,0.1585137,-0.4976037,-3.227162,-0.664301,0.4305332,1.338529,0.2749777,-0.05982307,-0.003281713,-0.06759544,-0.546437,0.1856838,0.2111061,0.575227,1.394631,0.1426251,-0.005015592,1.237325,0.2783361,277.0601,58.8321,198.2225,True
2,2.72222,-0.2137877,-0.1757438,-0.1232147,-1.548707,1.508796,-2.341748,0.3034346,1.18342,0.3544142,-1.311752,0.5042018,8,46.1,-0.03602909,-0.03609719,0.1789472,-0.4959973,-3.222636,-0.6675312,0.4308489,1.338741,0.2746954,-0.06230209,-0.03311758,-0.09738141,-0.5486155,0.1839531,0.2134015,0.5757799,1.394738,0.1424437,-0.005590324,1.236799,0.2775815,276.7432,58.68748,198.3017,True
2,2.733331,-0.2244607,-0.1171287,-0.1117483,-1.548703,1.508325,-2.338814,0.3035011,1.184168,0.3542812,-1.306324,0.4884899,8,46.1,-0.03169279,-0.03615116,0.1895782,-0.493725,-3.219963,-0.6697605,0.4311795,1.339129,0.2744009,-0.06292283,-0.04592333,-0.1548992,-0.5523375,0.1836198,0.2143754,0.5764278,1.394748,0.1423202,-0.006153684,1.236354,0.2768894,276.4125,59.0404,197.8054,True
2,2.744442,-0.227669,-0.03287849,-0.08231611,-1.550388,1.507522,-2.336145,0.3035544,1.184902,0.3543494,-1.301086,0.4711258,7.8,52.2,-0.02324829,-0.07131533,0.1883205,-0.4908472,-3.220368,-0.6694814,0.4315324,1.339512,0.2740791,-0.102572,-0.01287262,-0.1800623,-0.5549506,0.1863315,0.2143685,0.5770301,1.39473,0.1421628,-0.006657263,1.236028,0.2763732,276.113,59.17921,197.4949,True
2,2.755553,-0.2287396,0.02478519,-0.05490598,-1.552328,1.506166,-2.333558,0.3035882,1.185541,0.3541644,-1.295453,0.5074085,7.8,52.2,-0.02541849,-0.08088591,0.1851001,-0.4885724,-3.21983,-0.669609,0.4318861,1.339822,0.2737966,-0.1204721,0.004197955,-0.1617687,-0.555994,0.1879843,0.2148915,0.5775157,1.394764,0.1419559,-0.007050368,1.235826,0.2760922,275.8939,58.71698,197.8586,True
2,2.766664,-0.2298128,0.1251469,-0.00428753,-1.556386,1.504297,-2.330964,0.303599,1.186076,0.3539636,-1.290211,0.471185,7.8,52.2,-0.03192206,-0.08933102,0.1691314,-0.4867443,-3.220061,-0.6689397,0.43226,1.340063,0.2734976,-0.1168116,-0.01176604,-0.1159883,-0.5555924,0.1866772,0.2171757,0.5778162,1.39488,0.141681,-0.00743955,1.235825,0.2760988,275.7406,57.30494,199.2211,True
2,2.777775,-0.2372687,0.1561359,0.01473639,-1.558787,1.502989,-2.328107,0.3035668,1.186572,0.3537652,-1.284764,0.4903487,7.8,52.2,-0.0382731,-0.1106757,0.1818705,-0.4836844,-3.220136,-0.6682396,0.432582,1.340332,0.2732546,-0.09187298,-0.02669314,-0.0736371,-0.5553804,0.184779,0.2188743,0.5780425,1.394991,0.1414013,-0.007857386,1.236033,0.2764375,275.6954,55.38044,201.1695,True
2,2.788886,-0.2479213,0.1807534,0.03910995,-1.561548,1.501836,-2.324837,0.3035469,1.187038,0.3535018,-1.278999,0.518838,7.8,52.2,-0.04582614,-0.1095282,0.1659471,-0.4818159,-3.219961,-0.6677277,0.4328756,1.340628,0.2729139,-0.07570119,-0.01391968,-0.05676708,-0.5553958,0.1853038,0.2187345,0.5783187,1.395109,0.1411231,-0.008314722,1.23638,0.2770753,275.7646,53.51165,203.1803,True
2,2.799997,-0.2638942,0.1829312,0.04869412,-1.563613,1.500933,-2.321358,0.3034921,1.187695,0.3531981,-1.272783,0.5598868,7.3,44,-0.05023147,-0.1126299,0.1446566,-0.4802542,-3.221075,-0.6660259,0.433167,1.340892,0.2726443,-0.07995088,-0.01391481,-0.05565687,-0.5560009,0.1852552,0.2198101,0.5786788,1.395221,0.1408856,-0.008817742,1.236776,0.2779646,275.9381,51.45033,205.4745,True
2,2.811108,-0.2766744,0.185087,0.056143,-1.565601,1.500079,-2.317776,0.3033027,1.18838,0.3526459,-1.266273,0.5862979,7.3,44,-0.03950012,-0.1222929,0.1583973,-0.4774909,-3.220938,-0.66619,0.4334133,1.341166,0.2723603,-0.09294064,-0.02030127,-0.07469695,-0.5577245,0.1851432,0.2214181,0.5790667,1.395323,0.1406763,-0.009332899,1.237088,0.2789503,276.1104,49.93489,207.3137,True
2,2.822219,-0.2766683,0.1862133,0.06571585,-1.567866,1.499148,-2.314684,0.3032061,1.189096,0.3522341,-1.259866,0.5766252,7.3,44,-0.04383799,-0.1083784,0.142494,-0.4761572,-3.220909,-0.6655873,0.4336533,1.34169,0.2730398,-0.1195747,-0.009623215,-0.07548315,-0.5585698,0.1859025,0.2230546,0.5793483,1.395292,0.1404808,-0.009873042,1.237272,0.2798746,276.2256,48.10981,209.48,True
2,2.83333,-0.2745299,0.1830351,0.06892406,-1.569868,1.498464,-2.311756,0.3030902,1.189642,0.3518686,-1.253508,0.5722393,7.3,44,-0.05978002,-0.1008994,0.1458187,-0.4743745,-3.22022,-0.6650171,0.4338238,1.341923,0.2727885,-0.122279,-0.002145022,-0.02964718,-0.5573847,0.1858396,0.2246211,0.5794684,1.395263,0.1402819,-0.01049769,1.237371,0.2805875,276.2565,45.93933,211.9835,True
2,2.844441,-0.2681282,0.1798747,0.07745182,4.711256,1.498065,-2.308993,0.3028022,1.190202,0.3516805,-1.247655,0.5259135,6.4,43.3,-0.06499755,-0.09242499,0.159731,-0.4720645,-3.218518,-0.6657115,0.4339118,1.342004,0.2725856,-0.1017635,0.001038834,-0.004303683,-0.5566262,0.1856937,0.2250848,0.5796446,1.395195,0.1401274,-0.01122727,1.237431,0.2809738,276.236,43.5658,214.6171,True
2,2.855552,-0.2745157,0.171371,0.08176062,4.709276,1.497707,-2.305656,0.3023485,1.190581,0.3514051,-1.241419,0.5614129,6.4,43.3,-0.08326241,-0.07842126,0.1311492,-0.4713284,-3.218396,-0.6643918,0.4339588,1.341952,0.2723095,-0.07047062,0.02126405,0.03157937,-0.5550305,0.1867672,0.2239308,0.5794533,1.395174,0.1399906,-0.01194366,1.237434,0.2810267,276.2034,41.39423,216.8885,True
2,2.866663,-0.2830341,0.1532545,0.0797258,4.70788,1.497461,-2.302228,0.301957,1.190862,0.3509462,-1.235032,0.5747115,6.4,43.3,-0.09071531,-0.06348114,0.1280603,-0.4701625,-3.21707,-0.6642816,0.4339465,1.34193,0.2720704,-0.06711832,0.03298964,0.04431526,-0.5541319,0.187955,0.2234658,0.5794002,1.395238,0.140223,-0.01263273,1.237337,0.2808018,276.1781,39.70699,218.5288,True
2,2.877774,-0.2936745,0.1137727,0.06714685,4.707622,1.497703,-2.298674,0.3014697,1.191239,0.3507071,-1.227839,0.6482544,6.4,43.3,-0.07873721,-0.03379745,0.1579323,-0.4682966,-3.212248,-0.668222,0.4338167,1.341768,0.2718697,-0.05236007,0.03190609,0.02924725,-0.5542145,0.188674,0.2229258,0.5793548,1.395199,0.1401808,-0.0134156,1.237136,0.2804053,276.1609,38.27601,219.8206,True
2,2.888885,-0.3043293,0.06998874,0.04286812,4.708157,1.497649,-2.294942,0.3009552,1.19146,0.3503518,-1.221025,0.6130474,6.4,43.3,-0.0681091,-0.01353915,0.1483565,-0.4675105,-3.209543,-0.6702558,0.4335406,1.341622,0.2716498,-0.03867561,0.03082066,0.0141894,-0.5545191,0.1893257,0.2223974,0.5793238,1.395088,0.1401732,-0.01434616,1.236808,0.2799191,276.146,36.82019,221.1609,True
2,2.899997,-0.3021999,0.04008268,0.02703903,4.708599,1.497815,-2.291688,0.3005735,1.191762,0.3501129,-1.21422,0.6124908,5.2,41.2,-0.07568698,-0.01024801,0.1281814,-0.4669299,-3.208718,-0.6699363,0.4334,1.341719,0.2714217,-0.03362024,0.04252192,-0.01250364,-0.5553708,0.1914035,0.220873,0.5793613,1.394951,0.1402194,-0.01534239,1.236321,0.2793717,276.0791,35.25251,222.6602,True
2,2.911108,-0.294741,0.001674961,0.01337258,4.709665,1.498285,-2.288618,0.3000477,1.192021,0.3499563,-1.207336,0.6198265,5.2,41.2,-0.07233389,-0.01461359,0.1537128,-0.4647221,-3.205568,-0.6720365,0.4331632,1.341753,0.271122,-0.04544253,0.05105019,-0.02303949,-0.5557852,0.1931558,0.2203326,0.5792606,1.394843,0.1401832,-0.0163918,1.235693,0.2787943,275.9305,33.71419,224.1281,True
2,2.922219,-0.2798212,-0.01748954,0.01132371,4.709977,1.498658,-2.285946,0.2995657,1.192312,0.3497918,-1.201062,0.5638378,5.2,41.2,-0.07133825,-0.0177751,0.1441087,-0.463382,-3.204188,-0.6725276,0.4329683,1.341755,0.2708721,-0.05281741,0.06383982,-0.01657726,-0.5555546,0.1951949,0.2193774,0.5791225,1.394694,0.1400363,-0.01743706,1.234934,0.2782272,275.7382,32.05046,225.7116,True
2,2.93333,-0.2670315,-0.02704176,0.01668823,4.710133,1.499257,-2.283351,0.2991174,1.192532,0.3495667,-1.194626,0.5792239,5.2,41.2,-0.0863619,-0.002737045,0.1208294,-0.463275,-3.20262,-0.6726295,0.4327253,1.341614,0.270648,-0.06541183,0.04894612,0.002738299,-0.554884,0.1950391,0.220632,0.5790001,1.394572,0.1399224,-0.01840991,1.234075,0.2777223,275.5445,29.98856,227.6819,True
2,2.944441,-0.2553113,-0.03660647,0.01884484,4.710559,1.499713,-2.280795,0.2985639,1.19283,0.3493223,-1.188419,0.5582797,5.6,43.9,-0.09813378,0.03358468,0.101878,-0.4638156,-3.199148,-0.6742405,0.4324524,1.341358,0.2703862,-0.0672674,0.01806401,0.03153148,-0.5538954,0.1929591,0.2231601,0.5787691,1.394469,0.1398077,-0.01937389,1.23316,0.2773049,275.3677,27.74656,229.8505,True
2,2.955552,-0.2425227,-0.04832318,0.01782889,4.711137,1.50043,-2.27848,0.2980396,1.193041,0.3491101,-1.181962,0.5812589,5.6,43.9,-0.08721399,0.07500071,0.1286093,-0.4632052,-3.192123,-0.6800787,0.4321583,1.341138,0.2702622,-0.0617452,0.01380314,0.05065162,-0.5527636,0.1925134,0.2240685,0.5785912,1.394326,0.1398437,-0.02032031,1.232221,0.276987,275.2489,25.09834,232.4664,True
2,2.966663,-0.2276073,-0.06109872,0.01574813,4.711821,1.50108,-2.276368,0.2974803,1.193269,0.3490057,-1.175483,0.5831523,5.6,43.9,-0.08307834,0.06762611,0.1072698,-0.4632872,-3.189624,-0.6813437,0.4318731,1.340953,0.2701094,-0.05433308,0.03190328,0.04417092,-0.5523678,0.1942688,0.2228826,0.5783765,1.394244,0.1398609,-0.02125683,1.231273,0.2767331,275.1739,22.33808,235.2565,True
2,2.977774,-0.2180198,-0.07815882,0.01156629,-1.570312,1.501997,-2.274146,0.2969297,1.193432,0.3488379,-1.16926,0.5598186,5.6,43.9,-0.08323668,0.03784466,0.09540974,-0.4622715,-3.19051,-0.6798185,0.4315419,1.340848,0.2700024,-0.04917825,0.06278488,0.0249314,-0.552297,0.1976866,0.2203686,0.5781624,1.394108,0.1399713,-0.02223777,1.230345,0.276499,275.0951,19.73184,237.9177,True
2,2.988885,-0.210564,-0.09523702,0.003120959,-1.568987,1.502772,-2.271981,0.296399,1.193643,0.3487797,-1.163059,0.5578371,5.6,43.9,-0.08019133,-0.003665991,0.08456922,-0.4609122,-3.19206,-0.6776789,0.4312155,1.340781,0.269856,-0.05245418,0.0787673,0.01537003,-0.5521548,0.2004392,0.2186639,0.5779727,1.394055,0.1400838,-0.02321224,1.229412,0.2762457,275.0148,17.4029,240.2745,True
2,2.999996,-0.2020443,-0.1037878,-0.00323214,-1.567796,1.503497,-2.270001,0.2959215,1.193825,0.3486075,-1.156583,0.5832037,5.6,38.8,-0.0737743,-0.02075432,0.09298147,-0.4594374,-3.191355,-0.6777551,0.4308631,1.340774,0.2697065,-0.06219368,0.08090517,0.0005640667,-0.5523444,0.2024619,0.2179201,0.5776377,1.393965,0.140115,-0.024179,1.228449,0.2759651,274.9338,15.23415,242.437,True
2,3.011107,-0.190334,-0.09740616,-0.007536571,-1.567047,1.503767,-2.268258,0.2954833,1.193969,0.3485024,-1.150284,0.5667259,5.6,38.8,-0.06635688,-0.006881639,0.08339816,-0.459178,-3.189635,-0.6787593,0.4305629,1.340707,0.2696314,-0.06844313,0.06494451,0.01555313,-0.5515529,0.20258,0.2187499,0.577348,1.393922,0.1401656,-0.02512212,1.227427,0.275635,274.8401,12.98762,244.6654,True
2,3.022218,-0.178612,-0.08243904,0.001970042,-1.567014,1.504296,-2.266721,0.2949702,1.194249,0.3483551,-1.144174,0.5496333,5.6,38.8,-0.0804458,0.00608968,0.0430572,-0.4601277,-3.190138,-0.6769266,0.4302744,1.340514,0.2694728,-0.0694035,0.04684003,0.02728906,-0.5508807,0.202046,0.2200149,0.5770777,1.393844,0.140147,-0.02603939,1.226346,0.2752649,274.7283,10.34508,247.2664,True
2,3.033329,-0.1636952,-0.07705729,0.01044778,-1.56675,1.504892,-2.265413,0.294423,1.194548,0.3481574,-1.138155,0.5415559,5.6,38.8,-0.09633316,0.03486224,0.04860316,-0.4604622,-3.18671,-0.6783559,0.429983,1.340294,0.2692909,-0.06502445,0.03831647,0.0389694,-0.5499998,0.2019687,0.2205936,0.5767556,1.393671,0.140022,-0.02691263,1.225207,0.2748684,274.6323,7.331757,250.2264,True
2,3.04444,-0.1530448,-0.08877914,0.007294584,-1.565616,1.50559,-2.263982,0.2939255,1.19473,0.3480117,-1.132116,0.5433986,4.4,36.9,-0.09148705,0.09529504,0.119124,-0.4593718,-3.175294,-0.6879044,0.4296811,1.339965,0.2691066,-0.04361911,0.04575536,0.04726217,-0.5490261,0.2030801,0.21931,0.5765008,1.393513,0.1400626,-0.02777664,1.224032,0.2744972,274.5811,3.815962,253.6676,True
2,3.055551,-0.1519836,-0.1016043,-0.001162015,-1.564294,1.50635,-2.262318,0.2933692,1.194861,0.3478947,-1.126102,0.5411386,4.4,36.9,-0.09705357,0.09226475,0.08185859,-0.4603812,-3.174555,-0.6874487,0.4293584,1.339793,0.2689569,-0.03411554,0.06172275,0.03757274,-0.5486218,0.2052922,0.2174761,0.5763338,1.393372,0.1401958,-0.02869872,1.22287,0.2741667,274.5964,359.852,257.5944,True
2,3.066662,-0.148788,-0.1143889,-0.003232207,-1.563,1.507247,-2.260738,0.292858,1.195004,0.3477368,-1.119751,0.5719259,4.4,36.9,-0.1014828,0.05717584,0.06682925,-0.4599141,-3.175583,-0.6852188,0.4290571,1.339647,0.2688603,-0.04492464,0.09155646,0.01955849,-0.5486591,0.209286,0.2148726,0.5761641,1.3932,0.1404266,-0.02964969,1.22171,0.2738499,274.6067,356.3303,261.1253,True
2,3.077773,-0.1509189,-0.1336444,-0.01911325,-1.560867,1.508014,-2.259028,0.2924152,1.19505,0.3476629,-1.113288,0.5818913,4.4,36.9,-0.1079236,0.02735709,0.06781673,-0.4587684,-3.17527,-0.6841778,0.4286806,1.339353,0.2687867,-0.04713019,0.1107332,0.01105235,-0.548388,0.2128159,0.212525,0.5759624,1.393113,0.1405358,-0.03057089,1.220501,0.2735206,274.5687,353.3626,264.096,True
2,3.088884,-0.145594,-0.1432683,-0.02652823,-1.559036,1.508799,-2.257594,0.2919513,1.195171,0.3476081,-1.107175,0.5498953,4.4,36.9,-0.09310874,0.01458566,0.05701237,-0.4584669,-3.175498,-0.6833853,0.4283478,1.339254,0.268743,-0.05779856,0.1160695,0.009032279,-0.5480418,0.2154396,0.2112539,0.5757515,1.393078,0.1405914,-0.03148305,1.219232,0.2731734,274.535,350.2845,267.1537,True
2,3.099995,-0.141334,-0.1326245,-0.02871497,-1.55798,1.509178,-2.25626,0.2915227,1.195279,0.3474686,-1.10092,0.5631649,3.7,34.7,-0.08698623,0.001939818,0.01964116,-0.4590235,-3.177594,-0.6807775,0.4279924,1.339244,0.2686274,-0.07697708,0.1139581,0.009237401,-0.5476609,0.2175273,0.2110137,0.5754195,1.393102,0.1406374,-0.03234735,1.217893,0.2727988,274.5116,346.9662,270.4443,True
2,3.111106,-0.1328224,-0.1027627,-0.0235462,-1.557831,1.509107,-2.255048,0.2911217,1.195284,0.3473563,-1.095063,0.526623,3.7,34.7,-0.07616142,0.01567953,0.04199805,-0.4584925,-3.174715,-0.6828486,0.4275888,1.33924,0.2684767,-0.08869888,0.1086471,0.009365037,-0.5473169,0.2194458,0.2107258,0.5752106,1.393096,0.1406708,-0.03314914,1.216476,0.2724088,274.4682,343.2525,274.1044,True
2,3.122217,-0.1211155,-0.07399441,-0.02369973,-1.557737,1.508787,-2.254081,0.2906588,1.195352,0.3473206,-1.089083,0.5382345,3.7,34.7,-0.083437,0.05398088,0.05712355,-0.4585942,-3.169413,-0.6865805,0.4272304,1.339197,0.2683036,-0.08539663,0.1043903,0.01998263,-0.5465509,0.2212261,0.2100331,0.5750229,1.393085,0.1407266,-0.0339363,1.215018,0.2720345,274.4776,339.1479,278.1399,True
2,3.133328,-0.09876242,-0.01531799,-0.00909372,-1.559381,1.507926,-2.253675,0.2903528,1.195374,0.3471835,-1.083102,0.5382395,3.7,34.7,-0.09086996,0.06678087,0.05615904,-0.4588738,-3.166889,-0.6876423,0.4269515,1.339155,0.2681518,-0.08965176,0.09800102,0.02109775,-0.5461025,0.222651,0.2099479,0.5748748,1.393013,0.1408417,-0.03473055,1.213551,0.2717164,274.5693,335.2002,282.0226,True
2,3.144439,-0.0763995,0.02738504,0.006649528,-1.56105,1.507186,-2.252542,0.2895684,1.19537,0.3468661,-1.077236,0.5276479,3.1,29.7,-0.1024027,0.06882525,0.08394307,-0.4577463,-3.160128,-0.6910179,0.4263561,1.33893,0.2679081,-0.08970629,0.109725,0.01470716,-0.5452151,0.2280093,0.2073559,0.5744619,1.392865,0.1411886,-0.03555179,1.212093,0.2715101,274.7167,331.7645,285.3967,True
2,3.15555,-0.0763995,0.02738504,0.006649528,-1.56105,1.507186,-2.252542,0.2895684,1.19537,0.3468661,-1.071001,0.5614637,3.1,29.7,-0.1024027,0.06882525,0.08394307,-0.4577463,-3.160128,-0.6910179,0.4263561,1.33893,0.2679081,-0.08970629,0.109725,0.01470716,-0.5452151,0.2280093,0.2073559,0.5744619,1.392865,0.1411886,-0.03650175,1.210678,0.2714665,274.9169,328.8728,288.2581,True
2,3.166661,-0.06682014,0.05406074,0.01289837,-1.56246,1.506432,-2.252058,0.2891886,1.195351,0.3466604,-1.065932,0.4546894,3.1,29.7,-0.09927038,0.06138951,0.07643634,-0.4575252,-3.158628,-0.6913843,0.4260781,1.338784,0.2677405,-0.08324283,0.1097177,0.02102795,-0.5445477,0.230064,0.2062368,0.5742491,1.392823,0.1412764,-0.03752461,1.209313,0.2716023,275.2063,326.7708,290.4107,True
2,3.177772,-0.07000979,0.07117951,0.02772864,-1.564029,1.506197,-2.251172,0.2888011,1.195325,0.3465154,-1.059567,0.5740867,3.1,29.7,-0.07391184,0.03160737,0.05271241,-0.4573271,-3.160151,-0.6901121,0.4257137,1.338584,0.2677417,-0.07579464,0.1086468,0.01989065,-0.5440529,0.2321603,0.2049766,0.573921,1.392697,0.1414258,-0.03818008,1.20785,0.2718423,275.4056,324.8235,292.4635,True
2,3.188883,-0.07321082,0.09146912,0.03721846,-1.565828,1.505682,-2.250201,0.2884277,1.195197,0.3462799,-1.053534,0.5427892,3.1,29.7,-0.07637939,0.001962781,0.009998152,-0.4577383,-3.163384,-0.6862527,0.4253674,1.338398,0.2676418,-0.07675819,0.1129105,0.02948855,-0.5431197,0.2345555,0.2038748,0.5736551,1.392664,0.1414363,-0.03879967,1.206343,0.2721414,275.6416,323.1372,294.2778,True
2,3.199994,-0.07640197,0.09787724,0.04145129,-1.567142,1.505378,-2.249291,0.2880331,1.195173,0.3461192,-1.047342,0.5578046,4.6,35.7,-0.07204334,-0.003422849,0.02273681,-0.4570485,-3.162616,-0.6862702,0.4249294,1.338413,0.2675884,-0.06703826,0.1182326,0.04110175,-0.5419416,0.2370734,0.2020772,0.5732805,1.392622,0.1415355,-0.03948717,1.204826,0.2724602,275.9359,321.6758,295.8766,True
2,3.211105,-0.07746798,0.1010644,0.03930478,-1.568318,1.504867,-2.248404,0.2876066,1.195125,0.3459206,-1.041581,0.5184357,4.6,35.7,-0.07604246,0.01028895,0.05903991,-0.455865,-3.1585,-0.6890008,0.424539,1.33839,0.2673268,-0.05638751,0.1139665,0.04099594,-0.5412124,0.2391797,0.2005062,0.572989,1.392577,0.1415911,-0.04024671,1.203336,0.2727353,276.2612,320.2813,297.4138,True
2,3.222216,-0.07640547,0.1042598,0.03929237,-1.569578,1.504483,-2.247586,0.2872027,1.195024,0.3457971,-1.036112,0.4919735,4.6,35.7,-0.09421466,0.01569743,0.0463958,-0.4560551,-3.157915,-0.6879797,0.4242344,1.338269,0.2672129,-0.04792066,0.1043683,0.03664869,-0.5408129,0.2406114,0.1995025,0.5727327,1.392478,0.1417346,-0.04104245,1.2019,0.272916,276.575,318.9769,298.8431,True
2,3.233327,-0.07319602,0.09154645,0.0521391,4.712477,1.504899,-2.246913,0.2866793,1.194992,0.3457229,-1.0307,0.487082,4.6,35.7,-0.1101978,0.04559319,0.0370302,-0.4570943,-3.155632,-0.6882356,0.4240221,1.337884,0.2672057,-0.05136634,0.09264228,0.01431746,-0.5412928,0.2418222,0.1991789,0.5724393,1.392365,0.1420381,-0.04184231,1.200541,0.2729793,276.8471,317.6147,300.2809,True
2,3.244438,-0.07105789,0.07130274,0.0511676,4.712112,1.50517,-2.2462,0.2860872,1.19486,0.3457301,-1.025388,0.4780625,4.6,35.7,-0.102455,0.06566256,0.07540803,-0.4563151,-3.150176,-0.6922288,0.4236251,1.337667,0.2672839,-0.0566781,0.1054331,0.01436668,-0.5408225,0.2449252,0.1973133,0.5721475,1.392181,0.1423664,-0.04262453,1.199259,0.2729403,277.0768,316.4249,301.4868,True
2,3.255549,-0.0721231,0.061688,0.04588991,4.711644,1.5052,-2.245369,0.2854966,1.194746,0.3456347,-1.0202,0.4667126,3.7,37.7,-0.08551872,0.04650515,0.06349707,-0.4560786,-3.150156,-0.6919457,0.4231289,1.337361,0.2673421,-0.06080962,0.140593,0.02291986,-0.5397306,0.2498495,0.1938621,0.5718629,1.391996,0.1427011,-0.04336807,1.198034,0.2728301,277.2919,315.5204,302.3661,True
2,3.26666,-0.07638162,0.05525251,0.03634084,4.711166,1.504966,-2.244436,0.285002,1.194582,0.3455844,-1.014873,0.4796036,3.7,37.7,-0.08475105,-0.004511192,0.03345699,-0.4555028,-3.154275,-0.6873264,0.4225622,1.337147,0.2674501,-0.0692977,0.1736292,0.02299672,-0.5389162,0.2555701,0.1899963,0.571456,1.391789,0.1430342,-0.04412283,1.196843,0.2726448,277.4759,314.7814,303.0732,True
2,3.277771,-0.08597737,0.05733176,0.02674863,4.710628,1.504492,-2.243117,0.2844617,1.194465,0.3454306,-1.009489,0.484756,3.7,37.7,-0.104052,-0.05558936,0.02804649,-0.4539662,-3.158076,-0.6822236,0.4219961,1.336884,0.2674737,-0.07780501,0.1778986,0.02415638,-0.5381684,0.2593215,0.1879446,0.5710728,1.391602,0.1433287,-0.04492439,1.195632,0.2724059,277.6089,313.9728,303.8283,True
2,3.288882,-0.09024518,0.06476869,0.02245534,4.70982,1.503985,-2.241956,0.2837318,1.194264,0.3452823,-1.004159,0.4796959,3.7,37.7,-0.102,-0.06301004,0.01841477,-0.4534692,-3.159708,-0.6796954,0.4213589,1.336623,0.2674758,-0.09806278,0.1725899,0.02330801,-0.5376283,0.2623231,0.1871835,0.5705776,1.391386,0.1435201,-0.04575471,1.19437,0.2721568,277.7583,313.0504,304.6819,True
2,3.299993,-0.103021,0.09896118,0.04359994,4.706491,1.503322,-2.239455,0.282234,1.193866,0.345089,-0.9986039,0.5004644,3.4,37,-0.1206522,0.03376901,0.06900201,-0.4535038,-3.150043,-0.6853022,0.4199851,1.335946,0.2672803,-0.1236036,0.1481112,0.02891018,-0.5365412,0.2669316,0.1868527,0.5695115,1.390947,0.1440806,-0.04657086,1.193043,0.2719562,277.9446,312.0239,305.6418,True
2,3.311104,-0.1094092,0.112879,0.05738167,4.704467,1.503086,-2.23802,0.2815296,1.193623,0.3449361,-0.9926097,0.5404406,3.4,37,-0.126529,0.09959108,0.1279006,-0.4529068,-3.139032,-0.6936169,0.4192685,1.335714,0.2672076,-0.1181899,0.1374582,0.03844642,-0.5355441,0.2690086,0.1861795,0.5690941,1.390657,0.1444564,-0.0476142,1.19172,0.2718451,278.1724,311.1784,306.4718,True
2,3.322215,-0.1094092,0.112879,0.05738167,4.704467,1.503086,-2.23802,0.2815296,1.193623,0.3449361,-0.9882176,0.3936326,3.4,37,-0.126529,0.09959108,0.1279006,-0.4529068,-3.139032,-0.6936169,0.4192685,1.335714,0.2672076,-0.1181899,0.1374582,0.03844642,-0.5355441,0.2690086,0.1861795,0.5690941,1.390657,0.1444564,-0.04915714,1.190497,0.2718336,278.4719,310.8064,306.8714,True
2,3.333326,-0.1211311,0.1555928,0.07847562,4.701008,1.502258,-2.236264,0.2806976,1.193353,0.3448024,-0.9847166,0.3134864,3.4,37,-0.1285184,0.1496395,0.1345093,-0.4537568,-3.130299,-0.6999922,0.4185161,1.335364,0.2671802,-0.1255783,0.1396008,0.04492205,-0.5344576,0.2719314,0.1853648,0.5686612,1.390321,0.1448743,-0.05041128,1.189298,0.2718939,278.7687,310.1949,307.5194,True
2,3.344437,-0.1264653,0.2014983,0.09848389,4.697076,1.501247,-2.234673,0.2798856,1.193098,0.3446167,-0.9783229,0.5784904,3.4,37,-0.1490588,0.09227334,0.1045822,-0.4531134,-3.132021,-0.6962315,0.4179487,1.334993,0.2672322,-0.133091,0.1523874,0.03860384,-0.5338834,0.2759476,0.1836588,0.5682307,1.389984,0.1453261,-0.05100837,1.188039,0.2719831,278.9635,309.426,308.3379,True
2,3.355548,-0.1371206,0.2314247,0.1185831,4.692983,1.500594,-2.23275,0.2790002,1.192718,0.3444304,-0.9727521,0.500918,3.1,36.3,-0.1684129,0.04335931,0.09172966,-0.4518958,-3.132914,-0.6929463,0.417271,1.334495,0.267236,-0.1481685,0.1481343,0.02384964,-0.5338455,0.2788893,0.1833269,0.5676763,1.389609,0.1457465,-0.05165007,1.186821,0.2721064,279.2319,309.3926,308.4246,True
2,3.366659,-0.1520295,0.2357364,0.1292134,4.689788,1.500189,-2.230556,0.2780668,1.192411,0.3442073,-0.9678742,0.438513,3.1,36.3,-0.1725939,0.02838422,0.1087415,-0.4504279,-3.130502,-0.6930126,0.4165568,1.334018,0.2673504,-0.1470965,0.1545241,0.0238332,-0.5332565,0.282516,0.181826,0.5671359,1.389287,0.1461384,-0.05259264,1.185728,0.272274,279.5868,309.8011,308.0773,True
2,3.37777,-0.1648107,0.2325449,0.131373,4.686868,1.499941,-2.228275,0.2771252,1.192035,0.3440499,-0.9625916,0.4759969,3.1,36.3,-0.164353,0.0210754,0.06816999,-0.4509328,-3.131094,-0.6909353,0.415723,1.333549,0.2674363,-0.1341371,0.1523924,0.04074331,-0.5318919,0.2855066,0.1802995,0.5665268,1.388877,0.1465728,-0.05376993,1.184773,0.2724665,279.9298,310.3475,307.6196,True
2,3.388881,-0.1797149,0.2048437,0.132583,4.684944,1.500329,-2.225726,0.2762501,1.191707,0.3439174,-0.9573393,0.472856,3.1,36.3,-0.1624776,-0.01503839,0.0403135,-0.4504817,-3.134348,-0.6861799,0.414978,1.333066,0.2673995,-0.1213125,0.1577065,0.04380316,-0.5309198,0.2890652,0.1781037,0.565915,1.388584,0.1469309,-0.05507234,1.18393,0.2726299,280.2196,310.9531,307.1267,True
2,3.399992,-0.1924877,0.1675304,0.1274509,4.683691,1.500939,-2.223125,0.2753728,1.191411,0.343791,-0.9523054,0.4530171,3.1,36.3,-0.1634686,-0.01828119,0.05309107,-0.449434,-3.133169,-0.6853155,0.4142458,1.332615,0.2674394,-0.1193903,0.1747443,0.0224745,-0.5309374,0.2943429,0.1748949,0.5653177,1.388293,0.1473219,-0.05639147,1.183172,0.2727011,280.4381,311.3768,306.802,True
2,3.411103,-0.2010007,0.1184648,0.115988,4.683297,1.50186,-2.220582,0.2745406,1.191143,0.3436465,-0.9471426,0.4649311,2.7,37.5,-0.1838805,-0.00534305,0.02344467,-0.4502313,-3.133528,-0.6822188,0.4135679,1.332138,0.2673917,-0.1174117,0.1619536,0.009668652,-0.53107,0.2970872,0.1738085,0.5648938,1.387934,0.1477437,-0.05762326,1.182456,0.2726517,280.6023,311.7034,306.5221,True
2,3.422215,-0.1967323,0.0661777,0.09813373,4.683694,1.502786,-2.218539,0.2736964,1.19094,0.3435762,-0.9420554,0.4577526,2.7,37.5,-0.1805677,0.01270758,0.03627984,-0.4500705,-3.131074,-0.6825503,0.4128961,1.331778,0.2674603,-0.1121365,0.1640762,0.004280563,-0.5309432,0.3008072,0.1716125,0.5644031,1.387582,0.1480985,-0.05871097,1.181744,0.2724504,280.7253,311.8138,306.4207,True
2,3.433326,-0.1924717,0.03411905,0.07805073,4.684159,1.503358,-2.216563,0.2728714,1.190759,0.3434715,-0.936981,0.4565433,2.7,37.5,-0.1826573,0.005220428,0.04478597,-0.44932,-3.130259,-0.6812161,0.4122189,1.33134,0.2674608,-0.1100377,0.1651396,0.001058366,-0.5307509,0.3044883,0.1695709,0.5639687,1.387301,0.1485183,-0.05968952,1.181008,0.2720865,280.8132,311.6995,306.5076,True
2,3.444437,-0.1828832,-0.01392476,0.0548457,4.685535,1.504212,-2.214806,0.2719818,1.190687,0.3433936,-0.9322172,0.4281036,2.7,37.5,-0.1848121,0.0009657145,0.04265095,-0.4489818,-3.130611,-0.6786469,0.4114769,1.330993,0.2674711,-0.1218682,0.1619509,-0.009471077,-0.5309736,0.3078389,0.1684031,0.563508,1.386973,0.1488624,-0.06059517,1.180215,0.2715655,280.8669,311.3182,306.8156,True
2,3.455548,-0.1690343,-0.04063151,0.03899074,4.686752,1.504959,-2.213381,0.2711022,1.190618,0.3433151,-0.9269148,0.4774569,3.1,34.8,-0.1729934,0.01368256,0.05433814,-0.4486159,-3.128013,-0.679448,0.4107668,1.330559,0.2674637,-0.1281883,0.1715498,-0.003016699,-0.5304356,0.3123567,0.1662643,0.5629832,1.386676,0.1492629,-0.06148759,1.179315,0.2709401,280.8976,310.6958,307.3012,True
2,3.466659,-0.145593,-0.08549812,0.01256998,4.689079,1.505869,-2.212595,0.2701531,1.190555,0.3433104,-0.9216151,0.4767238,3.1,34.8,-0.1815543,0.0201197,0.04696176,-0.4487298,-3.127009,-0.677967,0.410015,1.330196,0.2674444,-0.1323715,0.173686,0.004484314,-0.5297997,0.3161271,0.1646579,0.5624397,1.38645,0.1497545,-0.06242558,1.178275,0.2702923,280.9556,309.8751,307.9592,True
2,3.47777,-0.1317416,-0.1090194,-0.005428579,4.69103,1.506573,-2.211612,0.2692371,1.19053,0.3433039,-0.9163378,0.47463,3.1,34.8,-0.1878355,0.03499678,0.0587793,-0.4484689,-3.123972,-0.6784323,0.4092744,1.329826,0.2674353,-0.1291248,0.1758128,0.009774618,-0.5292377,0.3200603,0.1626768,0.561883,1.386299,0.1501462,-0.06343507,1.177076,0.2696797,281.0403,308.7753,308.9124,True
2,3.488881,-0.1178975,-0.1400057,-0.02446342,4.693689,1.507364,-2.210694,0.2683973,1.19042,0.3432586,-0.9112767,0.4548028,3.1,34.8,-0.177068,0.04770195,0.07260637,-0.4481099,-3.12057,-0.6798955,0.4085599,1.329593,0.2673919,-0.1387962,0.1704934,0.002421385,-0.5291408,0.3234508,0.1615929,0.5614386,1.3861,0.1505487,-0.06449151,1.175704,0.269146,281.1515,307.5667,310.0039,True
2,3.499992,-0.1157726,-0.1475247,-0.03720989,4.695603,1.507824,-2.209453,0.2676209,1.190386,0.3432662,-0.9053166,0.5371273,3.1,34.8,-0.1741201,0.02652083,0.04055003,-0.4481855,-3.121854,-0.676979,0.4079261,1.329252,0.2673573,-0.1432578,0.1715546,-0.01670598,-0.5296303,0.3274695,0.15984,0.5611587,1.385875,0.1509354,-0.06557046,1.174122,0.2687163,281.262,306.2089,311.2696,True
2,3.511103,-0.1136415,-0.1485866,-0.03721039,4.697103,1.508408,-2.20827,0.2668446,1.190259,0.3433099,-0.8994811,0.525,3.5,30.1,-0.1688939,0.02870533,0.02454477,-0.4486217,-3.1216,-0.6755441,0.4072658,1.328882,0.2673473,-0.1445629,0.1534371,-0.03798488,-0.5304207,0.3298272,0.159338,0.5607421,1.385635,0.1512885,-0.06663674,1.172336,0.26841,281.436,304.7926,312.6337,True
2,3.522214,-0.1147169,-0.1315458,-0.03836418,4.698118,1.50852,-2.206914,0.2661098,1.190127,0.3432965,-0.8932722,0.5592628,3.5,30.1,-0.1484403,0.05838697,0.04903373,-0.4485024,-3.116646,-0.6789466,0.4065111,1.32858,0.2674079,-0.1360497,0.1438411,-0.03807148,-0.5306604,0.3325083,0.1582064,0.5602282,1.385528,0.1516871,-0.06763262,1.170367,0.2682155,281.6595,303.2778,314.1376,True
