loc,t,aDotUA,bDotUA,gDotUA,aUA,bUA,gUA,xUA,yUA,zUA,qE,qDotE,emgA,emgB,aDotSH,bDotSH,gDotSH,aSH,bSH,gSH,xSH,ySH,zSH,aDotUB,bDotUB,gDotUB,aUB,bUB,gUB,xUB,yUB,zUB,xHand,yHand,zHand,aHand,bHand,gHand,enable
0,0,-0.1207269,-0.5668576,-0.1452138,-1.444109,-4.343834,2.920167,0.7346233,1.123427,0.4543836,-1.760575,-0.02096682,0.8,0.1,-0.138605,0.1182547,-0.01905757,-0.6940933,-4.523768,0.1179013,0.7444202,1.35068,0.3871529,-0.09243743,0.08971305,0.0177895,-0.9259806,0.04645978,0.0299563,0.8397608,1.412345,0.2029462,0.5183347,1.006659,0.2867416,297.0469,246.3894,349.808,True
0,0.01111111,-0.1101536,-0.487906,-0.1243517,-1.444093,-4.340628,2.920736,0.7339913,1.123478,0.4541867,-1.760499,0.007078514,0.8,0.1,-0.140681,0.1310476,-0.01897793,-0.6941151,-4.520696,0.1171157,0.7440747,1.350727,0.3870437,-0.09670582,0.08974227,0.01676457,-0.9258197,0.04810628,0.0301571,0.8397677,1.412232,0.2028239,0.5180639,1.006943,0.2859716,297.0151,245.7822,350.2553,True
0,0.02222222,-0.105961,-0.4110694,-0.10135,-1.444179,-4.338565,2.921532,0.733534,1.123502,0.4540012,-1.760532,-0.003184108,0.8,0.1,-0.137367,0.1458927,-0.008260233,-0.6935297,-4.517421,0.1160646,0.7437649,1.350814,0.3869855,-0.1009811,0.0940077,0.01467116,-0.925701,0.04961269,0.03052915,0.8397673,1.412247,0.2028704,0.5178129,1.00728,0.2850147,296.9321,245.4608,350.3983,True
0,0.03333334,-0.1017465,-0.368388,-0.08881126,-1.444183,-4.335511,2.922235,0.7329943,1.123572,0.4539361,-1.760579,-0.004312121,0.6,0.1,-0.1255875,0.1564743,-0.004011143,-0.6931899,-4.514297,0.1147119,0.7434459,1.350845,0.3868618,-0.1041338,0.0971956,0.01682745,-0.9254251,0.0507769,0.03085379,0.8396538,1.412224,0.2030542,0.5176637,1.007622,0.283886,296.8099,245.2063,350.4264,True
0,0.04444445,-0.0922434,-0.2701862,-0.05634506,-1.444532,-4.33599,2.92302,0.7328002,1.123565,0.4538269,-1.760436,0.01308997,0.6,0.1,-0.1127871,0.1660306,-0.007233571,-0.6931319,-4.510828,0.1128565,0.7431518,1.350882,0.386775,-0.1062072,0.09294634,0.02324594,-0.924951,0.05187532,0.03147404,0.8396224,1.412253,0.2031331,0.5176141,1.007944,0.2826885,296.7109,244.9724,350.3497,True
0,0.05555556,-0.09442762,-0.2200551,-0.04384464,-1.444615,-4.334873,2.924106,0.73242,1.12357,0.453784,-1.76033,0.009493533,0.6,0.1,-0.1021871,0.1639004,-0.01476385,-0.6933311,-4.508086,0.1115287,0.7428524,1.350862,0.3866258,-0.1083047,0.09400181,0.02326231,-0.9247299,0.05296308,0.03164075,0.8395069,1.412459,0.2033751,0.517643,1.008242,0.2815543,296.6385,244.7574,350.2405,True
0,0.06666667,-0.08596416,-0.1560454,-0.02929548,-1.444697,-4.335399,2.924852,0.7322321,1.123546,0.4536982,-1.760632,-0.02765788,0.6,0.1,-0.08946349,0.1607033,-0.02338229,-0.6937119,-4.505352,0.1099742,0.7426548,1.350837,0.386564,-0.106142,0.08761212,0.02751043,-0.9242282,0.05386643,0.03218324,0.8394506,1.412496,0.2034883,0.5177085,1.008514,0.2805616,296.5936,244.5246,350.1439,True
0,0.07777778,-0.08389091,-0.09200875,-0.007283702,-1.445106,-4.336205,2.925922,0.7320502,1.123499,0.4537635,-1.760112,0.04771495,0.3,0.2,-0.06924244,0.1552929,-0.02246675,-0.6937013,-4.502872,0.1082434,0.7424901,1.35086,0.386641,-0.09763095,0.08440767,0.02849359,-0.9238783,0.05500107,0.03252758,0.8397058,1.412644,0.2032716,0.5177007,1.008761,0.2798574,296.5435,244.4129,349.993,True
0,0.08888889,-0.08069336,-0.08769038,0.002277773,-1.44562,-4.335459,2.926622,0.7317941,1.123492,0.4536796,-1.760551,-0.04062258,0.3,0.2,-0.05971085,0.1392822,-0.0226118,-0.6938429,-4.501155,0.1072146,0.7422999,1.350854,0.3866138,-0.09127331,0.08332761,0.02523518,-0.9236817,0.05610988,0.03266074,0.8397218,1.412678,0.203341,0.5175382,1.008974,0.2794481,296.5049,244.3387,349.9334,True
0,0.1,-0.0722223,-0.03868603,0.000925174,-1.445249,-4.336471,2.927223,0.7316904,1.123436,0.453521,-1.760273,0.0257937,0.3,0.2,-0.04177723,0.0976865,-0.0261339,-0.6942094,-4.501468,0.1073254,0.7422439,1.350803,0.3866744,-0.07858261,0.08436964,0.01445921,-0.9237664,0.05753839,0.03209588,0.8396491,1.412733,0.2032959,0.5172367,1.009167,0.2793718,296.4591,244.337,349.9039,True
0,0.1111111,-0.06905115,-0.01951684,-0.0002522469,-1.445097,-4.336713,2.927974,0.7315829,1.123325,0.4533799,-1.760366,-0.00879044,0.3,0.2,-0.03869538,0.07319704,-0.02948041,-0.6946169,-4.501091,0.1074221,0.7420948,1.350734,0.3865645,-0.07326565,0.08115298,0.01227231,-0.9237574,0.05834893,0.03202664,0.8394954,1.412621,0.2034788,0.5168115,1.009348,0.2796036,296.4241,244.4822,349.8681,True
0,0.1222222,-0.056295,0.004986132,-0.002528656,-1.444825,-4.337534,2.928264,0.7315924,1.123271,0.4533246,-1.760646,-0.02555418,0.3,0.2,-0.02706876,0.03902949,-0.02334292,-0.6947649,-4.502178,0.1081536,0.7420698,1.350691,0.3865731,-0.05943703,0.07580189,0.01107528,-0.9236301,0.0591532,0.03174967,0.8394711,1.412637,0.2035398,0.5163238,1.009519,0.2799777,296.3888,244.647,349.943,True
0,0.1333333,-0.04672369,0.01778948,-0.0004775031,-1.444754,-4.338025,2.928621,0.7315484,1.123194,0.4532487,-1.760369,0.02546774,0.3,0.1,-0.0196789,0.01020176,-0.01608303,-0.694726,-4.50331,0.1090485,0.7420236,1.350653,0.3865211,-0.04773221,0.07257641,0.009893212,-0.9235853,0.05986906,0.03143169,0.8395166,1.41236,0.2034206,0.5158173,1.009658,0.2804109,296.3249,244.7384,350.1064,True
0,0.1444445,-0.03290049,0.04660853,0.00680903,-1.444755,-4.339519,2.928735,0.7315663,1.123157,0.4532092,-1.760798,-0.03957152,0.3,0.1,-0.006922096,-0.01547627,-0.004580092,-0.694496,-4.505064,0.1100096,0.7420167,1.350617,0.386508,-0.04465046,0.07468633,-0.001859317,-0.9239475,0.06098679,0.03113502,0.8394945,1.412289,0.2034883,0.5153753,1.009757,0.2808271,296.2647,244.8314,350.2377,True
0,0.1555556,-0.02759336,0.06582516,0.01415541,-1.444899,-4.340791,2.929123,0.7316062,1.123213,0.4532449,-1.760663,0.01276009,0.3,0.1,0.001654557,-0.01875991,0.006002413,-0.6941338,-4.505475,0.1100274,0.7419732,1.35058,0.3864729,-0.04363535,0.07362515,-0.008272963,-0.9243811,0.06221797,0.03067349,0.8395778,1.412492,0.2034957,0.5150668,1.009815,0.281201,296.2195,244.9145,350.3161,True
0,0.1666667,-0.01804002,0.1042392,0.02352144,-1.444929,-4.343365,2.929321,0.731716,1.123153,0.4532394,-1.760916,-0.02331381,0.3,0.1,0.003835699,-0.01667069,0.01239126,-0.6938424,-4.505682,0.1100381,0.7419602,1.350488,0.3864522,-0.02881273,0.07039298,-0.01694013,-0.924837,0.06304568,0.03000051,0.8395497,1.412446,0.2035267,0.5148486,1.009819,0.2814797,296.2079,244.9951,350.3365,True
0,0.1777778,-0.02127811,0.1415508,0.02969988,-1.444886,-4.345536,2.929983,0.7317964,1.123126,0.4532804,-1.760551,0.033495,0.3,0.1,0.02735545,-0.01362553,0.02505829,-0.6934312,-4.505975,0.1095989,0.7419224,1.350397,0.3863966,-0.02883676,0.06932794,-0.02014454,-0.925261,0.06406793,0.02957254,0.8395424,1.412597,0.2035151,0.5146964,1.009785,0.2816958,296.2299,245.0714,350.2979,True
0,0.1888889,-0.02555954,0.1628395,0.02745739,-1.444547,-4.348617,2.930848,0.7319394,1.122978,0.4532909,-1.760772,-0.02060989,0.2,0.1,0.04663555,0.003315929,0.03035027,-0.6925902,-4.504952,0.1072636,0.741851,1.350249,0.3863382,-0.03085234,0.06295809,-0.007330854,-0.9248765,0.06468312,0.02966974,0.8394943,1.412606,0.2035234,0.5145755,1.009745,0.2818886,296.2748,245.1323,350.2383,True
0,0.2,-0.04690257,0.1979731,0.02833639,-1.444098,-4.351826,2.932505,0.7321359,1.122706,0.453275,-1.760215,0.05107688,0.2,0.1,0.07650778,0.03308737,0.01967721,-0.6925923,-4.502874,0.1039506,0.7417326,1.350226,0.3863308,-0.03397916,0.05445307,-0.0009048963,-0.9247832,0.06517421,0.02959198,0.839433,1.412647,0.2036011,0.5144088,1.009705,0.2821265,296.2881,245.1912,350.1794,True
0,0.2111111,-0.05864483,0.2203387,0.02927818,-1.443702,-4.354929,2.933899,0.732249,1.122513,0.4531987,-1.760023,0.01707274,0.2,0.1,0.08506887,0.05760493,0.01124106,-0.69249,-4.500714,0.1012033,0.7416257,1.350114,0.3863237,-0.03495757,0.05447794,0.006558435,-0.9245558,0.06616464,0.02925536,0.8393426,1.412761,0.2034903,0.5141565,1.009674,0.2824527,296.2831,245.2432,350.1586,True
0,0.2222222,-0.07786807,0.2672029,0.03115874,-1.443152,-4.359428,2.935955,0.7325624,1.122438,0.4531167,-1.75925,0.07064176,0.2,0.1,0.08414532,0.08954999,0.01461472,-0.6920267,-4.497564,0.09784827,0.7414848,1.350084,0.3862925,-0.03074617,0.06298466,0.0001130335,-0.9247294,0.0674106,0.02871154,0.8392477,1.412751,0.2035475,0.5137817,1.009649,0.2829144,296.2307,245.2958,350.1898,True
0,0.2333333,-0.08427113,0.2778376,0.03003959,-1.442785,-4.362695,2.93749,0.7326108,1.122473,0.4532597,-1.759475,-0.0211638,0.2,0.4,0.07897305,0.1054722,0.02964797,-0.6910061,-4.495113,0.09526713,0.7413437,1.350105,0.3862677,-0.02875184,0.06084115,-0.01375593,-0.9253696,0.06832899,0.02832804,0.839206,1.412686,0.2036068,0.5132672,1.009637,0.283516,296.1736,245.4048,350.2488,True
0,0.2444444,-0.1215954,0.3097095,0.02136264,-1.441801,-4.367161,2.940643,0.7329762,1.122586,0.4533291,-1.759111,0.0335708,0.2,0.4,0.07708164,0.1170262,0.06168165,-0.6890519,-4.492703,0.09264578,0.7413261,1.350216,0.3862884,-0.0290508,0.04908781,-0.04143565,-0.9267252,0.06862766,0.02855495,0.8391043,1.41269,0.2036369,0.5126492,1.009682,0.2842388,296.1426,245.5565,350.3273,True
0,0.2555556,-0.1652853,0.3170908,0.01709192,-1.44127,-4.3707,2.944281,0.7332633,1.122733,0.4535341,-1.759518,-0.03742735,0.2,0.4,0.1049868,0.1081861,0.1008779,-0.6866407,-4.491725,0.08976264,0.7413827,1.35036,0.3863859,-0.0258381,0.04269898,-0.04039825,-0.9271423,0.06909731,0.02821166,0.8389976,1.412835,0.2034843,0.5119768,1.009855,0.2851066,296.1462,245.7258,350.4088,True
0,0.2666667,-0.192994,0.3255663,0.0138664,-1.440558,-4.374576,2.94782,0.7335542,1.122821,0.4536896,-1.758221,0.1189933,0.2,0.4,0.1327699,0.0791465,0.1325123,-0.68419,-4.492224,0.0877405,0.7415838,1.35053,0.3864424,-0.01401609,0.02991313,-0.02771692,-0.9270091,0.06903233,0.02805054,0.8389107,1.412871,0.2034485,0.5112891,1.010203,0.2861022,296.1223,245.8649,350.5219,True
0,0.2777778,-0.2398883,0.3489637,0.01589137,-1.439872,-4.379151,2.952471,0.7339398,1.122856,0.4537787,-1.757664,0.05001265,0.2,0.4,0.1529703,0.06306385,0.1365647,-0.6825852,-4.492218,0.08546004,0.7417527,1.350707,0.3864346,-0.007637141,0.0118085,-0.02669257,-0.9272914,0.06872939,0.02801246,0.8388586,1.412754,0.203203,0.510613,1.01078,0.2872168,296.0702,245.9851,350.6831,True
0,0.2888889,-0.2846742,0.3969322,0.02949946,-1.439487,-4.385096,2.957751,0.734332,1.122915,0.4538715,-1.758024,-0.03296822,0.2,0.4,0.1740836,0.01826462,0.1319315,-0.6814709,-4.494481,0.08448666,0.7419685,1.350919,0.3864534,0.01238013,-0.02872485,-0.04175536,-0.9283434,0.06663455,0.02846174,0.8388001,1.412748,0.2030714,0.5099143,1.011636,0.2883693,295.9549,246.1296,350.8454,True
0,0.3,-0.324154,0.4715858,0.05147853,-1.439366,-4.392864,2.96366,0.7347811,1.123004,0.4538684,-1.757332,0.06377443,0.2,0.4,0.1748552,-0.03278255,0.1156749,-0.680835,-4.497717,0.085039,0.7422743,1.351008,0.3865018,0.02809327,-0.07564554,-0.06102716,-0.9297431,0.06383464,0.02922846,0.8387359,1.412614,0.2027762,0.5091618,1.012753,0.2894897,295.7227,246.2679,351.022,True
0,0.3111111,-0.349795,0.5482794,0.05638765,-1.438582,-4.401291,2.969331,0.7352331,1.123128,0.4538467,-1.757115,0.01941428,0.2,0.4,0.1737634,-0.04023354,0.1156409,-0.6795945,-4.498856,0.08401448,0.7425258,1.351139,0.3865426,0.04407582,-0.08631486,-0.06010794,-0.9303769,0.06256684,0.02887373,0.8385937,1.412777,0.2027969,0.508307,1.014094,0.2905486,295.4216,246.4229,351.1589,True
0,0.3222222,-0.3840187,0.6771543,0.05781884,-1.437233,-4.413255,2.97634,0.7357622,1.123289,0.4537506,-1.757066,0.004708958,0.2,0.4,0.1618602,-0.09667131,0.1196747,-0.6783002,-4.503673,0.08631971,0.7430357,1.351273,0.3866038,0.06867518,-0.0969953,-0.04862132,-0.9305767,0.06079171,0.02837625,0.838496,1.41274,0.2026761,0.5072718,1.015655,0.2915872,295.0916,246.6303,351.2068,True
0,0.3333333,-0.3840187,0.6771543,0.05781884,-1.437233,-4.413255,2.97634,0.7357622,1.123289,0.4537506,-1.75773,-0.06061199,0.2,0.4,0.1618602,-0.09667131,0.1196747,-0.6783002,-4.503673,0.08631971,0.7430357,1.351273,0.3866038,0.06867518,-0.0969953,-0.04862132,-0.9305767,0.06079171,0.02837625,0.838496,1.41274,0.2026761,0.5060109,1.017437,0.2927052,294.7288,246.8775,351.2357,True
0,0.3444445,-0.435318,0.8433498,0.0686397,-1.435287,-4.436889,2.990588,0.7367637,1.123618,0.4536891,-1.762519,-0.4371397,0.1,0.1,0.1775148,-0.1840951,0.1212432,-0.6761734,-4.514367,0.09031232,0.7439957,1.351524,0.3866572,0.08550682,-0.1204737,-0.06580482,-0.9326577,0.05689923,0.02835654,0.8382459,1.412798,0.2023163,0.504666,1.019404,0.2939518,294.2761,247.1377,351.4218,True
0,0.3555556,-0.472726,0.9691037,0.08394004,-1.434512,-4.452462,2.999281,0.7373633,1.123692,0.4536576,-1.752493,0.920455,0.1,0.1,0.2123152,-0.2608771,0.1120946,-0.6757824,-4.523333,0.09374167,0.7446363,1.351606,0.3867128,0.08747645,-0.1375258,-0.07858366,-0.9339956,0.0545462,0.02879037,0.8382032,1.412639,0.2019243,0.5035263,1.021286,0.2952194,293.6928,247.1517,351.676,True
0,0.3666667,-0.5186405,1.087457,0.1110053,-1.434432,-4.469429,3.009107,0.7378145,1.123772,0.4536431,-1.756722,-0.3947085,0.1,0.1,0.232058,-0.3417486,0.08064492,-0.6767007,-4.534141,0.09879209,0.7452675,1.351711,0.3867388,0.09057482,-0.156715,-0.08498207,-0.9352649,0.05148143,0.02948093,0.8381135,1.41259,0.201674,0.501535,1.023206,0.2970693,293.456,247.2954,351.6409,True
0,0.3777778,-0.5389142,1.125829,0.1193268,-1.434248,-4.483186,3.017616,0.7381307,1.123846,0.4537289,-1.757055,-0.02574797,0.1,0.1,0.2296857,-0.3906898,0.07080693,-0.6769415,-4.543979,0.103945,0.745793,1.351842,0.3867965,0.1012267,-0.1716282,-0.08188412,-0.9362604,0.04876474,0.02963672,0.8380543,1.412622,0.2013743,0.4990812,1.025418,0.2997202,293.1034,247.6591,351.8436,True
0,0.3888889,-0.5655574,1.142911,0.130967,-1.434569,-4.497042,3.026887,0.7383791,1.123898,0.4536641,-1.756488,0.05198746,0,0.2,0.2273557,-0.432186,0.06314771,-0.677089,-4.554221,0.1094405,0.746281,1.351916,0.3867531,0.1129696,-0.1844225,-0.07665281,-0.9369171,0.04564831,0.02985377,0.837903,1.412604,0.2010989,0.4963242,1.027902,0.3031466,292.6254,248.2985,352.093,True
0,0.4,-0.5762048,1.135462,0.1342091,-1.434771,-4.509501,3.035393,0.7386688,1.123955,0.4535723,-1.757688,-0.1099022,0,0.2,0.219878,-0.4374753,0.0621039,-0.676852,-4.562063,0.1133042,0.7466798,1.352013,0.386708,0.116205,-0.1876143,-0.0734878,-0.9377406,0.04306291,0.02977387,0.8377843,1.41261,0.2007647,0.4933222,1.030656,0.3072188,292.0586,249.2188,352.3391,True
0,0.4111111,-0.586823,1.100279,0.1312169,-1.435041,-4.520583,3.043876,0.7387078,1.124008,0.4534204,-1.757413,0.02633519,0,0.2,0.2019026,-0.4150842,0.07085715,-0.6761675,-4.568323,0.1166654,0.7470146,1.352117,0.3866248,0.1151904,-0.1865376,-0.06814884,-0.9383195,0.0406184,0.03003753,0.8376764,1.41255,0.2005231,0.4903888,1.033608,0.3116355,291.3862,250.2141,352.7048,True
0,0.4222222,-0.5910496,1.057608,0.1208069,-1.434956,-4.530894,3.052008,0.738831,1.124055,0.4533236,-1.758229,-0.07462217,0,0.2,0.1871515,-0.3820435,0.07858102,-0.67535,-4.573237,0.1190968,0.7474225,1.352204,0.3865848,0.1162008,-0.1822937,-0.07455974,-0.9395057,0.0382386,0.03010064,0.8376272,1.412475,0.2000957,0.4876215,1.036653,0.3160225,290.6884,251.2863,353.0355,True
0,0.4333333,-0.5995531,1.030909,0.1103096,-1.434901,-4.541611,3.060506,0.7389177,1.124074,0.4531238,-1.758399,-0.0147468,0,0.2,0.162924,-0.329825,0.09179378,-0.673996,-4.576166,0.1205799,0.7476591,1.352284,0.3864539,0.1140215,-0.1801587,-0.07879937,-0.9405608,0.03602058,0.03036456,0.8375008,1.412404,0.1998389,0.485165,1.039684,0.3200373,289.9803,252.2666,353.3596,True
0,0.4444444,-0.6208827,1.059665,0.1133506,-1.435238,-4.554844,3.06994,0.7390171,1.124065,0.4528618,-1.758845,-0.04056508,0.1,0.2,0.1376974,-0.249871,0.09876712,-0.6726788,-4.576332,0.1201291,0.7478504,1.352484,0.3863435,0.1097191,-0.1759026,-0.08409633,-0.9418706,0.0337308,0.03057442,0.8373841,1.412299,0.1995137,0.4829902,1.042586,0.3233855,289.3076,253.0441,353.6511,True
0,0.4555556,-0.6251348,1.044636,0.09426817,-1.434884,-4.56598,3.07848,0.7389469,1.124278,0.4527769,-1.758744,0.009672357,0.1,0.2,0.126142,-0.2114924,0.1011726,-0.6716258,-4.578254,0.1205783,0.7481294,1.35252,0.3862076,0.1012233,-0.1758796,-0.08081462,-0.942693,0.03138988,0.03120346,0.837315,1.41222,0.199218,0.4811445,1.045283,0.3259644,288.6894,253.5188,353.9208,True
0,0.4666667,-0.6134012,1.021129,0.07947725,-1.434581,-4.576537,3.086316,0.7386814,1.124338,0.4525137,-1.758298,0.04077474,0.1,0.2,0.1113381,-0.1858875,0.1045982,-0.670455,-4.58038,0.1216543,0.7483908,1.352631,0.3860922,0.1055229,-0.1812238,-0.07551661,-0.9432975,0.02835454,0.03169747,0.8371459,1.412053,0.1987071,0.4794565,1.04775,0.3278455,288.165,253.763,354.0877,True
0,0.4777778,-0.5974052,1.00087,0.0731908,-1.434646,-4.587022,3.093728,0.7386144,1.124342,0.4522846,-1.759035,-0.06761605,0.1,0.2,0.09007081,-0.168735,0.09949086,-0.6697397,-4.582528,0.1231334,0.7485654,1.352666,0.385947,0.1065973,-0.1822899,-0.07445765,-0.944114,0.02582001,0.03194994,0.8370478,1.411951,0.1984084,0.4777319,1.050063,0.3293106,287.7572,253.8878,354.1537,True
0,0.4888889,-0.5813847,0.9604045,0.07339093,-1.434963,-4.596308,3.100883,0.7382618,1.124393,0.45206,-1.759866,-0.07538344,0.1,0.2,0.08049092,-0.1655012,0.09956726,-0.6688444,-4.585572,0.1250479,0.7487698,1.35279,0.3857827,0.1033964,-0.1833307,-0.07443452,-0.9451393,0.02361585,0.0322405,0.8370863,1.412035,0.1980324,0.4759701,1.052309,0.330598,287.3947,253.8159,354.3719,True
0,0.5,-0.5717715,0.9380859,0.08095938,-1.435784,-4.60605,3.108224,0.7380404,1.124422,0.4517541,-1.760395,-0.04759878,0,0.2,0.07297946,-0.1771745,0.09634718,-0.6682894,-4.589672,0.1275582,0.7489307,1.352942,0.3855963,0.1001056,-0.1801416,-0.08185644,-0.9463196,0.02133884,0.03293984,0.8369232,1.411925,0.1975229,0.4741871,1.054502,0.3318724,286.9853,253.7425,354.6438,True
0,0.5111111,-0.5600147,0.9018843,0.08222136,-1.436493,-4.614692,3.115087,0.7376271,1.124471,0.4515002,-1.760503,-0.009669462,0,0.2,0.07075165,-0.1941815,0.09094229,-0.6678734,-4.594289,0.1304656,0.7490493,1.353036,0.3854492,0.0905468,-0.1726623,-0.07962821,-0.9470015,0.01938901,0.03350257,0.8366861,1.411881,0.1972313,0.4725038,1.056626,0.3332798,286.5453,253.835,354.8275,True
0,0.5222223,-0.5482637,0.8656387,0.07601241,-1.436784,-4.622987,3.12186,0.7371781,1.124485,0.4512584,-1.760327,0.01613379,0,0.2,0.06648679,-0.2005657,0.09412578,-0.6670702,-4.598262,0.1329972,0.7491224,1.353067,0.3853471,0.08520183,-0.1715773,-0.07956924,-0.9478078,0.01730442,0.03425704,0.8365815,1.4118,0.1967535,0.4708278,1.058669,0.3348424,286.1284,254.1034,354.9253,True
0,0.5333334,-0.5375608,0.8272916,0.07515223,-1.437467,-4.630757,3.128349,0.7366253,1.124627,0.4509461,-1.760576,-0.02290045,0,0.2,0.07620752,-0.1772083,0.1016502,-0.6658121,-4.600327,0.1334412,0.7492108,1.353162,0.385206,0.06612914,-0.1630109,-0.07086262,-0.9482659,0.01550093,0.03528049,0.8363945,1.411721,0.1964836,0.4691564,1.06065,0.3365694,285.7508,254.5257,354.9547,True
0,0.5444446,-0.5279592,0.810252,0.07417862,-1.438154,-4.63919,3.13498,0.7362374,1.124682,0.4506981,-1.760582,-0.0003461767,0,0.1,0.08162959,-0.1644891,0.1091452,-0.6644965,-4.602831,0.1342776,0.7493962,1.353265,0.3851109,0.06194952,-0.1587275,-0.06123652,-0.9486079,0.01360276,0.03614469,0.8362067,1.411542,0.1961567,0.4674505,1.06258,0.3384025,285.3825,254.9212,355.066,True
0,0.5555557,-0.5119438,0.7815183,0.07538072,-1.439019,-4.646825,3.14101,0.7357184,1.124777,0.4503474,-1.760711,-0.01189512,0,0.1,0.08921288,-0.1464587,0.118785,-0.6629524,-4.604702,0.1344995,0.7493364,1.353449,0.3849583,0.06302883,-0.1544649,-0.06018352,-0.9492263,0.01175972,0.03653404,0.835933,1.411496,0.195838,0.4657168,1.064461,0.3402752,285.0304,255.2789,355.2336,True
0,0.5666668,-0.498063,0.7613081,0.07763409,-1.440031,-4.654584,-3.13625,0.7351108,1.124846,0.4500852,-1.760588,0.01126128,0,0.1,0.08820459,-0.1368827,0.1220356,-0.6617146,-4.606885,0.1352846,0.7493404,1.35359,0.3847806,0.06403856,-0.1566211,-0.06336939,-0.9499251,0.009245031,0.03750769,0.8355459,1.411298,0.1955707,0.4639874,1.066322,0.3421183,284.7018,255.7006,355.3272,True
0,0.577778,-0.4873828,0.7506738,0.07875864,-1.441021,-4.662595,-3.130336,0.7346216,1.124912,0.4499133,-1.760972,-0.03529541,0,0.1,0.0807623,-0.144353,0.1294985,-0.6602791,-4.610368,0.137462,0.7493575,1.353728,0.384625,0.06821647,-0.1577,-0.07086702,-0.9510638,0.007152585,0.03788719,0.8352557,1.411206,0.1952422,0.4623348,1.068177,0.3439207,284.3691,256.1469,355.3724,True
0,0.5888891,-0.477796,0.7549747,0.08405487,-1.44223,-4.671153,-3.124335,0.7341359,1.125022,0.4496205,-1.761021,-0.004180868,0,0.1,0.07117815,-0.1560858,0.1380162,-0.6587489,-4.614496,0.1403845,0.7493982,1.353878,0.3844187,0.05646412,-0.165127,-0.07288159,-0.9521403,0.004766393,0.03911891,0.835192,1.411111,0.1950297,0.4607189,1.070026,0.3456246,284.0224,256.6097,355.385,True
0,0.6000003,-0.4703299,0.7635328,0.08825974,-1.44352,-4.68017,-3.118262,0.7336742,1.125145,0.4492421,-1.760936,0.007675423,0,0.1,0.06900188,-0.1571096,0.1316334,-0.6577784,-4.617723,0.1422261,0.7493393,1.354058,0.3842893,0.05016694,-0.1565706,-0.06644171,-0.9527187,0.003255448,0.03946405,0.8349247,1.411205,0.194927,0.4591204,1.071855,0.3472282,283.6668,257.0054,355.3889,True
0,0.6111114,-0.4628753,0.769968,0.09460998,-1.44505,-4.689087,-3.112255,0.7331594,1.125281,0.4489357,-1.760786,0.01356251,0,0.1,0.06359905,-0.1591641,0.1210029,-0.657111,-4.621004,0.1443415,0.7492247,1.354199,0.3841491,0.05134133,-0.1363217,-0.05901892,-0.9530889,0.002379667,0.03937351,0.8346351,1.411136,0.1947124,0.457582,1.073654,0.3487908,283.3242,257.3553,355.3789,True
0,0.6222225,-0.4521922,0.7583215,0.1031949,-1.446792,-4.697204,-3.106671,0.7326261,1.125411,0.4485722,-1.760649,0.01234098,0,0.1,0.05500911,-0.1537295,0.1061733,-0.656679,-4.623733,0.1461841,0.7491516,1.354451,0.3839931,0.04924315,-0.1310151,-0.05687179,-0.9537153,0.0003668504,0.04004436,0.8341892,1.411035,0.1943538,0.4560523,1.075446,0.3503723,283.0083,257.7695,355.316,True
0,0.6333337,-0.4393876,0.7370458,0.1065009,-1.448377,-4.704607,-3.101336,0.7320689,1.125506,0.4481707,-1.760592,0.005093643,0,0.1,0.03156655,-0.1311909,0.09152301,-0.6563451,-4.624849,0.1476544,0.7488929,1.354609,0.3837972,0.0429109,-0.1320589,-0.05041461,-0.9540764,-0.001417201,0.04086141,0.8338642,1.41095,0.1940832,0.4545053,1.077256,0.3520229,282.7056,258.2438,355.2273,True
0,0.6444448,-0.4361394,0.7275229,0.1097618,-1.449958,1.570451,-3.095852,0.7315729,1.125412,0.4478071,-1.760813,-0.02035539,0,0.1,0.03588562,-0.1355312,0.1031907,-0.6550189,-4.627966,0.1494963,0.7486758,1.354697,0.3835728,0.04179911,-0.1342216,-0.05358772,-0.9547789,-0.00384667,0.04199832,0.8335139,1.410985,0.1936054,0.4529424,1.079106,0.3537624,282.3955,258.8463,355.0548,True
0,0.655556,-0.430813,0.7264636,0.1097555,-1.451559,1.562412,-3.090288,0.7310126,1.125438,0.4473493,-1.76089,-0.006921662,0,0.1,0.04024668,-0.1217404,0.1106953,-0.653625,-4.629781,0.1502894,0.7484312,1.354799,0.3833289,0.0427339,-0.122522,-0.06852587,-0.9561654,-0.004864797,0.04208141,0.8331904,1.410895,0.1932998,0.4514259,1.080982,0.3555333,282.0517,259.5862,354.8138,True
0,0.6666671,-0.421205,0.7457448,0.1170754,-1.453307,1.552757,-3.084828,0.7303511,1.12554,0.4470139,-1.76072,0.01548298,0,0.1,0.04790209,-0.09843493,0.1288813,-0.6516425,-4.630787,0.1502625,0.7481232,1.354885,0.3830619,0.03002591,-0.1108016,-0.06415007,-0.9567518,-0.006227536,0.04284014,0.8328198,1.410832,0.1929767,0.4499941,1.082833,0.3572529,281.6605,260.2536,354.6475,True
0,0.6777782,-0.4094962,0.7702829,0.1190557,-1.455158,1.543257,-3.079684,0.7297862,1.12557,0.4465508,-1.760509,0.01910185,0,0.1,0.0545269,-0.05270205,0.1386749,-0.6496233,-4.629459,0.1484023,0.7478487,1.354996,0.3828089,0.02053349,-0.1107707,-0.05446745,-0.9570251,-0.007706123,0.04385614,0.8325168,1.410761,0.1926906,0.4486175,1.084605,0.3589163,281.2571,260.8676,354.4817,True
0,0.6888894,-0.3988397,0.7852988,0.1349459,-1.457808,1.534133,-3.074703,0.729067,1.125662,0.4461508,-1.760693,-0.0170103,0,0.1,0.04610585,-0.02817792,0.1399231,-0.6480116,-4.628945,0.1478169,0.747582,1.355103,0.3826072,0.0163962,-0.1054416,-0.04378511,-0.9571896,-0.009229185,0.04459277,0.8322082,1.410758,0.1923118,0.4471792,1.086308,0.3605417,280.9263,261.453,354.284,True
0,0.7000005,-0.3935066,0.7939097,0.149788,-1.460486,1.525249,-3.069591,0.7284523,1.125696,0.4457173,-1.760908,-0.01959109,0,0.1,0.03020119,-0.01001198,0.140124,-0.6463199,-4.628601,0.1477713,0.7472246,1.35525,0.3824065,0.01422415,-0.09375384,-0.05123306,-0.9580945,-0.01032827,0.04494883,0.8319563,1.410646,0.1919363,0.4456073,1.087981,0.3622513,280.6447,262.0153,354.0697,True
0,0.7111117,-0.3881679,0.800418,0.1689257,-1.463807,1.516138,-3.064486,0.7278045,1.125756,0.4452302,-1.760923,-0.001251552,0,0.1,0.02162664,-0.01420531,0.1337608,-0.6451194,-4.629419,0.1484627,0.7468164,1.355425,0.3822074,0.01521848,-0.08631018,-0.05977609,-0.9591417,-0.01112283,0.04516269,0.8315482,1.410553,0.1917169,0.4440037,1.089629,0.3641034,280.369,262.8154,353.6836,True
0,0.7222228,-0.3838936,0.810053,0.1784651,-1.466928,1.507099,-3.059617,0.7270705,1.12577,0.4447322,-1.760638,0.02600253,0,0.1,0.02044728,-0.03440973,0.1272699,-0.6440924,-4.631732,0.1500468,0.7464294,1.355624,0.3819649,0.009854816,-0.07780495,-0.06505282,-0.9599955,-0.01209741,0.04583354,0.8311664,1.410455,0.1913738,0.4423903,1.091265,0.3660842,280.0962,264.0095,352.9817,True
0,0.7333339,-0.3796527,0.8302957,0.178348,-1.469696,1.497327,-3.054563,0.7264971,1.125787,0.444243,-1.760524,0.01012864,0,0.1,0.01928246,-0.047144,0.1186852,-0.6432509,-4.633634,0.1513578,0.7460843,1.35575,0.3817816,-0.006165735,-0.06712475,-0.07023028,-0.9609377,-0.01235281,0.04677523,0.8306558,1.410408,0.1911488,0.4408554,1.092892,0.3681352,279.8258,265.415,352.1259,True
0,0.7444451,-0.376468,0.8557898,0.1664983,-1.472148,1.487011,-3.049627,0.7257231,1.125839,0.4438522,-1.760643,-0.01097354,0,0.1,0.02352753,-0.05462997,0.1207519,-0.6419103,-4.635428,0.1523853,0.7457354,1.355959,0.3815751,-0.003966317,-0.06181579,-0.06599544,-0.9615119,-0.01328638,0.0470514,0.8302246,1.410484,0.1909482,0.4393567,1.094538,0.3702049,279.5572,266.9985,351.1119,True
0,0.7555562,-0.3732626,0.8579403,0.1696769,-1.475028,1.477632,-3.044745,0.7249834,1.125867,0.4434206,-1.760449,0.01774308,0,0.1,0.02461462,-0.04930982,0.1207734,-0.6406362,-4.636377,0.1528191,0.7454123,1.356055,0.3813617,-0.003900066,-0.06393372,-0.05853521,-0.9619071,-0.01417867,0.04766393,0.8297367,1.410445,0.1906755,0.4378815,1.096199,0.3722579,279.2636,268.4607,350.1969,True
0,0.7666674,-0.3679001,0.8451542,0.1697487,-1.477855,1.468999,-3.040251,0.7240565,1.125993,0.4430916,-1.760507,-0.005566675,0,0.1,0.0224621,-0.04607553,0.1154741,-0.6396449,-4.637185,0.1533091,0.7449313,1.356176,0.3812156,-0.0006359667,-0.07354091,-0.05003153,-0.9622208,-0.01606632,0.04859923,0.8292828,1.410255,0.1901572,0.4364324,1.097867,0.3743281,278.9622,269.6345,349.5059,True
0,0.7777785,-0.3561175,0.7897725,0.171123,-1.480573,1.462336,-3.036237,0.7230753,1.126052,0.44277,-1.760394,0.01035248,0,0.1,0.005401358,-0.05988668,0.1208331,-0.6382468,-4.639571,0.1557419,0.744364,1.35631,0.3810527,0.00152947,-0.0788767,-0.04577653,-0.9625431,-0.01752813,0.04933186,0.8287359,1.410265,0.1899216,0.434912,1.099548,0.3764884,278.6576,270.7802,348.821,True
0,0.7888896,-0.3550236,0.7546068,0.1691887,-1.483169,1.45537,-3.031669,0.7221769,1.126153,0.4423902,-1.760615,-0.02028435,0,0.1,-0.005269408,-0.06411222,0.120875,-0.6370633,-4.641502,0.1577585,0.7438688,1.356465,0.3808372,0.003631569,-0.0810117,-0.04792408,-0.9632046,-0.01862535,0.049885,0.8282114,1.410244,0.1896393,0.4333758,1.101235,0.3787141,278.3697,272.345,347.7734,True
0,0.8000008,-0.3549744,0.708745,0.1587891,-1.485183,1.449361,-3.027358,0.7212999,1.126282,0.4420717,-1.760839,-0.02034557,0,0,-0.0008985996,-0.05994909,0.1357853,-0.6351149,-4.642866,0.1586189,0.7433606,1.356627,0.380666,0.0004243776,-0.07676834,-0.04895551,-0.9637256,-0.01978462,0.05079101,0.8276572,1.410245,0.1892562,0.4318209,1.102918,0.3809149,278.0885,274.1658,346.5262,True
0,0.8111119,-0.3496107,0.669229,0.1398272,-1.486685,1.443555,-3.023346,0.7203729,1.126427,0.4417756,-1.76024,0.05481955,0,0,0.004578304,-0.02910535,0.1412452,-0.6332198,-4.641988,0.1576674,0.7427764,1.356797,0.3804426,-0.003797568,-0.06503668,-0.04679925,-0.9641836,-0.02002311,0.05115426,0.827121,1.410174,0.1889782,0.4303493,1.10454,0.3829222,277.8,276.0894,345.182,True
0,0.8222231,-0.3474508,0.6265298,0.126215,-1.488252,1.438339,-3.019235,0.7194359,1.126654,0.4415247,-1.760276,-0.003807986,0,0,0.0003620777,-0.009899069,0.1371125,-0.6318504,-4.641548,0.157502,0.7422843,1.357027,0.3802066,-0.0005813017,-0.05760639,-0.04683901,-0.9647195,-0.02079876,0.05138569,0.8265814,1.410164,0.1888533,0.4289795,1.106091,0.3846474,277.5476,277.7838,343.9852,True
0,0.8333342,-0.345293,0.5955931,0.1178644,-1.489941,1.432995,-3.015104,0.7184328,1.126864,0.4412923,-1.760519,-0.02208963,0,0,-0.002829498,0.006144479,0.1276302,-0.6307239,-4.640767,0.1569931,0.7416953,1.357261,0.3799872,0.002572328,-0.05975398,-0.05005617,-0.965332,-0.02180756,0.05192764,0.8259004,1.410113,0.1885719,0.4277105,1.107577,0.3860506,277.3119,279.0046,343.1421,True
0,0.8444453,-0.3345757,0.5273591,0.1065342,-1.491246,1.429746,-3.011688,0.7173322,1.127168,0.4410655,-1.760337,0.01676741,0,0.1,-0.013422,0.01147722,0.1341182,-0.6289476,-4.640757,0.1574898,0.7411727,1.357482,0.3797331,0.001531363,-0.064009,-0.04684411,-0.9657794,-0.02282968,0.05254257,0.8252699,1.410079,0.1882863,0.4264762,1.109007,0.3871629,277.0881,279.8452,342.5531,True
0,0.8555565,-0.3302775,0.4847055,0.09824711,-1.492506,1.426139,-3.007989,0.7162655,1.127426,0.4408586,-1.76025,0.007699246,0,0.1,-0.01444579,0.007171104,0.1426183,-0.6271814,-4.641526,0.1582024,0.7406146,1.357649,0.3795052,0.003672644,-0.07360032,-0.0447258,-0.9663008,-0.0242369,0.053129,0.8247892,1.410053,0.1880345,0.4252154,1.110412,0.3880506,276.8951,280.612,341.9434,True
0,0.8666676,-0.3249006,0.4207163,0.08476833,-1.493378,1.423984,-3.004494,0.7151721,1.127727,0.4406137,-1.760733,-0.04423694,0,0.1,-0.008087238,-0.009926349,0.1478139,-0.6255057,-4.643297,0.1594965,0.7400863,1.357865,0.379267,0.004646227,-0.07999991,-0.05218207,-0.9671578,-0.02546781,0.05383793,0.8241448,1.410004,0.1877551,0.4238849,1.111827,0.388792,276.715,281.4809,341.2112,True
0,0.8777788,-0.3174108,0.3652514,0.07015603,-1.49393,1.421814,-3.001006,0.7141745,1.128022,0.4403734,-1.760463,0.02503652,0,0.1,-0.002758093,-0.02811844,0.1594012,-0.6235147,-4.645521,0.1611122,0.7395788,1.358091,0.3791115,0.008887291,-0.07470122,-0.05542963,-0.9679691,-0.02643107,0.05409439,0.8235397,1.40996,0.1873891,0.4225497,1.11324,0.3893602,276.5211,282.3357,340.4988,True
0,0.8888899,-0.3099303,0.3225381,0.05121464,-1.494116,1.419746,-2.997673,0.7130134,1.128351,0.4401445,-1.760448,0.001116599,0,0.1,0.01314732,-0.03238701,0.1496931,-0.622311,-4.646691,0.1613356,0.7389678,1.358315,0.3788733,-0.00918667,-0.06400876,-0.05313048,-0.9684857,-0.02665145,0.0550289,0.8228292,1.409968,0.1871138,0.4212406,1.114634,0.3897754,276.3182,283.1001,339.8498,True
0,0.900001,-0.3035192,0.3001176,0.04174716,-1.494679,1.417125,-2.994352,0.7118556,1.128621,0.4399788,-1.760401,0.004205496,0,0.1,0.01746638,-0.01535875,0.1486911,-0.6206795,-4.646544,0.1608627,0.7382838,1.358452,0.3785963,-0.01334822,-0.06399843,-0.04349852,-0.9686471,-0.02771858,0.05590082,0.8221474,1.409912,0.1867251,0.420013,1.115996,0.3900138,276.1145,283.7226,339.3243,True
0,0.9111122,-0.2960437,0.2841357,0.03970095,-1.495448,1.414486,-2.991145,0.7106164,1.128936,0.4397123,-1.760489,-0.008059186,0,0.1,0.01211106,-0.002485931,0.1360093,-0.6194981,-4.646141,0.1605867,0.7376915,1.358569,0.3783081,-0.01429749,-0.06823771,-0.03069777,-0.9685214,-0.02882632,0.05678845,0.8214557,1.40989,0.1864247,0.4188498,1.11732,0.3901016,275.9092,284.0087,339.0819,True
0,0.9222233,-0.2875232,0.2777377,0.03866799,-1.496347,1.411667,-2.98792,0.7095028,1.129248,0.4394538,-1.760493,-0.0003902829,0,0.1,-0.002858657,-0.006653938,0.1296877,-0.6182609,-4.646832,0.1616954,0.7370468,1.358771,0.3779941,-0.00367672,-0.07359277,-0.03292075,-0.9689118,-0.03012834,0.05716129,0.8207076,1.409797,0.1860263,0.4176224,1.118621,0.3901182,275.699,284.0105,339.0607,True
0,0.9333345,-0.2747402,0.2798562,0.03652788,-1.497266,1.408715,-2.985117,0.7083312,1.129465,0.4393237,-1.760545,-0.00481581,0,0.1,-0.007159803,-0.01408855,0.1286028,-0.6170225,-4.647953,0.1628829,0.7364286,1.358952,0.3776608,-0.009119302,-0.07679914,-0.04351382,-0.9698162,-0.03132636,0.05819593,0.8201069,1.409782,0.1856308,0.4162932,1.119903,0.390181,275.5012,284.2188,338.8104,True
0,0.9444456,-0.2694157,0.2819912,0.03651261,-1.49819,1.405563,-2.982033,0.7072154,1.129696,0.4390962,-1.760479,0.006061055,0,0.2,-0.008293524,-0.0268505,0.1253448,-0.615872,-4.649581,0.164357,0.7357701,1.359091,0.3773608,-0.009208411,-0.07894097,-0.05203291,-0.9707712,-0.03243837,0.05891365,0.8193741,1.40973,0.1852856,0.4148871,1.121169,0.3903542,275.3304,284.763,338.2803,True
0,0.9555568,-0.2619637,0.2905314,0.03858564,-1.49921,1.40219,-2.979127,0.7061869,1.129885,0.4388616,-1.760828,-0.03200401,0,0.2,0.0001556389,-0.03430375,0.1188571,-0.6149361,-4.650939,0.1652009,0.735116,1.359221,0.3770747,-0.01128525,-0.06934433,-0.04775899,-0.971085,-0.03291893,0.05945374,0.8186362,1.409628,0.1849141,0.4135081,1.122411,0.3906713,275.1671,285.4047,337.696,True
0,0.9666679,-0.2491492,0.2767512,0.04824056,-1.500418,1.399722,-2.976772,0.7049651,1.130194,0.438657,-1.760518,0.02856705,0,0.2,-0.0008868761,-0.02683647,0.1178385,-0.6137127,-4.65136,0.1655903,0.7344202,1.359357,0.3767769,-0.01647687,-0.05973148,-0.03600088,-0.9710919,-0.0332979,0.06001567,0.8178806,1.409624,0.1846116,0.4121748,1.123605,0.3911679,274.9818,286.2274,336.9683,True
0,0.977779,-0.2427384,0.2661327,0.0525679,-1.50166,1.397244,-2.974219,0.7037827,1.130393,0.4384592,-1.760592,-0.007055002,0,0.2,-0.001920193,-0.004404865,0.1083819,-0.6126506,-4.650278,0.1647277,0.7336994,1.35949,0.3765483,-0.01942516,-0.04797558,-0.01361239,-0.9704027,-0.03343159,0.06035948,0.817199,1.409719,0.1843388,0.4109111,1.124742,0.391841,274.8141,287.3051,336.0536,True
0,0.9888902,-0.2310034,0.2458961,0.05160785,-1.502529,1.395257,-2.971896,0.7026099,1.130701,0.4382043,-1.761003,-0.03760919,0,0.2,-0.008301795,0.0180456,0.09682108,-0.6118932,-4.648998,0.1640584,0.7329335,1.359744,0.3762403,-0.01821479,-0.04369713,0.0002203126,-0.9699296,-0.03387554,0.06076588,0.8163786,1.409716,0.184026,0.409704,1.125832,0.3926604,274.6791,288.7281,334.8614,True
0,1.000001,-0.22246,0.2245757,0.04746666,-1.503262,1.393519,-2.969639,0.7014375,1.130936,0.4378655,-1.760746,0.0237731,0,0.1,-0.0178824,0.02662729,0.09266434,-0.6109142,-4.648206,0.1639567,0.7321428,1.359925,0.3758936,-0.01825448,-0.04796678,-0.004034541,-0.9701869,-0.03477103,0.06133127,0.8156395,1.40975,0.183661,0.4084668,1.126894,0.3935371,274.5645,290.5612,333.3103,True
0,1.011112,-0.2139234,0.1968061,0.0337664,-1.503356,1.392339,-2.967483,0.7002521,1.131204,0.4375701,-1.760802,-0.005417131,0,0.1,-0.02210809,0.02981646,0.09696042,-0.6097568,-4.647816,0.1640347,0.7313048,1.360149,0.3754864,-0.01740193,-0.05438376,-0.02427797,-0.9712202,-0.03563216,0.06193687,0.8149167,1.409832,0.1832156,0.4072133,1.127913,0.3943705,274.4586,292.5021,331.6613,True
0,1.022224,-0.2043176,0.1711732,0.02111399,-1.503285,1.391225,-2.965473,0.6990747,1.131455,0.4372654,-1.760763,0.003509511,0,0.1,-0.02640704,0.01490158,0.1001019,-0.6085866,-4.64873,0.1652191,0.7304565,1.360325,0.3751168,-0.01860572,-0.05440004,-0.03811547,-0.9721385,-0.03631939,0.06255978,0.8141125,1.409836,0.1828723,0.4059722,1.128891,0.3950508,274.3604,294.169,330.2749,True
0,1.033335,-0.2032437,0.1562245,0.01480502,-1.503441,1.390015,-2.963158,0.6978796,1.131664,0.4369793,-1.760725,0.003412096,0,0.1,-0.02648465,0.002148664,0.09470146,-0.6078724,-4.649623,0.16619,0.729602,1.360449,0.3747673,-0.02390775,-0.04800793,-0.03487444,-0.9723856,-0.03689783,0.06362291,0.8133405,1.409594,0.1823018,0.4047574,1.129813,0.3954912,274.2498,295.5317,329.1421,True
0,1.044446,-0.1915248,0.1402025,0.006363203,-1.50342,1.388985,-2.961226,0.6966906,1.131751,0.436691,-1.760771,-0.004292914,0.1,0.1,-0.03402128,-0.008441172,0.08829804,-0.607189,-4.650693,0.1677296,0.7286254,1.360504,0.3743873,-0.03330997,-0.0341206,-0.01881834,-0.9720287,-0.03679583,0.06428684,0.8124882,1.409613,0.1819537,0.4035596,1.130672,0.3956452,274.1276,296.2505,328.5569,True
0,1.055557,-0.1819345,0.1402342,0.01062151,-1.503996,1.387471,-2.959373,0.6954856,1.131874,0.4365025,-1.760394,0.03444448,0.1,0.1,-0.03823632,0.01291532,0.08204354,-0.6063725,-4.649271,0.1670694,0.7275708,1.36056,0.3741105,-0.04055803,-0.01703659,0.0004038939,-0.9713965,-0.03637838,0.06493665,0.8116548,1.409594,0.1816094,0.4023567,1.131466,0.3955365,274.0024,296.5201,328.3075,True
0,1.066668,-0.1691484,0.1498674,0.01694755,-1.504693,1.385579,-2.957832,0.6942724,1.131935,0.4361906,-1.760653,-0.02405121,0.1,0.1,-0.0402906,0.06309262,0.06315068,-0.6058905,-4.645197,0.1642142,0.7265033,1.360521,0.3737535,-0.04346928,0.00111616,0.02598098,-0.9701725,-0.03568809,0.06517901,0.8107772,1.40958,0.181262,0.4011144,1.13221,0.3952442,273.8813,296.6744,328.0933,True
0,1.077779,-0.1627657,0.1637444,0.02112628,-1.505445,1.383437,-2.956094,0.6930115,1.132052,0.4358959,-1.760723,-0.006193066,0.1,0.1,-0.04983557,0.1154735,0.03685688,-0.6059011,-4.639793,0.1605796,0.7254646,1.360501,0.3733673,-0.039083,0.003249902,0.03872374,-0.969282,-0.03577198,0.06559419,0.8098657,1.409629,0.1808956,0.3998506,1.132893,0.3948563,273.7518,296.7322,327.9201,True
0,1.08889,-0.1521121,0.1723458,0.03279172,-1.506602,1.381374,-2.954625,0.691736,1.131985,0.4355464,-1.760969,-0.02250091,0.1,0.1,-0.05732144,0.1283554,0.02418834,-0.6057466,-4.636623,0.1588695,0.7244395,1.360445,0.3729892,-0.03587028,-0.001006577,0.04188962,-0.9687994,-0.03590953,0.0660424,0.8089987,1.409584,0.1805258,0.3985388,1.133528,0.3945094,273.6508,296.9877,327.5296,True
0,1.100002,-0.1393332,0.1776865,0.03275579,-1.507362,1.379335,-2.953377,0.6904864,1.131834,0.4350495,-1.760709,0.0238405,0,0.1,-0.07236131,0.1253143,0.005088611,-0.6060726,-4.634499,0.1584072,0.7233607,1.360331,0.3726151,-0.0327353,0.003242671,0.03439592,-0.9686769,-0.03568583,0.06608288,0.8081282,1.409559,0.1801362,0.3971874,1.134112,0.394304,273.5644,297.5122,326.9304,True
0,1.111113,-0.134006,0.1776975,0.03381747,-1.508098,1.377507,-2.95196,0.6892216,1.13184,0.4346793,-1.760838,-0.01209076,0,0.1,-0.07351467,0.1136394,-0.002425907,-0.6061786,-4.633076,0.1579979,0.7223424,1.360274,0.3723013,-0.03595479,0.008572847,0.0312257,-0.9684127,-0.03534175,0.06641658,0.8072277,1.40957,0.1798954,0.3957875,1.134658,0.3943048,273.4956,298.3142,326.1336,True
0,1.122224,-0.1244214,0.1787619,0.03274821,-1.508923,1.375612,-2.950781,0.687938,1.13179,0.4344022,-1.760969,-0.01196783,0,0.1,-0.07050267,0.09455018,-0.02065803,-0.6069238,-4.632153,0.1579281,0.7212605,1.36016,0.3719327,-0.04116272,0.02670384,0.03977674,-0.9676329,-0.03431496,0.0664456,0.8062847,1.409605,0.1796036,0.3944063,1.135137,0.3944982,273.4125,300.0493,324.5149,True
0,1.133335,-0.111624,0.1648801,0.02535887,-1.509195,1.37429,-2.949937,0.6866065,1.13172,0.4340835,-1.760691,0.02544387,0,0.1,-0.06846249,0.08606511,-0.03030663,-0.6074745,-4.630867,0.1575521,0.720171,1.360103,0.3716307,-0.04214971,0.03844544,0.04616355,-0.9668228,-0.03317606,0.066395,0.805272,1.409655,0.1793361,0.393082,1.135508,0.394812,273.3394,301.9573,322.8037,True
0,1.144446,-0.1041415,0.1393165,0.02549632,-1.509621,1.373679,-2.949031,0.6853019,1.131669,0.4337173,-1.760801,-0.01033605,0,0.1,-0.07180606,0.07765621,-0.0495086,-0.6085701,-4.629597,0.1573899,0.7190182,1.360036,0.3713114,-0.0366447,0.0555014,0.06099988,-0.9655865,-0.03178403,0.06585731,0.8043054,1.409671,0.1790705,0.3917634,1.135802,0.395198,273.3219,303.2949,321.652,True
0,1.155557,-0.09879665,0.118001,0.02454909,-1.509986,1.373246,-2.948123,0.6840004,1.131593,0.4333029,-1.761011,-0.01923389,0,0.1,-0.07182753,0.08088028,-0.0548183,-0.6091555,-4.627644,0.1566181,0.717824,1.359883,0.3708539,-0.03766975,0.05871377,0.0652714,-0.9646358,-0.03081011,0.06587542,0.8033128,1.409727,0.1787593,0.3904312,1.136045,0.3956228,273.3149,304.4758,320.6475,True
0,1.166668,-0.0827763,0.07005447,0.02054175,-1.509914,1.373981,-2.947778,0.6827211,1.131589,0.4328935,-1.760815,0.01806595,0,0.1,-0.07074612,0.09048533,-0.05797207,-0.6096993,-4.625049,0.1552775,0.7165824,1.359837,0.3704455,-0.03346942,0.06189534,0.05883388,-0.9641352,-0.02987201,0.06562508,0.8024073,1.409743,0.1784835,0.3891049,1.136227,0.3960012,273.3011,305.6795,319.6446,True
0,1.17778,-0.07849877,0.0487315,0.0164014,-1.510002,1.374069,-2.947062,0.681426,1.131504,0.4324183,-1.760676,0.01245622,0,0.1,-0.06955715,0.1074738,-0.04829944,-0.6096774,-4.621977,0.1535062,0.7154037,1.3598,0.3700407,-0.0324862,0.06188692,0.05136772,-0.9637319,-0.02899836,0.0655838,0.8013477,1.409972,0.1782262,0.3878065,1.136351,0.3962214,273.3098,306.9796,318.5454,True
0,1.188891,-0.07208394,0.02634404,0.01332259,-1.509923,1.374518,-2.946546,0.6800289,1.13149,0.4319742,-1.761052,-0.03449957,0,0.1,-0.06735912,0.1159581,-0.04294129,-0.6097504,-4.61917,0.1518455,0.71425,1.359741,0.3696396,-0.0367874,0.06615448,0.04714275,-0.9632899,-0.02789222,0.06560218,0.800433,1.410017,0.1779492,0.3865385,1.136434,0.3961901,273.3307,307.9795,317.7115,True
0,1.200002,-0.06142135,0.01673255,0.008049399,-1.509945,1.374602,-2.946275,0.6787086,1.131495,0.431499,-1.76066,0.03604633,0,0.1,-0.06822251,0.1339558,-0.02153107,-0.6089776,-4.615745,0.1497759,0.7129565,1.359608,0.3692727,-0.04418603,0.07151862,0.05360558,-0.9623418,-0.02645211,0.06578621,0.7993312,1.409963,0.1774836,0.3853162,1.136475,0.395824,273.3312,308.4011,317.3702,True
0,1.211113,-0.05288929,0.009312483,0.01341187,-1.510254,1.374812,-2.945989,0.6773872,1.131453,0.4310544,-1.760692,-0.003347479,0,0.1,-0.069217,0.1403109,-0.01403225,-0.6086782,-4.61276,0.1481399,0.7117008,1.359601,0.3688605,-0.04513203,0.07368261,0.06533209,-0.9611481,-0.02516594,0.06561682,0.7982153,1.40999,0.1770926,0.3840418,1.1365,0.3951608,273.3162,308.3221,317.4103,True
0,1.222224,-0.04222813,0.00401904,0.01876413,-1.510641,1.375114,-2.94591,0.6761154,1.131394,0.4305897,-1.760878,-0.01696902,0,0.1,-0.071276,0.1488067,-0.007581815,-0.6082612,-4.609482,0.1463026,0.7104548,1.359566,0.3684793,-0.03756498,0.06409786,0.07805306,-0.9598054,-0.02477459,0.06555424,0.797201,1.410057,0.1767881,0.3826713,1.136538,0.3942757,273.2982,307.7206,317.8753,True
0,1.233335,-0.03156571,0.003006553,0.02622586,-1.511281,1.375159,-2.94595,0.6748137,1.131302,0.4301062,-1.760774,0.009474999,0,0.1,-0.06814788,0.1574069,-0.0245992,-0.6088055,-4.605863,0.143946,0.7091646,1.359479,0.3681297,-0.03544892,0.06303721,0.07803272,-0.9589324,-0.02388922,0.065538,0.7962061,1.409986,0.1764231,0.3812725,1.136584,0.3932734,273.2766,306.932,318.4646,True
0,1.244446,-0.02410486,0.005204883,0.03686224,-1.512049,1.375143,-2.945894,0.6735691,1.131212,0.4295714,-1.76086,-0.008017179,0,0.1,-0.07146577,0.1628721,-0.0479868,-0.6098362,-4.602075,0.1417526,0.7079292,1.359364,0.3677316,-0.03759797,0.05876862,0.07699584,-0.9580637,-0.02346112,0.06579553,0.7951874,1.410027,0.1761026,0.3798929,1.136629,0.3922586,273.2578,306.4986,318.6905,True
0,1.255558,-0.02091692,0.01801489,0.0410505,-1.51274,1.374686,-2.945756,0.6723948,1.130986,0.429034,-1.760901,-0.003652085,0,0.1,-0.09619019,0.1695728,-0.08828436,-0.611832,-4.597962,0.1403025,0.7067484,1.359174,0.3673134,-0.03977212,0.04920721,0.07489328,-0.9573483,-0.02278361,0.06599952,0.7941891,1.409963,0.1757138,0.3785694,1.136658,0.3913068,273.2375,306.4618,318.554,True
0,1.266669,-0.01773203,0.04685184,0.05367262,-1.513998,1.373457,-2.945653,0.6711937,1.130711,0.4283965,-1.760708,0.01756337,0,0.1,-0.10489,0.1718931,-0.1180474,-0.6137308,-4.594119,0.1386364,0.7055476,1.35896,0.3669083,-0.03766404,0.0449302,0.07381435,-0.9565446,-0.02259,0.06630259,0.7931771,1.410022,0.1753893,0.3772814,1.136659,0.3904841,273.226,306.8519,318.045,True
0,1.27778,-0.01988741,0.0777479,0.05457546,-1.515099,1.371786,-2.945289,0.6700611,1.130436,0.4279017,-1.760539,0.01520606,0,0.1,-0.1061657,0.1646003,-0.1479037,-0.6160435,-4.590791,0.1371392,0.7043622,1.35868,0.3665748,-0.02482145,0.04707323,0.08007386,-0.9554176,-0.02145736,0.06563973,0.7920822,1.410318,0.1754308,0.3760458,1.136619,0.389817,273.2211,307.481,317.36,True
0,1.288891,-0.01779269,0.1246309,0.05537847,-1.516273,1.368991,-2.945039,0.6689289,1.130013,0.4272597,-1.76053,0.0006824004,0,0.1,-0.1020681,0.152983,-0.1692978,-0.6183754,-4.587932,0.1356268,0.7031325,1.358357,0.366174,-0.01728798,0.05451959,0.08638502,-0.9541222,-0.02057612,0.06509804,0.7909825,1.41034,0.1751478,0.374854,1.136524,0.3893321,273.2111,308.3539,316.4797,True
0,1.300002,-0.0156962,0.1694012,0.06045262,-1.517725,1.365933,-2.944776,0.6678611,1.129554,0.4266734,-1.760236,0.02681775,0,0.1,-0.08521433,0.1220917,-0.1812879,-0.6207471,-4.586726,0.1350516,0.7019393,1.357986,0.3658628,-0.007493034,0.06840396,0.1033203,-0.9522058,-0.01871084,0.063612,0.7899635,1.410203,0.174957,0.3736521,1.136382,0.389065,273.2228,309.552,315.317,True
0,1.311113,-0.01357017,0.1928869,0.06883974,-1.519276,1.363312,-2.944673,0.6667222,1.129122,0.4260263,-1.760335,-0.009268441,0,0.1,-0.06828661,0.1061108,-0.1921291,-0.6230263,-4.584732,0.1335759,0.7006978,1.357666,0.3654661,-0.00311543,0.08228661,0.1139213,-0.9503996,-0.01670281,0.06263196,0.7889018,1.410143,0.1744728,0.3724337,1.1362,0.3890479,273.2398,310.59,314.3545,True
0,1.322224,-0.01252037,0.2249275,0.08357966,-1.521468,1.360069,-2.94444,0.6656762,1.128577,0.4253221,-1.760309,0.00243636,0,0.1,-0.05874385,0.1029073,-0.1975311,-0.6252442,-4.582425,0.132063,0.6995119,1.357313,0.3650782,-0.0009731948,0.09505938,0.1128098,-0.9492118,-0.01510332,0.06167029,0.7879107,1.410213,0.174201,0.37121,1.13597,0.3893009,273.249,311.9276,313.1621,True
0,1.333336,-0.004007335,0.2463135,0.09730412,-1.523625,1.357075,-2.94454,0.6645969,1.12816,0.4245427,-1.760395,-0.007974653,0,0.1,-0.05352879,0.09550557,-0.2114458,-0.627854,-4.58033,0.1308265,0.6983,1.356861,0.3645627,0.0001265407,0.1089501,0.1117275,-0.9476805,-0.01232085,0.05975068,0.7869634,1.410045,0.1739235,0.3700106,1.13569,0.3898001,273.2963,313.7851,311.5356,True
0,1.344447,0.004513315,0.2570262,0.1068275,-1.525722,1.3542,-2.944752,0.6636286,1.127796,0.4238856,-1.76026,0.01237971,0,0.1,-0.05783454,0.09235471,-0.2167633,-0.6303255,-4.578188,0.1298882,0.6971102,1.356531,0.3641591,-0.006270394,0.1142817,0.1107152,-0.9464539,-0.01074213,0.05918103,0.7859873,1.410192,0.1736839,0.3688338,1.135367,0.3904427,273.3852,316.0318,309.606,True
0,1.355558,0.01623238,0.2549004,0.1068297,-1.527389,1.351812,-2.945216,0.6626068,1.127405,0.4233456,-1.760512,-0.02318591,0,0.1,-0.07480387,0.1051817,-0.2123273,-0.632259,-4.574924,0.128705,0.6959603,1.356302,0.3638144,-0.01693954,0.1132545,0.1076291,-0.9452459,-0.008897621,0.0584183,0.7850808,1.410212,0.1735997,0.3676954,1.135013,0.3911319,273.5187,318.4251,307.5721,True
0,1.366669,0.02904566,0.214432,0.1070495,-1.528822,1.351006,-2.945859,0.661612,1.127108,0.4227936,-1.760585,-0.006490615,0,0.1,-0.08207707,0.1210771,-0.1919558,-0.633427,-4.57154,0.1271257,0.6948997,1.35597,0.3634422,-0.01701453,0.1185527,0.09910288,-0.9443356,-0.00745765,0.05772029,0.7841431,1.410279,0.1734288,0.3665915,1.134659,0.3917585,273.674,320.2823,306.0712,True
0,1.37778,0.03438786,0.1877631,0.1008006,-1.529913,1.350095,-2.946338,0.660614,1.126788,0.4222913,-1.76074,-0.0142095,0,0.1,-0.0797561,0.1369323,-0.1695125,-0.6342883,-4.567746,0.124963,0.6937462,1.355771,0.3631432,-0.01806411,0.1174962,0.1001842,-0.9430328,-0.005881724,0.05692294,0.7832255,1.410454,0.1734939,0.3655465,1.134319,0.3922546,273.804,321.5646,305.067,True
0,1.388891,0.04827517,0.1386826,0.08508313,-1.530267,1.350244,-2.947455,0.6595522,1.126545,0.4217923,-1.760777,-0.003262307,0,0.1,-0.07647686,0.1560777,-0.1662389,-0.6358963,-4.563474,0.1223637,0.6925743,1.355518,0.3628433,-0.02971193,0.1217688,0.1066977,-0.9413843,-0.004473445,0.05688086,0.7822254,1.410607,0.173368,0.364542,1.133989,0.3925739,273.8992,322.7597,304.0856,True
0,1.400002,0.05469172,0.1013302,0.07357655,-1.530723,1.350623,-2.948325,0.6585802,1.126321,0.421252,-1.760531,0.02236733,0,0.1,-0.07747535,0.1667114,-0.1619141,-0.637255,-4.559462,0.1200247,0.6914171,1.355321,0.3624644,-0.04348837,0.121782,0.1153582,-0.9397534,-0.003336941,0.0573533,0.7813166,1.410764,0.1731491,0.3635884,1.133651,0.3926231,273.9822,323.8337,303.1751,True
0,1.411114,0.06431565,0.04797748,0.05682344,-1.530517,1.351968,-2.949467,0.6576166,1.126045,0.4207916,-1.761007,-0.04374356,0,0.1,-0.08272864,0.1891202,-0.1649505,-0.6387757,-4.554348,0.1169322,0.6903003,1.355103,0.3620608,-0.05627042,0.1164713,0.1176305,-0.9382221,-0.002260225,0.05792189,0.7804747,1.410838,0.1729066,0.3626221,1.133304,0.3923831,274.0332,324.4305,302.6646,True
0,1.422225,0.07179315,0.009536857,0.03892481,-1.530133,1.353077,-2.95059,0.6566712,1.125784,0.42015,-1.760709,0.02761348,0,0.1,-0.087919,0.2093289,-0.1552217,-0.6398074,-4.549077,0.1138512,0.6891667,1.354921,0.3617041,-0.06052858,0.1122194,0.1187441,-0.9367957,-0.001000949,0.05799699,0.7796136,1.410908,0.1727438,0.3616455,1.132918,0.3918315,274.0549,324.5307,302.5737,True
0,1.433336,0.07606986,-0.007516175,0.03688731,-1.530391,1.353742,-2.95163,0.655668,1.125504,0.4196677,-1.7608,-0.008716238,0,0.1,-0.09198694,0.2380457,-0.1422566,-0.6405275,-4.542822,0.1099158,0.6880358,1.354797,0.3613365,-0.06167133,0.109,0.1134407,-0.9355882,-2.31695E-05,0.05835785,0.7787901,1.411061,0.1725163,0.3606911,1.132472,0.3909833,274.0769,324.1986,302.8317,True
0,1.444447,0.08139212,-0.02463678,0.0263299,-1.530007,1.354721,-2.952867,0.6548091,1.125206,0.419214,-1.760712,0.008140022,0,0.1,-0.09186889,0.2518368,-0.1315294,-0.6412556,-4.537179,0.1064013,0.686944,1.354608,0.3609834,-0.06067882,0.10472,0.1070406,-0.9346087,0.001018526,0.05836743,0.777953,1.411059,0.17239,0.3597738,1.131938,0.3898638,274.0748,323.4879,303.4046,True
0,1.455558,0.0856463,-0.019333,0.0188378,-1.530102,1.35465,-2.953748,0.6539152,1.124982,0.4186716,-1.76055,0.01465712,0,0,-0.09283175,0.2581721,-0.1187089,-0.6418468,-4.531769,0.1031469,0.6858858,1.354406,0.3606277,-0.06497929,0.1089485,0.1038837,-0.9334704,0.001969807,0.05887131,0.7771659,1.411254,0.1724246,0.358839,1.131321,0.3885569,274.076,322.2518,304.4315,True
0,1.466669,0.09309771,-0.01933027,0.01883226,-1.530218,1.354998,-2.954967,0.6530986,1.124841,0.4183238,-1.760639,-0.008369036,0,0,-0.09606096,0.2539311,-0.1208435,-0.6430272,-4.527261,0.1007578,0.6848502,1.354129,0.3603227,-0.05974931,0.1078576,0.09424046,-0.9327503,0.003273558,0.05854747,0.7764473,1.411252,0.1723328,0.3578451,1.130651,0.3872215,274.1046,320.762,305.645,True
0,1.47778,0.09736109,-0.01825265,0.02095867,-1.530547,1.355272,-2.956218,0.6522913,1.124636,0.4178884,-1.760273,0.03352913,0,0,-0.09825048,0.2390276,-0.1209095,-0.6441425,-4.523488,0.09891859,0.6838791,1.353927,0.3600783,-0.05982941,0.1078261,0.08785319,-0.9318656,0.004277969,0.05883562,0.7757655,1.411163,0.172015,0.3568759,1.129924,0.3859683,274.1415,318.9297,307.2079,True
0,1.488891,0.100565,-0.02465172,0.01885965,-1.530563,1.355769,-2.957509,0.651603,1.124425,0.4175584,-1.760499,-0.02097924,0,0,-0.0845681,0.2081179,-0.128616,-0.645701,-4.521353,0.09765971,0.6829538,1.353693,0.3598399,-0.05769619,0.1078135,0.08783618,-0.9307556,0.005544568,0.05861964,0.7750132,1.411153,0.1718988,0.3558947,1.129208,0.3849369,274.2315,316.9406,308.9728,True
0,1.500003,0.1048381,-0.04063393,0.01788153,-1.530562,1.356788,-2.958817,0.6508931,1.12422,0.4171603,-1.760509,-0.0007232306,0,0,-0.07098353,0.1602026,-0.1417425,-0.6477165,-4.52076,0.09750472,0.6821154,1.353576,0.3596222,-0.05449717,0.1035362,0.08994681,-0.9295444,0.006458831,0.05867397,0.77433,1.411142,0.1717036,0.3549789,1.128541,0.3841891,274.3462,315.3917,310.3806,True
0,1.511114,0.1059067,-0.05025322,0.01154195,-1.530297,1.357595,-2.960042,0.6499934,1.124076,0.4168136,-1.760476,0.002967504,0,0.1,-0.06159037,0.1101021,-0.1420773,-0.6494054,-4.521111,0.09821498,0.6811956,1.353411,0.3594074,-0.0566676,0.1003367,0.08677892,-0.9286256,0.007580954,0.05873655,0.7736003,1.411155,0.1715727,0.3541759,1.127927,0.3837109,274.4484,314.6703,311.0766,True
0,1.522225,0.1101676,-0.05989918,-0.000123295,-1.529758,1.358466,-2.961435,0.649379,1.12384,0.4164329,-1.76041,0.005921151,0,0.1,-0.06158749,0.09727274,-0.133624,-0.6505325,-4.519932,0.09795959,0.6803513,1.353279,0.3591809,-0.06197208,0.1013983,0.0889691,-0.9274203,0.00868044,0.05898023,0.7729275,1.411112,0.1713295,0.3535246,1.127349,0.3834357,274.5246,314.468,311.3451,True
0,1.533336,0.1155135,-0.07484219,-0.006433691,-1.529291,1.359662,-2.963086,0.6486369,1.123665,0.4162145,-1.760279,0.01188988,0,0.1,-0.05187451,0.09498829,-0.111326,-0.6508659,-4.517985,0.09667648,0.6795017,1.353195,0.3589671,-0.06090094,0.1034811,0.09107798,-0.9263955,0.009211342,0.05956826,0.77223,1.411217,0.1713452,0.352921,1.12681,0.3832609,274.5894,314.6126,311.334,True
0,1.544447,0.1165868,-0.08764834,-0.01062447,-1.528772,1.361015,-2.964471,0.6480085,1.123546,0.4159033,-1.760389,-0.01012987,0,0.1,-0.04525577,0.1182774,-0.08886981,-0.6508547,-4.514473,0.09411984,0.6787683,1.353069,0.3587003,-0.05877301,0.1077327,0.089981,-0.9254474,0.01071243,0.05923003,0.7715776,1.411204,0.171226,0.3522611,1.126308,0.3831026,274.6316,314.6433,311.4378,True
0,1.555558,0.1261833,-0.09724111,-0.01377691,-1.528259,1.362246,-2.9663,0.6476043,1.123542,0.4156871,-1.760594,-0.01878417,0,0,-0.04519029,0.1331873,-0.08772418,-0.6516404,-4.511054,0.09188172,0.6779686,1.352999,0.3584177,-0.0568049,0.1012915,0.07718686,-0.9249995,0.0112697,0.05974802,0.7708961,1.411406,0.1710572,0.3516705,1.125783,0.3828665,274.654,314.4656,311.7001,True
0,1.566669,0.1293872,-0.1025677,-0.01481851,-1.527801,1.363454,-2.967937,0.6471144,1.12351,0.4154325,-1.760287,0.02830075,0,0,-0.04512656,0.1406121,-0.08235639,-0.6522199,-4.508134,0.09003802,0.6772664,1.352964,0.3581543,-0.06010832,0.07678148,0.07085106,-0.9245605,0.01117156,0.06057653,0.7703538,1.411399,0.1708596,0.3510849,1.125225,0.3825211,274.6931,314.1164,312.0724,True
0,1.577781,0.13898,-0.1110887,-0.01583943,-1.527384,1.364931,-2.969853,0.6466944,1.123335,0.415185,-1.760641,-0.03267489,0,0,-0.04498507,0.1554527,-0.06842951,-0.6523322,-4.504466,0.08759803,0.6765065,1.352971,0.3579011,-0.06011406,0.06186228,0.07406676,-0.9236077,0.01116823,0.06137894,0.7697694,1.411415,0.1705441,0.3505666,1.124627,0.3820235,274.7775,313.2374,312.9271,True
0,1.588892,0.1453808,-0.1132212,-0.01689909,-1.526907,1.36618,-2.971826,0.6461222,1.123248,0.4149616,-1.760432,0.01939824,0,0,-0.0491478,0.1575232,-0.05348137,-0.6523136,-4.501412,0.08585206,0.6757153,1.352882,0.3576567,-0.05584846,0.05333179,0.07616745,-0.9226213,0.01144161,0.06167934,0.7691973,1.411435,0.1703615,0.35017,1.124007,0.3813878,274.8758,311.9226,314.1555,True
0,1.600003,0.156037,-0.1228339,-0.02324596,-1.526157,1.367768,-2.973961,0.6457688,1.123096,0.4147065,-1.760603,-0.01598878,0,0,-0.05010363,0.1638507,-0.03959471,-0.652157,-4.497981,0.08370075,0.6750245,1.352901,0.3574924,-0.04956411,0.05115534,0.06651416,-0.9222847,0.0116721,0.06196297,0.7686418,1.41157,0.1703138,0.3498076,1.123389,0.3806604,274.9527,310.7729,315.1946,True
0,1.611114,0.158185,-0.1281652,-0.02427601,-1.525715,1.369287,-2.97601,0.6453013,1.122923,0.4144895,-1.760623,-0.001686945,0,0,-0.03728451,0.1541626,-0.02907366,-0.6520675,-4.495619,0.08170605,0.6743897,1.352769,0.3573201,-0.05600197,0.05433401,0.06337397,-0.9217153,0.01206265,0.06286525,0.7680839,1.411562,0.1702282,0.3494489,1.122752,0.3798725,274.9975,309.947,315.8934,True
0,1.622225,0.1667037,-0.123897,-0.02430544,-1.52524,1.370455,-2.9782,0.6449381,1.122797,0.4142528,-1.76069,-0.006149556,0,0,-0.02665701,0.1573529,-0.03551168,-0.6525394,-4.492497,0.07912065,0.673759,1.352668,0.3571358,-0.05919589,0.0543299,0.06233931,-0.9210308,0.01259555,0.06313156,0.7675931,1.41139,0.1702278,0.3490273,1.122087,0.3790716,275.0408,309.0536,316.6539,True
0,1.633336,0.1677614,-0.1175286,-0.02860458,-1.524578,1.371467,-2.980145,0.644584,1.122632,0.4139581,-1.760535,0.01415971,0,0,-0.0118743,0.143521,-0.04845833,-0.6534359,-4.490302,0.07701915,0.6732585,1.352444,0.3569832,-0.05180909,0.04788702,0.05801415,-0.9205104,0.01231992,0.06379949,0.7670975,1.411339,0.1701736,0.3486587,1.121347,0.3782613,275.0904,308.0261,317.5488,True
0,1.644447,0.1730804,-0.1100699,-0.02864787,-1.524117,1.372399,-2.982265,0.6442867,1.122438,0.4137979,-1.760599,-0.006040347,0,0,-0.01202586,0.116949,-0.05925525,-0.6544197,-4.489452,0.07630915,0.6727096,1.352291,0.3568077,-0.04117,0.04041075,0.05791766,-0.9198569,0.01246506,0.06376992,0.7665789,1.411328,0.1700175,0.3482815,1.120539,0.3774834,275.1776,306.9722,318.4669,True
0,1.655559,0.1720061,-0.09622804,-0.03085491,-1.523637,1.372842,-2.984192,0.6439722,1.122213,0.413583,-1.760308,0.02661816,0,0.1,-0.005850445,0.07115874,-0.06593787,-0.6555105,-4.490411,0.07694778,0.67221,1.352201,0.3566723,-0.03378088,0.02971357,0.05465487,-0.9194942,0.01191751,0.06446421,0.7660834,1.411316,0.1699419,0.3479333,1.119673,0.3767701,275.2898,305.7915,319.5336,True
0,1.66667,0.167743,-0.09197153,-0.0308769,-1.523123,1.373697,-2.985956,0.6437584,1.122066,0.4134274,-1.7604,-0.008697851,0,0.1,0.00144266,0.02744282,-0.06515314,-0.6562588,-4.49224,0.07818615,0.6717573,1.352088,0.3565161,-0.03057327,0.03183864,0.05568153,-0.9188572,0.01239728,0.06445915,0.7656688,1.411353,0.1697819,0.3476138,1.118765,0.3761457,275.4099,304.5213,320.7104,True
0,1.677781,0.1613488,-0.08984333,-0.03088627,-1.522611,1.374528,-2.987594,0.643566,1.121891,0.4133587,-1.760203,0.01810076,0,0.1,0.0142222,0.01884622,-0.05994915,-0.6567483,-4.492133,0.07759519,0.6712182,1.351957,0.3563485,-0.02737346,0.0392546,0.05563812,-0.9182382,0.01258197,0.06464797,0.7652032,1.411329,0.1696546,0.3474415,1.117986,0.3757903,275.3643,300.6719,324.6134,True
0,1.688892,0.1560209,-0.08559357,-0.03197314,-1.52207,1.375289,-2.989276,0.6434052,1.121703,0.4132717,-1.759973,0.02086001,0,0.1,0.02388445,0.03370351,-0.05672911,-0.6571749,-4.490578,0.07580901,0.6707116,1.351821,0.3562036,-0.02627092,0.04245441,0.05881868,-0.9174483,0.01330009,0.06449404,0.7646936,1.411309,0.1695237,0.3474742,1.117734,0.3756752,275.2823,300.1644,325.1514,True
0,1.700003,0.1570839,-0.08238262,-0.02986049,-1.521699,1.376022,-2.991093,0.6432348,1.121486,0.4131334,-1.759825,0.013363,0,0.1,0.03892662,0.0591885,-0.05135833,-0.6574775,-4.487865,0.07273147,0.6701939,1.351742,0.3560882,-0.02096276,0.04029579,0.05769736,-0.9169418,0.01341075,0.06452999,0.7642282,1.411345,0.1692433,0.3475635,1.117618,0.3756885,275.2056,301.6065,323.7966,True
0,1.711114,0.1570659,-0.07817498,-0.03840464,-1.520877,1.376744,-2.99277,0.6432532,1.121374,0.4130871,-1.759872,-0.004391441,0,0.1,0.0411322,0.07193094,-0.04598128,-0.6578258,-4.48595,0.0708052,0.6697179,1.351686,0.3560119,-0.0125016,0.03278919,0.0533648,-0.9164198,0.01296627,0.06471242,0.7637721,1.411403,0.1693299,0.3477576,1.117514,0.3757446,275.075,303.6896,321.7296,True
0,1.722225,0.1570566,-0.06967054,-0.04164781,-1.520259,1.377135,-2.99452,0.6432046,1.121305,0.4129751,-1.760029,-0.01426877,0,0.1,0.03579253,0.06341177,-0.04279888,-0.6581523,-4.48524,0.07004087,0.6692574,1.351643,0.3558676,-0.007216558,0.02744925,0.05012292,-0.9159666,0.01308997,0.0645212,0.7633258,1.411396,0.1691711,0.3477776,1.117439,0.3756993,275.0227,304.3032,321.1837,True
0,1.733337,0.1581011,-0.05797309,-0.045972,-1.51964,1.377246,-2.99618,0.6432522,1.121228,0.4128389,-1.759911,0.0109459,0,0.1,0.02311357,0.04199448,-0.0130108,-0.6573459,-4.485808,0.07061185,0.6689656,1.351702,0.3557882,-0.004150905,0.02102783,0.03733043,-0.9158004,0.0129885,0.06442399,0.7630169,1.411166,0.1689372,0.3478433,1.117346,0.3755913,274.8885,304.4671,321.0626,True
0,1.744448,0.1612865,-0.04625822,-0.04710456,-1.519075,1.377256,-2.998067,0.6433043,1.121253,0.4127038,-1.759989,-0.0072595,0,0.1,0.02208868,0.02912486,0.001839344,-0.6568921,-4.486231,0.07074128,0.6686566,1.35172,0.3556747,-0.006271277,0.01038456,0.04055825,-0.9152672,0.0126841,0.06481894,0.7626427,1.411223,0.1687515,0.3479536,1.117264,0.3754419,274.7082,304.0729,321.463,True
0,1.755559,0.1612741,-0.03557591,-0.04290768,-1.518711,1.377169,-2.999753,0.6433873,1.121324,0.4125297,-1.759929,0.005492595,0,0.1,0.01885924,0.01099254,0.009220317,-0.6565363,-4.486945,0.0713309,0.6683286,1.351768,0.3555624,-0.007383227,0.006091145,0.0373767,-0.9150041,0.01201871,0.0654304,0.7622697,1.41125,0.168818,0.34806,1.117226,0.3753442,274.5591,303.6553,321.9027,True
0,1.76667,0.171923,-0.02918015,-0.04401304,-1.518214,1.377203,-3.002059,0.6432844,1.121284,0.4124713,-1.760153,-0.02050462,0,0.1,0.01562755,0.001415228,0.009190124,-0.6564713,-4.487466,0.0716678,0.6679453,1.351816,0.3554299,-0.007501839,-0.003502481,0.02779506,-0.9151649,0.01168821,0.06580564,0.7617867,1.41126,0.1686623,0.3482144,1.117188,0.3754694,274.5278,306.6693,318.9995,True
0,1.777781,0.1761811,-0.02488967,-0.03977835,-1.517919,1.377244,-3.004076,0.6433511,1.121255,0.4123907,-1.759978,0.01620867,0,0.1,0.008150822,-0.007094409,0.01238303,-0.6562657,-4.488091,0.07245716,0.667648,1.351805,0.3552976,-0.005533179,-0.01740006,0.01500377,-0.915549,0.01031482,0.06679048,0.7613703,1.411437,0.1685171,0.348282,1.117134,0.3753071,274.3724,305.4521,320.1506,True
0,1.788892,0.1815132,-0.0270095,-0.03870608,-1.517456,1.377574,-3.00631,0.6432392,1.121259,0.4123466,-1.760547,-0.05218677,0,0.1,0.01892566,0.01413203,0.01882861,-0.6557145,-4.48672,0.07075593,0.6672785,1.351815,0.3551683,-0.0119947,-0.02167461,0.009736818,-0.9157375,0.009555821,0.06773271,0.7609043,1.411488,0.1682684,0.3483204,1.117048,0.3749685,274.1519,302.1292,323.4789,True
0,1.800003,0.1868474,-0.04302258,-0.04394214,-1.516699,1.378638,-3.008576,0.643301,1.121176,0.4124744,-1.760285,0.02435851,0,0.1,0.02861678,0.03216047,0.02526031,-0.6551312,-4.485482,0.06922434,0.6670272,1.351822,0.3550439,-0.01199163,-0.02593447,0.0108074,-0.9156107,0.009023323,0.06817639,0.7605264,1.411502,0.1680548,0.3484384,1.116974,0.3749044,274.0234,302.5493,323.1045,True
0,1.811115,0.1857911,-0.05476043,-0.04707367,-1.515927,1.37954,-3.010658,0.6432796,1.121125,0.4124525,-1.760401,-0.01089703,0,0.1,0.03183202,0.03213105,0.02843659,-0.6546742,-4.484943,0.06832419,0.6667296,1.351813,0.3549192,-0.01193828,-0.02592108,0.01613176,-0.9152678,0.008762333,0.06845922,0.7603018,1.411551,0.1678467,0.3485662,1.1169,0.3749291,273.935,304.1563,321.5226,True
0,1.822226,0.1879161,-0.06016164,-0.06089625,-1.514639,1.380239,-3.012885,0.6433225,1.121114,0.4124537,-1.760365,0.003343373,0,0.1,0.03922864,0.02573944,0.02410024,-0.6545102,-4.484725,0.06761073,0.666489,1.351759,0.354847,-0.009720216,-0.02379207,0.02356828,-0.9147031,0.008321446,0.06862354,0.76007,1.411201,0.1677632,0.3487046,1.116819,0.3749757,273.8521,306.1591,319.5383,True
0,1.833337,0.1857768,-0.06234825,-0.07153792,-1.513395,1.380731,-3.014858,0.6434635,1.120999,0.4123557,-1.760143,0.0202361,0,0.1,0.04870736,0.02580423,0.00700237,-0.6548404,-4.483984,0.0662472,0.6662599,1.351676,0.3547065,-0.007527301,-0.02167701,0.02993998,-0.9141551,0.007682421,0.06909518,0.7597606,1.411328,0.1678135,0.3488639,1.11674,0.3749137,273.6789,306.7493,318.942,True
0,1.844448,0.185765,-0.06028169,-0.08219837,-1.512114,1.381237,-3.016894,0.6435306,1.121011,0.4122701,-1.760247,-0.009692615,0,0.1,0.04538395,0.01523168,-0.006879612,-0.6553283,-4.484379,0.06621444,0.6661013,1.351616,0.3546102,-0.004324201,-0.02167445,0.03096782,-0.913884,0.007466705,0.06921636,0.7595278,1.411323,0.1676342,0.3489992,1.116675,0.3747638,273.4664,305.781,319.899,True
0,1.855559,0.1740307,-0.05075526,-0.09182897,-1.510803,1.3813,-3.018452,0.6437348,1.120951,0.4122784,-1.759998,0.02284749,0,0.1,0.05160611,-0.007084385,-0.02089236,-0.6561502,-4.485521,0.06633028,0.6658588,1.351573,0.3544216,-0.004399089,-0.01638114,0.02350629,-0.9138536,0.007002249,0.06967761,0.7592071,1.4114,0.1675706,0.3491614,1.116588,0.3745686,273.2178,304.7542,320.9429,True
0,1.86667,0.1708311,-0.04650665,-0.09398396,-1.509627,1.381518,-3.020305,0.643774,1.12083,0.412328,-1.760022,-0.002378646,0,0,0.05902135,-0.0124234,-0.0241618,-0.6564745,-4.486029,0.06588022,0.6655331,1.35143,0.3543282,0.000927968,-0.01318219,0.02344169,-0.9136932,0.007136073,0.06950664,0.7588512,1.411371,0.1674292,0.3493429,1.116499,0.3743896,272.9677,304.2024,321.5255,True
0,1.877781,0.1612429,-0.04328961,-0.08866607,-1.508811,1.38182,-3.021799,0.6438708,1.120722,0.4123888,-1.759587,0.03976478,0,0,0.06650177,-0.006058071,-0.0241755,-0.6567802,-4.485645,0.06457473,0.6653019,1.35138,0.3541782,0.001035444,-0.00997429,0.0330244,-0.9129844,0.007079748,0.06941476,0.7585135,1.411339,0.1670415,0.3495141,1.116425,0.3742538,272.7466,303.9947,321.748,True
0,1.888893,0.1548518,-0.05077928,-0.09288424,-1.507513,1.382548,-3.023342,0.6438605,1.120717,0.4124529,-1.759851,-0.02445478,0,0,0.06972916,-0.003959354,-0.02098572,-0.6568564,-4.485658,0.0636365,0.6649655,1.351271,0.3540668,0.008554688,-0.01210448,0.03935013,-0.9122898,0.006847254,0.0691583,0.7581643,1.411169,0.1670213,0.3496504,1.116321,0.3742077,272.5963,304.7668,320.9688,True
0,1.900004,0.1463289,-0.05508497,-0.09924434,-1.506148,1.383155,-3.024741,0.6439705,1.120718,0.4125834,-1.759558,0.02707463,0,0,0.06556384,-0.002958659,-0.004979453,-0.6564212,-4.485604,0.06309428,0.6647758,1.3512,0.3540561,0.0159406,-0.01638668,0.03289013,-0.9121678,0.00641409,0.06897534,0.7578679,1.411142,0.1668451,0.3497964,1.116244,0.3741756,272.4438,305.7331,319.972,True
0,1.911115,0.1420531,-0.04767854,-0.1078061,-1.504638,1.383228,-3.026153,0.6440623,1.12078,0.4126296,-1.759589,-0.003037165,0,0,0.06566194,0.006575923,0.004656764,-0.6561006,-4.485047,0.06187988,0.6646495,1.351215,0.3539836,0.01485565,-0.01852202,0.02970847,-0.9119457,0.005990648,0.06890343,0.7577376,1.411063,0.1667328,0.3500926,1.116091,0.3740269,272.0615,305.0198,320.5588,True
0,1.922226,0.1356494,-0.03705779,-0.1131825,-1.503299,1.383057,-3.027434,0.644201,1.120801,0.412703,-1.759512,0.007096082,0,0,0.067786,0.006573588,0.003578505,-0.6561006,-4.484921,0.06095496,0.6644716,1.351193,0.3538802,0.0148364,-0.01745936,0.02757665,-0.9117231,0.005771603,0.06888799,0.7574759,1.411043,0.1665494,0.3502455,1.116006,0.3738688,271.8401,303.6402,321.932,True
0,1.933337,0.1324461,-0.02642261,-0.1153722,-1.501946,1.382859,-3.028827,0.6443765,1.12078,0.4127643,-1.759606,-0.008581323,0,0,0.06344703,0.003442694,-0.00599862,-0.6564777,-4.485119,0.06062606,0.664416,1.351133,0.3537555,0.02121343,-0.0228132,0.02858339,-0.9114403,0.004861601,0.06920384,0.7572392,1.411367,0.1665375,0.3503094,1.115969,0.3738033,271.7438,302.8215,322.7486,True
0,1.944448,0.1228348,0.002339247,-0.1144586,-1.500881,1.381632,-3.029771,0.64457,1.12078,0.4129157,-1.759556,0.004663591,0,0,0.05918225,0.0002503693,-0.004925567,-0.656532,-4.485448,0.0603427,0.6643325,1.351145,0.3536568,0.02116851,-0.03559307,0.02646344,-0.9113449,0.003932823,0.06957135,0.7570298,1.411366,0.1663475,0.3503381,1.11595,0.3738357,271.727,303.6706,321.8744,True
0,1.955559,0.1164243,0.02685338,-0.1113913,-1.499937,1.38041,-3.030759,0.6447892,1.120733,0.4129565,-1.759711,-0.01422066,0,0,0.05819482,0.00873455,0.00364938,-0.6561241,-4.484761,0.05927824,0.6642606,1.351156,0.353574,0.02433812,-0.04733415,0.02644571,-0.9111281,0.002433463,0.07021238,0.7567239,1.411575,0.166105,0.3503909,1.115919,0.3739199,271.7197,306.3761,319.1327,True
0,1.966671,0.1057573,0.0513928,-0.1030008,-1.499209,1.378929,-3.031479,0.6449438,1.120716,0.4130735,-1.759403,0.0283719,0,0,0.0604206,0.01184022,0.01750092,-0.655504,-4.484596,0.05842976,0.6641912,1.351154,0.3535032,0.02964396,-0.04521048,0.02425942,-0.9109534,0.001997903,0.0700209,0.756382,1.411504,0.1659217,0.3504913,1.115871,0.3740196,271.673,309.7722,315.6631,True
0,1.977782,0.09722131,0.06955157,-0.09350899,-1.498626,1.377465,-3.032104,0.6451703,1.120767,0.4131734,-1.759475,-0.006712877,0,0,0.06465649,-0.005252071,0.02377971,-0.6550039,-4.485539,0.0582934,0.6642055,1.35118,0.3534012,0.03278259,-0.04737443,0.01890824,-0.9109119,0.0008532768,0.07026671,0.7562129,1.411464,0.1659865,0.3506013,1.115823,0.3741458,271.6292,313.5516,311.7723,True
0,1.988893,0.08975826,0.08126716,-0.09250721,-1.497713,1.376126,-3.032822,0.645395,1.120844,0.4132655,-1.75931,0.01518213,0,0,0.06357635,-0.02019375,0.02903435,-0.6545528,-4.486821,0.05851577,0.6641588,1.351156,0.3532491,0.03583654,-0.06016961,0.007178409,-0.9112592,-0.0003743073,0.07057643,0.7558836,1.411453,0.1657884,0.3507142,1.115779,0.3742791,271.5981,317.8661,307.3494,True
0,2.000004,0.08442616,0.08765302,-0.09253649,-1.496841,1.374886,-3.033502,0.6457356,1.120892,0.4132853,-1.759276,0.002967898,0,0,0.06987315,-0.04900314,0.03204007,-0.6541523,-4.489433,0.05967292,0.6642096,1.351229,0.3531837,0.03683218,-0.06872614,0.001852039,-0.9115217,-0.002161022,0.07126779,0.7557733,1.411331,0.165554,0.3508056,1.115748,0.3744027,271.5727,321.0958,303.9925,True
0,2.011115,0.08015663,0.09832159,-0.08940074,-1.496071,1.373345,-3.034127,0.6460522,1.120994,0.4133277,-1.759442,-0.01515339,0,0,0.08253182,-0.08100911,0.03179261,-0.6538678,-4.492651,0.06093898,0.664332,1.351268,0.3530593,0.04100712,-0.07833589,-0.004572244,-0.9119063,-0.003734285,0.07172719,0.7557437,1.411313,0.1653252,0.350882,1.115736,0.3745154,271.56,323.8904,301.0862,True
0,2.022226,0.07268849,0.1143039,-0.08841221,-1.495421,1.371426,-3.034577,0.6464826,1.121006,0.4133277,-1.759492,-0.004293917,0,0,0.09311283,-0.09808819,0.03057068,-0.6536809,-4.495422,0.06174646,0.6644284,1.351295,0.3529832,0.04839007,-0.07835807,-0.01210269,-0.9123734,-0.004789828,0.07158338,0.7555742,1.411323,0.1650884,0.3509566,1.115731,0.374619,271.5645,327.1156,297.7881,True
