loc,t,aDotUA,bDotUA,gDotUA,aUA,bUA,gUA,xUA,yUA,zUA,qE,qDotE,emgA,emgB,aDotSH,bDotSH,gDotSH,aSH,bSH,gSH,xSH,ySH,zSH,aDotUB,bDotUB,gDotUB,aUB,bUB,gUB,xUB,yUB,zUB,xHand,yHand,zHand,aHand,bHand,gHand,enable
2,0,-0.06564268,0.1872922,0.434727,-1.404762,-2.094824,2.647431,0.7232764,1.263903,-0.01669604,-0.6559126,-0.004371574,0,0,0.08221485,-0.253355,-0.1030517,-1.017579,-1.47096,-0.3284338,0.8169651,1.420232,-0.02322799,0.1205772,-0.1297718,0.030548,-0.9697012,0.01588908,0.01336401,0.8710055,1.501484,0.1791406,0.4321846,1.010941,0.1441054,51.62599,124.5079,188.3327,True
2,0.01111111,-0.06310162,0.1159595,0.4571887,-1.410463,-2.096584,2.648315,0.7231081,1.26339,-0.01614535,-0.6554332,0.04548905,0,0,0.0960065,-0.2512753,-0.1127297,-1.018216,-1.47453,-0.3280444,0.8162601,1.420183,-0.02329889,0.1259171,-0.1233938,0.02945586,-0.9694743,0.01469492,0.0126098,0.8710285,1.501445,0.17903,0.4333367,1.00985,0.1458397,51.51106,124.7503,188.3918,True
2,0.02222222,-0.06396112,0.07122599,0.4668548,-1.415648,-2.098533,2.649414,0.7229075,1.262941,-0.01556033,-0.6547642,0.06106793,0,0,0.1065613,-0.2566438,-0.124525,-1.01894,-1.478858,-0.3273494,0.8155046,1.420035,-0.02315781,0.1279916,-0.1276538,0.02826879,-0.9692628,0.01276413,0.01215014,0.8710196,1.501443,0.178909,0.4344619,1.008516,0.1474549,51.30349,124.5324,188.1075,True
2,0.03333334,-0.07654908,0.003017813,0.4692233,-1.4214,-2.099053,2.650781,0.722858,1.262502,-0.01496115,-0.6539094,0.07786599,0,0,0.1125887,-0.2704603,-0.1693287,-1.021088,-1.484024,-0.3261288,0.8148191,1.419952,-0.02315232,0.1257245,-0.1403925,0.02704601,-0.9690545,0.01043999,0.01229821,0.8709452,1.501356,0.1788001,0.4355265,1.007016,0.1490837,51.03087,124.0046,187.5755,True
2,0.04444445,-0.08622381,-0.008743748,0.4586858,-1.42566,-2.100992,2.652449,0.722687,1.262282,-0.01440603,-0.6533363,0.05129074,0,0,0.09623671,-0.2948435,-0.2076169,-1.023325,-1.49008,-0.323413,0.8140471,1.41988,-0.02329129,0.1258681,-0.1469022,0.03544129,-0.9686663,0.008587097,0.0120769,0.8709193,1.501455,0.1786567,0.4366027,1.005489,0.1507867,50.72776,123.4668,186.9968,True
2,0.05555556,-0.08764118,0.01464515,0.4298981,-1.42853,-2.103618,2.653892,0.7225947,1.262034,-0.01387936,-0.653242,0.008933405,0,0,0.07905178,-0.3128631,-0.2160496,-1.024591,-1.495624,-0.3208007,0.8134596,1.419787,-0.0233328,0.1269564,-0.1533567,0.03850494,-0.9681714,0.006223674,0.01198715,0.8708342,1.501459,0.1784835,0.437725,1.004062,0.1525862,50.4464,123.0457,186.4451,True
2,0.06666667,-0.08270448,0.04869473,0.4010245,-1.430716,-2.106753,2.65512,0.7224319,1.261786,-0.01341528,-0.653234,0.002592375,0,0,0.03531778,-0.3211848,-0.2189739,-1.025753,-1.500858,-0.3169596,0.8130465,1.419627,-0.02334335,0.1301731,-0.1523062,0.03950784,-0.9677629,0.004758004,0.01144813,0.8706843,1.501509,0.1783567,0.4389175,1.002837,0.154423,50.22647,122.6871,185.8711,True
2,0.07777778,-0.07281035,0.1285295,0.3464608,-1.430465,-2.111352,2.656285,0.7222116,1.26162,-0.01305646,-0.6529837,0.02443688,0,0,-0.0007675141,-0.285861,-0.2229444,-1.027635,-1.503963,-0.3141731,0.8125629,1.419552,-0.0234448,0.1258549,-0.1500937,0.03644837,-0.9674955,0.002784069,0.01130805,0.8706143,1.501556,0.1782241,0.4401382,1.001848,0.1562602,50.04799,122.5635,185.4616,True
2,0.08888889,-0.05915898,0.1562451,0.334551,-1.432165,-2.115192,2.657087,0.7218754,1.261444,-0.01264977,-0.6525879,0.03639324,0,0,-0.02483614,-0.2367878,-0.1918214,-1.028363,-1.505362,-0.3123491,0.8121517,1.419481,-0.02351233,0.1216052,-0.138267,0.03353866,-0.9673768,0.001904426,0.01072109,0.870302,1.501688,0.1780697,0.4413064,1.001079,0.158066,49.93784,122.6449,185.2139,True
2,0.1,-0.03687288,0.1818669,0.332149,-1.434013,-2.1194,2.657347,0.72153,1.261229,-0.01244223,-0.6521453,0.04016134,0,0,-0.03074867,-0.1984766,-0.1469884,-1.028199,-1.506705,-0.311245,0.8119648,1.419574,-0.0236358,0.1131572,-0.1318328,0.03491131,-0.966998,0.0003030677,0.01073094,0.8702049,1.501753,0.1779372,0.4423305,1.000484,0.1598101,49.88455,122.8744,185.0841,True
2,0.1111111,0.001384407,0.1723615,0.321122,-1.436166,-2.122323,2.65649,0.7211077,1.261109,-0.01219094,-0.6517149,0.03885305,0,0,-0.0229845,-0.1751158,-0.1171791,-1.028104,-1.508046,-0.3105502,0.8115671,1.419551,-0.02371863,0.1058993,-0.1286708,0.04257743,-0.9665282,-0.0007201188,0.01048007,0.8700366,1.501937,0.1777942,0.4431592,1.000024,0.1614475,49.85067,123.2224,185.0706,True
2,0.1222222,0.02362761,0.1542796,0.3038778,-1.438121,-2.12453,2.655793,0.720721,1.261018,-0.01197776,-0.6511077,0.05464238,0,0,-0.003397636,-0.1486403,-0.07359881,-1.027322,-1.508897,-0.310736,0.811373,1.419739,-0.02379876,0.09846145,-0.1264865,0.042788,-0.9660787,-0.002352903,0.01058873,0.8699498,1.501906,0.1775477,0.4437723,0.9996818,0.1630037,49.84308,123.334,184.9465,True
2,0.1333333,0.0645582,0.09674419,0.2289722,-1.438422,-2.12371,2.653626,0.7202764,1.261045,-0.01178652,-0.6501778,0.08285209,0,0,0.02890155,-0.1349958,-0.03224823,-1.02597,-1.50963,-0.3117962,0.8110259,1.419817,-0.02382997,0.09075938,-0.1230072,0.03233552,-0.9665868,-0.002942127,0.01046329,0.8701471,1.501813,0.1774915,0.444229,0.9994532,0.1645241,49.82883,123.3342,184.7826,True
2,0.1444445,0.09589873,0.05090186,0.1573426,-1.438408,-2.122814,2.651705,0.7197688,1.261077,-0.01155099,-0.6498709,0.02399107,0,0,0.06435092,-0.1192261,0.0005477443,-1.024983,-1.510372,-0.313286,0.8106217,1.419906,-0.02396202,0.07571565,-0.1099536,0.02332096,-0.966606,-0.003860252,0.01074958,0.8699877,1.501952,0.1773026,0.4444758,0.9993668,0.1660451,49.7821,123.289,184.5605,True
2,0.1555556,0.1179495,0.02319843,0.1188105,-1.43877,-2.122291,2.64962,0.7192118,1.261161,-0.01135015,-0.6492323,0.0572416,0,0,0.07331236,-0.1332238,0.07609849,-1.02146,-1.511543,-0.3136756,0.8100731,1.419932,-0.02413884,0.06692902,-0.09789685,0.00878321,-0.967348,-0.004160257,0.01050191,0.8699728,1.501993,0.1771929,0.444484,0.9994745,0.167489,49.74372,123.3191,184.2962,True
2,0.1666667,0.170709,-0.01084966,0.06079809,-1.438344,-2.120813,2.645925,0.7183998,1.261349,-0.01124516,-0.6491748,0.0006516275,0,0,0.03327319,-0.16725,0.1658063,-1.016068,-1.513118,-0.3119528,0.8096547,1.419996,-0.02421138,0.06243281,-0.1073461,0.002347399,-0.9674519,-0.005991047,0.01107902,0.8695612,1.501812,0.1770274,0.4439868,0.9998279,0.1686555,49.71696,123.434,183.9964,True
2,0.1777778,0.2532701,-0.03736907,0.001407452,-1.43733,-2.118809,2.640191,0.7174852,1.261507,-0.01122734,-0.6493255,-0.01544481,0,0,0.008880891,-0.2044837,0.2074581,-1.011868,-1.515829,-0.3098939,0.8094993,1.420153,-0.02429101,0.06335305,-0.1190371,6.252667E-07,-0.9675595,-0.00810027,0.01156478,0.8693186,1.501839,0.1768872,0.4429582,1.000499,0.1693625,49.79005,123.5031,183.8227,True
2,0.1888889,0.308315,-0.05859639,-0.03853938,-1.436433,-2.116865,2.634771,0.716516,1.261728,-0.01113215,-0.6487167,0.05353479,0,0,0.02599742,-0.1981792,0.2137444,-1.008785,-1.517161,-0.310018,0.8090281,1.420191,-0.02436805,0.05296068,-0.1212816,0.01193362,-0.9670539,-0.009847571,0.01235787,0.8689855,1.501938,0.1766892,0.4414748,1.001505,0.1696164,49.9353,123.4624,183.8158,True
2,0.2,0.3899801,-0.1085396,-0.08722878,-1.435617,-2.112998,2.627169,0.7152367,1.262133,-0.01111677,-0.6472296,0.1292921,0,0,0.08685611,-0.1526398,0.2016847,-1.007086,-1.516711,-0.3134141,0.8086305,1.420202,-0.02442703,0.04489791,-0.1022569,0.02522873,-0.9663264,-0.01049965,0.01252431,0.8687005,1.502023,0.1766143,0.4394077,1.002823,0.1695311,50.06866,123.3841,183.9065,True
2,0.2111111,0.4760051,-0.1712372,-0.1295524,-1.435134,-2.108143,2.618464,0.7138593,1.262619,-0.01092786,-0.6467471,0.03344632,0,0,0.1443976,-0.1027923,0.169409,-1.006443,-1.515871,-0.3173218,0.8081293,1.420261,-0.02457878,0.03862887,-0.07658411,0.02259845,-0.9662481,-0.0103332,0.01229022,0.8685495,1.501977,0.1764984,0.4367101,1.004509,0.1692066,50.22571,123.2712,184.0732,True
2,0.2222222,0.5397584,-0.2126659,-0.1567653,-1.4348,-2.103504,2.609618,0.7124143,1.263152,-0.01079646,-0.6456951,0.09067155,0,0,0.1700509,-0.07414225,0.1628802,-1.004966,-1.515374,-0.3201194,0.8077688,1.420384,-0.02466434,0.03320263,-0.07647637,0.01846519,-0.9662284,-0.01144813,0.01272432,0.8683425,1.501994,0.1763537,0.4335069,1.006632,0.1687449,50.45076,123.1003,184.2712,True
2,0.2333333,0.6682149,-0.2582328,-0.2123315,-1.43342,-2.0976,2.597075,0.7105277,1.264013,-0.01044372,-0.6447684,0.07329892,0,0,0.1914175,-0.04546311,0.1521237,-1.003835,-1.514307,-0.3236004,0.807193,1.420421,-0.02476856,0.03405263,-0.08490653,0.01191654,-0.9662864,-0.01313804,0.01318291,0.8681567,1.501857,0.1761558,0.4296901,1.009255,0.1682643,50.69447,122.8157,184.3692,True
2,0.2444444,0.747842,-0.2559464,-0.2387149,-1.431959,-2.09349,2.585923,0.7086711,1.26474,-0.01013002,-0.6446293,0.001791935,0,0,0.2127828,-0.03171345,0.150924,-1.002363,-1.513751,-0.3269012,0.8063517,1.420264,-0.02480254,0.03705241,-0.09121635,0.005349676,-0.9664186,-0.01467096,0.01338931,0.8678941,1.501873,0.1759054,0.4253242,1.012479,0.1678338,51.04729,122.4648,184.4657,True
2,0.2555556,0.7977686,-0.2441218,-0.2498971,-1.43054,-2.089776,2.574837,0.7067149,1.265408,-0.009745449,-0.6428748,0.1517381,0,0,0.2223052,-0.05520561,0.1572089,-1.00017,-1.514699,-0.3291856,0.8058105,1.420291,-0.02484295,0.03682498,-0.09427119,-0.003221292,-0.9667647,-0.01608296,0.01376375,0.8676223,1.501956,0.1757767,0.4205209,1.016352,0.167541,51.50054,122.1533,184.6173,True
2,0.2666667,0.8785456,-0.2119721,-0.2603629,-1.428591,-2.086987,2.562278,0.7045641,1.266248,-0.009290397,-0.6429792,-0.02897639,0,0,0.2135169,-0.1020288,0.1497463,-0.9979759,-1.517126,-0.3299673,0.804883,1.420172,-0.02482897,0.04045301,-0.1120792,-0.02384542,-0.9676628,-0.01830324,0.01452302,0.8671765,1.501961,0.1754989,0.4150948,1.020924,0.1675246,52.01087,121.9365,184.8285,True
2,0.2777778,0.9295121,-0.1830975,-0.2694562,-1.426445,-2.084224,2.549975,0.7023492,1.266893,-0.008971691,-0.6439843,-0.1007949,0,0,0.2218851,-0.1265584,0.1432585,-0.9960995,-1.518972,-0.3316898,0.8040106,1.420055,-0.02487865,0.03913131,-0.132237,-0.02841082,-0.9681928,-0.02083524,0.01547403,0.8667586,1.501972,0.1752782,0.4094446,1.026223,0.1677736,52.83279,121.8874,185.2248,True
2,0.2888889,1.024044,-0.1551878,-0.2907103,-1.423598,-2.081403,2.535002,0.6996799,1.267768,-0.008546352,-0.6443071,-0.03832223,0,0,0.2386358,-0.1532338,0.1175422,-0.9948084,-1.521801,-0.3334158,0.8028367,1.419856,-0.02490765,0.03830415,-0.1399222,-0.0157,-0.9675871,-0.02350812,0.01671187,0.866052,1.501908,0.1750427,0.4038092,1.032089,0.1683565,53.8819,121.964,185.7198,True
2,0.3,1.066498,-0.1508479,-0.3050032,-1.42136,-2.077815,2.521309,0.6972001,1.268521,-0.00823918,-0.6452498,-0.1001472,0,0,0.2733948,-0.1661108,0.06615011,-0.9950369,-1.524658,-0.3361322,0.8017573,1.419645,-0.02503723,0.03549274,-0.1401655,0.0003461035,-0.9671211,-0.0254786,0.01747593,0.8656237,1.501865,0.1747284,0.3982373,1.038325,0.1693674,54.99487,122.2108,186.2503,True
2,0.3111111,1.11545,-0.1784341,-0.3171803,-1.419827,-2.073149,2.506744,0.6945677,1.269504,-0.007791966,-0.644779,0.03295924,0,0,0.3123201,-0.1565945,-0.01399611,-0.9971546,-1.527331,-0.3394153,0.8004563,1.419457,-0.02512905,0.03374243,-0.1404127,0.01636976,-0.9664153,-0.02736851,0.0182605,0.8650837,1.501901,0.1744938,0.3926944,1.04472,0.170782,56.09576,122.6217,186.7176,True
2,0.3222222,1.148508,-0.2103135,-0.3217203,-1.418927,-2.068181,2.492326,0.6918046,1.270561,-0.007408351,-0.6458091,-0.113092,0,0,0.3598076,-0.1450003,-0.08993202,-0.9998124,-1.530038,-0.3434058,0.7992671,1.419517,-0.02516952,0.03289903,-0.131991,0.02292406,-0.9659818,-0.02882952,0.0187396,0.8645644,1.501899,0.1742571,0.3869424,1.051195,0.1725437,57.07667,123.1045,187.0708,True
2,0.3333333,1.168786,-0.2251772,-0.3219039,-1.417915,-2.063584,2.478017,0.6891775,1.271584,-0.006934285,-0.6467274,-0.09339663,0,0,0.3755535,-0.1492911,-0.1220027,-1.001485,-1.532991,-0.3465092,0.7980072,1.419403,-0.02527514,0.0361138,-0.1309694,0.02287422,-0.9656574,-0.03090305,0.0192685,0.8638151,1.501912,0.1740772,0.3811813,1.057758,0.1743589,58.0671,123.5428,187.3071,True
2,0.3444445,1.189012,-0.2389927,-0.3274051,-1.416935,-2.058698,2.4634,0.6864727,1.272817,-0.006445855,-0.6478725,-0.1177272,0,0,0.3539467,-0.1885863,-0.1400228,-1.00215,-1.537629,-0.3472253,0.7965791,1.419343,-0.02525985,0.04260918,-0.1332437,0.0280186,-0.9651147,-0.03298072,0.01983655,0.863313,1.501846,0.173895,0.375357,1.064415,0.1760457,59.00072,123.8253,187.4275,True
2,0.3555556,1.189035,-0.2400571,-0.3252736,-1.415905,-2.054294,2.449527,0.6838217,1.273898,-0.005907953,-0.6490731,-0.1211656,0,0,0.3454321,-0.1853497,-0.141027,-1.002989,-1.540452,-0.3492627,0.7952724,1.41928,-0.02530122,0.04806069,-0.1397977,0.03524083,-0.9645011,-0.03517317,0.02034948,0.8627057,1.501889,0.1736974,0.3695051,1.071171,0.1774568,59.92882,124.0166,187.58,True
2,0.3666667,1.181674,-0.2283366,-0.3124376,-1.414914,-2.050591,2.436061,0.6810994,1.275009,-0.00525552,-0.6499823,-0.09439423,0,0,0.3340334,-0.1896271,-0.08982424,-1.001567,-1.54248,-0.3513253,0.7934568,1.419338,-0.02527365,0.06217414,-0.1368822,0.04453959,-0.9637586,-0.03723871,0.02011672,0.8623892,1.501871,0.1734466,0.3637239,1.078005,0.1785472,60.85159,124.1932,187.8758,True
2,0.3777778,1.1765,-0.2027555,-0.2911179,-1.413991,-2.047752,2.422595,0.678329,1.276168,-0.004668117,-0.6512063,-0.1243972,0,0,0.3461265,-0.2334737,-0.003674589,-0.997765,-1.545852,-0.353855,0.7919581,1.419478,-0.02523723,0.06885881,-0.1296385,0.05409265,-0.9628472,-0.03879733,0.0199572,0.8616592,1.502116,0.1732078,0.3579934,1.084893,0.1793555,61.75676,124.3482,188.2549,True
2,0.3888889,1.177723,-0.1643462,-0.2656399,-1.412691,-2.045821,2.409073,0.6754239,1.27726,-0.004135191,-0.6523727,-0.1165209,0,0,0.3496633,-0.2506193,0.05913225,-0.9940441,-1.548512,-0.3564372,0.790417,1.419596,-0.02520645,0.07918635,-0.1444905,0.04507554,-0.9626384,-0.04136036,0.02020807,0.8610005,1.502172,0.1729045,0.352372,1.091755,0.1799598,62.70626,124.5123,188.7494,True
2,0.4,1.171553,-0.1472829,-0.240033,-1.41213,-2.043738,2.395777,0.6727028,1.278318,-0.003691226,-0.6530731,-0.07419445,0,0,0.3531879,-0.2826923,0.1304344,-0.9892871,-1.551657,-0.3587331,0.7887795,1.419771,-0.02523685,0.09366281,-0.1732277,0.03573243,-0.9626177,-0.04499903,0.02080302,0.8603004,1.502364,0.1725475,0.3468949,1.098493,0.1805212,63.64012,124.6662,189.3015,True
2,0.4111111,1.142973,-0.1377274,-0.2195162,-1.411674,-2.041606,2.383591,0.6700146,1.279516,-0.003291607,-0.6533262,-0.03470365,0,0,0.3512784,-0.3243135,0.1921786,-0.9835997,-1.55551,-0.3604935,0.7871208,1.419944,-0.02525115,0.1123649,-0.2094665,0.02722532,-0.9627135,-0.04934704,0.0213993,0.8595954,1.502474,0.1721024,0.3415975,1.105039,0.1812149,64.50692,124.8489,189.8545,True
2,0.4222222,1.085517,-0.1442533,-0.2146644,-1.411232,-2.038581,2.372725,0.6674156,1.280672,-0.002812505,-0.6535482,-0.03279523,0,0,0.3460394,-0.3381745,0.214561,-0.9794585,-1.559046,-0.3622464,0.7854471,1.420094,-0.02530533,0.1236016,-0.2413433,0.01786635,-0.9633538,-0.0532832,0.02223207,0.8590961,1.502293,0.171636,0.3365098,1.111357,0.182171,65.3063,125.1086,190.372,True
2,0.4333333,1.042922,-0.1603434,-0.2173927,-1.411081,-2.035182,2.362065,0.664778,1.281796,-0.002323002,-0.654335,-0.08355711,0,0,0.3555962,-0.3510079,0.2187406,-0.9755366,-1.562801,-0.3643958,0.7837477,1.420212,-0.02536312,0.1360673,-0.2583593,0.009827957,-0.9635945,-0.05746955,0.02269093,0.8584926,1.502329,0.171192,0.3317772,1.117463,0.1833774,66.05216,125.3614,190.7253,True
2,0.4444444,0.9768669,-0.1914194,-0.2251812,-1.411353,-2.030955,2.352808,0.6621795,1.282898,-0.001934439,-0.6557257,-0.1354835,0,0,0.3725486,-0.3670713,0.2164628,-0.9720192,-1.567174,-0.3666358,0.7820108,1.420243,-0.02540287,0.1418359,-0.2708176,-0.0128898,-0.9645022,-0.0615085,0.02307869,0.8578064,1.502534,0.1707334,0.3274362,1.123355,0.1847475,66.76476,125.7133,191.0124,True
2,0.4555556,0.9673712,-0.2042248,-0.2197308,-1.411726,-2.027457,2.341755,0.6595426,1.283928,-0.001553595,-0.6566386,-0.08889692,0,0,0.423498,-0.3757948,0.1947982,-0.969168,-1.571518,-0.3705746,0.7800205,1.420237,-0.02557871,0.1456749,-0.2823385,-0.02702549,-0.9653,-0.06567795,0.02370959,0.857133,1.502607,0.1701579,0.3233871,1.128989,0.186132,67.4705,126.1951,191.3077,True
2,0.4666667,0.9718681,-0.2169555,-0.1995236,-1.412586,-2.024395,2.330279,0.6568599,1.284948,-0.001119435,-0.6578935,-0.1223846,0,0,0.4530846,-0.3662858,0.1520008,-0.9675413,-1.575589,-0.3742801,0.7781119,1.420289,-0.02573019,0.1456505,-0.2887484,-0.02606028,-0.9655754,-0.06983181,0.02446273,0.856297,1.502681,0.1696685,0.3194422,1.13432,0.1873801,68.14404,126.6913,191.5694,True
2,0.4777778,1.003263,-0.2125197,-0.1497759,-1.414156,-2.022916,2.317946,0.6541345,1.286004,-0.0006150305,-0.6571185,0.0670234,0,0,0.4686397,-0.3865317,0.1028606,-0.966141,-1.581254,-0.3766093,0.7760677,1.420242,-0.02592739,0.1396248,-0.2793097,-0.01403606,-0.9653373,-0.07321642,0.0249666,0.8555094,1.5028,0.169229,0.315499,1.139307,0.18831,68.75884,127.0682,191.7612,True
2,0.4888889,1.025121,-0.2038522,-0.09355086,-1.416133,-2.022083,2.305729,0.6514728,1.287152,-0.0002176166,-0.6556868,0.1172328,0,0,0.4449094,-0.4023574,0.06997231,-0.9645272,-1.586985,-0.3776019,0.7742531,1.42028,-0.02611208,0.1296384,-0.2561283,0.00683227,-0.9646007,-0.07564749,0.02535409,0.8544323,1.502916,0.1687715,0.3113661,1.144004,0.1889462,69.22253,127.111,191.8196,True
2,0.5,1.036087,-0.189918,-0.05959302,-1.417673,-2.021306,2.293747,0.6488137,1.288222,0.0002351999,-0.6536729,0.1708718,0,60,0.4138699,-0.4021846,0.04887255,-0.9629202,-1.591986,-0.3782389,0.7725859,1.420415,-0.0261291,0.1239701,-0.2330145,0.02973335,-0.9635066,-0.07787655,0.02541614,0.8535132,1.503049,0.1683552,0.3070326,1.148553,0.189423,69.55893,126.725,191.689,True
2,0.5111111,1.037327,-0.1440557,-0.03090405,-1.418172,-2.021799,2.282446,0.6463583,1.289288,0.0006611943,-0.6521027,0.1275839,0,60,0.371262,-0.3859941,0.03852656,-0.9614757,-1.596193,-0.3785279,0.7708557,1.420377,-0.02622297,0.1171344,-0.222675,0.05244036,-0.9623338,-0.08049431,0.02582441,0.8525637,1.503118,0.1679124,0.3026668,1.153152,0.1899872,69.82758,125.9986,191.3814,True
2,0.5222223,1.026467,-0.1036282,-0.0415087,-1.417477,-2.021311,2.271359,0.6438372,1.290283,0.0009728074,-0.651193,0.06938139,0,60,0.3522181,-0.3635408,0.04294796,-0.9595785,-1.599485,-0.3799846,0.7688444,1.420375,-0.02624962,0.1110362,-0.2206871,0.06433907,-0.9613553,-0.08343058,0.02653733,0.8516328,1.503154,0.1673568,0.2985055,1.157981,0.1908329,70.14065,125.3279,191.076,True
2,0.5333334,1.012207,-0.03977072,-0.06598881,-1.414844,-2.021266,2.260608,0.6412871,1.291337,0.001387268,-0.6509836,0.006896662,0,60,0.3332689,-0.3347089,0.0569637,-0.9575321,-1.602033,-0.3815671,0.7671332,1.420302,-0.02637812,0.1035134,-0.2323645,0.06539163,-0.9606501,-0.08709735,0.02775067,0.8506525,1.503208,0.1668152,0.2946792,1.163129,0.1920565,70.59746,125.0867,191.0247,True
2,0.5444446,0.9991072,0.0006342232,-0.08723,-1.412837,-2.020723,2.249776,0.6387708,1.292511,0.001677632,-0.6512073,-0.03081226,0,60,0.3399042,-0.2996084,0.06975046,-0.955547,-1.604111,-0.3844393,0.7653196,1.420176,-0.02645728,0.09254546,-0.2470612,0.05688388,-0.9604573,-0.09121539,0.02935815,0.8496575,1.503216,0.1662482,0.2913109,1.168584,0.1936606,71.21356,125.5082,191.4038,True
2,0.5555557,0.9914674,0.004839972,-0.1042049,-1.411654,-2.019428,2.23875,0.6362872,1.293522,0.001832098,-0.6516351,-0.04870461,0,60,0.3497728,-0.2602683,0.08464954,-0.9536332,-1.605555,-0.3878798,0.7637124,1.420138,-0.02660522,0.08138809,-0.259481,0.0398934,-0.9606837,-0.09522918,0.03110599,0.8486096,1.503312,0.1656896,0.2881948,1.174264,0.1955338,71.93655,126.6604,192.2462,True
2,0.5666668,0.9849772,0.001620993,-0.1147915,-1.410711,-2.018108,2.227637,0.6338799,1.294517,0.002112329,-0.6519845,-0.04120387,0,60,0.3425478,-0.2240275,0.09433585,-0.9518297,-1.606452,-0.3909632,0.7620025,1.42003,-0.02677318,0.07688241,-0.2710597,0.03341539,-0.9606438,-0.09943938,0.03282293,0.8475571,1.503393,0.1651022,0.2851508,1.180077,0.1975011,72.67099,128.3116,193.4668,True
2,0.577778,0.9701419,-0.001592949,-0.1082393,-1.410195,-2.017323,2.217133,0.6314311,1.295465,0.002263129,-0.6521879,-0.02834769,0,60,0.3298378,-0.1877312,0.08062205,-0.9510819,-1.60741,-0.3935905,0.7602277,1.419923,-0.02699789,0.07376146,-0.2839458,0.0407393,-0.960012,-0.1039328,0.03463175,0.8463364,1.503553,0.1644531,0.2820834,1.18596,0.1993419,73.39722,129.885,194.5928,True
2,0.5888891,0.9510214,0.01009248,-0.100611,-1.409256,-2.016962,2.207064,0.629029,1.296462,0.002462655,-0.6518199,0.02264497,0,60,0.3171095,-0.1450313,0.05945972,-0.9511043,-1.607522,-0.3965937,0.7584364,1.419852,-0.02721617,0.07298233,-0.2873648,0.05346398,-0.9594443,-0.1082994,0.0362411,0.8452314,1.503778,0.1638699,0.2789288,1.19182,0.200859,74.14557,131.2319,195.6021,True
2,0.6000003,0.9054146,0.02599226,-0.07673408,-1.408601,-2.017419,2.198622,0.626596,1.297306,0.002633423,-0.6512111,0.04430583,0,60,0.3063099,-0.1278946,0.02546534,-0.9514819,-1.609069,-0.3988219,0.7566414,1.419817,-0.02732337,0.07367676,-0.2782036,0.07917761,-0.9577803,-0.1118239,0.03733539,0.8440453,1.503845,0.1632864,0.2756951,1.197544,0.2019767,74.88788,132.423,196.6622,True
2,0.6111114,0.8397188,0.02907969,-0.04199867,-1.408504,-2.018171,2.191403,0.6243584,1.298188,0.002757609,-0.6499785,0.1022729,0,60,0.3019085,-0.1289122,0.005252283,-0.9515197,-1.611027,-0.4009157,0.7546852,1.41979,-0.02752909,0.07408352,-0.2720592,0.09418982,-0.9563246,-0.1153588,0.03853221,0.842832,1.503984,0.1627168,0.2724658,1.202983,0.2027159,75.60526,133.5154,197.8052,True
2,0.6222225,0.7995055,0.01090632,-0.02025069,-1.409244,-2.018314,2.183955,0.6219764,1.29892,0.00284645,-0.6487061,0.105366,0,60,0.3040302,-0.1427974,0.0148025,-0.9501663,-1.613381,-0.4029083,0.7525694,1.419654,-0.02772838,0.07525142,-0.2732061,0.09840716,-0.9552716,-0.119235,0.03978043,0.8416395,1.504095,0.1621009,0.2693239,1.207983,0.2031875,76.27163,134.61,199.0831,True
2,0.6333337,0.7442694,-0.04143073,-0.018534,-1.410955,-2.016805,2.177094,0.6197281,1.299551,0.002852082,-0.6467934,0.1668715,0,60,0.3070753,-0.187566,0.02324276,-0.9482073,-1.617229,-0.4041494,0.7504854,1.41961,-0.02789772,0.07938025,-0.2806634,0.09500172,-0.9543608,-0.1238341,0.04134371,0.8405408,1.504179,0.1614756,0.2664077,1.212332,0.2035239,76.8979,135.6235,200.3347,True
2,0.6444448,0.721792,-0.07347167,-0.03744636,-1.411642,-2.014872,2.169294,0.6173577,1.300191,0.002898425,-0.6431193,0.3280086,0,60,0.3088733,-0.2482885,0.01568787,-0.9464172,-1.622585,-0.4045344,0.7483237,1.4196,-0.02802271,0.08661973,-0.2859676,0.08724231,-0.9542985,-0.1286831,0.04280073,0.839468,1.5044,0.1608869,0.2637672,1.215853,0.2038597,77.39777,136.319,201.2184,True
2,0.655556,0.7110693,-0.08630919,-0.04796222,-1.41231,-2.013347,2.161407,0.6150045,1.300812,0.002909988,-0.6385152,0.4085692,0,60,0.3022969,-0.274886,0.007174581,-0.9450877,-1.626982,-0.4050338,0.7460058,1.419431,-0.0281387,0.08997575,-0.2786064,0.0915469,-0.9532567,-0.1321947,0.04371952,0.8382286,1.5045,0.1603438,0.261164,1.218474,0.2042931,77.70146,136.5613,201.4853,True
2,0.6666671,0.6844315,-0.09169689,-0.0508908,-1.41273,-2.012169,2.154294,0.6127098,1.301349,0.002942294,-0.631876,0.5953035,0,60,0.2967253,-0.2908053,-0.01837779,-0.9445679,-1.631749,-0.4053574,0.7439401,1.419431,-0.02831769,0.09154213,-0.2522343,0.1036249,-0.9523528,-0.135394,0.04432059,0.8370838,1.504665,0.1597905,0.2584411,1.220212,0.2047151,77.76941,136.3935,201.1756,True
2,0.6777782,0.6387554,-0.08327737,-0.03657976,-1.413418,-2.011855,2.148437,0.6105039,1.301785,0.002847493,-0.6240053,0.7018037,0,60,0.2850147,-0.2897001,-0.01724418,-0.9435473,-1.635559,-0.4059177,0.741962,1.41947,-0.02861044,0.0917407,-0.245956,0.1101203,-0.9510191,-0.1387416,0.04529025,0.8357531,1.504853,0.1591194,0.2553911,1.221221,0.205025,77.56564,135.9188,200.5427,True
2,0.6888894,0.577166,-0.06741974,-0.01468024,-1.413834,-2.01213,2.143703,0.6083658,1.302317,0.002805442,-0.6158656,0.7255164,0,60,0.2617666,-0.2906964,0.01167383,-0.9412575,-1.63875,-0.4061518,0.7399411,1.419421,-0.02885553,0.09292959,-0.2450194,0.1143034,-0.950552,-0.1428642,0.04636776,0.8347127,1.504963,0.1584909,0.2521101,1.2217,0.2051294,77.21074,135.0355,199.63,True
2,0.7000005,0.5357003,-0.05367961,-0.004666209,-1.414385,-2.012284,2.138819,0.6062484,1.302677,0.002664596,-0.6078074,0.7199349,0,60,0.226828,-0.2916483,0.04493423,-0.938401,-1.641689,-0.405784,0.7375116,1.419098,-0.0290688,0.09182169,-0.2492705,0.1142639,-0.9493977,-0.1464988,0.04760587,0.8334261,1.505079,0.1578349,0.24885,1.221795,0.2049968,76.84231,133.9923,198.7125,True
2,0.7111117,0.4846569,-0.04632878,0.00434535,-1.414604,-2.01238,2.134855,0.6042335,1.303004,0.002599418,-0.5995537,0.7393364,0,60,0.2036314,-0.2723952,0.06748799,-0.9360622,-1.643699,-0.4060615,0.7354763,1.418977,-0.02932954,0.08097629,-0.2736873,0.1141174,-0.948332,-0.1514191,0.04992974,0.8320287,1.505152,0.1572005,0.2458632,1.221572,0.2046807,76.51582,132.9208,197.8747,True
2,0.7222228,0.4494955,-0.04854476,0.00149177,-1.414877,-2.011832,2.130469,0.6020412,1.30336,0.002664149,-0.5902066,0.8400338,0,60,0.1973046,-0.2521287,0.06435511,-0.9347892,-1.646057,-0.4066607,0.7330751,1.418689,-0.02956155,0.06940238,-0.2661975,0.1177195,-0.9469972,-0.1549117,0.05151699,0.8306077,1.505259,0.1565754,0.2431993,1.221069,0.2043271,76.19518,131.9964,197.1972,True
2,0.7333339,0.4143948,-0.07213333,-0.001269907,-1.41679,-2.010747,2.126327,0.600086,1.303326,0.002225608,-0.5806325,0.8574002,0,60,0.1930664,-0.2211904,0.04631605,-0.9342896,-1.647743,-0.4076783,0.7310488,1.418557,-0.02984166,0.05895686,-0.2469798,0.12042,-0.9456725,-0.1576353,0.05279424,0.8291985,1.505326,0.156005,0.2407532,1.220311,0.2040498,75.86664,131.2663,196.6292,True
2,0.7444451,0.3877985,-0.09029985,-0.004182294,-1.417824,-2.009786,2.122412,0.5980682,1.303541,0.002006859,-0.5702478,0.9338657,0,60,0.1801981,-0.1699371,-0.002528887,-0.935757,-1.648897,-0.4087063,0.7295902,1.418585,-0.03013343,0.05058801,-0.2245385,0.1199263,-0.9444778,-0.1599412,0.05384352,0.8277416,1.505291,0.1554009,0.2383865,1.219313,0.2039055,75.50033,130.7147,196.1471,True
2,0.7555562,0.3454087,-0.1149475,0.00911925,-1.420625,-2.009038,2.119338,0.596127,1.303533,0.00177452,-0.5596159,0.9529222,0,60,0.1577381,-0.1495562,-0.03005195,-0.9364212,-1.650793,-0.4086565,0.7277923,1.41849,-0.03045064,0.05069441,-0.2203266,0.1231917,-0.9431095,-0.1628954,0.05501798,0.8261802,1.505528,0.1548672,0.2359277,1.218124,0.2038691,75.09954,130.1942,195.5644,True
2,0.7666674,0.2977032,-0.1416615,0.02455442,-1.422948,-2.008471,2.117323,0.5942709,1.303476,0.001477897,-0.5488189,0.9688179,0,60,0.1161481,-0.1589502,-0.02978631,-0.9359238,-1.653328,-0.4071031,0.7257495,1.418312,-0.03079525,0.04993983,-0.22054,0.137157,-0.9400282,-0.1661485,0.05662946,0.821255,1.505041,0.1545187,0.2335038,1.21675,0.2037262,74.71339,129.5011,194.7301,True
2,0.7777785,0.2445441,-0.1716163,0.02834391,-1.42561,-2.007325,2.116093,0.5924006,1.303398,0.001759529,-0.5383154,0.9419032,0,60,0.07660094,-0.1736752,-0.03913183,-0.9355285,-1.65667,-0.4047541,0.7241824,1.418272,-0.03096181,0.0449867,-0.2239754,0.154267,-0.9379291,-0.1695219,0.05838421,0.8194733,1.505027,0.153984,0.231059,1.215231,0.2034218,74.2888,128.7047,193.8944,True
2,0.7888896,0.1997505,-0.194107,0.01603787,-1.42774,-2.005673,2.114749,0.5906272,1.303336,0.001482427,-0.5283563,0.8943754,0,60,0.04323351,-0.2043728,-0.06877994,-0.9358891,-1.661402,-0.4012425,0.7221286,1.41807,-0.03124294,0.03789584,-0.2295264,0.1713961,-0.9355834,-0.1731097,0.06032646,0.8176532,1.505138,0.153403,0.2287191,1.213549,0.2029362,73.91905,127.6808,192.9614,True
2,0.8000008,0.1793987,-0.2197441,-0.0007619858,-1.430068,-2.003532,2.113069,0.5888233,1.303253,0.001518548,-0.5186256,0.8753771,0,60,0.0356805,-0.207526,-0.08152131,-0.9361885,-1.664912,-0.3995042,0.7200778,1.417901,-0.03144878,0.03480481,-0.2327821,0.176744,-0.9336872,-0.1765195,0.06204553,0.8158877,1.505204,0.1528428,0.2265196,1.211643,0.2023289,73.57581,126.6875,192.1697,True
2,0.8111119,0.1632032,-0.272037,-0.03460467,-1.43333,-1.999701,2.111282,0.5870626,1.303015,0.001206726,-0.5083793,0.9234636,0,60,0.03998443,-0.2075548,-0.07515825,-0.9358795,-1.667843,-0.3983623,0.7180545,1.417698,-0.03173769,0.02055447,-0.2227546,0.1570013,-0.9327791,-0.1792056,0.06391507,0.8140628,1.505254,0.1523197,0.2243682,1.209455,0.2017129,73.18713,125.7758,191.4637,True
2,0.8222231,0.1546146,-0.3104346,-0.05043501,-1.436847,-1.99624,2.109411,0.5852816,1.302871,0.000928998,-0.4977006,0.9610286,0,60,0.01973306,-0.2085339,-0.0760855,-0.9356303,-1.670976,-0.3961745,0.7163165,1.417571,-0.03208381,0.01715826,-0.2225668,0.1485854,-0.9312478,-0.1820336,0.06550764,0.8118188,1.505258,0.1517884,0.2222671,1.206995,0.2010117,72.6845,124.9836,190.737,True
2,0.8333342,0.1630912,-0.3743623,-0.06959422,-1.441536,-1.991779,2.106766,0.5834727,1.302647,0.0005885065,-0.4869952,0.9618814,0,60,-0.005828187,-0.2073491,-0.07591254,-0.9355333,-1.673941,-0.393501,0.7143636,1.417407,-0.03241071,0.0141926,-0.2162752,0.1562207,-0.9294214,-0.1849126,0.06716172,0.8099251,1.505364,0.1513068,0.2200556,1.204339,0.2001886,72.09121,124.0916,189.8548,True
2,0.8444453,0.1846008,-0.4637948,-0.07072492,-1.448075,-1.987121,2.103534,0.5816193,1.302553,0.0002251267,-0.4761503,0.9752502,0,60,-0.03674309,-0.1965397,-0.08634637,-0.9361171,-1.676713,-0.390397,0.7127368,1.417339,-0.03275874,0.00911165,-0.2046183,0.1629252,-0.9275305,-0.1872654,0.0686736,0.8080971,1.50528,0.1508493,0.2177037,1.20158,0.1990618,71.46239,123.0269,188.7653,True
2,0.8555565,0.1878767,-0.4872199,-0.06858936,-1.453022,-1.983392,2.100905,0.5798228,1.302516,-5.209446E-05,-0.4648825,1.013233,0,60,-0.03989257,-0.1805396,-0.09056427,-0.9366391,-1.678902,-0.3885438,0.7108381,1.417195,-0.03307128,-0.01062611,-0.1801651,0.1765879,-0.9251992,-0.1885948,0.07042543,0.8063531,1.505531,0.1504117,0.2151957,1.19883,0.1975748,70.8005,121.736,187.5867,True
2,0.8666676,0.1921483,-0.4914705,-0.0686259,-1.45738,-1.979965,2.098244,0.5780289,1.302523,-0.0003341138,-0.4535507,1.017236,0,60,-0.03439356,-0.1400806,-0.09160518,-0.937535,-1.67943,-0.3879938,0.7087557,1.417035,-0.03333119,-0.02314135,-0.1545285,0.1805066,-0.923172,-0.1893508,0.0717927,0.8046956,1.505607,0.1500127,0.2125,1.196229,0.1957434,70.11199,120.0966,186.2103,True
2,0.8777788,0.197192,-0.4478081,-0.08579403,-1.459674,-1.976856,2.095514,0.5762045,1.302644,-0.0005470514,-0.4429476,0.9497133,0,60,-0.0161716,-0.1082031,-0.09594388,-0.9385981,-1.680203,-0.3879147,0.7069213,1.416952,-0.03357252,-0.02935885,-0.1321145,0.1810258,-0.9212247,-0.1904702,0.07307315,0.8028429,1.505711,0.1495187,0.2096849,1.193932,0.193664,69.43562,118.2239,184.7809,True
2,0.8888899,0.2001509,-0.3806972,-0.09232305,-1.460793,-1.974865,2.093123,0.5742114,1.302794,-0.0008818507,-0.4325709,0.9320463,0,60,5.299598E-05,-0.09553303,-0.06833664,-0.9382141,-1.680811,-0.3881033,0.7050595,1.416831,-0.03383675,-0.03861134,-0.1129923,0.1890233,-0.9189062,-0.1914239,0.07439114,0.8009927,1.505794,0.1491047,0.2069334,1.191996,0.1915078,68.86682,116.7478,183.8752,True
2,0.900001,0.2117379,-0.3327316,-0.09358414,-1.462108,-1.972866,2.090176,0.5723119,1.302902,-0.001158684,-0.422265,0.9250827,0,60,0.000393454,-0.1180024,-0.000184074,-0.9351972,-1.682262,-0.3870537,0.7028532,1.416517,-0.03404912,-0.04380755,-0.1066137,0.1924533,-0.9166803,-0.1929386,0.07594483,0.7991176,1.505851,0.1486529,0.2043083,1.190416,0.1894632,68.42318,115.707,183.3827,True
2,0.9111122,0.2403077,-0.282601,-0.1003487,-1.462822,-1.970953,2.086372,0.5703266,1.303048,-0.001460969,-0.4123639,0.8882111,0,60,-0.01003892,-0.1425233,0.04992199,-0.9322219,-1.683995,-0.3855602,0.700979,1.41632,-0.03430474,-0.05471313,-0.1159892,0.1850681,-0.9154089,-0.1949204,0.0781201,0.7978971,1.506077,0.1481549,0.201775,1.189139,0.1876675,68.07958,115.1697,183.268,True
2,0.9222233,0.2646545,-0.2601847,-0.1102208,-1.463892,-1.968557,2.082326,0.5683239,1.303252,-0.001793355,-0.4022055,0.9127407,0,60,-0.01100758,-0.140417,0.0637906,-0.9305447,-1.685354,-0.3844774,0.698926,1.416032,-0.03460276,-0.05948687,-0.1220263,0.165899,-0.9143367,-0.1969619,0.08023172,0.7960994,1.506222,0.1476558,0.1993167,1.188075,0.1861968,67.82117,114.904,183.2919,True
2,0.9333345,0.3122804,-0.2292124,-0.1331267,-1.464348,-1.965745,2.07707,0.5661228,1.303584,-0.002200991,-0.3915832,0.9530757,0,60,-0.006655984,-0.1105988,0.05634524,-0.9301218,-1.685378,-0.3845232,0.6970026,1.415792,-0.03489569,-0.05993593,-0.1238568,0.1477617,-0.9134621,-0.1988998,0.08208954,0.7943351,1.506271,0.1471778,0.1969324,1.187142,0.185073,67.57697,114.6578,183.2258,True
2,0.9444456,0.3312739,-0.2227955,-0.1493041,-1.465398,-1.962778,2.072606,0.564024,1.303822,-0.002537459,-0.381239,0.9259469,0,60,0.007227791,-0.06908673,0.03180485,-0.9309623,-1.684879,-0.3854691,0.6949215,1.415403,-0.0351921,-0.06533854,-0.1184003,0.1426556,-0.9120687,-0.2004142,0.08383685,0.7925241,1.506337,0.1466917,0.1945433,1.186305,0.1842627,67.28017,114.4879,183.1043,True
2,0.9555568,0.3577456,-0.2110321,-0.1623765,-1.466027,-1.959858,2.067386,0.5618382,1.304262,-0.002910465,-0.3704761,0.9650306,0,60,0.01884709,-0.04459629,-0.000198897,-0.9321501,-1.684977,-0.386034,0.6929824,1.415158,-0.03548303,-0.0684161,-0.1131018,0.1460139,-0.9103606,-0.2019514,0.08565632,0.7906878,1.50643,0.1462283,0.1920697,1.185582,0.1836408,66.91987,114.354,182.8811,True
2,0.9666679,0.3660799,-0.2014478,-0.1784552,-1.466555,-1.956742,2.062814,0.5596766,1.304646,-0.00328061,-0.360674,0.8741267,0,60,0.03469023,-0.03291154,-0.02905538,-0.9334747,-1.685643,-0.3866036,0.6912065,1.41495,-0.03569266,-0.06803465,-0.1101532,0.160974,-0.9081427,-0.2036237,0.08741533,0.7887859,1.506505,0.1458369,0.1893961,1.185041,0.1830334,66.53775,114.2612,182.6376,True
2,0.977779,0.391195,-0.1684192,-0.2149862,-1.465513,-1.953184,2.057185,0.5572696,1.305302,-0.003675014,-0.3505945,0.9045107,0,60,0.03907178,-0.02549914,-0.01628981,-0.9330508,-1.685724,-0.3870865,0.6890414,1.414541,-0.035826,-0.06969394,-0.1018937,0.1781987,-0.9056697,-0.2048979,0.08910111,0.7869256,1.506534,0.1454062,0.1866193,1.1847,0.182264,66.23233,114.093,182.391,True
2,0.9888902,0.4111258,-0.15456,-0.2418383,-1.465026,-1.949497,2.051629,0.5548062,1.305855,-0.004042953,-0.3412404,0.8351698,0,60,0.05549116,0.01485503,0.02094223,-0.9322049,-1.683184,-0.3898045,0.6868982,1.414274,-0.03603619,-0.06652732,-0.1147489,0.1811077,-0.9037075,-0.2072524,0.09119915,0.7850125,1.506594,0.1449327,0.1837476,1.184574,0.1812515,65.96458,113.9088,182.2337,True
2,1.000001,0.4608437,-0.1449098,-0.2743247,-1.464403,-1.945114,2.044258,0.5523484,1.306379,-0.005129963,-0.3313015,0.8919829,0,60,0.07263345,0.02434806,0.02829272,-0.9319487,-1.682321,-0.3917587,0.6848462,1.413973,-0.03632593,-0.06236724,-0.1136361,0.1767663,-0.901994,-0.2088824,0.09285697,0.7830744,1.506637,0.1444849,0.1807677,1.184627,0.179954,65.73819,113.7906,182.2159,True
2,1.011112,0.5129048,-0.1266856,-0.2834087,-1.463557,-1.941628,2.036463,0.5496507,1.307107,-0.005614966,-0.3215048,0.8747579,0,60,0.1065886,0.005021412,0.02164661,-0.9317064,-1.682989,-0.3937822,0.6825604,1.413854,-0.03661013,-0.05168121,-0.1126624,0.1775966,-0.9000558,-0.2105367,0.09409986,0.7810957,1.506647,0.1440801,0.1775048,1.184861,0.1783575,65.48302,113.7682,182.339,True
2,1.022224,0.5481552,-0.1095231,-0.2688922,-1.462913,-1.939097,2.02907,0.5470378,1.307877,-0.005982876,-0.3106481,0.9736189,0,60,0.1149812,-0.02698879,0.02474187,-0.9308169,-1.684687,-0.3942658,0.6805718,1.413845,-0.03689438,-0.05048935,-0.1073972,0.1808546,-0.8980142,-0.2120891,0.09549909,0.7791405,1.506684,0.1436695,0.1739985,1.185278,0.1764197,65.26191,113.6863,182.4161,True
2,1.033335,0.5996241,-0.07096833,-0.2257949,-1.46204,-1.938452,2.020918,0.5442853,1.308851,-0.006272256,-0.2999002,0.9580262,0,60,0.109578,-0.07813118,0.04920994,-0.9284871,-1.687145,-0.3938432,0.6783447,1.413697,-0.03709802,-0.04603447,-0.1054228,0.1882412,-0.8957883,-0.2137449,0.09689086,0.7772088,1.506748,0.1432789,0.1702625,1.185931,0.1740661,65.01161,113.458,182.4023,True
2,1.044446,0.6081386,-0.05069542,-0.2216507,-1.460929,-1.936412,2.01372,0.5417423,1.309716,-0.006597817,-0.2898936,0.8912727,0,60,0.09570254,-0.1111128,0.0694996,-0.9262416,-1.688991,-0.3931074,0.6760104,1.413525,-0.03722438,-0.04487449,-0.1097834,0.1934773,-0.8935113,-0.21587,0.09869862,0.7752662,1.506809,0.1427981,0.1662687,1.186888,0.1715026,64.75514,113.0094,182.5052,True
2,1.055557,0.6281304,0.003670394,-0.2325948,-1.458002,-1.934582,2.006067,0.5391324,1.310794,-0.006910056,-0.2795701,0.9229892,0,60,0.1319956,-0.1240958,0.08948119,-0.9241456,-1.690178,-0.3949966,0.6738799,1.413416,-0.03731,-0.03744516,-0.1151714,0.1942844,-0.8914367,-0.2178037,0.1001825,0.7733727,1.506802,0.1423518,0.1622885,1.188182,0.1690442,64.56635,112.4671,182.7619,True
2,1.066668,0.6447223,0.07930759,-0.2584525,-1.453377,-1.932687,1.998278,0.5365319,1.31179,-0.00719592,-0.2704211,0.8126673,0,60,0.1779239,-0.1211377,0.1051575,-0.9221014,-1.690786,-0.3981799,0.6716681,1.41326,-0.03739914,-0.03559771,-0.1214169,0.1845656,-0.8895757,-0.2199915,0.1019328,0.7709937,1.50663,0.1419491,0.1584983,1.189818,0.1670803,64.45737,112.0745,183.1365,True
2,1.077779,0.6560993,0.1315106,-0.2789012,-1.448899,-1.930519,1.990411,0.5338588,1.312838,-0.007491589,-0.2610851,0.835259,0,60,0.2486119,-0.1044885,0.1494498,-0.9189658,-1.689867,-0.4039326,0.6696849,1.413143,-0.03742522,-0.03599144,-0.1297183,0.1716578,-0.8881408,-0.2222688,0.104054,0.7690394,1.506652,0.1414711,0.1549957,1.191707,0.1657095,64.48155,112.093,183.5543,True
2,1.08889,0.6759589,0.2476614,-0.2878129,-1.441376,-1.93011,1.982258,0.5310488,1.314044,-0.007726789,-0.251616,0.8444304,0,60,0.2851538,-0.0876645,0.185449,-0.9157615,-1.688691,-0.4090954,0.6674485,1.412971,-0.03746668,-0.02788074,-0.1552059,0.1625176,-0.8869642,-0.2257403,0.1062931,0.7671967,1.506586,0.1410278,0.1516516,1.19375,0.1648557,64.5425,112.6322,184.1269,True
2,1.100002,0.6928717,0.378764,-0.2690233,-1.432641,-1.931422,1.97415,0.528286,1.315095,-0.007987857,-0.242076,0.8510239,0,0,0.2842014,-0.08768204,0.2025031,-0.9128448,-1.688465,-0.4121375,0.6652064,1.41281,-0.03759041,-0.02075715,-0.1646735,0.1515359,-0.8858169,-0.2286753,0.1081225,0.7652938,1.506515,0.1406425,0.1483241,1.195839,0.1643204,64.6197,113.5079,184.8181,True
2,1.111113,0.692977,0.4746975,-0.2350858,-1.424357,-1.933442,1.966773,0.5255108,1.31613,-0.008199722,-0.2322607,0.8767095,0,0,0.2670817,-0.103581,0.2025959,-0.9101055,-1.689306,-0.4139924,0.6629598,1.41264,-0.03771484,-0.0167622,-0.1527816,0.1366571,-0.8857642,-0.2307938,0.1094445,0.7635767,1.506914,0.1401806,0.1449086,1.197898,0.1638918,64.6554,114.4402,185.5419,True
2,1.122224,0.6803976,0.5034732,-0.2073076,-1.418036,-1.934465,1.959852,0.5227504,1.317167,-0.00844413,-0.2223606,0.8824617,0,0,0.2104527,-0.139536,0.2018585,-0.9069949,-1.691618,-0.4130667,0.6608181,1.412467,-0.03790927,-0.01552337,-0.1539769,0.1440689,-0.8840923,-0.233253,0.1111116,0.7617302,1.506873,0.1397272,0.1414338,1.199886,0.1634794,64.62917,115.6371,186.6766,True
2,1.133335,0.6645827,0.4757565,-0.197515,-1.413267,-1.934337,1.952941,0.5201352,1.318096,-0.008738667,-0.2130651,0.8275095,0,0,0.1805737,-0.1393883,0.1946066,-0.9045342,-1.692386,-0.4137258,0.6585381,1.412267,-0.03800362,-0.02140598,-0.1607069,0.167544,-0.8816821,-0.2362647,0.1134853,0.7598746,1.50686,0.139266,0.1380643,1.201759,0.1631138,64.59889,116.8975,188.0393,True
2,1.144446,0.6591529,0.4427002,-0.2155253,-1.408455,-1.932885,1.945558,0.5176303,1.318926,-0.00896284,-0.204265,0.7849562,0,0,0.193312,-0.1095826,0.1668639,-0.9034529,-1.692248,-0.416333,0.6562865,1.411973,-0.03813881,-0.02770811,-0.1714277,0.1749789,-0.8796975,-0.2394686,0.1160872,0.7580853,1.506769,0.1388354,0.1348811,1.203458,0.1628784,64.55926,117.9368,189.2092,True
2,1.155557,0.6505527,0.3627559,-0.2419723,-1.405546,-1.929783,1.938113,0.5152092,1.319607,-0.009246707,-0.1956774,0.767179,0,0,0.2145052,-0.07980874,0.1294841,-0.9031062,-1.692026,-0.4195656,0.6540954,1.411768,-0.03821686,-0.02011594,-0.1911982,0.1424991,-0.8795244,-0.243022,0.1183495,0.7563522,1.506597,0.138398,0.131866,1.204954,0.1627523,64.48186,118.6431,189.9114,True
2,1.166668,0.6355175,0.2710456,-0.275762,-1.404047,-1.925833,1.931005,0.512747,1.320366,-0.009670168,-0.1870466,0.7709042,0,0,0.2379245,-0.04259475,0.1006147,-0.9033016,-1.691092,-0.4235555,0.6518886,1.411497,-0.03838527,-0.01473654,-0.1937648,0.1007904,-0.87955,-0.2460332,0.120193,0.753768,1.506213,0.1380359,0.1289548,1.206257,0.162598,64.34718,119.1686,190.2885,True
2,1.17778,0.6185035,0.1687451,-0.2967753,-1.403237,-1.921458,1.923912,0.5103951,1.320932,-0.00983271,-0.1788126,0.7334495,0,0,0.2476273,-0.03200145,0.1101574,-0.9016632,-1.690337,-0.4270499,0.6498566,1.411338,-0.03850773,-0.01177815,-0.1914834,0.09010189,-0.8790519,-0.2487358,0.1219698,0.7519693,1.506093,0.1376337,0.1260003,1.207433,0.1622211,64.15136,119.6308,190.5343,True
2,1.188891,0.5919154,0.07169974,-0.3155227,-1.403947,-1.916818,1.917513,0.5078654,1.321627,-0.01025754,-0.1711805,0.6798866,0,0,0.2319193,-0.0138543,0.1379858,-0.8995833,-1.688451,-0.4302782,0.6476879,1.411103,-0.03866431,-0.01698457,-0.192596,0.09553628,-0.8780959,-0.2517681,0.1242809,0.7501471,1.505963,0.1372227,0.1228876,1.20858,0.1614037,63.94946,119.7957,190.5118,True
2,1.200002,0.567509,0.01519448,-0.3205031,-1.404062,-1.913051,1.911256,0.5054836,1.322293,-0.01109865,-0.1639181,0.6479684,0,0,0.2236344,0.001059785,0.1625668,-0.8972472,-1.686675,-0.4335821,0.6457462,1.410974,-0.03878003,-0.02097763,-0.1938263,0.1073341,-0.8767393,-0.2549324,0.1267164,0.7483425,1.505817,0.1368149,0.1195647,1.2098,0.1600079,63.78253,119.6261,190.3504,True
2,1.211113,0.5314659,-0.02963102,-0.313669,-1.40464,-1.909377,1.906044,0.5031593,1.322701,-0.01151469,-0.1574733,0.5732691,0,0,0.2024893,0.02351795,0.1712696,-0.8956429,-1.684396,-0.4365446,0.6435466,1.410739,-0.03887722,-0.02076606,-0.1929026,0.1158703,-0.8754157,-0.2579046,0.1288091,0.7465622,1.505678,0.136424,0.1160523,1.211145,0.1580666,63.67693,119.2204,190.2285,True
2,1.222224,0.4956693,-0.06482959,-0.2802191,-1.405565,-1.906875,1.901235,0.5008419,1.323119,-0.01188394,-0.1512574,0.555025,0,0,0.1950631,0.02248051,0.1766445,-0.8938006,-1.68298,-0.4393404,0.6413925,1.410515,-0.03902167,-0.01450887,-0.1853926,0.1072084,-0.8761891,-0.2605718,0.1301375,0.7446918,1.50581,0.1360876,0.1124427,1.212648,0.1556662,63.63348,118.6937,190.1151,True
2,1.233335,0.4620498,-0.09894636,-0.2425338,-1.407158,-1.904638,1.89671,0.498539,1.323307,-0.01227438,-0.1460499,0.4623037,0,0,0.1769717,0.004430175,0.1916589,-0.8910516,-1.682309,-0.4412594,0.6394393,1.410327,-0.03914332,-0.009517945,-0.1862575,0.09322857,-0.8756985,-0.2632898,0.1318156,0.7428272,1.50564,0.1357634,0.1089302,1.214297,0.1529406,63.69292,118.2277,190.1954,True
2,1.244446,0.4399898,-0.1372911,-0.2241067,-1.409048,-1.902354,1.891711,0.4963574,1.323434,-0.01291904,-0.1415241,0.4043256,0,0,0.1578091,-0.01254299,0.2056129,-0.8882015,-1.681713,-0.4427905,0.6372483,1.409967,-0.03920141,-0.01684614,-0.1895026,0.0997435,-0.8746897,-0.2663748,0.1341964,0.7409678,1.505495,0.1353572,0.1055405,1.215975,0.1501821,63.86975,117.6998,190.3967,True
2,1.255558,0.4102154,-0.1746592,-0.2280051,-1.411246,-1.89872,1.887529,0.4941509,1.323395,-0.01335829,-0.1377882,0.3319773,0,0,0.1429521,-0.02209076,0.2206216,-0.8851724,-1.680755,-0.4445729,0.6350982,1.409596,-0.0392136,-0.01442837,-0.1886498,0.1114234,-0.8733288,-0.2693357,0.1361672,0.739068,1.505326,0.1349515,0.102343,1.217582,0.1477392,64.0735,117.1141,190.5724,True
2,1.266669,0.3792056,-0.1875438,-0.2425821,-1.412519,-1.894817,1.883586,0.4919984,1.32332,-0.01384798,-0.1344614,0.2956347,0,0,0.1288583,-0.04223484,0.1983163,-0.8832805,-1.681213,-0.4452946,0.6328652,1.409141,-0.03931969,-0.0241576,-0.1859933,0.1490027,-0.8706545,-0.2723974,0.1386961,0.7371917,1.505139,0.1346061,0.09937425,1.219048,0.145865,64.25708,116.567,190.5774,True
2,1.27778,0.3407863,-0.1897842,-0.2496436,-1.413669,-1.891195,1.880429,0.4898129,1.323197,-0.01430908,-0.1326361,0.1572915,0,0,0.1061652,-0.05272591,0.1590427,-0.8824555,-1.682016,-0.4451578,0.6305485,1.408741,-0.03940412,-0.03036741,-0.1807183,0.1556367,-0.8689846,-0.2750454,0.1411204,0.7352819,1.504901,0.1342199,0.09661809,1.220392,0.1446043,64.38665,116.1384,190.3517,True
2,1.288891,0.3152291,-0.1909174,-0.2483129,-1.414873,-1.887982,1.877266,0.4876273,1.323271,-0.0148004,-0.1316225,0.08824872,0,0,0.06631988,-0.04711938,0.09113627,-0.8835256,-1.683178,-0.44379,0.62833,1.40826,-0.03953534,-0.03263208,-0.1752518,0.1483218,-0.8678544,-0.2775649,0.1431995,0.7334511,1.504727,0.1338943,0.09390426,1.221629,0.1438114,64.52117,115.9038,190.0091,True
2,1.300002,0.2726394,-0.1824996,-0.2436293,-1.41578,-1.885042,1.87519,0.4854817,1.323204,-0.01527706,-0.1314813,0.008797365,0,0,0.03835557,-0.02027595,0.03169968,-0.8852677,-1.683197,-0.4433742,0.6262786,1.407788,-0.03965643,-0.02643881,-0.1708777,0.1386586,-0.866917,-0.2799663,0.1448741,0.7315779,1.504416,0.1334675,0.09117839,1.222797,0.1432193,64.66871,115.9006,189.7387,True
2,1.311113,0.249218,-0.1750971,-0.2402055,-1.416587,-1.882124,1.872865,0.4833622,1.323122,-0.01571554,-0.1314643,-3.865768E-05,0,0,0.03713878,-0.001045762,-0.004486553,-0.8867607,-1.683152,-0.4437591,0.6240885,1.407348,-0.03977847,-0.02440259,-0.1761839,0.1363898,-0.8658251,-0.2829594,0.1470086,0.7297041,1.504193,0.1331371,0.08842911,1.223927,0.1426112,64.81911,115.9106,189.5158,True
2,1.322224,0.2161464,-0.1666652,-0.2420056,-1.417347,-1.879007,1.871059,0.4811707,1.322915,-0.01625413,-0.1322078,-0.07060548,0,0,0.03717026,0.01280768,-0.008723848,-0.8870446,-1.682478,-0.4446278,0.6214621,1.406825,-0.0398494,-0.02665918,-0.1825072,0.1331496,-0.8647012,-0.2863081,0.1495519,0.7277017,1.503997,0.1327695,0.08570057,1.225068,0.1418612,64.96143,115.8319,189.328,True
2,1.333336,0.2012356,-0.1592428,-0.2397344,-1.418033,-1.876002,1.868804,0.4789505,1.322705,-0.01679257,-0.1326521,-0.03951832,0,0,0.02342057,-0.001009868,0.01692011,-0.885664,-1.682429,-0.444338,0.6189744,1.406352,-0.04000482,-0.02624295,-0.1742378,0.1481989,-0.8627566,-0.2889451,0.1516524,0.7257023,1.503822,0.1322893,0.08302228,1.226186,0.1409135,65.16333,115.7607,189.2714,True
2,1.344447,0.1959238,-0.1560571,-0.2375527,-1.418856,-1.873042,1.866253,0.4768474,1.32254,-0.01729628,-0.1332731,-0.05826428,0,0,0.01495225,-0.04683263,0.05739579,-0.8829226,-1.683722,-0.4434025,0.6167202,1.405913,-0.04008415,-0.02157781,-0.1745555,0.1629073,-0.8619044,-0.2919835,0.1529544,0.7225413,1.502754,0.1320682,0.08035495,1.227237,0.1397596,65.38507,115.6827,189.2748,True
2,1.355558,0.1905919,-0.1368888,-0.2332673,-1.419045,-1.870319,1.863861,0.474647,1.322356,-0.01785696,-0.1333716,-0.008623953,0,0,0.009608385,-0.08519307,0.08188522,-0.8804533,-1.685364,-0.4423242,0.6144199,1.405447,-0.0401307,-0.02054552,-0.1788306,0.1628112,-0.8604056,-0.2952625,0.1553001,0.7205398,1.502586,0.1316847,0.07762303,1.228153,0.1383829,65.60802,115.5867,189.2836,True
2,1.366669,0.1884557,-0.1209078,-0.2300759,-1.419097,-1.867666,1.861345,0.4725554,1.3222,-0.01833519,-0.1331298,0.01996383,0,0,0.02137103,-0.08632398,0.08926233,-0.8788767,-1.68587,-0.4426267,0.6121972,1.405,-0.04021624,-0.01706974,-0.1879547,0.1327362,-0.8602127,-0.2986336,0.1575204,0.7182088,1.502252,0.1312587,0.07483067,1.22893,0.1367988,65.75566,115.3669,189.2401,True
2,1.37778,0.1915016,-0.08362281,-0.2354931,-1.418035,-1.865021,1.858705,0.4703906,1.322129,-0.01885071,-0.1329791,0.01093491,0,0,0.03643862,-0.06510185,0.09664539,-0.8777811,-1.685163,-0.4440547,0.609978,1.404475,-0.04030231,-0.0146142,-0.1938814,0.1038001,-0.8603624,-0.3016582,0.1595817,0.7162077,1.502107,0.1310509,0.0720432,1.229615,0.1350662,65.82688,115.0503,189.176,True
2,1.388891,0.1871275,-0.05913875,-0.2408132,-1.417093,-1.862295,1.856276,0.4683106,1.322037,-0.01933676,-0.1327644,0.01771243,0,0,0.0375952,-0.03526864,0.08922157,-0.8773465,-1.684052,-0.4452267,0.6077728,1.404007,-0.04041746,-0.01765602,-0.182495,0.06256901,-0.8604172,-0.3035828,0.1612999,0.7137015,1.501525,0.1307601,0.06925949,1.230247,0.1332708,65.86862,114.773,189.1917,True
2,1.400002,0.1731178,-0.01763593,-0.2460652,-1.415224,-1.859766,1.854436,0.4661191,1.321992,-0.01982293,-0.132505,0.02122564,0,0,0.03456636,0.02229334,0.07334938,-0.8779441,-1.681301,-0.4472313,0.605643,1.403599,-0.04058048,-0.02291849,-0.1632136,0.05876408,-0.8599762,-0.3052847,0.1627306,0.71156,1.501386,0.130548,0.06652455,1.230882,0.1314999,65.8922,114.5555,189.2706,True
2,1.411114,0.1612395,0.006820723,-0.2555711,-1.413531,-1.856982,1.852612,0.4639292,1.321926,-0.02033523,-0.132471,0.0003819648,0,0,0.03577743,0.06810804,0.06275305,-0.8784676,-1.678687,-0.4493227,0.6032979,1.403044,-0.04067585,-0.02145468,-0.1549335,0.07272314,-0.8589514,-0.3073986,0.1642877,0.7094686,1.501131,0.1302666,0.06380584,1.231574,0.1298056,65.91344,114.493,189.4512,True
2,1.422225,0.1461577,0.04622023,-0.2608165,-1.410523,-1.854613,1.851284,0.4614131,1.322238,-0.0191825,-0.1328422,-0.03554648,0,0,0.03816206,0.09470371,0.0819495,-0.8779814,-1.675569,-0.451817,0.6009879,1.402552,-0.04074076,-0.01243815,-0.1574908,0.0937869,-0.8573222,-0.3103382,0.1659544,0.7073135,1.500844,0.1300253,0.06111208,1.232349,0.1282027,65.98687,114.5269,189.6783,True
2,1.433336,0.1289757,0.09305082,-0.263889,-1.40742,-1.852718,1.84989,0.4590406,1.3221,-0.01973155,-0.1331479,-0.02789763,0,0,0.04585651,0.07649273,0.1298144,-0.8753528,-1.673669,-0.4538415,0.598911,1.402226,-0.04079166,-0.009740978,-0.1696937,0.1212351,-0.8554254,-0.31396,0.1683352,0.7050924,1.500687,0.1296195,0.05839065,1.233177,0.1266887,66.11608,114.7308,190.0248,True
2,1.444447,0.1246776,0.1239448,-0.2596332,-1.404381,-1.850744,1.848312,0.4566214,1.321963,-0.02006334,-0.1335911,-0.04123265,0,0,0.06398009,0.05081253,0.1498991,-0.8731573,-1.672657,-0.4557779,0.5965002,1.401726,-0.04085243,-0.003166839,-0.1945086,0.1366474,-0.8539117,-0.3183162,0.1710136,0.702945,1.500337,0.1291722,0.05552598,1.234026,0.125303,66.23751,114.7923,190.3913,True
2,1.455558,0.1313055,0.1783495,-0.2235513,-1.400561,-1.85076,1.846517,0.4540966,1.321864,-0.02040866,-0.1337482,-0.01401114,0,0,0.08937742,0.02300287,0.1433064,-0.8716574,-1.672738,-0.4576754,0.5942004,1.401263,-0.04083061,0.01032361,-0.2125879,0.1274976,-0.8534195,-0.3225273,0.1732804,0.700856,1.499924,0.1287113,0.05243953,1.234866,0.1242841,66.33207,115.0167,191.032,True
2,1.466669,0.1507367,0.2221353,-0.1875981,-1.396528,-1.851052,1.844182,0.4516559,1.32174,-0.02063435,-0.1336337,0.00955697,0,0,0.1006546,0.01557407,0.08249753,-0.8727621,-1.673556,-0.4586554,0.5915215,1.400771,-0.04087046,0.02705562,-0.2189273,0.1163259,-0.8531623,-0.3260957,0.1747516,0.6993048,1.499786,0.1282528,0.04947858,1.235635,0.1234829,66.51384,115.6381,191.6823,True
2,1.47778,0.1789605,0.2734286,-0.123989,-1.392705,-1.853958,1.841608,0.4490564,1.321777,-0.02097294,-0.1330973,0.04746706,0,0,0.1275797,-0.03771365,0.00447589,-0.8742306,-1.677709,-0.4582736,0.5887911,1.400275,-0.04099593,0.0236125,-0.2058834,0.1027812,-0.852676,-0.3285221,0.1764808,0.697165,1.499468,0.1279467,0.04663243,1.236278,0.1227791,66.68044,116.2653,192.239,True
2,1.488891,0.1902572,0.2554331,-0.07181001,-1.391332,-1.856166,1.838451,0.4466898,1.321354,-0.02147493,-0.1322611,0.07314212,0,0,0.1378128,-0.09632529,-0.01697944,-0.8737261,-1.68192,-0.4574648,0.5860946,1.399722,-0.04105669,0.02418641,-0.1870557,0.1188142,-0.8542883,-0.3309354,0.1769338,0.6961317,1.49996,0.12753,0.04391887,1.236779,0.1221997,66.74937,116.8429,192.8646,True
2,1.500003,0.1892606,0.2202573,-0.07383506,-1.390251,-1.856011,1.836497,0.4442749,1.321187,-0.02179429,-0.1312193,0.09090535,0,0,0.1314034,-0.1250788,7.119402E-05,-0.8719967,-1.68401,-0.457355,0.5835986,1.399205,-0.0410583,0.02249746,-0.1852169,0.1370187,-0.8523298,-0.3341105,0.1789239,0.6940746,1.499665,0.1271804,0.04135419,1.237193,0.1218568,66.7046,117.2802,193.4579,True
2,1.511114,0.1752743,0.1722266,-0.1044135,-1.390039,-1.855203,1.834265,0.4418304,1.320918,-0.02216932,-0.1302653,0.0816185,0,0,0.1166433,-0.1197065,0.0193521,-0.8708014,-1.684671,-0.4577556,0.5811436,1.398556,-0.04106852,0.02931808,-0.1952149,0.1580006,-0.8503708,-0.337954,0.1809053,0.6920516,1.499381,0.1267873,0.03897551,1.237612,0.1219566,66.63065,117.5507,193.8847,True
2,1.522225,0.1558693,0.1337724,-0.1371813,-1.389074,-1.852746,1.832757,0.4393194,1.320488,-0.02241886,-0.130848,-0.05884799,0,0,0.1070767,-0.104737,0.01197934,-0.8705991,-1.685517,-0.458088,0.5785325,1.397962,-0.04107612,0.04303166,-0.2177464,0.1594273,-0.8490813,-0.3430128,0.1832998,0.6890655,1.498602,0.1263416,0.03677654,1.23809,0.1225347,66.64426,117.7205,193.9606,True
2,1.533336,0.1345497,0.1230573,-0.1412123,-1.387608,-1.851321,1.831684,0.436794,1.320161,-0.02266011,-0.1314057,-0.04960772,0,0,0.111429,-0.05786047,-0.007160046,-0.8716894,-1.684882,-0.4598933,0.5758002,1.397373,-0.04104948,0.0616505,-0.2314318,0.1406378,-0.8486621,-0.3473187,0.1849669,0.686991,1.498059,0.1259414,0.03452763,1.238656,0.1233546,66.71239,118.0754,193.8882,True
2,1.544447,0.09220007,0.1400456,-0.1099232,-1.385445,-1.851762,1.832125,0.4342554,1.319634,-0.02280954,-0.1325194,-0.1031512,0,0,0.1294443,-0.03873281,-0.03495239,-0.8730322,-1.685397,-0.4616241,0.5731313,1.396793,-0.04104051,0.07860718,-0.2100777,0.1299407,-0.8479047,-0.3497585,0.1851366,0.6848748,1.497606,0.1256045,0.03206249,1.239315,0.1240687,66.8623,118.5954,193.838,True
2,1.555558,0.07641214,0.1390137,-0.09055581,-1.383555,-1.852484,1.831855,0.4316013,1.319177,-0.0223057,-0.133525,-0.08988962,0,0,0.1316279,-0.05368264,-0.01581841,-0.8721437,-1.686523,-0.4623413,0.5705199,1.396249,-0.04113042,0.09168466,-0.1921785,0.1363441,-0.8462109,-0.3522326,0.1853893,0.6821716,1.496928,0.1250934,0.02929344,1.239999,0.1243276,67.09475,119.2826,194.0555,True
2,1.566669,0.05418749,0.1357834,-0.07648098,-1.382124,-1.852505,1.832017,0.4290469,1.318572,-0.02245867,-0.1349109,-0.1255904,0,0,0.1157966,-0.09309149,0.03430324,-0.8693282,-1.688046,-0.462145,0.5677593,1.395596,-0.04111385,0.09760273,-0.1851454,0.1587039,-0.8440575,-0.3551311,0.1860029,0.6799691,1.496531,0.1246352,0.02638854,1.240609,0.124009,67.38085,119.9161,194.5906,True
2,1.577781,0.04250579,0.1336503,-0.07315948,-1.380327,-1.852371,1.831849,0.4265032,1.31803,-0.0222393,-0.1352433,-0.02626526,0,0,0.09324713,-0.1494682,0.04822816,-0.8668829,-1.691514,-0.4601586,0.5648046,1.394825,-0.04111388,0.08042976,-0.262049,0.1780493,-0.8424617,-0.3634428,0.1913273,0.6777256,1.495954,0.1241143,0.02351373,1.240945,0.1233217,67.68587,120.3225,195.3729,True
2,1.588892,0.02880205,0.1347052,-0.05811118,-1.378834,-1.852654,1.832087,0.4239857,1.317319,-0.02238053,-0.1355485,-0.02880462,0,0,0.08225743,-0.1845372,0.02268561,-0.8659881,-1.695622,-0.4580477,0.5620637,1.394153,-0.04111788,0.1146363,-0.2570526,0.1815995,-0.8407429,-0.3675572,0.1918792,0.6755757,1.495409,0.1238828,0.02069203,1.240891,0.1226386,67.86085,120.4389,196.0281,True
2,1.600003,0.01613676,0.1538889,-0.0409741,-1.376423,-1.853457,1.832438,0.4215348,1.316699,-0.02226409,-0.1353658,0.01822059,0,0,0.07871765,-0.1972536,-0.01992222,-0.8664765,-1.699706,-0.4562517,0.5596044,1.393613,-0.04114205,0.1242907,-0.2550189,0.1835409,-0.8391695,-0.3712951,0.1926238,0.6734681,1.494879,0.12349,0.01801499,1.240399,0.122066,67.90635,120.4978,196.3864,True
2,1.611114,-0.001975417,0.1591703,-0.03973934,-1.374452,-1.853569,1.833066,0.4191978,1.315974,-0.02229989,-0.1351948,0.01496381,0,0,0.07642683,-0.2025422,-0.04015528,-0.8664514,-1.703215,-0.4547441,0.5569096,1.392861,-0.04107806,0.1422512,-0.2539832,0.1767358,-0.8380313,-0.3752323,0.1930406,0.6714015,1.494279,0.1230291,0.01543244,1.239513,0.1216581,67.8131,120.5501,196.5663,True
2,1.622225,-0.01924652,0.1324379,-0.06935702,-1.373467,-1.851918,1.833565,0.4168131,1.315296,-0.02237985,-0.1348966,0.02774054,0,0,0.0732601,-0.206793,-0.03373887,-0.865343,-1.705843,-0.4538596,0.554563,1.392057,-0.04089299,0.1590177,-0.2903432,0.1757115,-0.8371136,-0.3819198,0.1950552,0.6693151,1.493234,0.1222914,0.01297493,1.238295,0.1214024,67.65313,120.6253,196.6723,True
2,1.633336,-0.0268744,0.1174681,-0.0905632,-1.372262,-1.850421,1.833818,0.4144185,1.314553,-0.02248582,-0.1347677,0.01173103,0,0,0.06691426,-0.1811843,-0.0453754,-0.8655177,-1.707702,-0.4532231,0.5520651,1.39125,-0.04075134,0.1607864,-0.3329285,0.1716262,-0.8374614,-0.3889948,0.1971879,0.6672513,1.492274,0.121926,0.01065467,1.236836,0.1213328,67.42525,120.7578,196.8229,True
2,1.644447,-0.04287258,0.08758036,-0.09994221,-1.371892,-1.849051,1.83453,0.4120417,1.313722,-0.02258548,-0.1346707,0.009997441,0,0,0.0604667,-0.1374233,-0.08468927,-0.8675423,-1.709048,-0.4528365,0.5494585,1.390468,-0.04068992,0.1453698,-0.3164201,0.1477739,-0.8371897,-0.3930566,0.1993522,0.6650686,1.491784,0.1217837,0.008422801,1.235233,0.121371,67.17835,120.8846,196.8195,True
2,1.655559,-0.05866105,0.07051699,-0.08484551,-1.371502,-1.848665,1.835603,0.4097137,1.312877,-0.02265701,-0.1342627,0.03841812,0,0,0.03799099,-0.1095719,-0.1207245,-0.869693,-1.710947,-0.4513747,0.5469744,1.389807,-0.04066747,0.1422867,-0.2768422,0.1410877,-0.8358949,-0.3953184,0.1996721,0.6627588,1.49176,0.1217927,0.00609878,1.233609,0.1213117,66.92423,120.9139,196.5809,True
2,1.66667,-0.07765515,0.05770954,-0.06972136,-1.371259,-1.848468,1.837106,0.4073792,1.312027,-0.02271491,-0.1341093,0.01360833,0,0,0.01698936,-0.1084672,-0.07583932,-0.8686965,-1.712,-0.4501972,0.5443757,1.389093,-0.0406245,0.1397061,-0.2290523,0.1515614,-0.834077,-0.3970264,0.1993477,0.6605427,1.491277,0.1215673,0.00363862,1.232068,0.1209887,66.7083,120.9058,196.3769,True
2,1.677781,-0.09767418,0.03638718,-0.05244459,-1.37147,-1.848436,1.838908,0.4050748,1.311135,-0.02253386,-0.1340278,0.008842341,0,0,0.009711727,-0.1372585,-0.02896005,-0.8663614,-1.714316,-0.4486782,0.541898,1.38833,-0.04053861,0.1159222,-0.2186772,0.1789666,-0.831408,-0.4008165,0.201544,0.6576209,1.490913,0.1211912,0.001116241,1.230649,0.1203652,66.59225,120.7807,196.269,True
2,1.688892,-0.09543714,0.02255683,-0.04498609,-1.37164,-1.848097,1.839869,0.4027026,1.310157,-0.02245978,-0.1341232,-0.007297758,0,0,0.01074617,-0.1948386,0.007174939,-0.8632834,-1.718505,-0.4460888,0.5393283,1.387481,-0.04036081,0.101998,-0.2578399,0.2329793,-0.8279363,-0.4075173,0.2054168,0.6554286,1.490486,0.1207826,-0.001348671,1.229322,0.1195592,66.55409,120.6087,196.3273,True
2,1.700003,-0.05140321,0.03865878,-0.01762315,-1.372275,-1.8508,1.837446,0.4005384,1.308687,-0.02334955,-0.1342675,-0.01096793,0,0,0.03066847,-0.2225919,-0.02068844,-0.8629665,-1.723187,-0.4440762,0.5369358,1.386708,-0.04020184,0.09129396,-0.2898581,0.2412106,-0.825981,-0.4141558,0.2092739,0.6533539,1.490024,0.1204106,-0.003729783,1.228017,0.1187414,66.56331,120.4077,196.4562,True
2,1.711114,-0.004126808,0.05483804,0.02562318,-1.371926,-1.853635,1.836167,0.3982751,1.308033,-0.02326733,-0.1337344,0.05113731,0,0,0.06333265,-0.2162732,-0.07842013,-0.8645787,-1.727081,-0.4432448,0.5348098,1.386031,-0.04019555,0.0862661,-0.2742737,0.2042965,-0.8254787,-0.4180297,0.2110957,0.651448,1.489443,0.1201679,-0.006053064,1.226654,0.1180855,66.57577,120.1824,196.5412,True
2,1.722225,0.004677196,0.04424759,0.05218663,-1.372211,-1.855009,1.836175,0.3961916,1.30728,-0.02336273,-0.1305961,0.2861581,0,0,0.06415487,-0.1970347,-0.1284694,-0.8666832,-1.730664,-0.441698,0.5325241,1.385295,-0.04026055,0.08263779,-0.2097011,0.1671315,-0.8249898,-0.4187942,0.2110968,0.6494553,1.488932,0.1197268,-0.008292784,1.225219,0.1176592,66.53906,120.0207,196.513,True
2,1.733337,-0.01234011,0.01224586,0.04497486,-1.373118,-1.855476,1.83672,0.3942258,1.306601,-0.02314252,-0.129077,0.1253101,0,0,0.04828287,-0.1735234,-0.1293963,-0.8673319,-1.732815,-0.4402807,0.5301502,1.384492,-0.04038665,0.07206895,-0.1786557,0.1615047,-0.8238803,-0.4211953,0.2124452,0.6475346,1.487742,0.1191116,-0.01027855,1.223836,0.1175846,66.35978,119.672,196.2666,True
2,1.744448,-0.05619972,-0.03373211,0.01457945,-1.374666,-1.854167,1.838533,0.392287,1.30573,-0.0232701,-0.1295148,-0.04267096,0,0,-0.01065985,-0.104076,-0.07138116,-0.8668541,-1.730932,-0.4394644,0.5281863,1.383846,-0.04051661,0.06712727,-0.1596077,0.1715418,-0.8219298,-0.423314,0.2132609,0.6456175,1.487235,0.1188151,-0.01212559,1.222688,0.1180848,66.07274,119.3571,196.0539,True
2,1.755559,-0.07433641,-0.04549742,0.007341251,-1.375428,-1.854279,1.839711,0.3902647,1.305003,-0.02297735,-0.1306451,-0.100477,0,0,-0.02328106,-0.08698601,-0.05955106,-0.8668057,-1.731613,-0.4384666,0.5263662,1.383217,-0.04055139,0.06005412,-0.1577781,0.1877198,-0.8199468,-0.4279395,0.216046,0.6434159,1.486585,0.1183933,-0.01384147,1.221854,0.1190772,65.95148,119.3291,195.8544,True
2,1.76667,-0.1159612,-0.05095035,-0.001840439,-1.376078,-1.853548,1.84238,0.3884509,1.304085,-0.02300569,-0.1326755,-0.1824573,0,0,-0.03158481,-0.04540393,-0.05624307,-0.8676525,-1.730675,-0.4384032,0.5243912,1.382636,-0.04056871,0.0595658,-0.1646106,0.2120619,-0.8179441,-0.431689,0.2173523,0.6414094,1.485912,0.118137,-0.01551427,1.221298,0.120326,66.05701,119.5998,195.6774,True
2,1.777781,-0.1231938,-0.02001673,0.02907866,-1.37558,-1.855389,1.844098,0.386508,1.303254,-0.02262843,-0.1335703,-0.07451875,0,0,0.0003370419,-0.03169055,-0.07241444,-0.868966,-1.731591,-0.4391201,0.5227251,1.382156,-0.04043239,0.0584432,-0.1454125,0.2071023,-0.816139,-0.4347539,0.2196115,0.639492,1.485834,0.1182352,-0.01726387,1.220848,0.1214358,66.33833,120.0639,195.5766,True
2,1.788892,-0.129241,0.0716856,0.0897043,-1.372543,-1.859597,1.846575,0.3846416,1.302441,-0.0224413,-0.1351107,-0.1397551,0,0,0.02915743,-0.05849668,-0.04494485,-0.8679673,-1.733161,-0.439465,0.5206745,1.38158,-0.04028723,0.05896653,-0.1171565,0.1734041,-0.8163324,-0.435218,0.2186482,0.6378853,1.48526,0.117969,-0.01910372,1.220343,0.1222412,66.62049,120.5413,195.7051,True
2,1.800003,-0.1408126,0.1718668,0.1322441,-1.368251,-1.863602,1.849358,0.3828824,1.301625,-0.02210918,-0.1351453,0.004244792,0,0,0.01187051,-0.1522033,-0.01406125,-0.8649575,-1.738478,-0.435463,0.5186262,1.381058,-0.04011437,0.06607267,-0.1062704,0.1552902,-0.8156916,-0.4369051,0.2187552,0.6360652,1.484722,0.1182324,-0.02090449,1.219577,0.1226177,66.88606,120.9492,196.0001,True
2,1.811115,-0.1557937,0.220842,0.138696,-1.364687,-1.866541,1.852237,0.3810701,1.300759,-0.0219655,-0.1350324,0.00977635,0,0,-0.02029926,-0.2191867,0.002041683,-0.8623976,-1.74392,-0.4305562,0.5165205,1.380411,-0.03998813,0.07935562,-0.08209699,0.1681893,-0.8134418,-0.4376619,0.2179251,0.6342473,1.48428,0.1180821,-0.02260438,1.218423,0.1227959,66.97871,121.1988,196.5073,True
2,1.822226,-0.186983,0.2814643,0.1239727,-1.360017,-1.86868,1.855732,0.3793089,1.2997,-0.02158907,-0.1350201,0.002848524,0,0,-0.06846333,-0.2732917,0.005483307,-0.8603795,-1.749617,-0.424481,0.5143301,1.379627,-0.03995022,0.08240926,-0.07961076,0.2076012,-0.8098758,-0.4398436,0.2188791,0.632328,1.484033,0.118129,-0.02402115,1.216789,0.1231017,66.89756,121.6467,197.3343,True
2,1.833337,-0.2104931,0.2909813,0.118849,-1.357023,-1.870704,1.859212,0.3775198,1.298694,-0.02142298,-0.1350361,0.001039606,0,0,-0.06847242,-0.2722235,0.003354236,-0.8591869,-1.753237,-0.4213566,0.5122194,1.378965,-0.03990459,0.08462271,-0.09761709,0.2615854,-0.8056302,-0.4435841,0.2204567,0.6306136,1.483644,0.1179332,-0.02519864,1.214657,0.1237347,66.67332,122.1975,198.0554,True
2,1.844448,-0.2433557,0.284527,0.1340908,-1.354829,-1.87353,1.863685,0.3756752,1.297571,-0.02121988,-0.1353759,-0.02824849,0,0,-0.07082017,-0.24871,-0.04666527,-0.8605984,-1.756486,-0.4185986,0.5096564,1.378195,-0.04003373,0.08830459,-0.1032779,0.283787,-0.8018554,-0.4452721,0.2206301,0.629072,1.483486,0.1182219,-0.02631836,1.212076,0.1246398,66.37061,122.7204,198.4097,True
2,1.855559,-0.2663194,0.2824171,0.1822495,-1.35291,-1.877864,1.868213,0.3738921,1.296454,-0.02092069,-0.1354377,-0.0009688539,0,0,-0.06459759,-0.2540311,-0.06907997,-0.8607342,-1.760718,-0.4154305,0.5077889,1.377663,-0.04006955,0.10183,-0.1009549,0.2675153,-0.7998937,-0.4471494,0.2200234,0.6275949,1.482645,0.1177097,-0.02749288,1.209103,0.1256329,66.00904,123.2883,198.6249,True
2,1.86667,-0.274139,0.2612028,0.2494732,-1.352239,-1.88332,1.872649,0.3722332,1.295325,-0.02058908,-0.1357797,-0.02811665,0,0,-0.05724472,-0.3105596,-0.04470334,-0.8583586,-1.766949,-0.4109692,0.5058091,1.377107,-0.03998205,0.1048537,-0.09579816,0.2142925,-0.7989206,-0.4486641,0.219992,0.6244724,1.481969,0.1176067,-0.02872354,1.205862,0.1265392,65.61544,123.5584,198.5464,True
2,1.877781,-0.2684521,0.2325003,0.2792952,-1.351914,-1.887541,1.876355,0.3704898,1.294196,-0.02036783,-0.1356396,0.01841757,0,0,-0.06480552,-0.3862096,-0.007464975,-0.8545248,-1.774419,-0.405192,0.5042486,1.376571,-0.03980893,0.1063648,-0.07598877,0.1816135,-0.7972247,-0.4481398,0.2183771,0.6228206,1.482171,0.1179877,-0.02992554,1.20242,0.1273417,65.23575,123.5771,198.4208,True
2,1.888893,-0.2492707,0.1835195,0.2664146,-1.35241,-1.890137,1.878978,0.3689497,1.29305,-0.0201818,-0.1350478,0.05712103,0,0,-0.08399287,-0.40531,0.00435558,-0.852113,-1.780452,-0.3996571,0.5023172,1.375886,-0.03960478,0.09536705,-0.07236423,0.1637474,-0.7968556,-0.4484774,0.2172652,0.6213601,1.481778,0.1177071,-0.03091747,1.198848,0.1282071,64.82937,123.3958,198.3233,True
2,1.900004,-0.2272456,0.1195695,0.2130425,-1.353322,-1.890433,1.880832,0.3674719,1.291834,-0.02003688,-0.1341237,0.08618069,0,0,-0.09045187,-0.4031335,-0.008384675,-0.8510392,-1.785969,-0.3948765,0.5006475,1.375272,-0.03949934,0.1057002,-0.09656188,0.2025097,-0.7937403,-0.4522082,0.2183531,0.619797,1.48143,0.1175698,-0.03162775,1.195227,0.1293656,64.38388,123.0891,198.0988,True
2,1.911115,-0.2157693,0.0278926,0.1630289,-1.356097,-1.889959,1.882735,0.3660507,1.290684,-0.01993668,-0.1328715,0.115211,0,0,-0.08435774,-0.3689794,-0.07762227,-0.852798,-1.79111,-0.3908943,0.4991906,1.3746,-0.0394327,0.09651431,-0.1161006,0.2258196,-0.7911607,-0.4563707,0.2206488,0.6180699,1.480812,0.1167721,-0.03223326,1.191683,0.1308427,63.89204,122.8586,197.6573,True
2,1.922226,-0.214661,-0.07014875,0.140808,-1.359985,-1.889556,1.884974,0.3648086,1.289406,-0.01988995,-0.1317817,0.09873941,0,0,-0.08458424,-0.3252148,-0.1425462,-0.855517,-1.795641,-0.3869975,0.4973917,1.37383,-0.03943077,0.08730282,-0.1186211,0.2361122,-0.7955896,-0.4588218,0.2193166,0.6181774,1.482021,0.1164362,-0.03286659,1.188408,0.1324155,63.41305,122.7158,196.9941,True
2,1.933337,-0.2230198,-0.1543373,0.1357109,-1.364629,-1.889591,1.887819,0.3634751,1.288324,-0.01974827,-0.1312491,0.04835564,0,0,-0.09004003,-0.2505177,-0.2159183,-0.8599166,-1.798361,-0.3841389,0.495651,1.373064,-0.03946617,0.08272167,-0.1099267,0.2224976,-0.7944774,-0.4623961,0.2215113,0.6170912,1.48129,0.1158905,-0.03371429,1.185575,0.1337236,63.03671,122.5831,196.2115,True
2,1.944448,-0.2246654,-0.288545,0.1498001,-1.372405,-1.889169,1.890248,0.3623757,1.28702,-0.01971859,-0.1312406,0.002159621,0,0,-0.1069067,-0.1918265,-0.2306407,-0.8627848,-1.799999,-0.3813122,0.4941945,1.372375,-0.03959739,0.07806343,-0.09887084,0.2025627,-0.7931038,-0.4638641,0.2218368,0.615926,1.480973,0.1156406,-0.03476554,1.183286,0.13449,62.86379,122.2421,195.4071,True
2,1.955559,-0.2202149,-0.3375321,0.1573092,-1.377912,-1.889568,1.892713,0.3611085,1.285872,-0.01955089,-0.1317215,-0.04127396,0,0,-0.1364681,-0.1576123,-0.2165475,-0.8640898,-1.801761,-0.3778504,0.4933057,1.371945,-0.03961948,0.0746549,-0.09765948,0.1940778,-0.7922654,-0.4657332,0.2225449,0.6139941,1.479736,0.1157922,-0.03589517,1.181487,0.1346591,62.90069,121.7082,194.7808,True
2,1.966671,-0.2170274,-0.3737622,0.1466873,-1.383494,-1.889077,1.894917,0.3600645,1.284741,-0.01949909,-0.1319596,-0.01745603,0,0,-0.1371777,-0.1214252,-0.1887952,-0.8651716,-1.802591,-0.3756969,0.4920142,1.371343,-0.03950164,0.0731905,-0.08790155,0.1793748,-0.7912976,-0.4689547,0.2253056,0.6127141,1.479719,0.1155787,-0.03703153,1.180039,0.1343944,63.07336,120.9359,194.2439,True
2,1.977782,-0.2204857,-0.3588895,0.1243222,-1.386792,-1.888551,1.897478,0.3589437,1.283809,-0.01923478,-0.1320741,-0.008428565,0,0,-0.09627649,-0.09184027,-0.1474796,-0.8653899,-1.802873,-0.3758754,0.4908707,1.37088,-0.03947175,0.07112979,-0.08257942,0.1805891,-0.7894903,-0.4705703,0.2257151,0.6116526,1.479408,0.1153591,-0.03807692,1.178762,0.1339283,63.32344,119.8933,193.5951,True
2,1.988893,-0.2304597,-0.2822475,0.1051072,-1.387358,-1.888808,1.900514,0.357904,1.282773,-0.01921073,-0.1321498,-0.004734933,0,0,-0.08027348,-0.1079151,-0.1326936,-0.8656786,-1.805456,-0.3738479,0.4895189,1.370363,-0.03945166,0.06500939,-0.08702867,0.1934412,-0.787272,-0.4729289,0.2268483,0.610651,1.479154,0.1151204,-0.03908437,1.177475,0.1335166,63.49765,119.1033,193.1792,True
2,2.000004,-0.2488975,-0.1597788,0.1039989,-1.38549,-1.890604,1.904209,0.3569934,1.281725,-0.0188235,-0.1324885,-0.028897,0,0,-0.1039311,-0.1728059,-0.1198398,-0.8650698,-1.811129,-0.3681799,0.4884286,1.369997,-0.0393742,0.0575458,-0.07101615,0.1917896,-0.785395,-0.4748611,0.2287131,0.6093729,1.479757,0.1152861,-0.04001661,1.176093,0.1332456,63.58485,118.5143,192.7973,True
2,2.011115,-0.2735903,-0.03409591,0.1189226,-1.382336,-1.893486,1.90869,0.3561082,1.280874,-0.01850227,-0.1329924,-0.04246915,0,0,-0.1329642,-0.2184635,-0.1282342,-0.8653265,-1.816735,-0.3620637,0.4874172,1.369567,-0.03933015,0.05854662,-0.07527503,0.1906131,-0.7837619,-0.4768085,0.2292332,0.6086261,1.479118,0.1155538,-0.04093386,1.174545,0.1331276,63.59879,118.3197,192.6574,True
2,2.022226,-0.284396,0.04471876,0.124214,-1.38008,-1.895877,1.912612,0.3552299,1.279987,-0.01842314,-0.1335879,-0.05028471,0,0,-0.1405264,-0.2226793,-0.1409664,-0.8661245,-1.820878,-0.357609,0.4860668,1.3689,-0.03918418,0.05205613,-0.0751442,0.1865059,-0.7820548,-0.478615,0.2301192,0.6077459,1.478948,0.1153491,-0.04173802,1.17275,0.1331126,63.60175,118.5692,192.9192,True
2,2.033337,-0.2802659,0.06391141,0.1177375,-1.379016,-1.897284,1.916123,0.354389,1.279234,-0.01821944,-0.1343325,-0.06339409,0,0,-0.1352287,-0.2152353,-0.1516439,-0.8672951,-1.82429,-0.3542571,0.4848068,1.368375,-0.03909272,0.04341841,-0.08783215,0.1854116,-0.7802641,-0.4810368,0.2313374,0.6070201,1.478354,0.1154653,-0.04230784,1.170619,0.1332791,63.54507,119.0465,193.5018,True
2,2.044448,-0.2686908,0.05538949,0.100595,-1.37899,-1.89788,1.918815,0.3535297,1.278423,-0.01823169,-0.1344369,-0.003893417,0,0,-0.1191067,-0.1940135,-0.1453305,-0.868118,-1.826677,-0.3519557,0.4837987,1.367886,-0.03905272,0.03436136,-0.1066349,0.1692842,-0.7793671,-0.4839808,0.2333398,0.6063643,1.478146,0.1152326,-0.04258595,1.168111,0.133708,63.35943,119.5341,194.0217,True
2,2.055559,-0.250747,0.04050573,0.08020015,-1.37882,-1.898025,1.921153,0.3526878,1.277737,-0.01830569,-0.1341807,0.02626528,0,0,-0.1050732,-0.1717208,-0.1347409,-0.868737,-1.828555,-0.3501785,0.4829679,1.367451,-0.03908181,0.01898012,-0.1115008,0.1514371,-0.7786348,-0.486282,0.2352807,0.6056869,1.47793,0.1150303,-0.04267615,1.165281,0.1343613,63.02033,119.7413,194.0619,True
2,2.06667,-0.2308091,-0.01172073,0.03428452,-1.380218,-1.896215,1.922607,0.3520684,1.277162,-0.01844975,-0.133443,0.06987407,0,0,-0.1089206,-0.08541422,-0.1335324,-0.8707514,-1.826852,-0.3500222,0.4821484,1.367064,-0.03913292,0.01361297,-0.09961322,0.1443225,-0.7775328,-0.487781,0.2358328,0.6049938,1.477406,0.1150283,-0.04273794,1.162287,0.1351077,62.5463,119.6648,193.6555,True
2,2.077781,-0.2362816,-0.04159157,0.01199197,-1.381058,-1.89493,1.925372,0.3512866,1.27638,-0.01853019,-0.1326622,0.07178798,0,0,-0.1086971,-0.04174881,-0.1313425,-0.8723296,-1.826512,-0.3490328,0.4813387,1.366685,-0.03909394,0.01014289,-0.08666694,0.1329211,-0.7767354,-0.4902319,0.2387465,0.6040907,1.478048,0.1146446,-0.04290449,1.159335,0.1357422,62.01583,119.4837,193.0552,True
2,2.088892,-0.2344339,-0.06295229,-0.0231454,-1.381916,-1.892991,1.927552,0.3505166,1.275796,-0.01858759,-0.1317913,0.08028829,0,0,-0.1053909,-0.01832759,-0.1313327,-0.8739094,-1.826364,-0.3480757,0.4803524,1.366267,-0.03901646,0.01535849,-0.09948821,0.1315241,-0.7750182,-0.4930841,0.2402683,0.5987754,1.476037,0.1148078,-0.04321123,1.156657,0.1360569,61.48839,119.2694,192.4492,True
2,2.100003,-0.2046458,-0.08417016,-0.03087804,-1.382708,-1.891672,1.928903,0.3496175,1.275281,-0.01867518,-0.1320401,-0.02318056,0,0,-0.08632728,-0.03226307,-0.1389368,-0.8752292,-1.828569,-0.3464203,0.4792273,1.365838,-0.03896764,0.01656066,-0.1190839,0.1470937,-0.7737644,-0.4984896,0.2445871,0.5978606,1.476395,0.1143927,-0.04368601,1.154451,0.1358542,61.10121,118.9389,191.8581,True
2,2.111114,-0.1587996,-0.1192003,-0.03660537,-1.384498,-1.890112,1.92892,0.3486011,1.27463,-0.01878333,-0.132063,0.00298213,0,0,-0.06507939,-0.04514284,-0.1391,-0.8764202,-1.830413,-0.3452322,0.4783003,1.365548,-0.03896597,0.01665088,-0.1244442,0.1490371,-0.7732078,-0.500127,0.2441954,0.5971923,1.47549,0.1149065,-0.04442191,1.152907,0.1352869,61.12071,118.09,190.8784,True
2,2.122225,-0.1267157,-0.1553338,-0.03366108,-1.387099,-1.888754,1.929095,0.3476822,1.274126,-0.01894554,-0.1314622,0.05672457,0,0,-0.05981739,-0.05581781,-0.1412803,-0.8776416,-1.832338,-0.3435201,0.4771967,1.365214,-0.03901157,0.02928731,-0.1265736,0.1433699,-0.772208,-0.5026895,0.2452976,0.596513,1.475238,0.1146584,-0.04495262,1.152582,0.1344952,61.21033,117.0783,189.7447,True
2,2.133336,-0.1085142,-0.1723207,-0.02743986,-1.38921,-1.887424,1.929715,0.346889,1.273466,-0.0193027,-0.1302472,0.1102204,0,0,-0.04166068,-0.08683015,-0.1126833,-0.8773113,-1.834825,-0.3420663,0.4764297,1.365063,-0.03912657,0.03860922,-0.1263957,0.1314401,-0.771236,-0.5044829,0.2456329,0.5959752,1.474996,0.1148279,-0.04557372,1.152547,0.1338186,61.47332,115.7861,188.3753,True
2,2.144447,-0.08924785,-0.1807854,-0.02015716,-1.391395,-1.886572,1.929972,0.3461583,1.273013,-0.01950991,-0.1296246,0.05335051,0,0,-0.02871031,-0.1434389,-0.04786218,-0.8745725,-1.838399,-0.3399096,0.475596,1.364839,-0.03919685,0.03732752,-0.1197865,0.1199097,-0.7700493,-0.5067946,0.2469832,0.5943866,1.474734,0.1145665,-0.04671573,1.152586,0.1330411,61.55933,116.7531,189.6388,True
2,2.155558,-0.08286703,-0.1754225,-0.01812068,-1.392635,-1.885555,1.930781,0.3455379,1.272517,-0.01972058,-0.1297758,-0.01431277,0,0,-0.02214754,-0.184023,0.005300812,-0.871797,-1.841816,-0.3377498,0.4752443,1.364656,-0.03926539,0.03517302,-0.1175663,0.1178892,-0.7688104,-0.5084488,0.2478018,0.5937965,1.474672,0.1145179,-0.04848688,1.152346,0.1320092,61.86504,117.8002,191.2148,True
2,2.166669,-0.08002189,-0.08489031,-0.03002759,-1.390503,-1.885469,1.931584,0.345047,1.272409,-0.01975331,-0.1298579,-0.005943058,0,0,-0.005889948,-0.1415027,0.01696905,-0.8711504,-1.841892,-0.3381517,0.474694,1.364449,-0.03929204,0.03015084,-0.1103767,0.1219414,-0.7739593,-0.510837,0.2466061,0.5950704,1.476376,0.1140539,-0.04983663,1.152174,0.1309723,62.06749,116.9047,190.5329,True
2,2.17778,-0.08339047,0.01207123,-0.02059867,-1.387081,-1.886446,1.932985,0.3444743,1.272154,-0.01975614,-0.1304954,-0.0585385,0,0,0.01351031,-0.09258976,0.01583775,-0.8714838,-1.840995,-0.3395267,0.4741247,1.36427,-0.03926882,0.02278506,-0.1030261,0.1276066,-0.7727082,-0.5139352,0.2500623,0.5946925,1.476794,0.1133239,-0.05054285,1.152029,0.1302228,62.1114,115.6882,189.3392,True
2,2.188891,-0.09082488,0.2007105,0.03346483,-1.37973,-1.891429,1.935304,0.3439612,1.272008,-0.01970434,-0.1310542,-0.04843244,0,0,0.02421853,-0.07025862,0.008339757,-0.8716739,-1.840994,-0.3401965,0.4736636,1.36402,-0.03929293,0.01551325,-0.09346528,0.1322615,-0.7707827,-0.5154393,0.2513489,0.5921907,1.475927,0.11313,-0.05079944,1.151919,0.1298277,62.14434,115.0872,188.6709,True
2,2.200002,-0.0874179,0.374478,0.1023801,-1.371749,-1.898207,1.937535,0.3435235,1.271785,-0.01956597,-0.1318233,-0.06904978,0,0,0.009030666,-0.1149165,-0.001210786,-0.8710667,-1.844723,-0.3373274,0.473109,1.363636,-0.03932977,0.01157434,-0.08723568,0.1431336,-0.7690107,-0.5166979,0.2520586,0.5921309,1.475167,0.1132338,-0.05090056,1.151857,0.1297261,62.19919,115.2675,188.8181,True
2,2.211113,-0.07550212,0.4726131,0.1510876,-1.364855,-1.904147,1.939447,0.3432565,1.271563,-0.01951507,-0.13257,-0.06511197,0,0,-0.007378399,-0.1670025,-0.02887122,-0.871071,-1.849812,-0.3333961,0.4726954,1.363301,-0.03937271,0.008588925,-0.08535596,0.1539266,-0.7670575,-0.5198769,0.255085,0.5905204,1.474878,0.1129677,-0.05093015,1.151747,0.1298475,62.2014,116.2023,189.7051,True
2,2.222224,-0.05724096,0.4758793,0.1679456,-1.360872,-1.908166,1.940387,0.3431475,1.271301,-0.01951981,-0.1327847,-0.01710949,0,0,-0.02718368,-0.2190378,-0.08634265,-0.872443,-1.856537,-0.3280719,0.4722877,1.362795,-0.03957847,-0.006122768,-0.08862534,0.1637982,-0.7652386,-0.5221343,0.2572219,0.5902841,1.474902,0.1126642,-0.04968062,1.155032,0.1291866,66.5731,111.6471,185.3302,True
2,2.233335,-0.05295568,0.4588422,0.1658026,-1.357404,-1.911437,1.941496,0.342973,1.271008,-0.01954964,-0.1327548,0.002864919,0,0,-0.03466937,-0.201942,-0.1022517,-0.8734391,-1.859053,-0.3258615,0.4719205,1.362411,-0.0397464,-0.02432419,-0.09052673,0.1599103,-0.7641797,-0.5241391,0.2592513,0.5902576,1.47423,0.1125842,-0.05102706,1.158014,0.1285214,67.58755,114.0601,189.144,True
2,2.244446,-0.06145341,0.3106892,0.1298977,-1.359017,-1.910623,1.942523,0.3434439,1.270628,-0.01987225,-0.1323266,0.03943795,0,0,-0.05038971,-0.1272781,-0.115894,-0.875487,-1.858451,-0.3251919,0.4721873,1.362171,-0.04000235,-0.03958258,-0.06649441,0.1373138,-0.7634425,-0.5242523,0.260349,0.5902858,1.474126,0.1123883,-0.05251201,1.158453,0.1285994,66.78351,120.2089,196.2775,True
2,2.255557,-0.074312,0.2094036,0.09609587,-1.359905,-1.910048,1.943842,0.3437524,1.270254,-0.01992816,-0.1322286,0.007438804,0,0,-0.0871961,-0.02377265,-0.1155094,-0.8776367,-1.85509,-0.3251128,0.4719281,1.361885,-0.0401884,-0.05513229,-0.03359728,0.0989162,-0.7634015,-0.5227011,0.2601216,0.590487,1.47401,0.1125382,-0.0535716,1.157269,0.128187,66.34818,120.0544,196.873,True
2,2.266668,-0.09144676,0.05373515,0.04538392,-1.363988,-1.906927,1.944902,0.3442473,1.269816,-0.02017105,-0.1327458,-0.0463187,0,0,-0.110254,0.03703956,-0.1014232,-0.8790562,-1.852267,-0.3249027,0.4722281,1.36171,-0.04035565,-0.06846506,-0.004038841,0.06572945,-0.7635746,-0.5211773,0.260235,0.5907266,1.474003,0.1123299,-0.05426545,1.155555,0.1274415,66.24532,118.5317,196.0567,True
2,2.277779,-0.1064526,-0.1157655,-0.008522749,-1.369667,-1.902428,1.945818,0.3447871,1.269415,-0.02025867,-0.1333008,-0.04788273,0,0,-0.1118951,0.09879718,-0.0714944,-0.8797188,-1.84837,-0.3261773,0.4726305,1.361651,-0.04040009,-0.07707985,0.002551794,0.05967226,-0.7630809,-0.5209804,0.2612401,0.5909164,1.473998,0.1121086,-0.05425186,1.153548,0.1259875,65.861,118.3914,196.4288,True
2,2.28889,-0.1043202,-0.2841588,-0.0530051,-1.377081,-1.897152,1.945959,0.3450241,1.269117,-0.02063179,-0.1338143,-0.04421838,0,0,-0.1052163,0.1296311,-0.05018999,-0.8803399,-1.845199,-0.3272745,0.4729338,1.361596,-0.04056022,-0.08245946,0.006802,0.06201878,-0.7620081,-0.5218053,0.2648687,0.5906944,1.474857,0.1122002,-0.05400158,1.152067,0.1243445,65.66459,117.487,195.8239,True
2,2.300001,-0.09260219,-0.385356,-0.07958853,-1.383225,-1.892632,1.945808,0.3453004,1.268895,-0.02089024,-0.1341669,-0.02936392,0,0,-0.104101,0.1360201,-0.04698503,-0.8811985,-1.843397,-0.3273496,0.4733562,1.361711,-0.04078785,-0.08254334,0.005802669,0.05880275,-0.7614798,-0.52197,0.265907,0.5908744,1.474882,0.1120032,-0.05334014,1.150733,0.1230864,64.59457,117.7793,196.2307,True
2,2.311112,-0.05725491,-0.5077866,-0.09146142,-1.391541,-1.887513,1.944409,0.3454795,1.268749,-0.02133194,-0.1338627,0.03027988,0,0,-0.1021505,0.1040653,-0.05237222,-0.8820959,-1.843615,-0.3261704,0.4736786,1.361806,-0.04110643,-0.06665193,-0.0008222982,0.01248875,-0.7625525,-0.5214106,0.2659667,0.5912788,1.474948,0.1121344,-0.0529719,1.150584,0.1223523,65.06076,117.9806,196.0069,True
2,2.322223,-0.02618513,-0.5726906,-0.09058891,-1.399137,-1.883394,1.942935,0.3458104,1.268624,-0.02170128,-0.1331985,0.06035125,0,0,-0.08408304,0.07839744,-0.04080936,-0.882171,-1.843651,-0.3258106,0.4738896,1.361835,-0.04128748,-0.0563793,0.01874147,-0.0107961,-0.7632167,-0.5199084,0.2651707,0.5917342,1.474918,0.1119473,-0.0528931,1.150599,0.1219898,65.15525,118.3779,196.0847,True
2,2.333334,-0.01242024,-0.549217,-0.09290268,-1.403492,-1.880279,1.942098,0.3461647,1.268546,-0.02202272,-0.1319074,0.1170846,0,0,-0.06696267,0.06124078,-0.01750996,-0.8815537,-1.843327,-0.3259019,0.4741349,1.361909,-0.04144689,-0.04686571,0.02194452,-0.01521502,-0.7634313,-0.5192778,0.2649044,0.5921404,1.474937,0.1117429,-0.05293968,1.150647,0.1217244,65.15588,118.8585,196.2235,True
2,2.344445,-0.007462233,-0.4405589,-0.1016603,-1.404216,-1.878399,1.941762,0.3464723,1.268731,-0.02223426,-0.1308187,0.09533586,0,0,-0.03896036,0.04506233,0.03874783,-0.8791808,-1.842115,-0.3273299,0.4747179,1.362222,-0.04160845,-0.03708544,0.01956085,-0.006973083,-0.7632023,-0.5190544,0.2645739,0.5925963,1.474554,0.1115445,-0.05311988,1.150815,0.1214926,65.06694,118.5989,195.6976,True
2,2.355556,-0.01202254,-0.3265759,-0.1018182,-1.403377,-1.877363,1.941904,0.3467245,1.268876,-0.02236992,-0.1305157,0.02489452,0,0,-0.02815073,0.03644144,0.06956366,-0.8774796,-1.841236,-0.3277241,0.4748259,1.362293,-0.04171956,-0.03782161,0.03003179,0.002859473,-0.7625014,-0.5181918,0.2642974,0.5930111,1.474692,0.1116094,-0.05319683,1.150949,0.1212388,65.0249,118.4199,195.333,True
2,2.366668,-0.001621168,-0.1166369,-0.07138582,-1.397796,-1.879839,1.941966,0.3469369,1.269315,-0.02248463,-0.1307133,-0.01811916,0,0,-0.002436496,-0.006361164,0.1215344,-0.8739483,-1.841822,-0.3281861,0.475203,1.36238,-0.04178566,-0.03131589,0.02668212,0.006871605,-0.7628401,-0.5180063,0.2635339,0.5923779,1.474028,0.11144,-0.05315348,1.151017,0.1210628,64.97337,118.4601,195.1118,True
2,2.377779,0.02691961,0.08910705,-0.0389943,-1.390339,-1.883444,1.941291,0.3470809,1.26977,-0.02251869,-0.1312454,-0.04805457,0,0,0.01462154,-0.00857006,0.1256752,-0.8726822,-1.841274,-0.3291457,0.4753485,1.362368,-0.04190838,-0.02729423,0.01615759,0.001255011,-0.7625104,-0.5173871,0.2636609,0.592802,1.474354,0.1116056,-0.05303922,1.15106,0.1208616,64.87119,118.6884,195.2019,True
2,2.38889,0.06719425,0.2820798,-0.008820973,-1.381846,-1.887727,1.939926,0.347265,1.270248,-0.02252147,-0.1313098,-0.004044873,0,0,0.04211552,0.004137397,0.08609229,-0.8731749,-1.840832,-0.3308807,0.4756958,1.362359,-0.04201671,-0.01495875,0.002492432,-0.01317068,-0.7632812,-0.5177997,0.2636583,0.5934453,1.474312,0.1113701,-0.05281128,1.151105,0.120729,64.99232,118.6744,195.1382,True
2,2.400001,0.07886326,0.4291751,0.02596441,-1.373615,-1.892415,1.939688,0.3475866,1.270604,-0.02261046,-0.130782,0.04676632,0,0,0.05362985,0.01372639,0.04767575,-0.8742257,-1.840426,-0.3321913,0.4761326,1.362304,-0.04221022,-0.009051561,-0.00786761,-0.0305647,-0.7641845,-0.5182687,0.2638125,0.5940738,1.47452,0.1111171,-0.0523487,1.151099,0.1207434,64.47943,119.4053,195.8475,True
2,2.411112,0.07895157,0.5144514,0.05882847,-1.366658,-1.896708,1.939869,0.3479266,1.271004,-0.02279529,-0.1299644,0.07106902,0,0,0.05675059,0.0179986,0.032742,-0.8744399,-1.840011,-0.3331761,0.4769804,1.362472,-0.04246706,-0.01140703,-0.01087871,-0.03908735,-0.7647901,-0.5185567,0.2642628,0.5947797,1.474868,0.1110648,-0.05195975,1.151169,0.1209888,64.42504,119.6,196.2039,True
2,2.422223,0.08008337,0.5347147,0.0715654,-1.361121,-1.900142,1.939738,0.3482831,1.271366,-0.02279365,-0.1302494,-0.03080872,0,0,0.05355642,0.02441108,0.02851074,-0.8744361,-1.839335,-0.3340981,0.4775293,1.362536,-0.04261509,-0.01780878,-0.006521098,-0.04097967,-0.7652631,-0.5182623,0.2644487,0.5955005,1.474967,0.1108589,-0.05115933,1.151226,0.1214422,64.00458,118.5397,195.0124,True
2,2.433334,0.07599115,0.510222,0.083358,-1.357108,-1.903054,1.939816,0.3488615,1.271607,-0.02279043,-0.1310339,-0.07107995,0,0,0.0483194,0.04787778,0.02537811,-0.8746859,-1.837597,-0.3355801,0.4785917,1.362803,-0.04276368,-0.02536011,-0.01173987,-0.04304377,-0.7658516,-0.5184557,0.2651161,0.5963533,1.47515,0.1106437,-0.05067186,1.151226,0.1218848,64.22749,118.6279,195.4935,True
2,2.444445,0.06871766,0.4302996,0.08143444,-1.355531,-1.904556,1.939675,0.3494458,1.271857,-0.02274248,-0.131615,-0.05196994,0,0,0.04310726,0.06813753,0.02863603,-0.8747461,-1.835748,-0.3370486,0.4795179,1.363037,-0.04282203,-0.02539203,-0.00314416,-0.04711977,-0.7663459,-0.518196,0.2653627,0.5971208,1.475542,0.1106787,-0.04969092,1.15118,0.121862,63.40822,119.7805,196.7754,True
2,2.455556,0.06024376,0.3599426,0.06778196,-1.354151,-1.905334,1.93949,0.3500755,1.272006,-0.02263758,-0.1322771,-0.06073502,0,0,0.04422722,0.06918761,0.03608726,-0.8743946,-1.834475,-0.3383839,0.4801953,1.363137,-0.04284868,-0.0243399,-0.00423082,-0.0482543,-0.7674059,-0.5186931,0.2655385,0.59798,1.475205,0.110379,-0.04920704,1.151302,0.1220807,63.70034,120.3935,197.5619,True
2,2.466667,0.06572267,0.2278217,0.04877575,-1.356057,-1.904354,1.938442,0.3507068,1.272103,-0.02258909,-0.1328326,-0.04991978,0,0,0.04200649,0.04895207,0.03713817,-0.8739078,-1.834613,-0.3386598,0.4810023,1.363321,-0.04283565,-0.0253162,-0.01396236,-0.0409735,-0.7677361,-0.519273,0.2662783,0.5990098,1.475393,0.1101459,-0.04851992,1.15134,0.122212,63.26768,120.5191,197.8019,True
2,2.477778,0.08515811,0.04780571,0.02864577,-1.361127,-1.901828,1.936454,0.3514853,1.272146,-0.02257735,-0.1332678,-0.03936751,0,0,0.03407034,-0.01062796,0.007280372,-0.8740314,-1.837604,-0.3368715,0.4817808,1.363408,-0.04292765,-0.0233863,-0.03097628,-0.04350422,-0.7685094,-0.520291,0.2672056,0.6001339,1.475564,0.1098979,-0.04773641,1.151358,0.1223441,63.15866,120.5765,197.8165,True
2,2.488889,0.1026055,-0.1428556,0.01921401,-1.368461,-1.898836,1.934103,0.3523726,1.272121,-0.02266771,-0.1331996,0.006786837,0,0,0.03293533,-0.01487387,-0.0001751308,-0.8741725,-1.838099,-0.3368813,0.4825015,1.363504,-0.04303154,-0.01812736,-0.0256194,-0.04883929,-0.7693196,-0.5210015,0.2675686,0.6007946,1.47585,0.1098193,-0.04690127,1.151408,0.1224804,63.03584,120.3123,197.4904,True
2,2.5,0.1082215,-0.3143773,0.003466189,-1.376607,-1.895091,1.93203,0.353266,1.272288,-0.02283385,-0.1326611,0.04771995,0,0,0.02759156,0.01394248,-0.0214026,-0.8754598,-1.83704,-0.3375487,0.4830825,1.363526,-0.04319373,-0.01302955,-0.006182339,-0.06561688,-0.770811,-0.5205657,0.267216,0.6016352,1.475714,0.1097559,-0.04615906,1.151506,0.1225257,62.88787,119.9569,197.0522,True
2,2.511111,0.1050828,-0.4039015,-0.0144625,-1.383227,-1.89171,1.930362,0.3542042,1.272331,-0.02293682,-0.1320624,0.05161785,0,0,0.02342079,0.05019161,-0.0330494,-0.8767883,-1.835227,-0.3388236,0.4838774,1.363721,-0.04338303,-0.01199172,0.00242075,-0.06971052,-0.7714064,-0.5197755,0.2668101,0.6021869,1.475742,0.1095745,-0.04542615,1.151637,0.1224554,62.70914,119.4564,196.493,True
2,2.522222,0.09438973,-0.4892005,-0.0408473,-1.390324,-1.88748,1.929014,0.3551838,1.272509,-0.02302915,-0.1319511,0.007123029,0,0,0.01408751,0.1088316,-0.03610284,-0.8784235,-1.831375,-0.3411083,0.4849865,1.363969,-0.04355484,-0.02521862,-0.004574984,-0.08660928,-0.7730965,-0.5198321,0.2674016,0.6035724,1.475889,0.1096487,-0.04467359,1.151818,0.1222637,62.50226,118.7991,195.8351,True
2,2.533333,0.09535479,-0.5019965,-0.05362304,-1.395399,-1.884389,1.92754,0.3562019,1.272852,-0.02301788,-0.1321642,-0.02039321,0,0,0.007974103,0.1226663,-0.004085574,-0.8779947,-1.828833,-0.3426364,0.4860313,1.364173,-0.04369283,-0.02531032,0.00194937,-0.09286501,-0.7742305,-0.5190212,0.2670996,0.6048565,1.476077,0.109434,-0.04381971,1.152033,0.1221395,62.32378,117.0676,193.8697,True
