loc,t,aDotUA,bDotUA,gDotUA,aUA,bUA,gUA,xUA,yUA,zUA,qE,qDotE,emgA,emgB,aDotSH,bDotSH,gDotSH,aSH,bSH,gSH,xSH,ySH,zSH,aDotUB,bDotUB,gDotUB,aUB,bUB,gUB,xUB,yUB,zUB,xHand,yHand,zHand,aHand,bHand,gHand,enable
0,0,0.498441,1.075662,0.529266,-1.471956,-2.040382,2.739245,0.7563789,1.25468,-0.01671106,-0.7275453,0.9302285,0,60,0.2246717,-0.2755536,-0.09226243,-1.038545,-1.414022,-0.2329491,0.8368473,1.422503,-0.01397181,0.06401443,-0.0377336,-0.0462468,-0.8867298,0.1274032,0.02331358,0.8562192,1.509014,0.1919002,0.4750998,0.9930341,0.1221602,53.1015,107.7014,178.3295,True
0,0.01111111,0.4292002,1.064902,0.5267558,-1.472962,-2.053164,2.737716,0.7555141,1.254696,-0.01595825,-0.718034,0.8510819,0,60,0.211186,-0.2520659,-0.05698872,-1.037693,-1.415979,-0.2338136,0.836589,1.422562,-0.01420805,0.08211398,-0.05501582,-0.04312451,-0.8873653,0.1260465,0.0228398,0.8563727,1.508928,0.1916637,0.476068,0.9913034,0.127376,52.04875,114.3576,183.6413,True
0,0.02222222,0.3929566,1.038206,0.5196836,-1.473873,-2.065059,2.73575,0.7546599,1.254803,-0.01511905,-0.7089819,0.8127099,0,60,0.1983872,-0.2402613,-0.06754322,-1.038385,-1.418785,-0.2340263,0.8365119,1.422579,-0.01448399,0.08849588,-0.07437687,-0.03978887,-0.8877232,0.124168,0.02284033,0.856517,1.508893,0.1914594,0.4779405,0.9886964,0.1332566,51.143,116.0419,183.8669,True
0,0.03333334,0.373629,0.9816961,0.4965088,-1.474615,-2.075201,2.73301,0.7541888,1.25492,-0.01439738,-0.6992774,0.8745813,0,60,0.1833591,-0.2401619,-0.08448726,-1.039228,-1.422208,-0.2338247,0.8362367,1.422662,-0.01468894,0.09812604,-0.08845605,-0.03526467,-0.8881397,0.1226816,0.02244885,0.856863,1.508943,0.1913034,0.4793103,0.9878123,0.1367757,50.44026,122.7062,190.2908,True
0,0.04444445,0.3541704,0.900649,0.4552626,-1.475085,-2.083492,2.730454,0.7536271,1.255127,-0.01373005,-0.6886998,0.950724,0,60,0.179204,-0.2209242,-0.08549295,-1.039597,-1.423836,-0.2349172,0.8368224,1.423301,-0.01518697,0.105276,-0.0847429,-0.04915368,-0.8891922,0.121656,0.02158279,0.857054,1.508927,0.1911528,0.4800253,0.987488,0.1383821,50.29506,124.04,192.1463,True
0,0.05555556,0.3368525,0.8622268,0.4213924,-1.475007,-2.09253,2.728165,0.7530065,1.255318,-0.01311046,-0.6773718,1.017268,0,60,0.1780714,-0.2294371,-0.08869093,-1.039983,-1.427329,-0.2350905,0.8366562,1.423482,-0.01537743,0.1082717,-0.08228575,-0.0576601,-0.8901744,0.1206725,0.02103231,0.8572137,1.508931,0.1909562,0.4804455,0.9873763,0.1391927,50.37638,123.9726,192.6754,True
0,0.06666667,0.2970481,0.8077781,0.3739089,-1.474437,-2.100236,2.726997,0.7525165,1.255525,-0.01265174,-0.6662222,0.9988853,0,60,0.1655147,-0.2037819,-0.07682808,-1.039728,-1.428472,-0.2360719,0.8353246,1.423233,-0.01537919,0.1060576,-0.07783312,-0.06171134,-0.8912082,0.1200188,0.02046772,0.8573434,1.508883,0.190825,0.4807606,0.9872867,0.1398609,50.36374,124.3588,193.4293,True
0,0.07777778,0.2510957,0.7533427,0.349922,-1.47458,-2.107351,2.726348,0.7520313,1.255659,-0.01228788,-0.6553608,0.9748197,0,60,0.1604184,-0.1888647,-0.05440533,-1.039202,-1.430197,-0.2367763,0.8351421,1.423418,-0.01554024,0.108276,-0.0758426,-0.05848503,-0.8917579,0.1190321,0.01982777,0.8575201,1.508876,0.1906483,0.4810085,0.9872016,0.1405663,50.23186,124.9632,194.3417,True
0,0.08888889,0.2191068,0.7181418,0.342808,-1.475063,-2.115178,2.725774,0.7515774,1.255767,-0.0117805,-0.6453878,0.8936527,0,60,0.1554714,-0.1686479,-0.01492941,-1.037728,-1.431335,-0.2378605,0.834686,1.423291,-0.0155074,0.1093671,-0.06192324,-0.06008419,-0.8924615,0.1187137,0.01882881,0.8576771,1.508898,0.1905958,0.4812987,0.9871028,0.141321,50.07598,125.7496,195.3811,True
0,0.1,0.1795973,0.6583986,0.3240975,-1.475661,-2.121077,2.725705,0.7511752,1.255887,-0.01160428,-0.635623,0.8787203,0,60,0.1558972,-0.1452623,0.02983772,-1.035727,-1.431697,-0.2393977,0.834548,1.423463,-0.01564398,0.1083043,-0.06514107,-0.05912991,-0.8932114,0.1178748,0.01827381,0.8579018,1.508781,0.1904213,0.4817042,0.9869815,0.1419934,49.98489,126.7501,196.5578,True
0,0.1111111,0.1442221,0.5911916,0.2915077,-1.475854,-2.125961,2.725672,0.750864,1.255943,-0.01158306,-0.6255057,0.9107852,0,60,0.149841,-0.1218291,0.06186044,-1.034039,-1.431951,-0.2406667,0.8338386,1.423212,-0.01582405,0.1113817,-0.07463071,-0.0617258,-0.8940951,0.116773,0.01780962,0.8580065,1.508754,0.190308,0.4821805,0.9868379,0.1425857,49.96831,127.8303,197.8166,True
0,0.1222222,0.1022275,0.5239378,0.2355471,-1.475122,-2.129375,2.726308,0.7505746,1.256009,-0.01166904,-0.6156909,0.881993,0,60,0.1392644,-0.1143208,0.06726633,-1.032896,-1.432791,-0.2414028,0.8336811,1.423276,-0.01598555,0.1146203,-0.07149535,-0.06061081,-0.8947417,0.115931,0.01696434,0.8581662,1.50872,0.1900846,0.4826543,0.986684,0.1432275,50.04887,128.7562,199.0386,True
0,0.1333333,0.07313463,0.4737655,0.1932786,-1.47428,-2.133049,2.726671,0.750325,1.256018,-0.01174545,-0.6057152,0.8984926,0,60,0.1167878,-0.1120508,0.0503711,-1.032789,-1.434233,-0.2411152,0.8331347,1.423185,-0.01610976,0.114672,-0.07480954,-0.05754937,-0.8953281,0.1148841,0.01645274,0.8583465,1.508674,0.1899622,0.4831936,0.9865124,0.1437143,50.11159,129.7801,200.1969,True
0,0.1444445,0.01718132,0.4043445,0.1257379,-1.472568,-2.134496,2.728621,0.7501574,1.256065,-0.01203206,-0.5959861,0.8751014,0,60,0.1059468,-0.116238,0.02488068,-1.032846,-1.436259,-0.2410009,0.8327985,1.423159,-0.01635998,0.1095688,-0.07193291,-0.04878014,-0.8955662,0.113988,0.01597178,0.8584845,1.508639,0.1897404,0.4836347,0.9863392,0.1439463,50.26578,130.7379,201.1535,True
0,0.1555556,-0.03554671,0.3338683,0.06135694,-1.470672,-2.135292,2.730829,0.750006,1.256148,-0.01235679,-0.5858417,0.9155227,0,60,0.1013958,-0.1236299,-0.01238342,-1.033805,-1.438465,-0.2408507,0.8325788,1.423135,-0.01656461,0.1053924,-0.07957253,-0.04365774,-0.8959417,0.1126106,0.01582583,0.8585842,1.508625,0.1896251,0.4839619,0.9861918,0.1439197,50.60564,131.0642,201.4595,True
0,0.1666667,-0.07538129,0.2549087,0.007514939,-1.469008,-2.135041,2.732948,0.7499993,1.256147,-0.01273581,-0.5766713,0.8235218,0,60,0.09368541,-0.1331593,-0.04217337,-1.034677,-1.44108,-0.2402984,0.8324814,1.423295,-0.01671693,0.1042099,-0.08258313,-0.04801726,-0.896672,0.1114272,0.01539121,0.8586907,1.508649,0.1895384,0.4844509,0.9860643,0.143614,51.0472,130.5414,201.0237,True
0,0.1777778,-0.09689715,0.1525551,-0.02941607,-1.46826,-2.132998,2.734438,0.7500544,1.256181,-0.01314175,-0.5672613,0.8517728,0,60,0.08822994,-0.1491026,-0.04854671,-1.034895,-1.443743,-0.2397404,0.8323061,1.423331,-0.01691693,0.09778434,-0.0835634,-0.04897632,-0.8973297,0.1103995,0.01520479,0.8589466,1.508681,0.1893507,0.4849219,0.9858755,0.1429325,51.59412,130.5535,200.8712,True
0,0.1888889,-0.1001323,0.07795695,-0.0441881,-1.468084,-2.131279,2.735426,0.7500861,1.25622,-0.01351732,-0.5572606,0.9036269,0,60,0.06692441,-0.164999,-0.03564074,-1.034176,-1.446692,-0.2382858,0.8320758,1.423434,-0.01708829,0.09673876,-0.08035949,-0.04882806,-0.8979481,0.1095168,0.01470624,0.859062,1.508685,0.1892439,0.485246,0.9856868,0.1421377,52.32835,130.3501,200.4615,True
0,0.2,-0.09592356,-0.07867704,-0.07276522,-1.468844,-2.125159,2.735736,0.7503183,1.256251,-0.01392767,-0.5466617,0.9572651,0,60,0.05758905,-0.150062,-0.00999379,-1.033191,-1.447832,-0.238023,0.8320177,1.423557,-0.01723424,0.09348758,-0.08132637,-0.05092622,-0.8986619,0.1082725,0.01454592,0.8592067,1.508597,0.1890895,0.4854895,0.9854756,0.1413318,53.14605,129.9903,199.8372,True
0,0.2111111,-0.09057687,-0.1159621,-0.07595953,-1.468942,-2.122661,2.736329,0.7503541,1.256286,-0.0142802,-0.5355724,0.9997327,0,60,0.05887108,-0.128788,0.007061712,-1.032488,-1.448506,-0.238249,0.8317094,1.423636,-0.01753506,0.0891701,-0.07798213,-0.05388913,-0.8993798,0.1073728,0.01426469,0.859365,1.508536,0.188959,0.4857232,0.9852584,0.1404815,53.88017,129.3163,199.0118,True
0,0.2222222,-0.06287512,-0.2533743,-0.0962709,-1.470265,-2.11493,2.735258,0.7504604,1.256364,-0.0145584,-0.5244063,1.005455,0,60,0.06366511,-0.09904524,0.06245963,-1.029894,-1.44783,-0.2394677,0.8317417,1.423796,-0.01771024,0.0848369,-0.06816299,-0.05873323,-0.9003268,0.1069992,0.01371661,0.8594086,1.508503,0.1887596,0.4859036,0.9850502,0.1396654,54.55047,128.5401,198.1091,True
0,0.2333333,-0.03624004,-0.3023519,-0.1039117,-1.470881,-2.110113,2.734219,0.7505453,1.25642,-0.01499188,-0.5133568,0.9946924,0,60,0.05894791,-0.05860889,0.1200586,-1.026947,-1.446334,-0.2407956,0.831993,1.424011,-0.01800394,0.08384916,-0.06720586,-0.05547715,-0.9008904,0.1063718,0.01328278,0.8596458,1.508477,0.18856,0.4858772,0.9848623,0.1389199,55.31382,127.593,196.9553,True
0,0.2444444,-0.0009953864,-0.3299918,-0.09888575,-1.471904,-2.105421,2.732529,0.7504439,1.2565,-0.01513001,-0.5019031,1.032446,0,60,0.05727296,-0.01922683,0.1563339,-1.024461,-1.444485,-0.2422899,0.8317301,1.423971,-0.01817298,0.08180819,-0.06949269,-0.05125701,-0.9013698,0.1053468,0.01308118,0.8597788,1.508466,0.1883803,0.4859169,0.9846566,0.1381202,55.8732,126.4867,195.7168,True
0,0.2555556,0.03221845,-0.3224609,-0.07897431,-1.473026,-2.102474,2.730724,0.750262,1.256596,-0.0152171,-0.4907391,1.002217,0,60,0.07029762,0.009452261,0.1690625,-1.022443,-1.442635,-0.2444486,0.831663,1.424075,-0.01839426,0.07854794,-0.07580934,-0.05250534,-0.9020979,0.1042296,0.01305561,0.8598912,1.508425,0.1881285,0.4857978,0.9844871,0.1372215,56.34577,125.1111,194.193,True
0,0.2666667,0.06127354,-0.2605705,-0.03992694,-1.474107,-2.102091,2.729119,0.7498028,1.256713,-0.01521489,-0.4796497,0.9966457,0,60,0.1044706,0.0369706,0.1582062,-1.021509,-1.440985,-0.2476652,0.8315053,1.424149,-0.0186246,0.08263632,-0.08306023,-0.05822822,-0.9029714,0.1028868,0.01284629,0.8600214,1.508434,0.1879229,0.4855208,0.9843384,0.1364861,56.92854,123.216,192.1812,True
0,0.2777778,0.09570257,-0.150724,0.0107145,-1.474957,-2.104503,2.727147,0.7492378,1.256832,-0.01506427,-0.469021,0.9539058,0,60,0.1320632,0.04003675,0.1399141,-1.02074,-1.440072,-0.2505222,0.8312708,1.424211,-0.0188683,0.0866897,-0.09563266,-0.06416956,-0.9039754,0.1012061,0.01288091,0.8601978,1.50842,0.1875959,0.4853487,0.9841586,0.1357285,57.14809,121.9723,190.8196,True
0,0.2888889,0.125794,0.003856811,0.0602647,-1.474946,-2.109648,2.725365,0.7484872,1.256956,-0.01495406,-0.4588999,0.9079502,0,60,0.1700216,0.01641568,0.09913959,-1.020924,-1.441362,-0.2530722,0.8308836,1.424272,-0.01927701,0.09185617,-0.1018268,-0.06987472,-0.9049677,0.09957959,0.01261992,0.8603836,1.508386,0.1873079,0.4851816,0.9840132,0.1352918,57.31997,120.9147,189.7506,True
0,0.3,0.1440242,0.1136505,0.08869147,-1.47473,-2.114916,2.723675,0.7476532,1.257119,-0.01470849,-0.4487304,0.9135277,0,60,0.2034373,-0.04443286,0.04771183,-1.021492,-1.444544,-0.2548293,0.830341,1.424268,-0.01960385,0.09917489,-0.1156062,-0.07274203,-0.9059739,0.09751058,0.01262418,0.860539,1.508356,0.186903,0.4849947,0.9838838,0.1353785,57.54314,119.8613,188.8052,True
0,0.3111111,0.1793272,0.282074,0.1275189,-1.473678,-2.123678,2.72131,0.7465425,1.25738,-0.01424989,-0.4388272,0.8876087,0,60,0.2323289,-0.1350747,-0.01969984,-1.022609,-1.450331,-0.2553178,0.8299776,1.424299,-0.01986071,0.1125153,-0.1262703,-0.0478958,-0.9056814,0.09534636,0.01218103,0.8606579,1.508385,0.186597,0.4850138,0.9837378,0.1356471,57.50119,120.2077,189.1731,True
0,0.3222222,0.2239897,0.4920368,0.1502092,-1.470894,-2.135644,2.718651,0.7451963,1.257667,-0.01371112,-0.4293548,0.8495958,0,60,0.2730043,-0.2023267,-0.09568913,-1.024896,-1.456194,-0.2565807,0.8290136,1.42417,-0.02017468,0.1039744,-0.1294159,-0.04780691,-0.9060985,0.09357749,0.01249928,0.8607568,1.508342,0.1862837,0.4851909,0.9836329,0.1358498,57.1783,122.2969,191.1443,True
0,0.3333333,0.2632796,0.6657543,0.1623555,-1.467445,-2.148721,2.71575,0.7438169,1.258031,-0.01304692,-0.419369,0.8972168,0,60,0.304603,-0.239754,-0.1193836,-1.025957,-1.460934,-0.2584584,0.8284624,1.42418,-0.02051458,0.1079868,-0.1343895,-0.05768711,-0.906948,0.09120528,0.01246493,0.8609108,1.508432,0.1859331,0.4852114,0.9835858,0.1364488,56.95704,123.6209,192.6186,True
0,0.3444445,0.3570717,1.045219,0.2205366,-1.461543,-2.17191,2.711092,0.7421086,1.258537,-0.01207939,-0.4091675,0.9135574,0,60,0.32465,-0.2622226,-0.1301966,-1.026758,-1.465666,-0.2603157,0.8278195,1.424163,-0.02083585,0.1065209,-0.1412328,-0.07286181,-0.9083052,0.08905584,0.01269582,0.8611264,1.50836,0.185616,0.4854266,0.9835549,0.1375332,56.74773,123.0019,192.558,True
0,0.3555556,0.4062732,1.215803,0.2645394,-1.457516,-2.19076,2.707051,0.7405903,1.258986,-0.01116207,-0.3989921,0.9107591,0,60,0.37146,-0.2710033,-0.1315931,-1.027317,-1.469706,-0.2636814,0.826966,1.424137,-0.02131194,0.1043225,-0.1464992,-0.07510209,-0.9085965,0.08607363,0.01330089,0.8611792,1.508249,0.1852643,0.4855188,0.9834964,0.1385374,56.24376,124.7447,194.3253,True
0,0.3666667,0.4865238,1.426938,0.3305663,-1.45343,-2.213372,2.70164,0.7385738,1.259454,-0.01021975,-0.3873285,1.047624,0,60,0.4451784,-0.2661153,-0.1033255,-1.026877,-1.472972,-0.2690616,0.8265877,1.424312,-0.02179751,0.09927764,-0.1512467,-0.06237946,-0.9089241,0.0837146,0.01382474,0.8613956,1.508127,0.1847923,0.4854945,0.9835038,0.1401384,55.77433,126.0957,195.9335,True
0,0.3777778,0.5388116,1.515466,0.3522942,-1.449081,-2.233374,2.696176,0.7366624,1.26014,-0.009188205,-0.377085,0.9076949,0,60,0.5006816,-0.2685665,-0.08559117,-1.026392,-1.476543,-0.2746015,0.8259113,1.424361,-0.02217051,0.09175321,-0.1564809,-0.06450237,-0.9092431,0.08068326,0.0147619,0.8616093,1.508026,0.1843787,0.4856983,0.9834707,0.1421385,54.82923,128.7204,198.8491,True
0,0.3888889,0.6269693,1.599741,0.3385181,-1.443061,-2.25311,2.688881,0.7343676,1.26106,-0.007930756,-0.3662395,0.9719107,0,60,0.5816191,-0.2626033,-0.09465623,-1.027033,-1.48012,-0.2819188,0.8251767,1.424438,-0.02251828,0.08609684,-0.1505162,-0.08008117,-0.9101502,0.07838162,0.01513634,0.861847,1.507957,0.1840164,0.4858923,0.9834265,0.1447069,53.76594,131.6313,202.0153,True
0,0.4,0.7233008,1.671174,0.2852745,-1.434813,-2.272906,2.680124,0.7317283,1.262221,-0.006465316,-0.3562399,0.8879766,0,60,0.6346204,-0.2596499,-0.1365563,-1.029065,-1.484176,-0.2887194,0.8244565,1.424548,-0.02282658,0.08371706,-0.1404141,-0.09241678,-0.9116107,0.07682168,0.01522689,0.8621248,1.507874,0.1835981,0.4861491,0.9833215,0.1472982,52.18479,134.6464,205.4501,True
0,0.4111111,0.8249377,1.804407,0.2382738,-1.424712,-2.295427,2.670854,0.7289686,1.263477,-0.00480935,-0.3456032,0.9502861,0,60,0.6641738,-0.2533805,-0.1794749,-1.031645,-1.488275,-0.2948245,0.8241086,1.424779,-0.02311206,0.08573175,-0.1241054,-0.1013851,-0.9127846,0.07519408,0.01490092,0.8623052,1.507793,0.1833111,0.4860669,0.9832402,0.1501519,50.52595,137.3303,208.2978,True
0,0.4222222,0.9267178,2.05381,0.2241308,-1.412413,-2.324255,2.661785,0.7260275,1.264768,-0.002880514,-0.334558,0.9820372,0,60,0.6652575,-0.2597921,-0.1761742,-1.03241,-1.492605,-0.3001002,0.8232403,1.424861,-0.02336484,0.09247989,-0.1161315,-0.08842957,-0.9133545,0.07389539,0.01433553,0.8624581,1.507802,0.1829884,0.4856338,0.9831772,0.1527481,48.40842,139.3109,210.5107,True
0,0.4333333,0.9850674,2.25417,0.2275077,-1.400024,-2.353945,2.653802,0.7232106,1.266089,-0.00117743,-0.3236758,0.965401,0,60,0.6547186,-0.2672186,-0.1526806,-1.032272,-1.496514,-0.3049751,0.8222182,1.424743,-0.02356607,0.09928308,-0.1340522,-0.06796762,-0.9133066,0.07112011,0.01470358,0.862836,1.507721,0.18265,0.4845311,0.9831709,0.1555385,46.26913,140.9748,211.981,True
0,0.4444444,1.029459,2.525903,0.233068,-1.385094,-2.388776,2.647158,0.7202208,1.26734,0.0006515086,-0.3131648,0.9319373,0,60,0.6421546,-0.286376,-0.1036265,-1.030789,-1.500587,-0.3095243,0.8213804,1.42486,-0.0238921,0.1111098,-0.1471815,-0.06131237,-0.9138733,0.06844031,0.01463407,0.863004,1.507741,0.182175,0.4835318,0.9830285,0.1580106,43.56271,142.4201,213.4274,True
0,0.4555556,1.026838,2.70056,0.2061681,-1.369086,-2.421846,2.642157,0.7174594,1.268583,0.002181977,-0.3039381,0.8128476,0,60,0.5982574,-0.3479442,-0.08635633,-1.02936,-1.507328,-0.3112889,0.8203108,1.424816,-0.02413195,0.1248237,-0.1577756,-0.06523243,-0.9143916,0.06561004,0.01447135,0.8633116,1.507726,0.1817673,0.482444,0.9827423,0.1611221,40.98246,144.2779,215.1172,True
0,0.4666667,0.995591,2.711133,0.1734428,-1.355392,-2.449218,2.638002,0.7148931,1.269549,0.003686607,-0.2952503,0.7691401,0,60,0.5543722,-0.3913928,-0.08292653,-1.028618,-1.514211,-0.3125622,0.8194289,1.424862,-0.02445212,0.1342398,-0.1779577,-0.06840128,-0.9153578,0.06228002,0.01473234,0.8635191,1.507645,0.1812904,0.4817277,0.9821852,0.1645034,38.25486,146.3562,217.0894,True
0,0.4777778,0.9363149,2.498893,0.07099807,-1.342935,-2.466479,2.633574,0.7126215,1.27048,0.004678637,-0.2876454,0.6694582,0,60,0.5049431,-0.4433016,-0.1039582,-1.028307,-1.522353,-0.3122096,0.8180754,1.4248,-0.02482679,0.1646592,-0.2170913,-0.0813379,-0.9165934,0.05698259,0.01495045,0.8640001,1.507714,0.1807381,0.4812486,0.9814141,0.167542,35.673,147.9378,219.0311,True
0,0.4888889,0.9074343,2.283586,0.02475306,-1.333022,-2.482069,2.627954,0.7103949,1.271416,0.005865812,-0.2808687,0.5996568,0,60,0.5217685,-0.4636256,-0.1190165,-1.028405,-1.529325,-0.3150631,0.8167396,1.424745,-0.0251548,0.1804943,-0.233043,-0.08449297,-0.9177306,0.05323486,0.01470518,0.8641996,1.50761,0.1802447,0.4802593,0.980218,0.1703947,31.916,150.6619,220.8202,True
0,0.5,0.8788266,1.845624,-0.02440107,-1.328458,-2.485521,2.620133,0.708503,1.272226,0.006657541,-0.2743615,0.5776747,0,60,0.5606532,-0.4978716,-0.170452,-1.029735,-1.537971,-0.3181258,0.8153992,1.424758,-0.02547634,0.1932058,-0.2501855,-0.08439777,-0.9185029,0.04888046,0.0147667,0.8644804,1.50758,0.1796816,0.4793806,0.9790884,0.1728659,28.82322,152.6611,222.1022,True
0,0.5111111,0.8568231,1.357636,-0.0564838,-1.326925,-2.484619,2.610993,0.7067287,1.273035,0.007778317,-0.2660088,0.7493197,0,60,0.5762467,-0.518162,-0.2110746,-1.031326,-1.546591,-0.3207969,0.8141463,1.424778,-0.02581701,0.2089439,-0.2595247,-0.09262832,-0.9200305,0.04518572,0.01425004,0.8649149,1.507532,0.1791306,0.4782823,0.9782743,0.1745774,26.43245,154.0127,222.5474,True
0,0.5222223,0.8520194,0.9410859,-0.06326777,-1.327766,-2.480676,2.600856,0.7051697,1.273594,0.008649111,-0.2570472,0.797165,0,60,0.5961218,-0.5416687,-0.2463903,-1.033006,-1.555588,-0.3234649,0.8127577,1.424906,-0.02616253,0.2270233,-0.2595676,-0.09412643,-0.9211522,0.04160856,0.01327266,0.8651257,1.507456,0.1785718,0.4771805,0.9778107,0.1755989,24.57769,153.9785,222.0819,True
0,0.5333334,0.8591775,0.6204881,-0.02981824,-1.329575,-2.479092,2.590993,0.7035968,1.274304,0.00986594,-0.2472921,0.8720204,0,60,0.6120387,-0.5630714,-0.2380172,-1.033015,-1.563915,-0.3263126,0.8114994,1.424988,-0.02650645,0.2488192,-0.2529804,-0.07519627,-0.9214628,0.03854499,0.01173389,0.8653153,1.507346,0.1780219,0.4758105,0.9777046,0.1764607,23.02085,154.3323,221.5659,True
0,0.5444446,0.8586625,0.4586111,0.003454536,-1.330651,-2.479307,2.581572,0.7020648,1.274862,0.01085877,-0.2368466,0.9322298,0,60,0.597438,-0.5801088,-0.1782791,-1.030673,-1.57166,-0.3284599,0.8102918,1.425111,-0.02679721,0.2510789,-0.2478308,-0.07078075,-0.9221632,0.03546585,0.01084066,0.8654941,1.507328,0.1774787,0.4744234,0.9778562,0.177342,21.96701,153.5428,220.4889,True
0,0.5555557,0.8614787,0.2775506,0.04737201,-1.33362,-2.478053,2.571532,0.7003646,1.275574,0.01168457,-0.2259202,0.9748727,0,60,0.5648612,-0.6077259,-0.08966832,-1.026371,-1.579485,-0.3295893,0.809123,1.425278,-0.02712566,0.2551303,-0.2571713,-0.07765155,-0.9233105,0.03158176,0.01023373,0.865698,1.50724,0.1768824,0.4729457,0.9781147,0.1782496,21.15087,152.9172,219.6535,True
0,0.5666668,0.8298947,0.1635631,0.07020918,-1.335418,-2.477699,2.563318,0.6988602,1.276159,0.01294935,-0.2150545,0.968771,0,60,0.5322015,-0.6086743,-0.03511521,-1.022941,-1.586503,-0.3308147,0.8078816,1.425394,-0.02745077,0.2612349,-0.2631584,-0.0887028,-0.9247619,0.02769461,0.009403355,0.8658693,1.507196,0.1762865,0.4718188,0.9782068,0.1792425,20.15704,152.3183,219.0271,True
0,0.577778,0.8023309,0.1432968,0.08115527,-1.335809,-2.479255,2.555713,0.6974487,1.276819,0.01385453,-0.2040903,0.9779797,0,60,0.4899206,-0.5797082,-0.009229407,-1.020365,-1.592244,-0.3317353,0.8068373,1.425592,-0.02780771,0.2661658,-0.2689647,-0.1039902,-0.9265659,0.02389002,0.008598548,0.8661251,1.507106,0.1756572,0.4709181,0.9781255,0.1803248,19.04591,152.0992,218.7548,True
0,0.5888891,0.7385316,0.1826642,0.09981799,-1.335272,-2.48331,2.550724,0.6960294,1.277569,0.01472512,-0.1943186,0.8679944,0,60,0.4805903,-0.5381231,-0.003785238,-1.0189,-1.597342,-0.3341391,0.8056779,1.425857,-0.02825204,0.2639902,-0.2731654,-0.1051772,-0.9278054,0.02002058,0.008041947,0.8663058,1.506981,0.1749621,0.4697791,0.9781009,0.1815774,18.32043,151.6012,218.4984,True
0,0.6000003,0.6875106,0.326469,0.1288718,-1.33244,-2.492388,2.546284,0.694561,1.278371,0.01556548,-0.1844947,0.8789608,0,60,0.5065649,-0.4924818,0.0195277,-1.016668,-1.601345,-0.3385272,0.8047032,1.426138,-0.02871528,0.2618276,-0.2827631,-0.1044354,-0.9288142,0.0159578,0.007720238,0.8664615,1.506803,0.1742788,0.4688988,0.9780154,0.182589,17.31776,151.2307,218.1588,True
0,0.6111114,0.6810244,0.5385013,0.1456512,-1.326754,-2.505163,2.541622,0.6932018,1.279363,0.01680145,-0.175832,0.7712556,0,60,0.5250656,-0.4553283,0.04819968,-1.013996,-1.605038,-0.3430029,0.8036637,1.426331,-0.02905262,0.2626941,-0.2920795,-0.1112319,-0.9303482,0.0117468,0.007231015,0.8666337,1.506807,0.1737161,0.4682102,0.9778988,0.1834119,16.43573,151.0813,217.9422,True
0,0.6222225,0.7094262,0.8197836,0.1481421,-1.317892,-2.521804,2.536984,0.6916986,1.280357,0.01801085,-0.1662068,0.8652931,0,60,0.5427616,-0.4086149,0.1067254,-1.009913,-1.606856,-0.3486541,0.8027453,1.426595,-0.02942273,0.2673787,-0.2964018,-0.1371062,-0.9327652,0.007517704,0.006668556,0.8668222,1.506698,0.1730175,0.4676739,0.9776906,0.1839701,15.99842,151.2666,218.1265,True
0,0.6333337,0.7168108,1.024359,0.1636941,-1.309434,-2.53831,2.532471,0.6902978,1.28123,0.01881537,-0.1553044,0.9761288,0,60,0.5176327,-0.393622,0.1601797,-1.005257,-1.609788,-0.3519314,0.8020535,1.42698,-0.02971539,0.2605678,-0.2945809,-0.1550041,-0.9351743,0.003622698,0.006288522,0.866995,1.506558,0.1723409,0.4674211,0.9772991,0.1846005,15.3241,151.3173,218.2326,True
0,0.6444448,0.6805793,1.238479,0.1924769,-1.299945,-2.55828,2.531468,0.6886458,1.28223,0.01995328,-0.1436525,1.040791,0,60,0.5006282,-0.3924708,0.1656315,-1.001981,-1.61396,-0.3546073,0.8008537,1.427211,-0.03021005,0.2647462,-0.2922866,-0.1592677,-0.9368702,-7.603325E-05,0.005405684,0.8672466,1.506369,0.1715478,0.4672548,0.9768905,0.185667,14.61544,151.2461,218.3107,True
0,0.655556,0.6296366,1.371639,0.2279219,-1.292153,-2.576682,2.530968,0.6872616,1.283408,0.02112809,-0.1324251,0.9996937,0,60,0.4961264,-0.4009377,0.1368888,-0.9997592,-1.618891,-0.3572196,0.7998953,1.427501,-0.03059909,0.2647788,-0.2955652,-0.157267,-0.9385768,-0.004212189,0.004952414,0.8673726,1.506248,0.1707779,0.4670381,0.976313,0.1866022,13.54715,151.3157,218.4964,True
0,0.6666671,0.6040307,1.431268,0.2323393,-1.284192,-2.593568,2.529951,0.6857474,1.284618,0.02227187,-0.1232314,0.8163234,0,60,0.5159246,-0.3999068,0.07070775,-0.9996335,-1.624319,-0.3607297,0.7986059,1.427718,-0.03099406,0.2669646,-0.2967095,-0.1552424,-0.9403105,-0.008127835,0.004128432,0.8675303,1.506098,0.1700835,0.4665341,0.9757739,0.1877565,12.71902,151.7619,218.8174,True
0,0.6777782,0.6278716,1.538823,0.1776181,-1.272451,-2.611041,2.527064,0.6844704,1.28619,0.02361748,-0.1143615,0.7950542,0,60,0.5859735,-0.3671938,0.005287059,-1.000695,-1.628544,-0.3674188,0.7976,1.428116,-0.03143579,0.258463,-0.280572,-0.1575887,-0.9420911,-0.01127809,0.003347327,0.8677526,1.506149,0.1693371,0.4662648,0.9750523,0.1884942,11.63721,151.9955,219.1178,True
0,0.6888894,0.6753551,1.575043,0.1355516,-1.261741,-2.626962,2.522769,0.6830456,1.287601,0.02488869,-0.1049243,0.8461873,0,60,0.6501788,-0.3302746,0.01874421,-0.9990305,-1.630771,-0.375462,0.7964947,1.428492,-0.03179273,0.2531576,-0.2698033,-0.1591684,-0.9439468,-0.01435923,0.002423743,0.8679119,1.506075,0.1686797,0.4662066,0.9745358,0.1893312,10.84741,152.01,219.3317,True
0,0.7000005,0.7514315,1.607008,0.07188989,-1.249474,-2.642092,2.516391,0.6817524,1.288974,0.02624249,-0.09367829,1.009356,0,60,0.6473004,-0.3367072,0.07095723,-0.9952574,-1.634023,-0.3808294,0.7955704,1.428792,-0.03213781,0.2519528,-0.2674135,-0.1654427,-0.9459953,-0.0178513,0.001729457,0.8681085,1.505995,0.1679604,0.4659987,0.9741876,0.1903056,10.09925,152.6181,219.7441,True
0,0.7111117,0.7789063,1.601683,0.04814376,-1.239064,-2.656742,2.511539,0.6804442,1.290014,0.02679986,-0.0818219,1.056636,0,60,0.6134897,-0.3386986,0.113788,-0.9912797,-1.637153,-0.3845104,0.7943537,1.428918,-0.0324854,0.2530147,-0.2674197,-0.1654703,-0.9478595,-0.02158386,0.001074585,0.868287,1.505893,0.167179,0.4655679,0.9738671,0.1909793,9.052492,152.8739,219.8671,True
0,0.7222228,0.7789899,1.528157,0.04183864,-1.230585,-2.669154,2.506786,0.6789343,1.291167,0.02785164,-0.06919105,1.127182,0,60,0.559237,-0.3746671,0.154596,-0.9863001,-1.641767,-0.3862548,0.7933633,1.429158,-0.03279355,0.2511802,-0.2657407,-0.1536322,-0.9491873,-0.02500415,0.0002798982,0.8684353,1.50581,0.1666196,0.4649107,0.9736221,0.1914406,7.704301,153.2159,219.8549,True
0,0.7333339,0.7621171,1.406687,0.04114423,-1.224208,-2.679138,2.50227,0.6775601,1.292273,0.02873239,-0.05860019,0.9365222,0,60,0.550472,-0.3991027,0.1386434,-0.9835709,-1.647237,-0.3890628,0.79246,1.429364,-0.03308177,0.2429266,-0.2682993,-0.1418076,-0.9503437,-0.02877679,7.403588E-05,0.8685724,1.505724,0.1658792,0.4640985,0.9735168,0.192123,6.300327,154.0589,219.8904,True
0,0.7444451,0.7480146,1.271305,-0.003248096,-1.217245,-2.686198,2.496948,0.6761625,1.293478,0.02947879,-0.04913585,0.8426247,0,60,0.5704543,-0.3949051,0.09696561,-0.9823389,-1.652093,-0.3934075,0.7914979,1.429582,-0.03341711,0.232237,-0.269216,-0.1437309,-0.9521227,-0.03236313,-0.0002237055,0.8687226,1.505648,0.1649931,0.4633927,0.9735858,0.1927933,5.345504,154.0305,219.5363,True
0,0.7555562,0.7495589,1.134825,-0.08188064,-1.209488,-2.690729,2.490212,0.6748648,1.294783,0.03015897,-0.04043158,0.7747188,0,60,0.637429,-0.3355567,0.02839701,-0.9836428,-1.655064,-0.4013315,0.7905483,1.429803,-0.03385624,0.22267,-0.2659785,-0.1433738,-0.9536961,-0.035856,-0.0003379551,0.8688637,1.505526,0.1642454,0.4627805,0.9737055,0.1934325,4.522869,153.9522,219.2344,True
0,0.7666674,0.7640715,0.9674994,-0.1456698,-1.202996,-2.693105,2.48211,0.673847,1.296106,0.03085494,-0.03158456,0.7903798,0,60,0.6631482,-0.2941547,0.01761717,-0.9828412,-1.657317,-0.4082368,0.7895594,1.43005,-0.03430951,0.2132321,-0.2639971,-0.1377509,-0.9551294,-0.0390506,-0.000627707,0.8691367,1.505334,0.1635023,0.4621395,0.9737095,0.1939884,3.622178,154.5468,219.2922,True
0,0.7777785,0.7872542,0.814054,-0.1946518,-1.197238,-2.694845,2.473043,0.6728194,1.297359,0.03155532,-0.02257455,0.8054234,0,60,0.672279,-0.2239301,0.05065955,-0.9812555,-1.656702,-0.4164188,0.7889004,1.430338,-0.03475443,0.2100951,-0.2673037,-0.1346096,-0.956503,-0.04278914,-0.0006737798,0.869344,1.505217,0.1627389,0.4614147,0.9738929,0.1944664,2.854798,154.5522,218.861,True
0,0.7888896,0.7999074,0.7479873,-0.2170425,-1.190922,-2.697867,2.464863,0.671735,1.298593,0.03220609,-0.01411795,0.7525524,0,60,0.6533594,-0.2089213,0.07530764,-0.978872,-1.657941,-0.4223089,0.7884679,1.43069,-0.0350683,0.2143707,-0.2651764,-0.1346377,-0.9581121,-0.04608281,-0.001371528,0.8696861,1.505117,0.1621144,0.4604448,0.9744097,0.1948957,2.275243,154.3385,218.056,True
0,0.8000008,0.7977775,0.6627355,-0.2307274,-1.185556,-2.700178,2.456697,0.670789,1.299728,0.03273132,-0.006681338,0.6590673,0,60,0.603615,-0.2076353,0.1225195,-0.9752778,-1.659001,-0.4267841,0.7879391,1.430955,-0.0353798,0.2089382,-0.2477794,-0.1423422,-0.9599444,-0.0487742,-0.001981925,0.8699377,1.505016,0.1614333,0.4592768,0.9749284,0.1952038,1.579115,154.4023,217.3736,True
0,0.8111119,0.7500795,0.5177904,-0.2268378,-1.182837,-2.699651,2.449579,0.6698437,1.300849,0.03325886,-0.001391235,0.4688911,0,60,0.5653268,-0.2127654,0.1366309,-0.9723212,-1.66095,-0.4306563,0.7871194,1.431145,-0.03558218,0.1950292,-0.2239358,-0.1495994,-0.9619823,-0.05057463,-0.002749447,0.8702699,1.504983,0.1607354,0.4579044,0.9753807,0.1957837,0.8787494,154.6954,216.9419,True
0,0.8222231,0.7045495,0.409094,-0.212373,-1.180754,-2.699153,2.443048,0.6690314,1.302052,0.0338186,0.002160356,0.3021782,0,60,0.55351,-0.2084198,0.118605,-0.9707616,-1.662995,-0.4351917,0.7866991,1.431489,-0.03591156,0.1845446,-0.2263148,-0.1419805,-0.9633016,-0.053737,-0.002635464,0.8704772,1.504875,0.1600741,0.4568895,0.9758976,0.1965174,0.07309158,154.2948,216.1386,True
0,0.8333342,0.7045501,0.3792504,-0.2176544,-1.176426,-2.700342,2.435387,0.6683204,1.303432,0.03430846,0.002879942,0.05118727,0,60,0.606941,-0.1618271,0.1055125,-0.9701139,-1.662969,-0.4439985,0.7863111,1.431944,-0.03635845,0.1691142,-0.2077833,-0.1227554,-0.9641336,-0.0556136,-0.003030411,0.8708856,1.504919,0.1594328,0.4560581,0.9764575,0.1972285,359.3672,153.8132,215.4859,True
0,0.8444453,0.7342002,0.3877836,-0.2350022,-1.170969,-2.701907,2.426791,0.6676407,1.304823,0.03488353,0.002467685,-0.04012531,0,60,0.6736313,-0.07808265,0.1339337,-0.9685363,-1.659694,-0.4555324,0.7861357,1.432364,-0.03676113,0.1618823,-0.1887832,-0.1164973,-0.9653245,-0.05711668,-0.003683152,0.8713273,1.504818,0.1587962,0.4549408,0.9771052,0.1981267,359.1839,153.4643,215.1418,True
0,0.8555565,0.77527,0.4229209,-0.281258,-1.16335,-2.703619,2.41707,0.6671426,1.306363,0.03542599,0.003078614,0.04796583,0,60,0.662766,-0.0301785,0.221417,-0.964305,-1.655425,-0.4651,0.7860525,1.432787,-0.03721848,0.1459484,-0.1672867,-0.1184493,-0.9666508,-0.05842083,-0.004038417,0.8718827,1.504678,0.1582157,0.4536861,0.9776113,0.1991238,358.9614,153.3772,214.9096,True
0,0.8666676,0.7879251,0.4580789,-0.289959,-1.15659,-2.706154,2.408894,0.6666775,1.307761,0.03598544,0.003951598,0.06876004,0,60,0.6141971,-0.02572557,0.2824664,-0.9595715,-1.653171,-0.4713377,0.7861586,1.433264,-0.03765768,0.1251327,-0.160826,-0.1432944,-0.969103,-0.06004776,-0.003739611,0.8722461,1.504569,0.1575885,0.452261,0.9780757,0.2003362,358.739,153.3053,214.6732,True
0,0.8777788,0.7742208,0.4623529,-0.2780903,-1.151086,-2.708926,2.401536,0.6661203,1.309123,0.03649789,0.004952414,0.07866355,0,60,0.5229352,-0.01781696,0.3288999,-0.9548529,-1.650152,-0.4756544,0.7862251,1.433741,-0.03809315,0.1296555,-0.140878,-0.1362033,-0.9704463,-0.06118626,-0.00468743,0.8725666,1.504443,0.1570707,0.4504741,0.9785728,0.2017298,358.2199,153.5158,214.399,True
0,0.8888899,0.7586092,0.4506712,-0.2416985,-1.147014,-2.711584,2.394796,0.6657412,1.310494,0.03696883,0.004349475,-0.06577042,0,60,0.4796784,-0.004861876,0.3814135,-0.9498462,-1.646719,-0.4815381,0.786263,1.434157,-0.03859919,0.1195059,-0.1277076,-0.1173176,-0.971225,-0.06222662,-0.005078648,0.8728977,1.504387,0.1564531,0.448309,0.9792522,0.2033474,357.5803,153.782,214.0167,True
0,0.900001,0.7672979,0.4634697,-0.2247731,-1.141824,-2.714382,2.387027,0.6654747,1.311906,0.03733963,0.002902846,-0.1379586,0,60,0.5079736,0.01621181,0.4526227,-0.9436581,-1.641512,-0.491125,0.7864237,1.434561,-0.03901547,0.1043684,-0.105415,-0.086201,-0.9711254,-0.06270826,-0.005434713,0.8732396,1.504318,0.1559116,0.443357,0.9803427,0.207096,1.658539,152.738,215.0762,True
0,0.9111122,0.7830583,0.4975499,-0.2430914,-1.134759,-2.717268,2.378978,0.6651263,1.313265,0.03773838,0.001099353,-0.1699931,0,60,0.5498983,0.04575413,0.484332,-0.9387766,-1.636398,-0.5018069,0.786201,1.434766,-0.03926054,0.09607308,-0.101378,-0.07948445,-0.9724298,-0.0641923,-0.006085856,0.8744656,1.503757,0.1552961,0.4382223,0.9842241,0.2176452,8.927492,151.2874,211.239,True
0,0.9222233,0.7601545,0.5666854,-0.2909263,-1.124924,-2.720322,2.372281,0.6650844,1.314514,0.03788403,0.0004836301,-0.07277338,0,60,0.5489174,0.0532098,0.4907389,-0.9342018,-1.632053,-0.5104667,0.7864003,1.435125,-0.03960997,0.08748317,-0.1001469,-0.08243018,-0.9734365,-0.06550071,-0.006026201,0.8749521,1.503612,0.1547728,0.4373321,0.9908068,0.2361501,17.36352,152.1519,207.1061,True
0,0.9333345,0.7121876,0.5879192,-0.2915835,-1.117558,-2.72327,2.367277,0.6649969,1.31582,0.03806713,-0.0006189186,-0.04114569,0,60,0.5158139,0.04912616,0.482427,-0.9301473,-1.62887,-0.5168221,0.7866039,1.43543,-0.03996369,0.06890232,-0.08421551,-0.1048182,-0.9755106,-0.06589699,-0.005913016,0.8754094,1.503915,0.1543599,0.4402071,1.000112,0.2560681,22.68779,157.1786,206.2723,True
0,0.9444456,0.6173649,0.6005884,-0.2906791,-1.110301,-2.726532,2.36514,0.6649098,1.316891,0.03799972,-0.001470598,-0.1162121,0,60,0.4805211,0.03974743,0.469871,-0.9260706,-1.625818,-0.5227058,0.7869017,1.435747,-0.04036626,0.04654442,-0.04867455,-0.1103184,-0.9768118,-0.06486848,-0.006182795,0.8756232,1.503883,0.1538683,0.4448169,1.010551,0.274692,27.05416,162.7544,205.6298,True
0,0.9555568,0.5236081,0.5684899,-0.2971808,-1.104172,-2.727756,2.362751,0.6650157,1.31794,0.03769323,-0.00323361,-0.1908799,0,60,0.4260353,0.04859886,0.4404294,-0.9230186,-1.622656,-0.5273892,0.7874863,1.435927,-0.04080501,0.03277501,-0.03477495,-0.1094317,-0.9780118,-0.0647521,-0.006133526,0.8760571,1.503783,0.1534248,0.449292,1.020608,0.2899902,30.91177,167.6529,205.3831,True
0,0.9666679,0.4606905,0.4959496,-0.3124327,-1.099088,-2.72715,2.35945,0.6650739,1.31887,0.03725654,-0.006362824,-0.2865649,0,60,0.4036295,0.06471372,0.4224918,-0.9200263,-1.618687,-0.5336304,0.7877812,1.436111,-0.04115474,0.03085606,-0.03190088,-0.1007477,-0.9789056,-0.0649501,-0.006263755,0.8765333,1.503737,0.1529837,0.4523398,1.029025,0.3008734,33.94353,171.5024,205.7668,True
0,0.977779,0.4339005,0.4287836,-0.3376268,-1.093856,-2.72565,2.354362,0.6652637,1.319871,0.03689647,-0.008678709,-0.2066383,0,60,0.358848,0.0990888,0.388742,-0.9184082,-1.614136,-0.5388557,0.7885029,1.436288,-0.04165104,0.01970788,-0.03709357,-0.07619415,-0.9793711,-0.06567941,-0.005844041,0.8774903,1.503578,0.15252,0.453437,1.035054,0.3069414,35.89226,174.1168,206.5961,True
0,0.9888902,0.3836159,0.2582075,-0.3805492,-1.091967,-2.718592,2.348706,0.6654429,1.320729,0.03620526,-0.009608685,-0.08289292,0,60,0.3447957,0.1023925,0.3558169,-0.9164401,-1.610979,-0.5442582,0.7890961,1.436425,-0.0419744,0.01662826,-0.02438868,-0.07348475,-0.9802563,-0.06548008,-0.00602194,0.8778932,1.503285,0.1520078,0.4525558,1.038484,0.3081556,36.53292,175.04,207.3331,True
0,1.000001,0.3130187,0.0907968,-0.4318015,-1.090596,-2.709806,2.343354,0.6658413,1.321619,0.03541332,-0.00864036,0.08724609,0,60,0.3390623,0.1366103,0.2674724,-0.9177845,-1.608146,-0.5494969,0.7899346,1.436603,-0.04235822,0.004696198,-0.007855575,-0.08533224,-0.9815826,-0.064924,-0.005999569,0.8785555,1.503132,0.1516258,0.4499706,1.03961,0.3051672,35.87918,174.2691,207.7062,True
0,1.011112,0.2413155,-0.03826779,-0.4809729,-1.089031,-2.700323,2.338732,0.6662173,1.3224,0.03456503,-0.008634501,-0.003110459,0,60,0.3260805,0.1654956,0.21433,-0.9186393,-1.60476,-0.5548587,0.7907491,1.436868,-0.04274046,-0.00634864,0.007929081,-0.1046558,-0.9828215,-0.06388511,-0.006152967,0.8787338,1.502988,0.1513362,0.4462053,1.039188,0.2991618,34.26767,172.2471,207.7773,True
0,1.022224,0.1943034,-0.1075991,-0.50385,-1.086832,-2.692926,2.334511,0.6668124,1.323193,0.03377825,-0.008891762,-0.02398871,0,60,0.3249825,0.19323,0.1866702,-0.9194399,-1.600724,-0.5608426,0.7917576,1.437107,-0.04322216,-0.02181343,0.0422353,-0.133834,-0.9853882,-0.06186496,-0.00647228,0.8794341,1.502841,0.1510649,0.4417852,1.038074,0.2914711,32.39934,169.5283,207.6363,True
0,1.033335,0.145373,-0.1545272,-0.5022392,-1.084988,-2.686344,2.331074,0.6674516,1.323997,0.03298068,-0.009194298,-0.0277081,0,60,0.305237,0.2369729,0.224144,-0.9181232,-1.593707,-0.5679076,0.7929671,1.437496,-0.04375988,-0.04341438,0.07827807,-0.1521385,-0.9878085,-0.05931805,-0.006571882,0.8801253,1.502687,0.1508184,0.4372197,1.037016,0.283345,30.6222,166.8316,207.5887,True
0,1.044446,0.1178836,-0.2141955,-0.4880294,-1.084655,-2.678973,2.327203,0.668014,1.32483,0.0321914,-0.008451808,0.06902664,0,60,0.2387264,0.2404434,0.310898,-0.9139676,-1.586396,-0.5728776,0.7944233,1.437828,-0.04430252,-0.05288166,0.09315217,-0.1491881,-0.9894144,-0.05737741,-0.006633135,0.8807744,1.502539,0.1505167,0.4328821,1.036501,0.2758552,29.18616,164.5882,207.8034,True
0,1.055557,0.1106912,-0.343089,-0.4771073,-1.087085,-2.668782,2.321247,0.668689,1.325831,0.03141758,-0.007591607,0.07613263,0,60,0.1785719,0.2908005,0.3539728,-0.9120262,-1.577574,-0.5781717,0.7956643,1.438233,-0.04485559,-0.06705165,0.108074,-0.1205418,-0.9901431,-0.05535553,-0.00651276,0.881583,1.502636,0.1501417,0.4292124,1.036838,0.2697845,28.21167,162.9481,208.2884,True
0,1.066668,0.1629419,-0.4485028,-0.484911,-1.089576,-2.65755,2.312577,0.6693275,1.326928,0.03081486,-0.00651569,0.09868231,0,60,0.1855005,0.3557084,0.3785051,-0.9113311,-1.567862,-0.5866693,0.7971966,1.438781,-0.04528871,-0.0770032,0.1155327,-0.09228214,-0.9903039,-0.05335404,-0.006354835,0.8823179,1.502432,0.149687,0.4264901,1.038066,0.2656121,27.80033,161.9069,208.7899,True
0,1.077779,0.1990479,-0.4569989,-0.4980346,-1.089348,-2.648667,2.304838,0.6698451,1.328035,0.03044206,-0.004910869,0.1513471,0,60,0.269157,0.4415196,0.3908232,-0.9118387,-1.556123,-0.5997231,0.7983549,1.439308,-0.04574519,-0.08211911,0.1356343,-0.08817752,-0.9916019,-0.05103203,-0.006914365,0.8835453,1.502008,0.1494123,0.4247911,1.040078,0.2634701,27.92021,161.3029,209.0086,True
0,1.08889,0.2395744,-0.3567875,-0.4815384,-1.086562,-2.644279,2.298672,0.6703477,1.329083,0.03019169,-0.002010154,0.2657785,0,60,0.3665639,0.4633013,0.4424019,-0.9097396,-1.545303,-0.6138922,0.7995701,1.439904,-0.04616344,-0.08373193,0.1591212,-0.1149243,-0.9939407,-0.04776952,-0.007617972,0.8844633,1.501878,0.1490775,0.424011,1.042776,0.2631871,28.41441,160.9566,208.8064,True
0,1.100002,0.2324462,-0.1489649,-0.4232004,-1.0805,-2.646258,2.297263,0.6708109,1.330085,0.03021592,0.0005747101,0.2005657,0,60,0.405068,0.4161457,0.503878,-0.9051552,-1.53655,-0.6252064,0.8004763,1.440387,-0.0465374,-0.08034888,0.1627278,-0.1522099,-0.9973496,-0.04564738,-0.008028099,0.8854377,1.501832,0.1487041,0.4237508,1.046038,0.2644701,29.06829,160.9758,208.3956,True
0,1.111113,0.216139,0.1121823,-0.3158402,-1.073439,-2.653368,2.298809,0.671252,1.33088,0.03019592,0.002261556,0.1504565,0,60,0.3941875,0.2403144,0.6145514,-0.8944914,-1.532112,-0.6319969,0.8018036,1.441092,-0.04686689,-0.08503935,0.1505775,-0.1675196,-0.9997427,-0.04411593,-0.007681355,0.8864342,1.501528,0.1482331,0.4235926,1.049726,0.2668434,29.82114,161.555,208.1869,True
0,1.122224,0.2169258,0.3488453,-0.2064797,-1.065639,-2.663322,2.301123,0.6716499,1.331605,0.0302144,0.002212554,-0.03281141,0,60,0.3766328,0.08695585,0.6634946,-0.8853466,-1.529297,-0.6375149,0.8028638,1.441416,-0.04723829,-0.08379783,0.1406066,-0.1583533,-1.001172,-0.0426737,-0.007564176,0.8873367,1.501316,0.1477921,0.4233936,1.053653,0.2697437,30.65592,162.6554,208.4935,True
0,1.133335,0.2330985,0.4831455,-0.1706231,-1.058229,-2.669245,2.300799,0.6720281,1.332401,0.03025308,0.001482848,-0.08663965,0,60,0.387945,0.02298242,0.6558888,-0.8785603,-1.525759,-0.6444887,0.8035727,1.44162,-0.04754832,-0.08242641,0.1035628,-0.1385541,-1.002023,-0.04269047,-0.006635,0.8882747,1.501027,0.1471158,0.4232671,1.057454,0.2726404,31.513,164.1852,209.4324,True
0,1.144446,0.243628,0.6035402,-0.1687787,-1.048887,-2.676273,2.301173,0.6724024,1.333078,0.03029698,0.001070591,-0.04106595,0,60,0.3860666,-0.01845831,0.5684903,-0.8753784,-1.524493,-0.6495761,0.8042846,1.441512,-0.0478166,-0.07812326,0.0691015,-0.1304459,-1.003156,-0.04303296,-0.005721269,0.8891406,1.500918,0.1467449,0.4234944,1.060674,0.2751457,32.23954,165.8053,210.7013,True
0,1.155557,0.2285016,0.6525079,-0.1857367,-1.04083,-2.680201,2.301024,0.6727657,1.333807,0.03055522,0.0006274407,0.002013633,0,60,0.3649082,0.007398963,0.4109941,-0.8764256,-1.524086,-0.6531874,0.8048661,1.441323,-0.04820827,-0.07926365,0.05634736,-0.130899,-1.004143,-0.04244306,-0.00502139,0.8894157,1.500542,0.1461462,0.4241925,1.062973,0.2771099,32.59732,167.1301,211.7057,True
0,1.166668,0.200818,0.692967,-0.1791352,-1.032789,-2.68575,2.302493,0.6730521,1.33426,0.03067964,0.0007563377,-0.02084084,0,60,0.3439228,0.08121312,0.2407769,-0.8805902,-1.522419,-0.6572849,0.8052466,1.441102,-0.04873562,-0.07617399,0.02750788,-0.1300033,-1.005593,-0.04318968,-0.003874633,0.8901831,1.500316,0.145524,0.4250905,1.064353,0.2784943,32.55086,167.9763,212.0321,True
0,1.17778,0.1849295,0.6930014,-0.1661379,-1.026401,-2.690583,2.303309,0.6734624,1.33485,0.03085437,-0.0006913566,-0.08987445,0,60,0.3394273,0.09833648,0.1918217,-0.8813252,-1.520349,-0.6622062,0.8057423,1.441017,-0.04920226,-0.06979341,0.0210499,-0.1293496,-1.007006,-0.04319235,-0.003325223,0.8909582,1.500105,0.1449522,0.4258358,1.065039,0.2792878,32.15893,168.5831,212.0215,True
0,1.188891,0.1511111,0.6441332,-0.03685877,-1.025228,-2.698612,2.307148,0.6735976,1.334784,0.03111243,-0.001968076,-0.1192124,0,60,0.3086467,0.1199902,0.03225455,-0.8865114,-1.522189,-0.663489,0.8054147,1.440483,-0.049732,-0.04974543,-0.03028884,-0.1276304,-1.008289,-0.0454278,-0.002150769,0.8916243,1.500072,0.1441268,0.4261401,1.065358,0.2795421,31.67991,168.9355,211.9182,True
0,1.200002,0.2086256,0.5452691,0.05753583,-1.025799,-2.704026,2.305574,0.6736953,1.334695,0.03136539,-0.002632268,-0.06265351,0,60,0.2619546,0.07560758,-0.06335907,-0.8888097,-1.525731,-0.6627625,0.8053918,1.440164,-0.05025929,-0.01557223,-0.08753681,-0.1136985,-1.009146,-0.04866194,-0.001272991,0.8923377,1.499825,0.1433569,0.4260331,1.065558,0.2792946,31.22336,169.1838,212.0625,True
0,1.211113,0.2892295,0.4186788,0.1134064,-1.027035,-2.706844,2.301038,0.673821,1.334675,0.03162199,-0.003968643,-0.1156493,0,60,0.2216508,-0.009325981,-0.124973,-0.8897525,-1.531353,-0.6603055,0.8049593,1.439764,-0.05078655,0.003754392,-0.1201131,-0.1016104,-1.009841,-0.05156998,-0.0004354268,0.8930057,1.499665,0.1426372,0.4257704,1.065779,0.278727,30.89499,169.2058,212.492,True
0,1.222224,0.3334376,0.2664471,0.1494264,-1.030399,-2.707767,2.296273,0.6737535,1.334293,0.03175518,-0.002022404,0.1771833,0,60,0.2252734,-0.05935791,-0.1772551,-0.8910521,-1.536282,-0.6598892,0.8045888,1.439411,-0.05115065,0.03608413,-0.1670907,-0.07762693,-1.010077,-0.05526831,0.0002162487,0.8936844,1.499419,0.1417958,0.4257812,1.065726,0.2782556,30.74873,168.9964,213.1355,True
0,1.233335,0.3273275,0.1578117,0.1656231,-1.032758,-2.708587,2.293559,0.6737933,1.334154,0.03203139,0.0007803062,0.2341916,0,60,0.2532985,-0.08605099,-0.2648305,-0.8946139,-1.542947,-0.6594983,0.8039532,1.439041,-0.05172721,0.04764386,-0.1915824,-0.07996446,-1.011189,-0.05864827,0.001131843,0.8947489,1.499285,0.1409246,0.4263763,1.065361,0.2783485,30.48154,168.5289,213.3682,True
0,1.244446,0.299193,-0.01153919,0.2098284,-1.039764,-2.70728,2.290505,0.6737101,1.333837,0.03226954,0.001998436,0.09899387,0,60,0.2902823,-0.07128346,-0.3215221,-0.8986134,-1.547185,-0.6613641,0.8034759,1.438795,-0.05227023,0.06467137,-0.2367503,-0.07259601,-1.011794,-0.06349202,0.002424009,0.8953601,1.49911,0.1399623,0.4275354,1.064907,0.2793298,30.17664,168.0792,213.0528,True
0,1.255558,0.3083302,-0.1233149,0.2589129,-1.046343,-2.707445,2.286769,0.6737313,1.333849,0.03275791,0.001019991,-0.09068251,0,60,0.3284759,-0.0736025,-0.343089,-0.901667,-1.551615,-0.6635303,0.8027325,1.438543,-0.05285367,0.07927313,-0.2738896,-0.07875016,-1.013399,-0.0682214,0.003687945,0.8962139,1.499088,0.1388569,0.4290676,1.06456,0.2812619,30.11025,167.9183,212.4645,True
0,1.266669,0.3673071,-0.1540855,0.2946084,-1.051369,-2.709209,2.281682,0.673701,1.333709,0.03339601,-0.0009560748,-0.1339484,0,60,0.3475232,-0.09820282,-0.3421851,-0.9033378,-1.556245,-0.6651183,0.8025064,1.438469,-0.05337888,0.1055815,-0.2992533,-0.08786754,-1.014672,-0.07311256,0.004246943,0.896865,1.498929,0.1378768,0.4308428,1.064503,0.2838905,30.34008,168.0916,211.8836,True
0,1.27778,0.4155453,-0.13906,0.3271517,-1.054713,-2.713015,2.277278,0.6737127,1.333681,0.03402671,-0.0007941547,-0.0157344,0,60,0.3580391,-0.1515521,-0.318879,-0.9033315,-1.56197,-0.6659296,0.8016753,1.438272,-0.05380151,0.1204397,-0.3132017,-0.08772513,-1.015734,-0.07768001,0.004880243,0.8975614,1.498857,0.1368706,0.4328128,1.06473,0.2869509,30.85667,168.2265,211.3235,True
0,1.288891,0.4767939,-0.08989435,0.3872101,-1.058339,-2.719162,2.27285,0.6735504,1.333682,0.03507337,0.0007350324,0.1156099,0,60,0.3536096,-0.2208016,-0.2869682,-0.9020542,-1.568321,-0.6655954,0.8007076,1.438038,-0.05415979,0.1354924,-0.3360848,-0.07729101,-1.016386,-0.08279675,0.005785451,0.8981516,1.498812,0.1357129,0.434992,1.06521,0.2902885,31.29283,168.3648,210.8997,True
0,1.300002,0.5251443,-0.001340836,0.4398741,-1.060317,-2.72709,2.269403,0.6732221,1.33374,0.03614819,0.001793373,0.08615328,0,60,0.3738198,-0.2667531,-0.2541181,-0.9007173,-1.574056,-0.6667588,0.799382,1.43767,-0.05457196,0.1547161,-0.3684868,-0.06946944,-1.01704,-0.08874798,0.006643522,0.8987535,1.498693,0.1345622,0.4372711,1.065888,0.2939074,31.57239,168.6387,210.6268,True
0,1.311113,0.5934675,0.1681725,0.4741079,-1.058833,-2.737896,2.266011,0.672817,1.333816,0.03729406,0.00300298,0.1023943,0,60,0.4078711,-0.2839954,-0.2458445,-0.9003034,-1.579788,-0.6689405,0.7983234,1.437394,-0.05495295,0.1676544,-0.3913692,-0.05897156,-1.017368,-0.09480121,0.00752556,0.899297,1.498605,0.1334304,0.4396113,1.06677,0.2977743,31.78612,169.0359,210.4764,True
0,1.322224,0.6414514,0.4228885,0.5094837,-1.05329,-2.753563,2.265082,0.6723275,1.334051,0.03875411,0.00345412,0.030904,0,60,0.4426747,-0.3054525,-0.2812523,-0.9013719,-1.587286,-0.6704135,0.7972383,1.437101,-0.0554468,0.1889581,-0.4247569,-0.05337502,-1.017904,-0.1015727,0.008243282,0.8997645,1.498474,0.1319865,0.4419903,1.067776,0.3020022,31.99124,169.4798,210.4291,True
0,1.333336,0.6544255,0.5923413,0.5495738,-1.049004,-2.768589,2.265243,0.6716516,1.334324,0.04044279,0.004277037,0.06256175,0,60,0.4548246,-0.344868,-0.3431677,-0.9028611,-1.597148,-0.6697595,0.7956791,1.436825,-0.05584121,0.218753,-0.453842,-0.04990832,-1.018128,-0.1085515,0.008471249,0.9000427,1.498206,0.1307188,0.4444323,1.068859,0.3065745,32.18067,170.1673,210.4964,True
0,1.344447,0.6668254,0.7938379,0.6439673,-1.043608,-2.789548,2.267994,0.6710446,1.334533,0.0420118,0.00455081,0.000317438,0,60,0.4466646,-0.4150948,-0.3900564,-0.9031626,-1.608735,-0.6670382,0.793838,1.436548,-0.05628598,0.2467076,-0.4887829,-0.03279719,-1.017952,-0.1159146,0.008794025,0.9003488,1.498295,0.1295588,0.4469181,1.070024,0.3114369,32.24948,171.2154,210.7586,True
0,1.355558,0.6917328,0.8983403,0.6978986,-1.039979,-2.807281,2.268538,0.6704633,1.334485,0.04337817,0.003102583,-0.1269132,0,60,0.4597708,-0.4960829,-0.4339151,-0.9030715,-1.621845,-0.6644126,0.7919571,1.436196,-0.05659774,0.2648488,-0.5157726,-0.02685257,-1.018078,-0.1236217,0.009317336,0.9006999,1.498094,0.1282349,0.4494383,1.071259,0.3165479,32.23205,172.5506,211.234,True
0,1.366669,0.7182362,0.92712,0.6880098,-1.035953,-2.822361,2.267429,0.6697297,1.334655,0.0448409,0.002416552,-0.09960414,0,60,0.4773999,-0.5344966,-0.4745426,-0.9036936,-1.633884,-0.6628307,0.7904091,1.4359,-0.05692422,0.2868499,-0.5560526,-0.03541462,-1.018937,-0.1323157,0.009899503,0.9009396,1.498024,0.1267114,0.4520621,1.072507,0.321811,32.34565,173.9053,211.7928,True
0,1.37778,0.734973,0.9068437,0.6526999,-1.032821,-2.833748,2.26469,0.6690316,1.334796,0.04608259,0.001564341,-0.05369683,0,60,0.5022172,-0.5760955,-0.552524,-0.9058498,-1.648627,-0.6601508,0.7884281,1.435536,-0.05719852,0.3080516,-0.5839029,-0.03490025,-1.019269,-0.1409336,0.01031149,0.9013364,1.497931,0.1252805,0.4551411,1.073619,0.3270494,32.50882,175.3663,212.5551,True
0,1.388891,0.7654542,0.8599344,0.6045335,-1.02989,-2.844036,2.260506,0.668247,1.335079,0.04759216,0.001171258,-0.03686324,0,60,0.5220928,-0.5868037,-0.599545,-0.9082391,-1.661582,-0.6586576,0.7867084,1.43521,-0.05756932,0.330736,-0.6189054,-0.01553368,-1.0188,-0.1501183,0.01072641,0.901458,1.497908,0.1237786,0.4586728,1.07443,0.3322435,32.66025,176.6726,212.9728,True
0,1.400002,0.8454124,0.7896878,0.599578,-1.02602,-2.866987,2.251562,0.6669025,1.335214,0.05021188,0.0005885586,-0.05875545,0,60,0.5654168,-0.557137,-0.6775638,-0.9148198,-1.686324,-0.6573771,0.7823815,1.434608,-0.05811852,0.3846811,-0.6729752,0.02260548,-1.017104,-0.1693828,0.0109123,0.9017599,1.497866,0.120901,0.462327,1.075008,0.3373619,32.68629,177.8106,212.8515,True
0,1.411114,0.8735831,0.765287,0.6451508,-1.02542,-2.880421,2.247886,0.6661704,1.335381,0.05185798,0.007607586,0.6179476,0,60,0.5546949,-0.558145,-0.6860036,-0.9171117,-1.698656,-0.655459,0.7800467,1.434244,-0.05844229,0.4089496,-0.6995724,0.01778157,-1.016991,-0.1796502,0.01106171,0.9017997,1.497828,0.1193225,0.4656577,1.075551,0.342517,32.42737,178.6176,212.4656,True
0,1.422225,0.8735831,0.765287,0.6451508,-1.02542,-2.880421,2.247886,0.6661704,1.335381,0.05185798,0.006079997,-0.1690892,0,60,0.5546949,-0.558145,-0.6860036,-0.9171117,-1.698656,-0.655459,0.7800467,1.434244,-0.05844229,0.4089496,-0.6995724,0.01778157,-1.016991,-0.1796502,0.01106171,0.9017997,1.497828,0.1193225,0.4687198,1.076413,0.3483416,31.83491,179.2302,212.3854,True
0,1.433336,0.8498248,0.7365949,0.7135421,-1.023866,-2.907846,2.243644,0.6647735,1.335408,0.05445936,-0.003541472,-0.8441091,0,60,0.5355011,-0.5793773,-0.6709851,-0.9205392,-1.723536,-0.6518825,0.7757702,1.434039,-0.05895364,0.4375237,-0.713282,0.01124124,-1.01686,-0.1983807,0.01043506,0.9016914,1.497869,0.1161036,0.4720131,1.078055,0.3540933,32.1805,180.3144,212.4027,True
0,1.444447,0.8255103,0.6833081,0.7266482,-1.024615,-2.919447,2.241461,0.6639905,1.335662,0.0557653,0.004572115,0.6242061,0,60,0.5483734,-0.5911942,-0.6476468,-0.9213493,-1.73523,-0.6512457,0.7735362,1.433986,-0.05909759,0.446218,-0.7189854,0.01933525,-1.01645,-0.2078789,0.0102577,0.901626,1.49788,0.1146146,0.4750884,1.080246,0.3591107,33.09505,181.5647,212.5059,True
0,1.455558,0.8233745,0.6332269,0.7203542,-1.025238,-2.930427,2.238174,0.6632159,1.335879,0.05734313,0.001603756,-0.2170731,0,60,0.5890043,-0.6170533,-0.6042629,-0.9206649,-1.746985,-0.6521528,0.7711239,1.434074,-0.05902687,0.4600483,-0.7598381,0.02588741,-1.016034,-0.2193984,0.01076823,0.9015044,1.497908,0.1130188,0.4782086,1.082342,0.3644043,33.17899,182.5486,213.4461,True
0,1.466669,0.8169703,0.6204206,0.7118135,-1.024177,-2.941308,2.234873,0.6629303,1.335461,0.05788657,-0.001475924,-0.2659572,0,60,0.6348898,-0.6621097,-0.5545483,-0.9187597,-1.759264,-0.6532772,0.7686839,1.43416,-0.05889729,0.4882588,-0.8137946,0.0123712,-1.01639,-0.2317766,0.01102309,0.9013972,1.49804,0.1113075,0.4818623,1.084269,0.3698191,33.46845,183.5247,214.0868,True
0,1.47778,0.7989191,0.6246722,0.7183758,-1.023665,-2.954216,2.233108,0.6621175,1.335591,0.05955794,-0.002899117,-0.1327301,0,60,0.6828235,-0.7135866,-0.5112401,-0.9162355,-1.772591,-0.6545496,0.7667568,1.434433,-0.05872008,0.5088416,-0.8523916,-0.01103355,-1.017546,-0.244235,0.01115332,0.9012361,1.498226,0.1096219,0.485894,1.085962,0.3751554,33.95272,184.5448,214.1283,True
0,1.488891,0.7989191,0.6246722,0.7183758,-1.023665,-2.954216,2.233108,0.6621175,1.335591,0.05955794,-0.003711381,-0.07960676,0,60,0.6828235,-0.7135866,-0.5112401,-0.9162355,-1.772591,-0.6545496,0.7667568,1.434433,-0.05872008,0.5088416,-0.8523916,-0.01103355,-1.017546,-0.244235,0.01115332,0.9012361,1.498226,0.1096219,0.4900214,1.087403,0.3802211,34.42549,185.702,214.0307,True
0,1.500003,0.7650982,0.6289683,0.7420351,-1.022888,-2.967388,2.232586,0.661536,1.335443,0.06056523,-0.00997993,-0.5791431,0,60,0.7127331,-0.7510726,-0.4741139,-0.9134275,-1.784844,-0.6561006,0.765172,1.435006,-0.05863327,0.5126773,-0.8752255,-0.02592397,-1.018385,-0.2559909,0.01152803,0.9011575,1.498215,0.1077631,0.4941046,1.088663,0.3844467,34.98496,187.0933,213.9758,True
0,1.511114,0.7460752,0.6247107,0.757144,-1.023039,-2.98078,2.231766,0.6607037,1.335573,0.06222773,-0.008669655,0.1481585,0,60,0.7287439,-0.7703612,-0.452934,-0.9111494,-1.797643,-0.6570601,0.7626801,1.435076,-0.05846792,0.5166744,-0.8909092,-0.03411857,-1.019193,-0.2684357,0.0120753,0.9009997,1.498257,0.1061037,0.4973651,1.08962,0.3875609,35.54002,188.1981,213.6945,True
0,1.522225,0.7524837,0.5948796,0.7539212,-1.023801,-2.992367,2.229063,0.6596541,1.335756,0.06319726,-0.007066431,0.1215615,0,60,0.7534302,-0.7641555,-0.431494,-0.9082897,-1.807282,-0.659714,0.7625394,1.435989,-0.05860817,0.5202484,-0.9100884,-0.06057959,-1.02085,-0.2807105,0.01243217,0.9007806,1.498487,0.1045002,0.4996917,1.089999,0.3901706,35.45978,188.7461,213.8565,True
0,1.533336,0.7884569,0.5810338,0.726957,-1.023403,-3.003312,2.224799,0.6586089,1.336242,0.06471124,-0.005406217,0.1399196,0,60,0.7587656,-0.7577897,-0.4357829,-0.9071931,-1.819292,-0.6608565,0.7601645,1.436012,-0.05842927,0.5303793,-0.9307348,-0.07871935,-1.022508,-0.2935676,0.01293684,0.900476,1.498559,0.102855,0.5016963,1.089851,0.3924007,35.10421,188.9564,214.2637,True
0,1.544447,0.8073351,0.6023146,0.6990367,-1.021687,-3.015101,2.221272,0.6576464,1.336522,0.06637281,-0.003280482,0.1823912,0,60,0.7662054,-0.7333306,-0.4581551,-0.9070183,-1.831369,-0.6621897,0.757591,1.435711,-0.05785888,0.5332552,-0.9431868,-0.08764476,-1.022899,-0.3062731,0.01400743,0.8997198,1.498326,0.1010625,0.5037755,1.089281,0.3946367,34.63941,188.9202,214.3704,True
0,1.555558,0.8070707,0.6054956,0.6745296,-1.020173,-3.026499,2.21852,0.6564956,1.337038,0.06859857,-0.0008532768,0.2141635,0,60,0.7575149,-0.7087321,-0.506014,-0.9083899,-1.844044,-0.6626129,0.7551515,1.435574,-0.05754459,0.5353646,-0.9614198,-0.08523107,-1.023949,-0.3195165,0.01486497,0.8992347,1.498418,0.09945714,0.5061879,1.08867,0.3969599,34.14304,188.8792,214.0308,True
0,1.566669,0.7876906,0.5734751,0.6502705,-1.019725,-3.036444,2.215474,0.6554027,1.337284,0.07027897,0.0009757822,0.1263098,0,60,0.7381015,-0.6915686,-0.5559256,-0.9099808,-1.857634,-0.6618925,0.7527244,1.435375,-0.05707559,0.5333297,-0.9723123,-0.07922344,-1.024817,-0.3327401,0.01582264,0.8987602,1.498497,0.09787096,0.5088296,1.088359,0.3997518,33.59203,188.9862,213.5376,True
0,1.577781,0.7790948,0.5510745,0.6408164,-1.019716,-3.046679,2.21248,0.6543229,1.337589,0.07201499,0.001087102,0.008626239,0,60,0.7089231,-0.6732147,-0.6366844,-0.9137157,-1.872107,-0.6599041,0.7502408,1.43524,-0.0566673,0.5304332,-0.9803504,-0.06450334,-1.024944,-0.3457099,0.01695848,0.8982487,1.498533,0.09637482,0.5116009,1.088578,0.4032636,33.18256,189.4059,213.239,True
0,1.588892,0.7640737,0.5158785,0.6261076,-1.019941,-3.056,2.209269,0.6532719,1.337818,0.07362217,0.0006391587,-0.04398309,0,60,0.6863962,-0.6485603,-0.6812511,-0.9168017,-1.885708,-0.6585531,0.747452,1.435319,-0.05612338,0.5263302,-0.9667341,-0.05850318,-1.025512,-0.3580243,0.01774624,0.897619,1.498658,0.09494323,0.5144444,1.089459,0.4075542,33.10623,190.0993,213.1416,True
0,1.600003,0.7340434,0.4561351,0.5988045,-1.020833,-3.063755,2.206,0.6522496,1.338042,0.07524186,0.0004495416,-0.04146974,0,60,0.6608257,-0.6409615,-0.6885331,-0.918659,-1.898762,-0.6573193,0.7449934,1.435246,-0.05561519,0.5280945,-0.9369704,-0.08172858,-1.02679,-0.3688268,0.01741095,0.8972884,1.499211,0.09321845,0.5174446,1.091054,0.4122318,33.45413,191.0346,213.255,True
0,1.611114,0.7189491,0.3655177,0.5725009,-1.02335,-3.06988,2.201625,0.6515961,1.338116,0.07650855,-0.0004751079,-0.05744772,0,60,0.6503227,-0.6398573,-0.6660929,-0.9196353,-1.911008,-0.6567536,0.7426291,1.435303,-0.05504909,0.5331144,-0.9321791,-0.09551871,-1.028491,-0.380788,0.01745249,0.8965701,1.499313,0.09183705,0.5206033,1.093191,0.4170294,34.01827,192.1218,213.549,True
0,1.622225,0.6985914,0.2749087,0.5504764,-1.026394,-3.075064,2.19714,0.650671,1.338337,0.07803336,-0.001350223,-0.09631811,0,60,0.6494615,-0.6409508,-0.6341212,-0.9199458,-1.922913,-0.6567632,0.7397621,1.435468,-0.05450338,0.5330179,-0.935268,-0.09880078,-1.029719,-0.3934457,0.01797793,0.8958516,1.499396,0.09051414,0.5238291,1.095612,0.4217449,34.67621,193.2673,213.8964,True
0,1.633336,0.6974767,0.1917971,0.5367908,-1.029904,-3.080329,2.192216,0.6496401,1.338668,0.08014494,-0.001928129,-0.05584406,0,60,0.6508812,-0.6506073,-0.5702207,-0.9184949,-1.933398,-0.657522,0.7375104,1.435619,-0.05385005,0.5364172,-0.9539615,-0.08565435,-1.030176,-0.4065672,0.0189412,0.8953826,1.499817,0.08918357,0.5269889,1.098076,0.4262018,35.37996,194.3014,214.184,True
0,1.644447,0.7016456,0.1715422,0.525064,-1.032061,-3.08636,2.187349,0.6487463,1.33883,0.08173519,-0.002483131,-0.05864475,0,60,0.6662404,-0.6497215,-0.5010524,-0.9166116,-1.943317,-0.659409,0.7352698,1.435803,-0.05309516,0.5549336,-0.9580371,-0.06702572,-1.030472,-0.4195074,0.01884586,0.8945136,1.499802,0.08784287,0.5300372,1.100395,0.4302315,36.04725,195.0897,214.3439,True
0,1.655559,0.6941645,0.2024293,0.5261526,-1.032817,-3.09428,2.183825,0.6477945,1.338934,0.08338267,-0.002508165,-0.007444852,0,60,0.6761737,-0.6679541,-0.4308225,-0.9135724,-1.953363,-0.6612238,0.7328818,1.435834,-0.05225983,0.5486959,-0.9679322,-0.05868094,-1.030862,-0.4325976,0.01968635,0.8935966,1.499845,0.08657177,0.5327664,1.102339,0.4340497,36.51749,195.603,214.2984,True
0,1.66667,0.6622083,0.2354347,0.5307021,-1.033182,-3.103209,2.181911,0.6466122,1.339103,0.08509997,-0.002183259,0.02248412,0,60,0.6592273,-0.6998782,-0.3859835,-0.9104543,-1.964692,-0.6610711,0.7304988,1.43579,-0.05140138,0.5538543,-0.9826533,-0.06360092,-1.031772,-0.4456165,0.02019075,0.8928348,1.499664,0.08506717,0.5351453,1.103874,0.4378224,36.78106,195.9204,214.174,True
0,1.677781,0.6461493,0.2417965,0.5233918,-1.033999,-3.110542,2.178982,0.6455467,1.339136,0.08676904,-0.002172074,-0.003081687,0,60,0.6302506,-0.7199607,-0.4007149,-0.9091781,-1.977509,-0.6593811,0.7277768,1.435534,-0.05054578,0.5484523,-0.9921679,-0.064941,-1.032841,-0.4589023,0.02100968,0.8919343,1.499824,0.08381502,0.5373703,1.105147,0.4413328,36.94213,196.3136,214.1848,True
0,1.688892,0.6321049,0.2492072,0.5043412,-1.034271,-3.117431,2.17596,0.6443994,1.339064,0.08842659,-0.00280058,-0.06631252,0,60,0.5936422,-0.7154305,-0.4654619,-0.9100948,-1.99096,-0.6566823,0.7253993,1.435306,-0.0496164,0.5494894,-0.9791713,-0.06966977,-1.03359,-0.4711449,0.02123045,0.891034,1.499844,0.08239113,0.5395483,1.106164,0.4445856,37.03704,196.8387,214.3276,True
0,1.700003,0.6042488,0.2150543,0.4844277,-1.03593,-3.122682,2.17288,0.6432502,1.338998,0.09004791,-0.003029612,-0.02846005,0,60,0.5591698,-0.7024188,-0.535525,-0.912008,-2.004783,-0.6534114,0.7231016,1.43522,-0.04871127,0.5440361,-0.9724085,-0.07782884,-1.035143,-0.4833636,0.02140649,0.8904083,1.500023,0.0812221,0.5417286,1.106903,0.4476288,37.11614,197.3759,214.4309,True
0,1.711114,0.5807433,0.1478904,0.4698512,-1.039098,-3.126649,2.169309,0.642216,1.338897,0.09159896,-0.003132943,-0.01584201,0,60,0.5224185,-0.6626852,-0.6545703,-0.9173482,-2.019266,-0.6491378,0.7208414,1.434967,-0.0478161,0.5354416,-0.9550759,-0.08325678,-1.036145,-0.4944908,0.02173193,0.8894962,1.500011,0.08027816,0.5438927,1.107406,0.4505384,37.18213,197.801,214.3589,True
0,1.722225,0.5508392,0.05836582,0.4522051,-1.043702,-3.129772,2.165477,0.6410015,1.338989,0.09304111,-0.003589408,-0.04733673,0,60,0.4976622,-0.6134787,-0.7385237,-0.9226942,-2.032678,-0.6459284,0.7184591,1.434733,-0.04693133,0.5292897,-0.9487917,-0.07846726,-1.036506,-0.5065729,0.02211702,0.8883461,1.500372,0.07915814,0.545952,1.107754,0.4533875,37.2211,198.1742,214.1603,True
0,1.733337,0.5326266,-0.005601704,0.4343755,-1.047899,-3.132343,2.161452,0.6399739,1.338907,0.09450839,-0.003896205,-0.03054558,0,60,0.4912966,-0.5878575,-0.7576357,-0.926534,-2.045187,-0.6436378,0.7162848,1.434572,-0.04599231,0.5273293,-0.9490948,-0.07097943,-1.037415,-0.5189627,0.02255697,0.8875189,1.500613,0.07816212,0.5478536,1.108078,0.4561622,37.31466,198.4091,213.853,True
0,1.744448,0.4759545,-0.1005304,0.4020573,-1.053394,-3.132835,2.158192,0.6389666,1.338697,0.09586652,-0.004014449,-0.01473774,0,60,0.49261,-0.5772446,-0.7288691,-0.9283199,-2.05673,-0.6423299,0.7140415,1.434502,-0.04507363,0.5209745,-0.9489814,-0.07284135,-1.038169,-0.5317349,0.02313062,0.8864864,1.500615,0.07732536,0.549615,1.108491,0.4588116,37.46999,198.4869,213.4816,True
0,1.755559,0.4567046,-0.1293271,0.3916646,-1.057401,-3.136024,2.155036,0.6378241,1.338477,0.09757197,-0.003930293,0.001331806,0,0,0.4941619,-0.5634601,-0.6649473,-0.929032,-2.066539,-0.6420324,0.7119999,1.434412,-0.04404542,0.5189641,-0.9352207,-0.07010048,-1.038999,-0.5433201,0.02330878,0.8853182,1.500805,0.07644773,0.5512498,1.109064,0.46133,37.66667,198.4857,213.1063,True
0,1.76667,0.4256255,-0.1656198,0.3685883,-1.061762,-3.137257,2.151919,0.6367393,1.33816,0.09891431,-0.004885835,-0.09098778,0,0,0.4807515,-0.5677155,-0.5913615,-0.9284185,-2.0763,-0.6410894,0.7101581,1.434347,-0.04288656,0.518077,-0.9301412,-0.06444114,-1.039496,-0.5558052,0.02371012,0.884268,1.50085,0.07576114,0.5527275,1.109764,0.4638004,37.92827,198.5253,212.8307,True
0,1.777781,0.4064094,-0.1816364,0.3624204,-1.066009,-3.139626,2.14896,0.6353798,1.338096,0.1011173,-0.004560397,0.02996586,0,0,0.4617773,-0.5740299,-0.5539601,-0.9283907,-2.086593,-0.6394197,0.7081897,1.434247,-0.04182875,0.5149843,-0.9152703,-0.06269342,-1.040319,-0.5671007,0.02380387,0.8832799,1.500971,0.07497533,0.5539697,1.110489,0.4662659,38.2855,198.594,212.6156,True
0,1.788892,0.3595392,-0.1912787,0.3618282,-1.070276,-3.141896,2.147668,0.6343017,1.337692,0.1024542,-0.004626444,-0.01319144,0,0,0.4353068,-0.5653735,-0.536732,-0.929244,-2.096897,-0.6371562,0.7055976,1.433943,-0.04066142,0.5022544,-0.8980209,-0.06586856,-1.041038,-0.5785174,0.02419082,0.8822482,1.500983,0.07430042,0.5550078,1.111125,0.4687845,38.58012,198.7316,212.5404,True
0,1.800003,0.2648695,-0.2297285,0.3724132,-1.075981,-3.144041,2.148666,0.6331236,1.337477,0.104485,-0.004248807,0.03289606,0,0,0.4033278,-0.561969,-0.5450535,-0.9308962,-2.107919,-0.634048,0.7029777,1.433704,-0.03958943,0.4956852,-0.8890981,-0.07495944,-1.042422,-0.589661,0.02444329,0.8811927,1.50106,0.07361174,0.5558577,1.111638,0.4713085,38.8378,198.8027,212.3891,True
0,1.811115,0.2330639,-0.2414318,0.3876764,-1.081201,-3.147153,2.148553,0.6320243,1.337406,0.1065208,-0.004850149,-0.05992986,0,0,0.3948185,-0.5491275,-0.5545755,-0.9327402,-2.118481,-0.6318746,0.7011344,1.43371,-0.03848046,0.4816511,-0.8919494,-0.08316879,-1.043632,-0.602329,0.02565929,0.8800019,1.501269,0.07289858,0.5565283,1.111992,0.4739594,39.04603,198.8141,212.2187,True
0,1.822226,0.2044603,-0.2531734,0.4018254,-1.08666,-3.149943,2.148216,0.6313066,1.337366,0.1080444,-0.006676545,-0.1648311,0,0,0.4108316,-0.5300379,-0.5663831,-0.9351131,-2.128826,-0.6309543,0.6986904,1.433448,-0.03746137,0.4680515,-0.8837295,-0.07499911,-1.044362,-0.614593,0.02677089,0.8788806,1.501255,0.07218578,0.5571976,1.112198,0.4763483,39.36502,198.8963,212.159,True
0,1.833337,0.2014646,-0.2243627,0.4252647,-1.090902,-3.154472,2.147949,0.6304259,1.337225,0.1097554,-0.006605705,0.01239206,0,0,0.4507777,-0.5015553,-0.5090833,-0.9354822,-2.136215,-0.6329221,0.6970446,1.433578,-0.03631574,0.4618963,-0.8669243,-0.06779239,-1.045128,-0.6250799,0.02709766,0.8778518,1.501381,0.07167478,0.5578623,1.112029,0.478602,39.65267,198.8653,212.017,True
0,1.844448,0.207937,-0.1774609,0.4389781,-1.094145,-3.15924,2.147648,0.6297083,1.33694,0.1111366,-0.00595323,0.05596921,0,0,0.4489988,-0.5005304,-0.4557967,-0.9347557,-2.144244,-0.6330105,0.6950407,1.433519,-0.03522626,0.4589514,-0.8575082,-0.06299904,-1.045678,-0.6364195,0.02731977,0.8767482,1.501281,0.07100359,0.5587005,1.111529,0.480583,39.74952,198.6906,211.7647,True
0,1.855559,0.2079525,-0.09539601,0.4505838,-1.09564,-3.165639,2.148314,0.6288366,1.336657,0.1128884,-0.004690892,0.1133672,0,0,0.4259085,-0.5249667,-0.3789695,-0.9320664,-2.152095,-0.6322358,0.6934633,1.433535,-0.03403905,0.4423381,-0.8120033,-0.05228423,-1.04607,-0.6449881,0.02729554,0.8757637,1.501414,0.07067439,0.559882,1.110814,0.48216,39.71476,198.4636,211.4262,True
0,1.86667,0.197384,0.001565427,0.4707758,-1.096115,-3.173216,2.149971,0.6281123,1.336195,0.1143089,-0.003429619,0.1102092,0,0,0.4133601,-0.5398616,-0.3288313,-0.9298342,-2.160347,-0.631379,0.6914456,1.433274,-0.03278342,0.4331006,-0.7941891,-0.04376427,-1.04612,-0.6554565,0.0277512,0.874593,1.501361,0.07005085,0.5614049,1.109874,0.4835677,39.58023,198.3558,211.0897,True
0,1.877781,0.1643845,0.06866097,0.481653,-1.096993,-3.18034,2.15251,0.6271036,1.335884,0.1161787,-0.002596582,0.07467939,0,0,0.3890834,-0.5418849,-0.2913929,-0.9277154,-2.167803,-0.6303124,0.6900141,1.43314,-0.03161046,0.4127819,-0.7810819,-0.04917763,-1.047085,-0.6649106,0.02863431,0.8735689,1.501447,0.0696685,0.5632325,1.108762,0.4849213,39.40755,198.4212,210.7678,True
0,1.888893,0.1334587,0.07075104,0.4787543,-1.099139,-3.18575,2.154537,0.6263945,1.335428,0.1175059,-0.002261556,0.02918479,0,0,0.3334442,-0.5308818,-0.3389694,-0.9289388,-2.177493,-0.6264724,0.6885269,1.432822,-0.03053892,0.3839795,-0.7583076,-0.05605493,-1.047941,-0.6745254,0.03000903,0.8724531,1.501338,0.06920235,0.565239,1.107484,0.4864213,39.21699,198.7023,210.5323,True
0,1.900004,0.08206145,0.0461418,0.4494699,-1.101929,-3.189212,2.156838,0.6258132,1.334987,0.1185836,-0.002677542,-0.04326916,0,0,0.3076321,-0.4848652,-0.4197251,-0.9323817,-2.186925,-0.6235566,0.6864963,1.432402,-0.02943879,0.3629897,-0.7405837,-0.04410043,-1.047906,-0.6838912,0.0314253,0.8712312,1.501294,0.06889625,0.5673751,1.106101,0.4879889,39.06734,199.1327,210.3619,True
0,1.911115,0.08727649,0.02270433,0.4356139,-1.104737,-3.193253,2.157384,0.6251955,1.334844,0.1203516,-0.003152117,-0.04211051,0,0,0.303278,-0.4400492,-0.4750538,-0.9360756,-2.195509,-0.6217077,0.6851187,1.432217,-0.02841225,0.3398519,-0.716299,-0.03515072,-1.048242,-0.692188,0.03253664,0.8701977,1.50137,0.06862161,0.5694843,1.104638,0.4896535,38.98546,199.5195,210.0805,True
0,1.922226,0.1052882,0.008857995,0.4237421,-1.107435,-3.197056,2.157313,0.6247885,1.334492,0.1215483,-0.004126834,-0.08855072,0,0,0.2937498,-0.3792376,-0.5207483,-0.9405502,-2.203102,-0.6202297,0.6825805,1.431749,-0.02739182,0.3239319,-0.6980891,-0.03611755,-1.048681,-0.7011786,0.03373559,0.8690706,1.50107,0.06842883,0.5715143,1.10325,0.4910649,39.02215,199.7878,209.7081,True
0,1.933337,0.113836,0.00780049,0.4257951,-1.110086,-3.201713,2.157708,0.6243105,1.334158,0.122828,-0.003348659,0.07490226,0,0,0.2789817,-0.3503863,-0.5238248,-0.9437113,-2.210324,-0.6186177,0.681293,1.431586,-0.02637354,0.3164069,-0.6775416,-0.04260394,-1.049604,-0.7091172,0.03438674,0.8680829,1.501109,0.06821096,0.5732821,1.101945,0.4922096,39.02142,199.8868,209.2464,True
0,1.944448,0.1023404,0.00356093,0.4482858,-1.113372,-3.207026,2.159234,0.6239312,1.333674,0.1239886,-0.002190716,0.1008758,0,0,0.2547869,-0.3343014,-0.4917008,-0.9452198,-2.216912,-0.6167985,0.679157,1.431199,-0.02527636,0.3060161,-0.626401,-0.04135737,-1.049995,-0.7160401,0.03457183,0.8668562,1.501002,0.06796053,0.574711,1.100759,0.4933686,38.84394,199.7831,208.8071,True
0,1.955559,0.08746889,-0.01136297,0.451656,-1.116817,-3.211535,2.16084,0.6233373,1.33321,0.1253877,-0.001434911,0.06702248,0,0,0.2327269,-0.3470108,-0.4308496,-0.9449971,-2.223241,-0.6149223,0.6780045,1.431095,-0.02425376,0.293811,-0.5843959,-0.023437,-1.049847,-0.7220224,0.03465438,0.865847,1.501043,0.06790388,0.5759453,1.099832,0.4944419,38.68653,199.6701,208.5623,True
0,1.966671,0.06290533,-0.0369736,0.4423466,-1.120379,-3.214924,2.162465,0.6228354,1.332706,0.1264805,-0.0015196,-0.008577172,0,0,0.2149377,-0.3671846,-0.363662,-0.9438962,-2.229308,-0.6132376,0.6763804,1.430941,-0.02325207,0.2786186,-0.5522369,0.001767488,-1.048494,-0.7283999,0.03506211,0.8646344,1.500938,0.06776623,0.5771325,1.099119,0.4955027,38.64504,199.6316,208.5227,True
0,1.977782,0.05310132,-0.08070299,0.4158844,-1.124439,-3.217031,2.163145,0.6223497,1.332383,0.1275651,-0.001902562,-0.03766409,0,0,0.2022781,-0.3820563,-0.330571,-0.9432373,-2.23592,-0.611147,0.6752467,1.43088,-0.02225935,0.2790598,-0.5315294,0.01749574,-1.047946,-0.7344343,0.0349673,0.8635629,1.500956,0.0677398,0.5784423,1.098454,0.4965791,38.74056,199.683,208.5774,True
0,1.988893,0.05926931,-0.09245226,0.3913401,-1.127606,-3.219408,2.1633,0.6219344,1.332078,0.1286522,-0.002525209,-0.05679912,0,0,0.204623,-0.378902,-0.3007613,-0.9430216,-2.24201,-0.6100261,0.6736643,1.430734,-0.02139777,0.2723642,-0.5038079,0.04546383,-1.046479,-0.7405151,0.03513482,0.8623186,1.500834,0.06769879,0.5798815,1.097669,0.4977555,38.88438,199.793,208.5048,True
0,2.000004,0.07383095,-0.06159765,0.359193,-1.128932,-3.222371,2.163218,0.6216562,1.332088,0.1299546,-0.002677009,-0.01146734,0,0,0.2142976,-0.367238,-0.2986956,-0.9437864,-2.248219,-0.6091805,0.6719458,1.430442,-0.02032492,0.2693886,-0.4954878,0.05129361,-1.045532,-0.7472244,0.03534121,0.8610935,1.500522,0.0676004,0.581405,1.096774,0.4988608,39.01398,199.8884,208.2354,True
0,2.011115,0.0822456,-0.01472291,0.3537116,-1.129744,-3.226698,2.163877,0.6213787,1.331978,0.1310836,-0.002234925,0.03893097,0,0,0.2230207,-0.3438606,-0.2880751,-0.9443782,-2.253259,-0.6090181,0.670907,1.430495,-0.01935655,0.26849,-0.4807464,0.05615279,-1.044917,-0.7528139,0.03522404,0.8600183,1.500546,0.06765379,0.5828941,1.095837,0.499865,39.04171,199.8734,207.7887,True
0,2.022226,0.08018598,0.1365864,0.3801306,-1.127043,-3.235621,2.167006,0.6210697,1.332016,0.1327194,-0.00156008,0.06120688,0,0,0.2199933,-0.3374711,-0.2678101,-0.9442147,-2.258512,-0.6082357,0.6695957,1.430393,-0.01829624,0.2684887,-0.4721563,0.05444491,-1.04409,-0.758929,0.03530845,0.8588164,1.50054,0.06782696,0.5842603,1.094946,0.500828,38.91181,199.8307,207.3651,True
0,2.033337,0.08136486,0.213322,0.4013165,-1.126153,-3.243404,2.169438,0.6206622,1.331844,0.1341831,-0.001212271,0.0317966,0,0,0.2052353,-0.349138,-0.2325725,-0.9428751,-2.263761,-0.6068851,0.6685774,1.430403,-0.01720482,0.2664129,-0.4658025,0.05580457,-1.043599,-0.7646458,0.0353026,0.857738,1.500589,0.06792252,0.5854755,1.09424,0.5018355,38.68308,199.8547,207.1066,True
0,2.044448,0.07828581,0.3060354,0.4246399,-1.123755,-3.252634,2.172687,0.6202364,1.331597,0.135458,-0.001654888,-0.01366969,0,0,0.1861075,-0.3650335,-0.2111698,-0.9417076,-2.269781,-0.6047895,0.6670074,1.430229,-0.0161182,0.2707993,-0.4606169,0.05919635,-1.042589,-0.7707793,0.03514015,0.8568608,1.500566,0.06797804,0.5866157,1.093733,0.5029058,38.50713,200.0731,207.1787,True
0,2.055559,0.06439322,0.3390447,0.4247285,-1.122751,-3.259816,2.175575,0.6196153,1.331352,0.1368392,-0.001357679,-0.0007775691,60,0,0.1732112,-0.377738,-0.2174923,-0.9412261,-2.276332,-0.6024174,0.6659617,1.430151,-0.01497746,0.2698696,-0.4522615,0.06380606,-1.041911,-0.7762854,0.03496145,0.8557955,1.500611,0.06816289,0.5878258,1.093269,0.5041472,38.35689,200.5769,207.6087,True
0,2.06667,0.04288256,0.2867771,0.397319,-1.123518,-3.263968,2.177585,0.6190932,1.33105,0.1379734,-0.001527057,-0.01353589,60,0,0.1623655,-0.3861703,-0.2430081,-0.9417795,-2.283522,-0.5998331,0.6647005,1.430039,-0.01394901,0.2689208,-0.4480959,0.06728218,-1.040726,-0.7819132,0.03489886,0.8547926,1.500538,0.06825863,0.5892586,1.092762,0.5054448,38.34962,201.1034,208.0015,True
0,2.077781,0.01814106,0.1940116,0.3625453,-1.126002,-3.266,2.179127,0.6187785,1.330773,0.1389166,-0.001910552,-0.04315279,60,0,0.1471983,-0.3785835,-0.2897791,-0.9436001,-2.291022,-0.5965252,0.6636591,1.429996,-0.01283887,0.2669598,-0.4322847,0.0722017,-1.039883,-0.7869446,0.03452229,0.8537356,1.500519,0.06851339,0.5909504,1.092108,0.5066639,38.36654,201.729,208.293,True
0,2.088892,0.004037507,0.1321552,0.3286863,-1.127931,-3.267918,2.180376,0.6183631,1.330591,0.1399823,-0.002552374,-0.05575645,60,0,0.1523092,-0.359393,-0.3419996,-0.9464678,-2.298384,-0.5942479,0.6627238,1.429991,-0.01193276,0.259304,-0.4136697,0.06035428,-1.039483,-0.7918425,0.03443494,0.8527352,1.50043,0.06869218,0.5927423,1.091247,0.507816,38.39367,202.229,208.2375,True
0,2.100003,0.01018634,0.05114576,0.2935961,-1.130945,-3.268423,2.18022,0.6180232,1.330519,0.1410181,-0.003240534,-0.06047183,60,0,0.168371,-0.3285756,-0.35805,-0.9485935,-2.304178,-0.5933669,0.6617041,1.430062,-0.01082286,0.2548152,-0.4045876,0.04707357,-1.03885,-0.7972311,0.03453028,0.8514513,1.500319,0.06867313,0.5944247,1.090266,0.5087819,38.44473,202.4635,207.8576,True
0,2.111114,0.02929982,-0.003181785,0.2807136,-1.13386,-3.270104,2.179887,0.6177046,1.330486,0.1423111,-0.003422162,-0.01700993,60,0,0.1878981,-0.3020827,-0.3261881,-0.9493802,-2.308519,-0.593588,0.6608574,1.430183,-0.009778976,0.256667,-0.4030406,0.03429594,-1.039025,-0.8023923,0.03423014,0.8503855,1.500346,0.06889404,0.5958185,1.089242,0.5095139,38.45212,202.4851,207.3585,True
0,2.122225,0.04315253,-0.01382038,0.2805932,-1.136062,-3.272621,2.180094,0.6174879,1.330415,0.1433306,-0.002887932,0.05019272,60,0,0.1967951,-0.2947357,-0.2740422,-0.948667,-2.31276,-0.5936226,0.6595614,1.430185,-0.008749664,0.2522649,-0.4081431,0.02886581,-1.039043,-0.807884,0.03434918,0.8493052,1.500379,0.0691171,0.5967883,1.08823,0.5101317,38.32883,202.3919,206.8914,True
0,2.133336,0.0654936,-0.0106044,0.2782441,-1.137739,-3.275518,2.179839,0.6169417,1.330775,0.1456804,-0.001923335,0.08601534,60,0,0.2016074,-0.2959096,-0.1856521,-0.9458568,-2.315416,-0.594482,0.6587615,1.430323,-0.007684261,0.2492997,-0.4073663,0.03760634,-1.037906,-0.8132804,0.03435957,0.8490434,1.500527,0.06927411,0.5973361,1.087357,0.5107581,38.12292,202.0887,206.4561,True
0,2.144447,0.08459622,-0.00206919,0.2716547,-1.139104,-3.278249,2.179384,0.6165702,1.330729,0.1469693,-0.001640507,0.02351112,60,0,0.1827677,-0.3139825,-0.1173727,-0.9427021,-2.319218,-0.5936295,0.6576085,1.430315,-0.006501853,0.2454717,-0.3994813,0.05514421,-1.036337,-0.8184956,0.03440751,0.8481499,1.500638,0.06958361,0.5976319,1.086709,0.5115088,37.90371,201.7497,206.2351,True
0,2.155558,0.09410572,0.007511958,0.2651689,-1.140555,-3.281077,2.179255,0.616051,1.330866,0.1486304,-0.001797634,-0.01529648,60,0,0.1636322,-0.3224096,-0.103411,-0.9410375,-2.323668,-0.5921667,0.6567848,1.43038,-0.005361527,0.2439628,-0.3779395,0.07849261,-1.034353,-0.8228843,0.0340123,0.8472718,1.500568,0.0697902,0.597894,1.086307,0.5125158,37.667,201.4818,206.1528,True
0,2.166669,0.100201,0.0405031,0.2384263,-1.140186,-3.283646,2.178946,0.615752,1.330981,0.1499557,-0.002935869,-0.1064961,60,0,0.1537165,-0.331895,-0.1481103,-0.9416975,-2.330062,-0.5898787,0.6557839,1.430462,-0.004248232,0.2412703,-0.3369789,0.09503777,-1.032833,-0.8257775,0.03291534,0.8462892,1.500551,0.07033655,0.5982351,1.086167,0.5141923,37.44097,201.2912,206.0583,True
0,2.17778,0.09901882,0.06392656,0.2298887,-1.140433,-3.286709,2.179306,0.6155431,1.330982,0.1508054,-0.005425392,-0.227523,60,0,0.148097,-0.3350185,-0.1917561,-0.9426024,-2.336453,-0.5875634,0.6549873,1.430543,-0.003154904,0.2427295,-0.2979798,0.1071949,-1.031108,-0.8280929,0.03148842,0.8460331,1.500788,0.07081865,0.5988678,1.086535,0.5161182,37.47214,201.3147,206.0669,True
0,2.188891,0.102167,0.07777432,0.2266412,-1.140715,-3.28968,2.179323,0.6153142,1.331104,0.1520254,-0.008858739,-0.3109957,60,0,0.1381626,-0.3338503,-0.2481541,-0.9445673,-2.343489,-0.5847162,0.6541941,1.430613,-0.002080381,0.2400294,-0.2494846,0.1219207,-1.029086,-0.8296905,0.02973686,0.8448979,1.50075,0.07138945,0.5998299,1.087394,0.5182782,37.67756,201.531,206.1254,True
0,2.200002,0.1095889,0.09695631,0.2254851,-1.140885,-3.293106,2.179311,0.6150687,1.331483,0.1537453,-0.01355815,-0.4260944,60,0,0.1285357,-0.3252442,-0.265148,-0.9456267,-2.349144,-0.5827004,0.6533151,1.430678,-0.0009739101,0.2376103,-0.236055,0.1065809,-1.028055,-0.8324104,0.0286913,0.8451581,1.50096,0.07158309,0.6011115,1.088773,0.5204358,38.04795,201.9859,206.3212,True
0,2.211113,0.1127448,0.1129363,0.2232998,-1.140765,-3.296403,2.179337,0.6148882,1.331661,0.1549224,-0.01900964,-0.4915564,60,0,0.1297726,-0.3210125,-0.2417146,-0.9453077,-2.353899,-0.5813691,0.6526785,1.43083,4.61936E-05,0.2408054,-0.2360657,0.1065113,-1.026962,-0.8355172,0.02752164,0.8442423,1.500958,0.07203029,0.6027046,1.090548,0.5224506,38.55892,202.5251,206.5957,True
0,2.222224,0.1199364,0.1469992,0.200813,-1.139472,-3.299543,2.179168,0.6146321,1.331787,0.1560266,-0.02524464,-0.56367,60,0,0.1409878,-0.307301,-0.1639991,-0.9427569,-2.356153,-0.5819212,0.6521034,1.431,0.001141131,0.2240563,-0.2753883,0.07776732,-1.026511,-0.840712,0.02865348,0.8433124,1.500876,0.07232325,0.6045336,1.092468,0.5246333,39.00689,202.9998,206.7841,True
0,2.233335,0.1208577,0.1554946,0.1869511,-1.138956,-3.30227,2.178931,0.6144028,1.33203,0.1572587,-0.03245221,-0.6517724,60,0,0.1554825,-0.2904217,-0.07671736,-0.9394141,-2.35732,-0.5834453,0.6516004,1.431205,0.002135664,0.2167084,-0.3122891,0.03921643,-1.027564,-0.8462642,0.02939224,0.8423517,1.500834,0.07264844,0.6065679,1.094469,0.5271366,39.39796,203.4684,206.9182,True
0,2.244446,0.1239204,0.1469535,0.1720197,-1.138623,-3.304354,2.178339,0.614114,1.332211,0.1584591,-0.04033198,-0.7114095,60,0,0.1751236,-0.2916784,-0.0001445338,-0.9355615,-2.35917,-0.5847583,0.6508226,1.43137,0.003281921,0.2099999,-0.3213058,0.02530253,-1.027041,-0.8507761,0.02972221,0.8429973,1.501287,0.07276949,0.6087914,1.096615,0.5297002,39.8814,204.0964,207.1106,True
0,2.255557,0.129083,0.117105,0.1517834,-1.139099,-3.305625,2.177319,0.6138287,1.332253,0.1595717,-0.04887912,-0.7719186,60,0,0.1880608,-0.3003046,0.03172455,-0.9323237,-2.361901,-0.5856552,0.6502798,1.431443,0.004341125,0.2057856,-0.3148899,0.02572871,-1.026277,-0.8547195,0.02962287,0.8430177,1.501472,0.07300732,0.6110686,1.098886,0.5322632,40.40424,204.8372,207.3147,True
0,2.266668,0.1321066,0.08192027,0.1294353,-1.139699,-3.306076,2.175948,0.6135206,1.332399,0.1608101,-0.05794453,-0.8176685,60,0,0.1867546,-0.301316,-0.007690586,-0.931815,-2.366422,-0.5850757,0.6497703,1.431546,0.005375803,0.2039134,-0.301401,0.03586757,-1.02562,-0.8581057,0.02918105,0.8421378,1.501469,0.0734393,0.6132851,1.101274,0.5348336,40.93961,205.4988,207.456,True
0,2.277779,0.1405523,0.04782289,0.1176905,-1.140751,-3.306627,2.174428,0.6131911,1.332708,0.162537,-0.06746479,-0.8590074,60,0,0.1822029,-0.2991123,-0.05559888,-0.9319072,-2.371318,-0.5840243,0.6491933,1.431617,0.006380498,0.1937578,-0.2775649,0.05626203,-1.023723,-0.8606639,0.02904497,0.8415052,1.501444,0.07392013,0.6153491,1.103775,0.5374142,41.50324,206.0753,207.5793,True
0,2.28889,0.1564883,-0.009701446,0.105905,-1.142925,-3.30597,2.171855,0.6129239,1.33296,0.1637437,-0.0772844,-0.8861105,60,0,0.1722862,-0.2638153,-0.1407239,-0.9347179,-2.376215,-0.5827636,0.6488032,1.431631,0.007374376,0.1897528,-0.2469166,0.0638817,-1.022806,-0.8627326,0.02817385,0.8406721,1.501391,0.07449917,0.6172107,1.106382,0.5400092,42.09047,206.5561,207.694,True
0,2.300001,0.1830484,-0.04377701,0.09504662,-1.144675,-3.30565,2.168949,0.6127913,1.333211,0.1646992,-0.08725794,-0.8993605,60,0,0.1635299,-0.2306743,-0.2077529,-0.937576,-2.380744,-0.5816637,0.6480966,1.431673,0.008342534,0.1899709,-0.1915268,0.06604039,-1.021268,-0.863273,0.02647555,0.8409462,1.501615,0.07497647,0.6188251,1.109089,0.5427452,42.62499,206.9261,207.7703,True
0,2.311112,0.1956447,-0.04485193,0.07575323,-1.145126,-3.305666,2.166491,0.6126742,1.333499,0.1656328,-0.09712282,-0.8896164,60,0,0.1444455,-0.2071248,-0.2139999,-0.9389363,-2.3841,-0.5806533,0.6476314,1.431779,0.009239972,0.1845948,-0.151768,0.05802456,-1.020887,-0.8637646,0.02485874,0.8401414,1.501552,0.07565369,0.6202359,1.111955,0.545697,43.13781,207.1763,207.8385,True
0,2.322223,0.1944563,-0.02782447,0.06508564,-1.145098,-3.306162,2.164567,0.612438,1.333788,0.1667484,-0.1068396,-0.8777736,60,0,0.1286369,-0.1963964,-0.19472,-0.9391073,-2.38691,-0.5798109,0.6469455,1.431857,0.01017651,0.1825282,-0.1390197,0.05966011,-1.019844,-0.8656171,0.02409522,0.8395311,1.501555,0.07609506,0.6215758,1.115149,0.548534,43.74456,207.369,207.9555,True
0,2.333334,0.1517683,0.01686106,0.0622381,-1.144495,-3.308494,2.163277,0.6119483,1.334592,0.1690481,-0.1170544,-0.923447,60,0,0.07391038,-0.1855268,-0.09955266,-0.9366385,-2.390562,-0.5777033,0.6464765,1.432387,0.0118888,0.1824166,-0.1110076,0.05221788,-1.018592,-0.8676574,0.02180676,0.8383225,1.501486,0.07726233,0.6229639,1.118683,0.5511311,44.40803,207.6839,208.2384,True
0,2.344445,0.1517683,0.01686106,0.0622381,-1.144495,-3.308494,2.163277,0.6119483,1.334592,0.1690481,-0.1269833,-0.8950658,60,0,0.07391038,-0.1855268,-0.09955266,-0.9366385,-2.390562,-0.5777033,0.6464765,1.432387,0.0118888,0.1824166,-0.1110076,0.05221788,-1.018592,-0.8676574,0.02180676,0.8383225,1.501486,0.07726233,0.6244142,1.122403,0.553816,44.99598,208.1545,208.5957,True
0,2.355556,0.1068376,0.07857951,0.05085985,-1.142119,-3.311368,2.163395,0.611474,1.335229,0.1709402,-0.1392839,-1.114694,60,0,0.08945966,-0.1814627,-0.002706576,-0.9322539,-2.392947,-0.5786767,0.6456492,1.432901,0.01367188,0.1717486,-0.1184333,0.05222279,-1.017097,-0.8713458,0.02015321,0.8385444,1.501889,0.07810608,0.6259525,1.126252,0.5568315,45.63793,208.8024,209.0705,True
0,2.366668,0.06939669,0.1264589,0.04156141,-1.139763,-3.313385,2.164807,0.6112604,1.335404,0.1714897,-0.1499269,-0.9509925,60,0,0.1122119,-0.1784534,0.05467991,-0.9290571,-2.393068,-0.5806378,0.6453719,1.433236,0.01450372,0.162704,-0.1421057,0.03030203,-1.016939,-0.8742551,0.02020807,0.8392813,1.502081,0.07847008,0.627607,1.130211,0.5593315,46.53532,209.7153,209.752,True
0,2.377779,0.02781665,0.169012,0.04403377,-1.137648,-3.315887,2.166896,0.6109202,1.335704,0.1725031,-0.1610307,-1.004075,60,0,0.1242174,-0.1871057,0.1067945,-0.9253313,-2.393771,-0.5820062,0.6448677,1.433478,0.01547146,0.1538115,-0.1478506,0.01321608,-1.01743,-0.8764231,0.01995027,0.8384662,1.502004,0.0790197,0.6292717,1.133929,0.5619953,47.26807,210.6456,210.391,True
0,2.38889,-0.007270172,0.1977477,0.05498041,-1.135566,-3.318751,2.169351,0.6106315,1.335791,0.1733383,-0.172519,-1.033042,60,0,0.1285761,-0.1978131,0.1323165,-0.9221941,-2.394961,-0.5827028,0.6444519,1.433699,0.01642016,0.1473952,-0.1563454,0.01309924,-1.016755,-0.8788639,0.01979901,0.8385508,1.502136,0.07941908,0.6309307,1.137414,0.5642416,48.01442,211.6772,211.1136,True
0,2.400001,-0.0210634,0.2009302,0.06150376,-1.134346,-3.32097,2.170893,0.6103795,1.335795,0.1739431,-0.1837517,-1.00813,60,0,0.1264533,-0.2073996,0.1419072,-0.9191245,-2.396395,-0.583191,0.6441231,1.433848,0.01727778,0.1453189,-0.1596486,0.01622086,-1.016521,-0.8811154,0.01943335,0.8377362,1.502039,0.07998663,0.6324962,1.140495,0.5659442,48.69817,212.7728,211.8798,True
0,2.411112,-0.03473343,0.1806963,0.07764494,-1.134026,-3.323142,2.172682,0.6100364,1.335649,0.1747816,-0.1943809,-0.9541494,60,0,0.1178752,-0.2084115,0.1334337,-0.9169397,-2.398184,-0.5831774,0.6437523,1.433984,0.01812053,0.1346418,-0.159575,0.01539347,-1.016243,-0.883206,0.01948768,0.8368611,1.50172,0.08048415,0.6338888,1.142977,0.5673833,49.23014,213.7098,212.517,True
0,2.422223,-0.04102325,0.1391495,0.08309454,-1.134435,-3.324282,2.173736,0.609843,1.335445,0.1754891,-0.2040226,-0.8645816,60,0,0.09843689,-0.1997287,0.084562,-0.9164678,-2.400728,-0.5820727,0.6434324,1.433984,0.01891625,0.1305457,-0.1502125,0.02221264,-1.015805,-0.884847,0.01904826,0.8360305,1.501554,0.08111158,0.6351213,1.144814,0.5685515,49.61995,214.4161,213.0005,True
0,2.433334,-0.04102325,0.1391495,0.08309454,-1.134435,-3.324282,2.173736,0.609843,1.335445,0.1754891,-0.2135962,-0.8615815,60,0,0.09843689,-0.1997287,0.084562,-0.9164678,-2.400728,-0.5820727,0.6434324,1.433984,0.01891625,0.1305457,-0.1502125,0.02221264,-1.015805,-0.884847,0.01904826,0.8360305,1.501554,0.08111158,0.6362396,1.146073,0.5695034,49.87461,214.8123,213.2176,True
0,2.444445,-0.05571683,0.02621591,0.09192759,-1.137662,-3.324948,2.175594,0.6092901,1.335246,0.1773677,-0.2225273,-0.8014846,60,0,0.04987722,-0.1385758,-0.06527445,-0.9202564,-2.406007,-0.5787227,0.6426008,1.433824,0.02032128,0.1117424,-0.08763628,0.03349731,-1.01361,-0.8854792,0.01789564,0.8364027,1.501869,0.0821245,0.6372996,1.146905,0.5702939,50.01857,214.949,213.1791,True
0,2.455556,-0.05571683,0.02621591,0.09192759,-1.137662,-3.324948,2.175594,0.6092901,1.335246,0.1773677,-0.2322442,-0.8770545,60,0,0.04987722,-0.1385758,-0.06527445,-0.9202564,-2.406007,-0.5787227,0.6426008,1.433824,0.02032128,0.1117424,-0.08763628,0.03349731,-1.01361,-0.8854792,0.01789564,0.8364027,1.501869,0.0821245,0.6383234,1.147585,0.5709563,50.092,214.9196,212.9496,True
0,2.466667,-0.07686089,-0.1133712,0.09127215,-1.143912,-3.323061,2.177074,0.6088312,1.334823,0.178827,-0.2411966,-0.8016096,60,0,-0.01421116,-0.07848512,-0.1447029,-0.924535,-2.410059,-0.5743525,0.6422281,1.433837,0.02162296,0.1061818,-0.08078188,0.02109499,-1.013129,-0.8876289,0.01681813,0.8360877,1.501972,0.08327737,0.6393427,1.148166,0.5719756,50.19361,214.9137,212.752,True
0,2.477778,-0.08953802,-0.1783679,0.09361945,-1.147659,-3.321734,2.177809,0.6086266,1.334626,0.1793469,-0.2516629,-0.9455381,60,0,-0.02999014,-0.06670296,-0.1232831,-0.9249409,-2.411004,-0.5729256,0.6419806,1.433903,0.02221441,0.0996982,-0.08274093,0.01689049,-1.013088,-0.888789,0.01655021,0.8352466,1.501844,0.0839062,0.6404023,1.148988,0.5729663,50.33914,214.9056,212.5238,True
0,2.488889,-0.09901791,-0.2156558,0.1001558,-1.151325,-3.32069,2.178772,0.6084166,1.33437,0.1798856,-0.2613914,-0.8697389,60,0,-0.02869351,-0.05822213,-0.09345556,-0.9247193,-2.411542,-0.5723482,0.6414411,1.433949,0.02288043,0.1028997,-0.08919208,0.01878089,-1.012211,-0.8900638,0.01625194,0.8350223,1.501821,0.08433625,0.6414527,1.149995,0.5745445,50.72778,214.78,212.1746,True
0,2.5,-0.1074151,-0.2486729,0.1088063,-1.155106,-3.319748,2.179799,0.6082647,1.333957,0.1802007,-0.2710283,-0.86697,60,0,-0.01763708,-0.04768968,-0.03918256,-0.923498,-2.410798,-0.5729365,0.641196,1.434107,0.02350068,0.09735136,-0.08556642,0.007292913,-1.012496,-0.8910537,0.0158554,0.8341609,1.501707,0.08496366,0.6424955,1.151386,0.5760453,51.21986,214.7719,211.972,True
0,2.511111,-0.1126671,-0.2593232,0.1152639,-1.15864,-3.319075,2.180968,0.6080263,1.333664,0.180742,-0.2807984,-0.8781266,60,0,-0.004701414,-0.05419538,-0.008380635,-0.9223464,-2.411268,-0.5729405,0.6403625,1.43414,0.0242776,0.0929274,-0.08204804,-0.0009765532,-1.012267,-0.8919752,0.01561678,0.8340344,1.501606,0.08535478,0.6435205,1.153176,0.5772292,51.77836,214.9679,212.0197,True
0,2.522222,-0.1253075,-0.2646518,0.1303112,-1.162376,-3.31889,2.182806,0.6077168,1.333211,0.1811515,-0.2906531,-0.8854495,60,0,0.005077176,-0.06387973,0.0298975,-0.9203607,-2.411223,-0.5733778,0.6400812,1.434304,0.02495548,0.08733413,-0.0794131,-0.01463205,-1.012915,-0.8929185,0.01535579,0.8331139,1.501462,0.08604713,0.6445351,1.155241,0.5781499,52.42689,215.2887,212.2528,True
0,2.533333,-0.1401693,-0.2572039,0.1368344,-1.165523,-3.318811,2.184844,0.6074204,1.332887,0.1817065,-0.3004679,-0.8820716,60,0,0.01368775,-0.07780804,0.05540678,-0.9183123,-2.411678,-0.5735123,0.6401384,1.434407,0.02571282,0.08303416,-0.08040903,-0.01668003,-1.012829,-0.8943838,0.01530199,0.8338271,1.501657,0.08642781,0.6455641,1.157402,0.5788928,53.12603,215.6581,212.5638,True
0,2.544444,-0.1508621,-0.2454949,0.1347922,-1.168207,-3.318742,2.186936,0.6072199,1.332397,0.1820841,-0.3106109,-0.9117776,60,0,-0.002269119,-0.08732161,0.06614961,-0.9167522,-2.412333,-0.5726438,0.6400607,1.434526,0.02641636,0.07883072,-0.07621407,-0.01431606,-1.012908,-0.8951854,0.01500904,0.8328751,1.501553,0.08715835,0.6466122,1.159486,0.5796517,53.80854,216.0533,212.8701,True
0,2.555555,-0.1562928,-0.2188799,0.1273481,-1.170056,-3.318832,2.18891,0.6068432,1.332081,0.1826384,-0.3208273,-0.9168947,60,0,-0.0236363,-0.08612712,0.05563389,-0.9160417,-2.413126,-0.5711631,0.6397541,1.434602,0.0270935,0.08765576,-0.0575,-0.002091721,-1.012387,-0.8954357,0.01377786,0.8320115,1.501339,0.08780614,0.6476876,1.161357,0.5804009,54.46713,216.4664,213.159,True
0,2.566666,-0.1574922,-0.1954643,0.1166756,-1.171787,-3.31877,2.190733,0.606472,1.331612,0.1827666,-0.331016,-0.9146153,60,0,-0.05041242,-0.07955199,0.02704342,-0.9164406,-2.414273,-0.5690534,0.6393139,1.434567,0.02778599,0.08703107,-0.03686941,0.01787427,-1.011083,-0.8951127,0.01287745,0.8313491,1.501276,0.08846682,0.6487785,1.162945,0.5811514,55.03572,216.8666,213.395,True
0,2.577777,-0.1564837,-0.1826857,0.112386,-1.173713,-3.31874,2.192429,0.6060531,1.331346,0.1832918,-0.3409054,-0.8877314,60,0,-0.06666771,-0.07408148,-0.02078589,-0.9176773,-2.41621,-0.5665603,0.638972,1.434603,0.02844018,0.08055098,-0.02598067,0.01198882,-1.011131,-0.8950186,0.01213256,0.8303579,1.501113,0.08928727,0.6498574,1.164238,0.5818285,55.5015,217.2575,213.5695,True
0,2.588888,-0.1564837,-0.1826857,0.112386,-1.173713,-3.31874,2.192429,0.6060531,1.331346,0.1832918,-0.3506914,-0.878913,60,0,-0.06666771,-0.07408148,-0.02078589,-0.9176773,-2.41621,-0.5665603,0.638972,1.434603,0.02844018,0.08055098,-0.02598067,0.01198882,-1.011131,-0.8950186,0.01213256,0.8303579,1.501113,0.08928727,0.6508555,1.165302,0.5824252,55.85768,217.6221,213.6499,True
0,2.599999,-0.1503971,-0.1688748,0.08247908,-1.177098,-3.317471,2.195061,0.6053762,1.330699,0.1833809,-0.3593121,-0.7724622,60,0,-0.08502155,-0.02915401,-0.09731945,-0.9216929,-2.418694,-0.5626852,0.6380835,1.434669,0.0297246,0.09194719,-0.004022673,-0.007705431,-1.011738,-0.8948144,0.009636115,0.8292871,1.500964,0.09078981,0.6517352,1.166279,0.5827468,56.10648,217.8481,213.6363,True
0,2.61111,-0.1622629,-0.1721088,0.06661659,-1.178862,-3.316383,2.196796,0.6049428,1.330594,0.1838092,-0.3702854,-0.993988,60,0,-0.0870463,-0.01423433,-0.09409468,-0.9225163,-2.418931,-0.5616316,0.6379509,1.434807,0.03035617,0.08335487,0.01001642,-0.01234075,-1.011523,-0.8944477,0.009114402,0.8300068,1.501319,0.09120199,0.6525127,1.167351,0.5830262,56.2962,217.9881,213.575,True
0,2.622221,-0.1622629,-0.1721088,0.06661659,-1.178862,-3.316383,2.196796,0.6049428,1.330594,0.1838092,-0.3802291,-0.8857852,60,0,-0.0870463,-0.01423433,-0.09409468,-0.9225163,-2.418931,-0.5616316,0.6379509,1.434807,0.03035617,0.08335487,0.01001642,-0.01234075,-1.011523,-0.8944477,0.009114402,0.8300068,1.501319,0.09120199,0.6531204,1.168469,0.5834689,56.73986,218.1591,213.531,True
0,2.633332,-0.1921976,-0.1753643,0.05518451,-1.182665,-3.314646,2.20111,0.6041501,1.330261,0.1844959,-0.3889169,-0.7802438,60,0,-0.07786745,-0.004812814,-0.0003945604,-0.920414,-2.417078,-0.5612897,0.6375215,1.435238,0.03158885,0.07778317,-0.004542869,-0.02230591,-1.011901,-0.8951606,0.008145278,0.8299056,1.501521,0.09244971,0.6535791,1.169754,0.5837173,57.06079,218.3385,213.6145,True
0,2.644443,-0.2017159,-0.1711124,0.06379612,-1.184888,-3.314495,2.20368,0.6037438,1.330061,0.1849447,-0.400834,-1.079855,60,0,-0.05958624,-0.02200582,0.04101577,-0.9183538,-2.416693,-0.5614918,0.6372676,1.43545,0.03228053,0.0808159,-0.02782532,-0.02744131,-1.012421,-0.8964735,0.007864315,0.8288215,1.501397,0.09317994,0.6539714,1.171301,0.5840428,57.3264,218.5715,213.7825,True
0,2.655554,-0.2101036,-0.1338105,0.08299868,-1.185987,-3.315783,2.206801,0.6032634,1.330004,0.1855591,-0.4115074,-0.9488038,60,0,-0.0264236,-0.04141292,0.0801921,-0.9159586,-2.416585,-0.5623462,0.6364942,1.435629,0.03306147,0.0861102,-0.0470795,-0.02606802,-1.01247,-0.8978858,0.007600662,0.8281271,1.501391,0.09376976,0.6541748,1.17301,0.5846495,57.87318,218.9077,213.9445,True
0,2.666665,-0.2132565,-0.09119166,0.09255359,-1.186342,-3.317299,2.209711,0.6029241,1.329852,0.1857706,-0.4214932,-0.8963394,60,0,0.003361091,-0.06929571,0.09595418,-0.9137391,-2.417382,-0.5629196,0.6359956,1.435683,0.03383502,0.09227707,-0.05312806,-0.03703327,-1.012979,-0.8989444,0.006945524,0.8293214,1.501842,0.09414516,0.6542079,1.174805,0.5853267,58.43548,219.295,214.2948,True
0,2.677776,-0.2142697,0.04519067,0.1168778,-1.183609,-3.322443,2.214091,0.6023839,1.329841,0.1868415,-0.4313921,-0.8887992,60,0,0.01911592,-0.09173439,0.07984676,-0.9124906,-2.41906,-0.5626644,0.6355999,1.435848,0.03456616,0.09232551,-0.0510726,-0.03483061,-1.0133,-0.8995473,0.006233661,0.8282852,1.501677,0.09482518,0.6542085,1.176579,0.5859693,58.95315,219.6807,214.796,True
0,2.688887,-0.221686,0.1709163,0.1380763,-1.180091,-3.328296,2.219023,0.6019773,1.329744,0.1874622,-0.4410935,-0.8701753,60,0,0.02425286,-0.104516,0.06061691,-0.9118445,-2.420628,-0.5621232,0.6349821,1.435915,0.03526101,0.09339725,-0.05002016,-0.03480263,-1.01355,-0.9002603,0.005543903,0.828348,1.501721,0.09523728,0.6543552,1.17824,0.586475,59.38892,220.1294,215.3907,True
0,2.699998,-0.2280448,0.2433547,0.1518824,-1.177672,-3.333161,2.223677,0.6015685,1.329529,0.1878595,-0.4508082,-0.8727023,60,0,0.01417611,-0.1193007,-0.003255742,-0.9126983,-2.424106,-0.5598308,0.6345167,1.435948,0.03594044,0.09878062,-0.05121005,-0.03174921,-1.013782,-0.9009687,0.004622182,0.8273044,1.501529,0.09592837,0.6547949,1.179712,0.586801,59.73222,220.7483,216.0817,True
0,2.711109,-0.2419069,0.3711951,0.1678123,-1.172465,-3.340807,2.22981,0.6011646,1.329331,0.1883585,-0.4607413,-0.8916908,60,0,6.804056E-05,-0.1234481,-0.03939583,-0.913273,-2.426824,-0.5576308,0.6337833,1.435953,0.03666252,0.1041649,-0.04492126,-0.02947088,-1.013681,-0.9014736,0.003712979,0.827619,1.501516,0.09633514,0.6556876,1.180874,0.5872262,59.93639,221.7091,216.9911,True
0,2.72222,-0.2535985,0.4159389,0.1763808,-1.169244,-3.346547,2.235171,0.6007726,1.328983,0.188513,-0.470751,-0.897836,60,0,-0.01716578,-0.1169212,-0.07443345,-0.9144459,-2.429374,-0.5553058,0.6333334,1.436008,0.03725421,0.1095202,-0.04820351,-0.02755477,-1.013923,-0.9022138,0.002679673,0.8265381,1.501322,0.09698257,0.6571082,1.181705,0.58742,60.10334,222.7867,217.8419,True
0,2.733331,-0.2641715,0.4404438,0.1881648,-1.166213,-3.352609,2.24087,0.6003549,1.328653,0.1888637,-0.480887,-0.9098169,60,0,-0.02892025,-0.1147176,-0.081811,-0.9146302,-2.431312,-0.5534161,0.6330583,1.436111,0.03782636,0.1084282,-0.05782893,-0.02677739,-1.013994,-0.903508,0.002459696,0.8267987,1.501485,0.09741342,0.6589847,1.182203,0.587302,60.25524,223.8725,218.5,True
0,2.744442,-0.2715374,0.4116755,0.1946749,-1.165138,-3.35701,2.245954,0.5998268,1.328271,0.1894764,-0.490877,-0.8951069,60,0,-0.05546113,-0.09219424,-0.08694177,-0.9154541,-2.432337,-0.5512749,0.6327455,1.436111,0.03832284,0.1095637,-0.06117246,-0.0226497,-1.014104,-0.904439,0.001675927,0.8257272,1.50129,0.09808137,0.6612408,1.182341,0.5868875,60.29308,225.1461,219.2037,True
0,2.755553,-0.2821631,0.3754387,0.1926972,-1.164143,-3.360835,2.250981,0.5993719,1.327807,0.1897351,-0.5009336,-0.9021086,60,0,-0.06496914,-0.07616365,-0.08792479,-0.9160699,-2.43338,-0.5496197,0.6324196,1.436107,0.03884542,0.1097153,-0.05717573,-0.01503045,-1.013801,-0.9050995,0.000933438,0.8257442,1.501505,0.09854716,0.6636982,1.182192,0.5862358,60.31925,226.2374,219.5921,True
0,2.766664,-0.3013302,0.2976239,0.183407,-1.16487,-3.362655,2.25565,0.599014,1.327117,0.18963,-0.5109855,-0.9011013,60,0,-0.0777003,-0.06117003,-0.09209101,-0.9170153,-2.434346,-0.5478144,0.6315172,1.435902,0.03947484,0.1056807,-0.04152169,-0.004788531,-1.013155,-0.9050444,0.0001006675,0.826575,1.501829,0.0990174,0.6661705,1.181841,0.5856544,60.3253,227.1292,219.7131,True
0,2.777775,-0.3395615,0.1963723,0.1828503,-1.16702,-3.363667,2.261129,0.5983634,1.326451,0.1900522,-0.5209974,-0.8979766,60,0,-0.08941735,-0.05470823,-0.09733498,-0.9178931,-2.435603,-0.5456617,0.6311996,1.435879,0.03999582,0.1036798,-0.02782362,-1.298636E-05,-1.012947,-0.9049246,-0.001058873,0.8255782,1.501722,0.09969869,0.6684334,1.181429,0.5853115,60.3646,227.8083,219.6271,True
0,2.788886,-0.3395615,0.1963723,0.1828503,-1.16702,-3.363667,2.261129,0.5983634,1.326451,0.1900522,-0.5312165,-0.9162628,60,0,-0.08941735,-0.05470823,-0.09733498,-0.9178931,-2.435603,-0.5456617,0.6311996,1.435879,0.03999582,0.1036798,-0.02782362,-1.298636E-05,-1.012947,-0.9049246,-0.001058873,0.8255782,1.501722,0.09969869,0.6702851,1.181093,0.5849276,60.46096,228.4131,219.5977,True
0,2.799997,-0.414755,-0.05831899,0.1945741,-1.176365,-3.36186,2.271553,0.597383,1.324586,0.1892755,-0.538725,-0.6673068,60,0,-0.1521661,-0.08744422,-0.05329515,-0.9165072,-2.438525,-0.5388123,0.630619,1.436002,0.04091203,0.08930804,0.03015823,0.02038274,-1.01164,-0.9021626,-0.004035222,0.8246567,1.501605,0.1010712,0.6715963,1.180971,0.5844443,60.55454,228.6475,219.3893,True
0,2.811108,-0.4338464,-0.2373359,0.1790268,-1.184222,-3.356781,2.275058,0.5967963,1.323719,0.1889329,-0.5536275,-1.357703,60,0,-0.2161649,-0.1212109,-0.03695295,-0.9150621,-2.441321,-0.532531,0.6301475,1.435881,0.04139313,0.07680475,0.03717348,0.0347362,-1.010473,-0.9016302,-0.004656005,0.8254871,1.501827,0.1013687,0.6723416,1.181292,0.5841709,60.74739,228.8808,219.3192,True
0,2.822219,-0.4256321,-0.375875,0.1290616,-1.190432,-3.35076,2.277256,0.5963266,1.323073,0.1889291,-0.5646759,-0.9639331,60,0,-0.2299519,-0.09981988,-0.04536144,-0.9155527,-2.442245,-0.5288838,0.6299798,1.435945,0.04172119,0.07486586,0.04004736,0.04446544,-1.009678,-0.9010025,-0.005739378,0.8245206,1.501658,0.1021161,0.6723676,1.18162,0.5835497,61.56657,229.6134,219.901,True
0,2.83333,-0.3855408,-0.4728397,0.07448317,-1.196302,-3.343963,2.277648,0.5958612,1.322475,0.1885525,-0.5741887,-0.8535008,60,0,-0.1987065,-0.04886974,-0.03485058,-0.9163442,-2.440987,-0.5288116,0.6298161,1.43602,0.04188189,0.06549338,0.06324792,0.05290626,-1.008565,-0.8994105,-0.007070693,0.8251328,1.50189,0.1025815,0.6717167,1.181763,0.5824926,62.3461,229.6163,219.9937,True
0,2.844441,-0.3580555,-0.535697,0.04339889,-1.201731,-3.338388,2.278594,0.5955226,1.32187,0.1883352,-0.5829185,-0.7806399,60,0,-0.1907881,0.008580759,-0.01245459,-0.9166403,-2.438625,-0.528488,0.630163,1.436227,0.04215592,0.05480056,0.06870919,0.05009379,-1.008111,-0.8982914,-0.007917844,0.8241825,1.501718,0.1033038,0.6704152,1.18175,0.5817307,62.8249,228.8946,219.4126,True
0,2.855552,-0.3559353,-0.5665951,0.03809395,-1.207565,-3.333391,2.280753,0.5950649,1.321227,0.188029,-0.5908196,-0.7070152,60,0,-0.2053744,0.04272288,0.01005211,-0.9167325,-2.436372,-0.5270984,0.6300516,1.43625,0.04232368,0.04788515,0.06644621,0.02349591,-1.008683,-0.897411,-0.008475777,0.8239832,1.501715,0.1038395,0.6685103,1.181816,0.5815808,63.03024,227.8345,218.5877,True
0,2.866663,-0.3654146,-0.6145316,0.04357277,-1.214393,-3.32832,2.283612,0.5947165,1.320429,0.1875347,-0.5992442,-0.7587633,60,0,-0.233019,0.04498976,0.01662166,-0.9166297,-2.43577,-0.5239455,0.6298668,1.436342,0.0424822,0.04103001,0.06728234,-0.0008660071,-1.009346,-0.8967596,-0.009011605,0.8243308,1.501763,0.104191,0.6661265,1.182254,0.5818025,63.2153,226.6597,217.8591,True
0,2.877774,-0.3675447,-0.6070759,0.04464819,-1.219695,-3.324205,2.286422,0.5942135,1.319808,0.1872453,-0.6089249,-0.8701034,60,0,-0.2404156,0.04608497,0.02519273,-0.9164252,-2.434812,-0.5215593,0.629704,1.436374,0.04267451,0.03484114,0.07978818,0.008200806,-1.008995,-0.8952208,-0.0100023,0.8233373,1.501581,0.1048972,0.6635616,1.183172,0.5821307,63.57893,225.6712,217.5518,True
0,2.888885,-0.3675447,-0.6070759,0.04464819,-1.219695,-3.324205,2.286422,0.5942135,1.319808,0.1872453,-0.6193831,-0.9369522,60,0,-0.2404156,0.04608497,0.02519273,-0.9164252,-2.434812,-0.5215593,0.629704,1.436374,0.04267451,0.03484114,0.07978818,0.008200806,-1.008995,-0.8952208,-0.0100023,0.8233373,1.501581,0.1048972,0.6611283,1.184488,0.58218,64.1992,225.0163,217.6486,True
0,2.899997,-0.3528043,-0.5612714,0.03272313,-1.223275,-3.320814,2.288844,0.5938511,1.319109,0.1865646,-0.6266711,-0.646006,60,0,-0.2330055,0.05031198,0.01449501,-0.9169732,-2.434268,-0.5195625,0.6292937,1.436488,0.04292217,0.0309299,0.08879902,0.02562543,-1.00808,-0.8938498,-0.01100738,0.8240643,1.501835,0.10528,0.6591529,1.186035,0.581912,64.84069,224.579,217.9641,True
0,2.911108,-0.3307005,-0.4621934,0.01852186,-1.224592,-3.319043,2.291335,0.593384,1.318682,0.1863535,-0.6375288,-0.989368,60,0,-0.2064477,0.06297918,-0.008030541,-0.9182462,-2.43357,-0.5185172,0.6291459,1.436553,0.04308036,0.01081685,0.09612774,0.0315768,-1.007451,-0.8922644,-0.01131337,0.8230722,1.501673,0.1059412,0.658073,1.18781,0.5817263,65.21107,224.6434,218.5703,True
0,2.922219,-0.3276279,-0.337544,0.0225863,-1.224628,-3.319443,2.295043,0.5930035,1.318259,0.1860431,-0.6483002,-0.9592753,60,0,-0.1979686,0.07147408,-0.02192354,-0.9194201,-2.432803,-0.5170306,0.6288455,1.436569,0.04324695,0.01275082,0.09540695,0.02085541,-1.007536,-0.8912969,-0.01210061,0.8233693,1.501818,0.1064178,0.6577581,1.189716,0.5812976,65.86554,225.1281,219.0712,True
0,2.93333,-0.3360574,-0.2469755,0.04492324,-1.225524,-3.320488,2.299518,0.5925677,1.317779,0.1858016,-0.658612,-0.9245102,60,0,-0.2065488,0.06833206,-0.02826464,-0.9202308,-2.432421,-0.5146838,0.6287401,1.436615,0.04333958,0.01028678,0.09066306,0.003683928,-1.008108,-0.8902764,-0.01268464,0.8224297,1.501671,0.1069728,0.6579748,1.191588,0.5805625,66.53927,226.1208,219.7959,True
0,2.944441,-0.3561075,-0.1223118,0.08223157,-1.224752,-3.32434,2.305499,0.5922325,1.317254,0.1854179,-0.6691874,-0.9504679,60,0,-0.2311778,0.05568552,-0.03664524,-0.9208002,-2.432715,-0.5109405,0.6283183,1.436473,0.04349574,0.009189274,0.0885634,0.002576683,-1.007805,-0.8894191,-0.01312246,0.8229842,1.501902,0.1073378,0.6585469,1.193315,0.5798414,67.03249,227.4837,220.8055,True
0,2.955552,-0.3857371,-0.02644365,0.1164741,-1.224573,-3.327962,2.312033,0.5918846,1.316395,0.1843902,-0.6800648,-0.9752861,0,0,-0.2580011,0.03879857,-0.05354371,-0.9217232,-2.433658,-0.5067812,0.6281762,1.436371,0.04341003,0.009493422,0.0965803,0.01776546,-1.007087,-0.8878044,-0.01411049,0.8220532,1.50177,0.1079031,0.6593859,1.194779,0.5790378,67.44384,228.9033,221.9164,True
0,2.966663,-0.4111186,0.02682407,0.1432778,-1.224958,-3.33104,2.318376,0.591459,1.315826,0.1839871,-0.6911031,-0.9888186,0,0,-0.2633858,0.029241,-0.05458646,-0.9222878,-2.434078,-0.5034053,0.6280584,1.436392,0.0433563,0.005573578,0.09917557,0.03604379,-1.005967,-0.8864936,-0.01468707,0.8222408,1.501892,0.1083361,0.6604447,1.195852,0.5780674,67.85596,230.1756,222.9352,True
0,2.977774,-0.4272428,0.06833671,0.1337859,-1.224259,-3.333506,2.324463,0.5910871,1.315251,0.1832767,-0.7022543,-0.998319,0,0,-0.2621525,0.01533875,-0.01625976,-0.9210526,-2.433649,-0.5008338,0.6281195,1.436329,0.04328367,-0.008964634,0.1252667,0.05424652,-1.00464,-0.8838033,-0.01510412,0.8217366,1.501837,0.1087719,0.6617591,1.196367,0.5766332,68.19926,231.497,224.0379,True
0,2.988885,-0.4392213,0.09172451,0.1093656,-1.223312,-3.334953,2.330149,0.5907657,1.314637,0.1824211,-0.7128627,-0.9481215,0,0,-0.2589478,0.01318699,-0.0130869,-0.9210767,-2.433599,-0.4980849,0.6282656,1.436292,0.04311597,-0.02782863,0.1290439,0.07071093,-1.003288,-0.8819111,-0.01518162,0.8208873,1.501634,0.1093331,0.6632821,1.196217,0.5746814,68.45126,232.6355,224.8185,True
0,2.999996,-0.4492261,0.102307,0.06683199,-1.221738,-3.335502,2.335681,0.590472,1.314162,0.1816197,-0.7228714,-0.8949518,0,0,-0.2567858,0.03769752,-0.02798854,-0.9226543,-2.432762,-0.4957387,0.6280334,1.436172,0.04294619,-0.03850676,0.1366166,0.06794912,-1.002764,-0.8801668,-0.01558588,0.8212149,1.501651,0.1095627,0.6648777,1.195496,0.5728,68.52579,233.3294,224.96,True
0,3.011107,-0.4409671,0.0990859,0.03906351,-1.220839,-3.335887,2.340472,0.5901644,1.313662,0.1810457,-0.7322143,-0.8353004,0,0,-0.2597735,0.04727176,-0.003455192,-0.9223986,-2.431341,-0.4936252,0.6282771,1.436067,0.04265529,-0.04934695,0.1680562,0.05320852,-1.002741,-0.8766074,-0.01655767,0.8204494,1.501418,0.1100391,0.6662977,1.194377,0.5710126,68.42004,233.7988,224.7922,True
0,3.022218,-0.4262332,0.07457315,0.01658505,-1.220431,-3.335482,2.344616,0.5898483,1.313099,0.180191,-0.7411907,-0.8024036,0,0,-0.2787506,0.06439275,0.01266169,-0.9223427,-2.429671,-0.4909596,0.6282566,1.435736,0.04229373,-0.07188553,0.1876693,0.04253001,-1.002755,-0.8733927,-0.01662079,0.8206472,1.501437,0.1101419,0.6672922,1.193084,0.5693573,68.22331,234.0881,224.4845,True
0,3.033329,-0.4146596,0.0511166,-0.0005430728,-1.220386,-3.334784,2.348791,0.5893209,1.312609,0.1798243,-0.7492021,-0.7144421,0,0,-0.2957285,0.07300273,0.01597662,-0.9226042,-2.428262,-0.4879332,0.6284738,1.435576,0.0419201,-0.07944036,0.187829,0.03838538,-1.002451,-0.8710766,-0.01654356,0.8212767,1.501576,0.1102256,0.6676785,1.191844,0.567947,68.01454,234.1973,224.156,True
0,3.04444,-0.4115316,-0.0202773,-0.01752079,-1.221733,-3.332191,2.352397,0.5889299,1.311955,0.1788004,-0.7564576,-0.6488319,0,0,-0.3372771,0.07642695,0.01304509,-0.9231012,-2.427262,-0.4833664,0.6284606,1.435279,0.04138547,-0.08755224,0.1935305,0.06004459,-1.001075,-0.8682595,-0.01686953,0.8205285,1.501389,0.1106339,0.6674207,1.190832,0.5668241,67.90001,234.0839,223.8713,True
0,3.055551,-0.4094106,-0.1587898,-0.03760752,-1.225443,-3.326588,2.354961,0.5886991,1.311265,0.1774335,-0.7635464,-0.6342958,0,0,-0.3671111,0.1181745,-0.0218705,-0.9256887,-2.425201,-0.4794955,0.6283898,1.434932,0.04086325,-0.1056825,0.1946813,0.059324,-1.000515,-0.8656967,-0.01642425,0.821382,1.50163,0.1107735,0.6665679,1.190133,0.5658562,67.89099,233.907,223.7461,True
0,3.066662,-0.3978076,-0.2557509,-0.06315459,-1.228759,-3.320734,2.35696,0.5883565,1.310729,0.1762988,-0.7703534,-0.6080034,0,0,-0.3425688,0.1788195,-0.06669512,-0.9295204,-2.422077,-0.4783596,0.628793,1.434709,0.04021779,-0.1293437,0.196234,0.04701287,-1.000466,-0.8630775,-0.01558189,0.8207366,1.501403,0.1110827,0.6652107,1.18977,0.5650523,67.99644,233.7805,223.8115,True
0,3.077773,-0.363378,-0.4007148,-0.1591823,-1.231818,-3.310127,2.356362,0.5882065,1.310267,0.1750529,-0.7766055,-0.5578485,0,0,-0.2987581,0.2531967,-0.1073655,-0.9339754,-2.417991,-0.478932,0.6289449,1.43449,0.03961781,-0.1447684,0.2089491,0.01891153,-1.001102,-0.8596386,-0.01509879,0.8211145,1.501452,0.111154,0.66339,1.189693,0.5639977,68.25041,233.5528,223.8933,True
0,3.088884,-0.3594198,-0.4529604,-0.1985882,-1.233939,-3.302751,2.357797,0.5879726,1.309889,0.1741842,-0.7819275,-0.4737017,0,0,-0.286919,0.2946998,-0.1233689,-0.9378141,-2.413955,-0.4785469,0.6294098,1.434322,0.03896978,-0.1556147,0.2264723,0.005831111,-1.001523,-0.8559906,-0.01499546,0.8205755,1.501277,0.1115235,0.6611307,1.189869,0.5627275,68.60562,233.1272,223.8477,True
0,3.099995,-0.3681779,-0.5030819,-0.2304007,-1.236489,-3.294515,2.359412,0.5877714,1.309382,0.1729291,-0.7857736,-0.3416168,0,0,-0.2962526,0.3341585,-0.1168716,-0.9409252,-2.409169,-0.4777242,0.6297486,1.43415,0.03825751,-0.1737126,0.2489489,0.004734628,-1.001464,-0.851836,-0.01453527,0.8216927,1.501565,0.1115803,0.6584758,1.190273,0.5615988,68.90636,232.7367,223.8441,True
0,3.111106,-0.3935886,-0.5030938,-0.21418,-1.239006,-3.289322,2.362926,0.5876582,1.308668,0.1713049,-0.7895489,-0.3391465,0,0,-0.3118422,0.3522966,-0.07094079,-0.9423308,-2.403781,-0.4769522,0.630336,1.434023,0.03755704,-0.1800341,0.2584774,0.007296364,-1.001348,-0.848069,-0.01436403,0.8211732,1.501377,0.1119485,0.6553078,1.190946,0.5608761,69.15637,232.4512,223.9603,True
0,3.122217,-0.412627,-0.4764629,-0.1959238,-1.24099,-3.284829,2.366644,0.587441,1.308071,0.1699866,-0.7927863,-0.28585,0,0,-0.3233566,0.3512486,-0.03784708,-0.9434323,-2.39934,-0.4756555,0.6304736,1.433761,0.03695148,-0.1878372,0.2719746,-0.01346712,-1.002314,-0.8440106,-0.01426549,0.8219774,1.501536,0.1120603,0.6517109,1.191724,0.560364,69.48209,232.3518,224.4852,True
0,3.133328,-0.4211905,-0.4445189,-0.1958995,-1.242032,-3.280256,2.36994,0.5872078,1.307515,0.1687572,-0.7955996,-0.2478253,0,0,-0.332602,0.3554981,0.01228715,-0.9435681,-2.393792,-0.474966,0.6310794,1.433658,0.0362789,-0.1848775,0.2745402,-0.02734538,-1.00326,-0.8405415,-0.01436163,0.8236282,1.501804,0.1120385,0.6478601,1.192309,0.559519,69.92657,232.3011,225.2911,True
0,3.144439,-0.4522651,-0.3625456,-0.2042443,-1.242311,-3.272486,2.378123,0.5868559,1.306067,0.1652906,-0.7973148,-0.1463518,0,0,-0.3310301,0.342592,0.1006798,-0.9429162,-2.383486,-0.4741745,0.6324041,1.433451,0.03488407,-0.193309,0.2765161,-0.02181959,-1.003736,-0.8332528,-0.01372646,0.8233182,1.501532,0.112568,0.6441339,1.192311,0.5580378,70.38241,232.1772,226.1728,True
0,3.15555,-0.4874805,-0.3157189,-0.2039723,-1.2419,-3.269506,2.383769,0.5866559,1.305421,0.1636529,-0.8012621,-0.3533204,0,0,-0.3309272,0.3415051,0.1177229,-0.9429374,-2.378343,-0.4735758,0.6330347,1.433365,0.03419557,-0.1942756,0.2774079,-0.01644257,-1.003739,-0.8296311,-0.01351474,0.8229196,1.501348,0.1128914,0.6407782,1.191433,0.5559699,70.67653,232.2457,226.9724,True
0,3.166661,-0.5333622,-0.285952,-0.2067761,-1.241703,-3.266109,2.390193,0.5864964,1.304794,0.1621428,-0.8006011,0.08317227,0,0,-0.335137,0.3415138,0.1252024,-0.9433625,-2.373428,-0.47271,0.6335292,1.433184,0.03344661,-0.1986938,0.2776769,-0.02493511,-1.004443,-0.8263011,-0.01297386,0.8247237,1.501715,0.1127934,0.6375628,1.189391,0.5529651,70.76237,232.4001,227.4639,True
0,3.177772,-0.567482,-0.2646886,-0.2075531,-1.241594,-3.262684,2.396276,0.5863979,1.304172,0.1605588,-0.7998362,0.06798626,0,0,-0.354322,0.3384187,0.1263859,-0.943722,-2.368663,-0.4709614,0.6342578,1.433055,0.03267664,-0.2042902,0.2824744,-0.04066837,-1.005488,-0.8224475,-0.01259302,0.824374,1.501521,0.113067,0.6346045,1.186313,0.5501105,70.5213,231.3273,226.7746,True
0,3.188883,-0.6090151,-0.2583491,-0.2050383,-1.241748,-3.259096,2.403202,0.5862298,1.303354,0.1586434,-0.7994607,0.04111021,0,0,-0.3714426,0.3321315,0.1190273,-0.9443947,-2.364155,-0.4690668,0.6350763,1.433003,0.03181961,-0.210729,0.2836076,-0.0426892,-1.006133,-0.8188767,-0.01184547,0.8252876,1.501634,0.1130719,0.6320272,1.182402,0.5477884,70.02013,229.5084,225.3037,True
0,3.199994,-0.6281637,-0.271161,-0.2037776,-1.242467,-3.25476,2.409337,0.5861015,1.30249,0.1566056,-0.7984695,0.09915037,0,0,-0.3949478,0.314141,0.1234153,-0.9443825,-2.360133,-0.4663059,0.6358542,1.432863,0.0309014,-0.2191335,0.2844841,-0.03611521,-1.006342,-0.8151462,-0.01112536,0.824904,1.501427,0.1134077,0.6298158,1.177925,0.545861,69.3812,227.4504,223.4456,True
0,3.211105,-0.6515797,-0.3308567,-0.2098735,-1.244407,-3.248481,2.415381,0.5859776,1.301589,0.1544472,-0.7978511,0.06182071,0,0,-0.4269024,0.2951102,0.1406365,-0.9436309,-2.356035,-0.4629799,0.6362879,1.432636,0.02998981,-0.2272574,0.2880069,-0.0135077,-1.005855,-0.8114747,-0.01029152,0.8256857,1.501549,0.113471,0.6278656,1.173177,0.5439625,68.69399,225.5064,221.5566,True
0,3.222216,-0.6569465,-0.418245,-0.2267532,-1.247249,-3.240384,2.420133,0.5859084,1.300671,0.1521779,-0.796699,0.1137156,0,0,-0.4896321,0.2900881,0.1644662,-0.9425572,-2.351252,-0.458223,0.6372023,1.432408,0.02894178,-0.2385539,0.2893825,0.01014588,-1.005184,-0.8078552,-0.009328787,0.8269608,1.501827,0.1135298,0.6260067,1.168385,0.5416872,68.05126,223.8652,219.8785,True
0,3.233327,-0.6529174,-0.5226878,-0.2660777,-1.25022,-3.230059,2.424003,0.58588,1.299834,0.1497911,-0.7958692,0.08087586,0,0,-0.518244,0.326472,0.1583003,-0.9434227,-2.344968,-0.4552178,0.6379032,1.432009,0.0278883,-0.2576039,0.2924151,0.01697686,-1.004786,-0.8038896,-0.007995608,0.8266642,1.501647,0.113811,0.624054,1.163778,0.5390608,67.4752,222.3439,218.3049,True
0,3.244438,-0.6488366,-0.594095,-0.2948045,-1.252803,-3.220082,2.42786,0.5858891,1.298948,0.1475979,-0.7946031,0.1231697,0,0,-0.5127252,0.3626633,0.1583112,-0.944171,-2.338221,-0.4537172,0.6389043,1.431779,0.02679029,-0.2661935,0.2947049,0.012939,-1.004805,-0.7999571,-0.006879744,0.8263733,1.501463,0.1140951,0.6217698,1.15955,0.53623,67.00314,220.8351,216.7852,True
0,3.255549,-0.6406199,-0.703869,-0.3426856,-1.256332,-3.206995,2.430629,0.5859394,1.298089,0.1451328,-0.7933866,0.1154711,0,0,-0.4952765,0.4371454,0.1593613,-0.9458941,-2.328924,-0.4544674,0.640151,1.431598,0.02556175,-0.3038284,0.3296908,-0.01089361,-1.006215,-0.7942987,-0.005206214,0.8271086,1.501402,0.1141539,0.6189343,1.155877,0.5334112,66.62183,219.2986,215.3638,True
0,3.26666,-0.6385474,-0.8200097,-0.3649437,-1.261146,-3.193582,2.433692,0.586128,1.297174,0.1427773,-0.7923954,0.09537525,0,0,-0.5056069,0.5075032,0.1520653,-0.9479809,-2.319459,-0.4540447,0.6412926,1.431267,0.02445161,-0.3230183,0.3608181,-0.01598174,-1.006866,-0.7884129,-0.004246144,0.8277429,1.501288,0.1142939,0.6153669,1.152881,0.5307483,66.34618,217.8554,214.2467,True
0,3.277771,-0.6363912,-0.9063077,-0.3744456,-1.266299,-3.179995,2.436632,0.5862093,1.296268,0.1403447,-0.7916396,0.0741841,0,0,-0.5246862,0.5523751,0.1298723,-0.9507666,-2.310589,-0.452691,0.6425707,1.430999,0.02318075,-0.3418892,0.3924244,-0.002893165,-1.006518,-0.7819337,-0.003266633,0.8274939,1.50113,0.1146879,0.6110598,1.15056,0.5282749,66.21726,216.542,213.5345,True
0,3.288882,-0.6341765,-1.036286,-0.3838876,-1.273115,-3.164526,2.439024,0.5864861,1.295116,0.1374002,-0.7914297,0.0242908,0,0,-0.5481137,0.5812728,0.107684,-0.9534212,-2.302657,-0.4506231,0.6436245,1.430699,0.02196515,-0.3470039,0.4070362,0.007240973,-1.006173,-0.7760805,-0.002458098,0.8280164,1.501117,0.1149407,0.6060222,1.148869,0.5258461,66.27337,215.1503,212.9747,True
0,3.299993,-0.6267829,-1.04907,-0.3924642,-1.277377,-3.151705,2.441987,0.5866127,1.294228,0.134939,-0.7913381,0.01545085,0,0,-0.563059,0.5856237,0.099262,-0.9555843,-2.294863,-0.4483607,0.6448786,1.430435,0.0207231,-0.3498646,0.4310468,0.02299822,-1.005396,-0.7694117,-0.002036785,0.8277639,1.50096,0.1154355,0.6004167,1.14765,0.5233587,66.51643,213.6176,212.5481,True
0,3.311104,-0.6111208,-1.052297,-0.4277748,-1.280211,-3.138327,2.444235,0.5870056,1.293361,0.1321514,-0.7913343,0.006734914,0,0,-0.6036476,0.5762632,0.0909826,-0.9575087,-2.287781,-0.4443886,0.6456501,1.42993,0.0195047,-0.3560984,0.4521599,0.03015537,-1.005008,-0.7625189,-0.001329184,0.8283439,1.501085,0.1158309,0.5945003,1.146688,0.52061,66.87091,212.0349,212.2376,True
0,3.322215,-0.611204,-1.051252,-0.4362851,-1.283645,-3.12584,2.447601,0.5873485,1.292487,0.1293505,-0.7912598,0.01330848,0,0,-0.6549965,0.5637802,0.06785554,-0.9599699,-2.281394,-0.4390322,0.647048,1.42972,0.01820821,-0.3685421,0.4836823,0.04525791,-1.003987,-0.7548051,-0.0009424927,0.8281269,1.500963,0.1163731,0.5885172,1.145755,0.5174867,67.26127,210.3882,211.9263,True
0,3.333326,-0.6100698,-1.065093,-0.4309519,-1.287995,-3.112843,2.450734,0.5878615,1.291819,0.1266504,-0.7909173,0.03700207,0,0,-0.678525,0.5649937,0.05203214,-0.9625713,-2.274127,-0.4349602,0.6484866,1.429475,0.01695389,-0.3791317,0.4985861,0.04696738,-1.003457,-0.7476318,-0.0001755023,0.8288361,1.501178,0.116766,0.5827397,1.144661,0.514267,67.47617,208.9787,211.8161,True
0,3.344437,-0.5993779,-1.097051,-0.4298874,-1.293151,-3.099302,2.453521,0.5882611,1.2913,0.124198,-0.7913418,-0.03461375,0,0,-0.6795295,0.5713855,0.05630795,-0.9646603,-2.266507,-0.4317123,0.6500497,1.429306,0.01564321,-0.3973199,0.4966367,0.04292071,-1.003365,-0.7413388,0.001472994,0.8292217,1.501006,0.1170529,0.5773728,1.143335,0.5109103,67.54365,207.6973,211.6784,True
0,3.355548,-0.5826225,-1.084282,-0.4588261,-1.29583,-3.085894,2.455708,0.5888612,1.290762,0.1216398,-0.7917338,-0.027497,0,0,-0.6612701,0.5797911,0.073253,-0.9661559,-2.258237,-0.4298254,0.651495,1.429021,0.01445094,-0.4155109,0.4936252,0.03887599,-1.003056,-0.734948,0.00327196,0.828979,1.500874,0.1174613,0.5725417,1.141736,0.5074283,67.56759,206.232,211.1936,True
0,3.366659,-0.5798932,-1.026809,-0.5004749,-1.296301,-3.073658,2.45867,0.5895371,1.290083,0.1189217,-0.7918989,-0.00815632,0,0,-0.6205245,0.5965789,0.1007111,-0.9673863,-2.249335,-0.4294078,0.6529577,1.428889,0.0130949,-0.4327759,0.4844298,0.02817975,-1.003308,-0.7289186,0.005450426,0.8293904,1.500872,0.117658,0.5682642,1.139906,0.5040105,67.50668,204.4709,210.2439,True
0,3.37777,-0.586459,-0.9501259,-0.5079683,-1.296754,-3.063288,2.462634,0.5902047,1.289708,0.1166743,-0.7916092,0.03259205,0,0,-0.5841196,0.5803535,0.1430717,-0.9670263,-2.241261,-0.4288251,0.6545532,1.428762,0.0117715,-0.4445109,0.4844933,0.02732035,-1.002997,-0.722531,0.007350857,0.82917,1.500733,0.1180474,0.5644351,1.137953,0.5008156,67.34564,202.7319,209.1265,True
0,3.388881,-0.5522752,-0.8733523,-0.4870945,-1.297582,-3.054413,2.465268,0.5908983,1.289459,0.1146633,-0.7917434,-0.008287233,0,0,-0.5529606,0.5385473,0.2184578,-0.9642087,-2.233707,-0.4281772,0.6562631,1.428599,0.01049197,-0.4689054,0.4961648,0.0312873,-1.002782,-0.7155754,0.009564743,0.8295712,1.500607,0.1183561,0.56092,1.135989,0.497692,67.10188,201.5831,208.4491,True
0,3.399992,-0.4562166,-0.744279,-0.4487444,-1.297328,-3.048878,2.465531,0.5916736,1.289329,0.1130094,-0.7922835,-0.04283118,0,0,-0.5452603,0.5192624,0.2727152,-0.9617324,-2.225558,-0.4271034,0.6580222,1.428481,0.009252876,-0.4741954,0.5121464,0.03187486,-1.002348,-0.7082376,0.01118181,0.8298686,1.500565,0.1187336,0.5575931,1.134067,0.4944788,66.85718,200.8966,208.1855,True
0,3.411103,-0.3271948,-0.6077061,-0.4171097,-1.295872,-3.044972,2.463581,0.5925517,1.289357,0.1114654,-0.7915778,0.07254039,0,0,-0.5419162,0.5330898,0.2833586,-0.9614368,-2.216622,-0.4262794,0.659915,1.428362,0.00787729,-0.4826215,0.543054,0.03299027,-1.002111,-0.6997461,0.01223962,0.8304738,1.500672,0.1191371,0.5544102,1.132225,0.491356,66.6188,200.0323,207.8552,True
0,3.422215,-0.2025179,-0.4594454,-0.3928982,-1.293501,-3.042089,2.46106,0.5933599,1.28934,0.1099929,-0.788897,0.2463078,0,0,-0.5387534,0.576803,0.2418475,-0.9635184,-2.207232,-0.425743,0.6617079,1.42807,0.006576091,-0.4948688,0.6213132,0.05272773,-1.001046,-0.6887425,0.01216985,0.8320138,1.501018,0.1194139,0.5514867,1.13054,0.4885809,66.3292,198.8066,207.3519,True
0,3.433326,-0.1217301,-0.2963394,-0.3885433,-1.288929,-3.041033,2.459356,0.5941522,1.289442,0.1087506,-0.7854162,0.310746,0,0,-0.5367305,0.6205352,0.1886117,-0.9669788,-2.197942,-0.4250996,0.6630547,1.427646,0.005206257,-0.5020502,0.6507992,0.06446746,-0.9998513,-0.6789519,0.01271393,0.8319335,1.500882,0.1199402,0.5491244,1.129175,0.4864379,65.91589,197.5334,206.905,True
0,3.444437,-0.1015593,-0.1919101,-0.3814069,-1.285159,-3.039105,2.459612,0.5949099,1.289309,0.1071492,-0.7829369,0.2163398,0,0,-0.5316319,0.694132,0.09171718,-0.9733204,-2.187999,-0.4248645,0.6641991,1.427015,0.003946692,-0.5138658,0.6563612,0.05839517,-0.9997033,-0.6702484,0.01422474,0.8326975,1.500925,0.1203191,0.5476198,1.128373,0.4849588,65.46757,196.6494,206.6603,True
0,3.455548,-0.0909683,-0.07256891,-0.371008,-1.280008,-3.039407,2.460293,0.5956564,1.289411,0.1059623,-0.7822332,0.0574087,0,0,-0.5049825,0.7153165,0.07666097,-0.9766169,-2.178269,-0.4255763,0.6658347,1.426707,0.002704352,-0.5164177,0.6271736,0.0383066,-0.9998289,-0.6630453,0.01620906,0.8325467,1.500734,0.1206708,0.5470898,1.12831,0.4839799,65.1684,196.5209,206.793,True
0,3.466659,-0.05793311,-0.001152098,-0.3586319,-1.276176,-3.038377,2.459976,0.5960751,1.289706,0.1055838,-0.7840985,-0.1728772,0,0,-0.4526799,0.7342135,0.0774239,-0.9792081,-2.168266,-0.4280014,0.6672869,1.426368,0.00168559,-0.5052995,0.5779583,0.009809654,-1.000831,-0.6576347,0.01843626,0.8338327,1.50103,0.1207716,0.5474874,1.129006,0.4831855,65.13065,197.3584,207.4893,True
0,3.47777,-0.04513004,-0.00113222,-0.3566222,-1.273183,-3.035815,2.459296,0.5967743,1.289716,0.1043112,-0.7861001,-0.1764509,0,0,-0.4186342,0.7233787,0.07932492,-0.9815469,-2.159378,-0.4295074,0.6687977,1.426113,0.000723213,-0.4917206,0.550585,-0.001969744,-1.001145,-0.6514902,0.02011246,0.8336887,1.500881,0.1211318,0.5485654,1.130272,0.482154,65.40159,198.8486,208.5587,True
0,3.488881,0.0113944,-0.05752069,-0.3581595,-1.271765,-3.030646,2.455758,0.5973918,1.289752,0.1033559,-0.7875494,-0.1296529,0,0,-0.4028423,0.6924022,0.07598543,-0.983645,-2.151842,-0.4296036,0.669868,1.425823,-0.0001066625,-0.4747725,0.5410991,-0.006877623,-1.001463,-0.6446799,0.02112073,0.8344331,1.501019,0.1214556,0.5499505,1.131836,0.481257,65.71002,200.5979,209.818,True
0,3.499992,0.02001499,-0.1235515,-0.357106,-1.270918,-3.024931,2.453721,0.598001,1.289903,0.1027002,-0.7889732,-0.1294073,0,0,-0.390433,0.6380234,0.06198757,-0.9856365,-2.145902,-0.4289737,0.6712034,1.425645,-0.0008453429,-0.4701154,0.5564368,0.01265211,-1.000947,-0.6370637,0.02206615,0.8356968,1.501301,0.1218918,0.5512185,1.133518,0.4808154,66.00545,202.1635,210.8685,True
0,3.511103,-0.007405274,-0.268458,-0.3481404,-1.273086,-3.016321,2.452155,0.5985427,1.28972,0.1016357,-0.7888869,0.009890215,0,0,-0.3727495,0.5846857,0.03943833,-0.9878458,-2.140749,-0.4281948,0.6720831,1.42529,-0.001427978,-0.4495099,0.5621226,0.03273455,-0.9997799,-0.6294786,0.02223207,0.8355613,1.501188,0.122429,0.5521145,1.135184,0.4803148,66.30382,203.4285,211.683,True
