loc,t,aDotUA,bDotUA,gDotUA,aUA,bUA,gUA,xUA,yUA,zUA,qE,qDotE,emgA,emgB,aDotSH,bDotSH,gDotSH,aSH,bSH,gSH,xSH,ySH,zSH,aDotUB,bDotUB,gDotUB,aUB,bUB,gUB,xUB,yUB,zUB,xHand,yHand,zHand,aHand,bHand,gHand,enable
2,0,-0.2232005,-0.7060834,0.7023174,-1.352255,-4.182771,-2.900277,0.6611177,1.244675,0.404439,-0.9057027,-0.09378712,50.5,72.2,-0.6707245,0.02369428,-0.06557274,-0.54283,-3.519563,-0.8364651,0.7168357,1.435797,0.3121016,-0.2381983,0.3552475,-0.04613254,-0.7510812,-0.2423292,0.04257542,0.808098,1.474797,0.1378202,0.4624323,1.020908,0.262125,312.5944,242.6996,356.9935,False
2,0.01111111,-0.2191746,-0.6550012,0.6892532,-1.357881,-4.17565,-2.899512,0.6594647,1.243761,0.4032841,-0.9058583,-0.01335396,50.5,72.2,-0.6918719,0.1087853,-0.04153302,-0.5456636,-3.513645,-0.8335103,0.7156579,1.435437,0.312109,-0.2499291,0.3680615,-0.05026628,-0.7515936,-0.2356722,0.04088831,0.8081861,1.474731,0.1384413,0.4626555,1.018569,0.2565455,313.9465,236.5984,0.6901623,False
2,0.02222222,-0.2280523,-0.5860123,0.6515911,-1.362481,-4.170095,-2.897686,0.657793,1.242879,0.4024403,-0.9056836,0.01595669,43.4,66.7,-0.6851172,0.3205013,0.01696764,-0.5523231,-3.496722,-0.8406169,0.7143272,1.434922,0.3119841,-0.2637465,0.3979201,-0.05220266,-0.7520725,-0.2276374,0.03840305,0.8081455,1.474691,0.1390641,0.4650334,1.014838,0.2499929,315.3156,235.5616,359.7675,False
2,0.03333334,-0.249589,-0.5491175,0.5992006,-1.365887,-4.163859,-2.89542,0.6560363,1.242038,0.4013832,-0.9058545,-0.01580704,43.4,66.7,-0.6849557,0.4237054,0.04409599,-0.5576372,-3.484435,-0.8435115,0.7131051,1.43455,0.3119771,-0.257211,0.420241,-0.03833829,-0.751812,-0.2197728,0.03517929,0.8081685,1.474576,0.13973,0.4686618,1.010282,0.2431383,316.7696,235.3533,357.5774,False
2,0.04444445,-0.2689298,-0.5282726,0.5287981,-1.367888,-4.157921,-2.89299,0.6542146,1.241438,0.4004707,-0.9052234,0.05788132,43.4,66.7,-0.6867588,0.3851575,0.08121668,-0.5583056,-3.477624,-0.8414883,0.7121621,1.43408,0.3121567,-0.2516559,0.4350697,-0.01170485,-0.7508463,-0.2120075,0.03208843,0.8080012,1.474524,0.140393,0.4704699,1.007615,0.2391625,317.8108,229.9963,1.767876,False
2,0.05555556,-0.2947284,-0.4978996,0.450912,-1.369416,-4.152453,-2.889802,0.6522748,1.240715,0.3997412,-0.9046844,0.04882906,43.4,66.7,-0.6623348,0.2457356,0.06007065,-0.557129,-3.480171,-0.8326765,0.7109631,1.433679,0.3124886,-0.2535931,0.45739,0.007548172,-0.7500037,-0.2034146,0.02859915,0.8078395,1.474475,0.1410191,0.4700841,1.006988,0.2382102,318.4955,230.2741,2.223121,False
2,0.06666667,-0.3195381,-0.4440608,0.3792717,-1.370397,-4.148749,-2.886107,0.6503276,1.240192,0.3990543,-0.9046929,-0.0009898246,39.1,64.6,-0.6307246,0.1607618,0.01251219,-0.5573314,-3.483381,-0.8238505,0.7098143,1.433346,0.3127818,-0.2514442,0.469105,0.007565502,-0.7497874,-0.1949923,0.02523212,0.8075894,1.474423,0.1416316,0.4691262,1.006833,0.2382651,319.0836,231.0787,1.557159,False
2,0.07777778,-0.3401504,-0.3773884,0.309706,-1.371371,-4.146301,-2.882045,0.6482769,1.23991,0.3984804,-0.9042247,0.04303301,39.1,64.6,-0.5715436,0.07057178,-0.05129534,-0.5579088,-3.489648,-0.8142292,0.7084427,1.432952,0.3131614,-0.253579,0.4723086,0.006520092,-0.7497395,-0.1871947,0.02242515,0.8074057,1.474477,0.1422548,0.4681891,1.006752,0.2380638,319.7656,231.5647,0.9971183,False
2,0.08888889,-0.3488652,-0.344667,0.2605334,-1.371838,-4.143264,-2.87847,0.6462381,1.239599,0.3978636,-0.9042247,-0.0002705745,39.1,64.6,-0.5323487,0.04729342,-0.0783859,-0.5591238,-3.492256,-0.8072337,0.7071536,1.432601,0.3133466,-0.2546821,0.4691267,0.00225807,-0.7497517,-0.1796726,0.01978489,0.807144,1.474473,0.1428294,0.4673178,1.006692,0.2375801,320.5682,231.7205,0.728876,False
2,0.1,-0.3693568,-0.3132603,0.173022,-1.370191,-4.140964,-2.873937,0.644201,1.239201,0.3973439,-0.9043339,-0.009793629,39.1,64.6,-0.5194573,0.06748837,-0.06455532,-0.5605075,-3.490364,-0.803398,0.7057481,1.432252,0.3133993,-0.2547224,0.4691492,-0.003072735,-0.7499254,-0.1718398,0.01691959,0.8067544,1.474524,0.143517,0.4661932,1.006642,0.2370149,321.3035,232.5892,0.2192305,False
2,0.1111111,-0.3992918,-0.3085301,0.08778337,-1.36731,-4.138148,-2.869108,0.641935,1.239128,0.3966992,-0.9049101,-0.0524855,39.1,64.6,-0.5212856,0.1301673,-0.02482837,-0.5626178,-3.484027,-0.8027902,0.7042408,1.431918,0.3132687,-0.2557794,0.4627531,-0.0009542704,-0.7498332,-0.1645047,0.014437,0.8063093,1.474558,0.144052,0.4651543,1.006586,0.2364758,322.2568,232.8012,359.9139,False
2,0.1222222,-0.4516609,-0.2910891,0.00359562,-1.364172,-4.136281,-2.862663,0.6396023,1.239398,0.3963563,-0.9043334,0.05332351,34.4,59.8,-0.5152547,0.1819517,0.06166415,-0.5628687,-3.474014,-0.8057356,0.7028433,1.431802,0.3131731,-0.2579293,0.4574383,-0.002013009,-0.7497773,-0.1571747,0.01204548,0.8056947,1.474528,0.1445601,0.4641652,1.006544,0.2358805,323.2125,232.89,359.6856,False
2,0.1333333,-0.5030192,-0.2651512,-0.08703405,-1.360152,-4.135295,-2.855491,0.6370732,1.24005,0.3959284,-0.9040558,0.02502628,34.4,59.8,-0.4944916,0.1720887,0.1221503,-0.5618173,-3.467831,-0.8062614,0.7013903,1.431592,0.3131797,-0.2600258,0.4499726,0.003301265,-0.7495909,-0.150196,0.009823603,0.8052713,1.474523,0.1449955,0.4629256,1.006507,0.2351205,323.9512,233.3968,359.0768,False
2,0.1444445,-0.5513176,-0.2008277,-0.1704313,-1.355672,-4.136384,-2.84762,0.6345329,1.240512,0.3956747,-0.9028707,0.1083876,34.4,59.8,-0.5049809,0.1411061,0.1391353,-0.5607035,-3.464298,-0.8033292,0.699967,1.431472,0.3131723,-0.2526042,0.4275899,0.003179315,-0.7495094,-0.144408,0.008114385,0.8046809,1.47455,0.145462,0.4616914,1.006436,0.2345884,325.0522,233.5312,358.6172,False
2,0.1555556,-0.5846761,-0.1330674,-0.2187177,-1.352129,-4.138005,-2.839952,0.6320369,1.240689,0.3950746,-0.9025485,0.02879216,34.4,59.8,-0.4603048,0.1401118,0.1312939,-0.5611307,-3.460704,-0.802603,0.698449,1.431312,0.3132439,-0.2474323,0.4073865,-0.01183794,-0.7502002,-0.1386595,0.006553507,0.804036,1.47461,0.1459587,0.4602026,1.006359,0.2341392,326.307,233.802,357.9366,False
2,0.1666667,-0.6343639,0.00906284,-0.2940154,-1.34795,-4.14464,-2.829792,0.6293258,1.241368,0.3949897,-0.9026753,-0.01140612,30.7,60.3,-0.4337378,0.1327133,0.1225143,-0.5612729,-3.457593,-0.8013345,0.6969975,1.431092,0.3131199,-0.2548367,0.4041806,-0.00433282,-0.7499803,-0.1322373,0.004945756,0.803335,1.47465,0.146426,0.4581675,1.006271,0.2332999,327.3219,234.4925,356.7372,False
2,0.1777778,-0.693606,0.1502099,-0.3447948,-1.344715,-4.152147,-2.818782,0.6265552,1.24206,0.3948455,-0.9046449,-0.1778393,30.7,60.3,-0.4133804,0.1156181,0.1350494,-0.5603871,-3.453933,-0.800469,0.6955379,1.430931,0.31319,-0.2494417,0.4052155,0.005211856,-0.749593,-0.1253407,0.002584331,0.8026804,1.474691,0.1469679,0.4558881,1.006382,0.2323735,328.3801,235.2398,355.4088,True
2,0.1888889,-0.7591346,0.2636015,-0.4028749,-1.340792,-4.160456,-2.806429,0.6235297,1.242877,0.3946774,-0.9060431,-0.1236912,30.7,60.3,-0.4100797,0.09000412,0.1455519,-0.5591152,-3.450995,-0.7984045,0.6940297,1.430831,0.3130925,-0.2472588,0.4019948,0.01264307,-0.7491611,-0.1188916,0.0005446164,0.8019252,1.474744,0.147392,0.4533039,1.006555,0.231285,329.4344,236.1701,354.0013,True
2,0.2,-0.810528,0.3142909,-0.4414485,-1.336618,-4.167099,-2.794099,0.6205994,1.243685,0.3944299,-0.9089923,-0.265375,30.7,60.3,-0.404604,0.08566847,0.1625293,-0.5580819,-3.446596,-0.7977843,0.6924983,1.430803,0.3130229,-0.2397951,0.3891942,0.01574407,-0.748907,-0.1130669,-0.001289236,0.8011075,1.474797,0.147902,0.4485899,1.006819,0.2296069,329.0493,235.5641,354.2884,True
2,0.2111111,-0.886485,0.3743763,-0.4992285,-1.331609,-4.175449,-2.77972,0.6174113,1.244818,0.3942411,-0.912286,-0.2952781,30.7,60.3,-0.3989903,0.05781749,0.1943045,-0.5555854,-3.442575,-0.7969358,0.690914,1.430795,0.3129056,-0.2312637,0.3614715,0.02092481,-0.7485304,-0.1083962,-0.002510296,0.8002691,1.474942,0.1482155,0.4375539,1.008322,0.2247779,323.1194,232.5003,356.9075,True
2,0.2222222,-0.9581133,0.4184713,-0.5622503,-1.325943,-4.184548,-2.764283,0.6139579,1.246044,0.3938947,-0.9168332,-0.4096273,25.4,59.6,-0.4188182,0.01498395,0.2390117,-0.5517777,-3.438543,-0.7951016,0.6893336,1.43083,0.3127096,-0.2163706,0.3380058,0.02287289,-0.7482236,-0.1039791,-0.003805391,0.7994076,1.475014,0.148571,0.426576,1.014916,0.2200813,320.0568,232.1248,356.7523,True
2,0.2333333,-1.003016,0.4468332,-0.5996472,-1.320722,-4.192918,-2.749676,0.6105933,1.247148,0.3935623,-0.9204774,-0.3259673,25.4,59.6,-0.4345851,0.01379967,0.2636459,-0.5494586,-3.433122,-0.7944028,0.687676,1.430866,0.3125288,-0.2121411,0.3262975,0.02067415,-0.7481251,-0.09889502,-0.005289038,0.7985823,1.475114,0.1489172,0.4161336,1.02449,0.2160396,316.7467,231.6335,357.1324,True
2,0.2444444,-1.068222,0.4813065,-0.6743414,-1.313945,-4.203213,-2.732844,0.6067227,1.248736,0.3931682,-0.9249063,-0.3984991,25.4,59.6,-0.4448552,0.01677117,0.308497,-0.5462047,-3.425944,-0.7952386,0.6859995,1.430941,0.3122947,-0.2090029,0.3209845,0.0142426,-0.7482082,-0.09388308,-0.006719954,0.7976531,1.475194,0.1492488,0.4064573,1.035947,0.2130794,313.5076,230.8195,357.9778,True
2,0.2555556,-1.101396,0.5065671,-0.7074487,-1.308903,-4.212944,-2.717186,0.6032701,1.25056,0.3932457,-0.9310107,-0.5509281,25.4,59.6,-0.456348,0.01236856,0.3352066,-0.543025,-3.419805,-0.7950897,0.6843981,1.431113,0.3120914,-0.2090073,0.3188498,0.01317919,-0.748018,-0.08894426,-0.00812131,0.7967069,1.475316,0.1495311,0.3971686,1.047991,0.2111896,310.382,229.9021,359.1709,True
2,0.2666667,-1.136755,0.5445468,-0.7481014,-1.303145,-4.224022,-2.700466,0.5994939,1.252144,0.392971,-0.934769,-0.3353632,25.4,59.6,-0.4719006,-0.0219627,0.3831106,-0.5379777,-3.413659,-0.7946071,0.6826078,1.431291,0.3118749,-0.2090141,0.30819,0.01420978,-0.747895,-0.08453206,-0.009078982,0.7957178,1.475328,0.1497869,0.3880746,1.059475,0.2102473,307.5135,228.9715,0.6251362,True
2,0.2777778,-1.171085,0.5932804,-0.7717676,-1.298533,-4.235853,-2.683139,0.5958103,1.253768,0.3927786,-0.9404058,-0.5099221,20.9,58.2,-0.4749524,-0.03694853,0.3979822,-0.5340106,-3.408024,-0.7942367,0.6810172,1.431366,0.3116779,-0.2111788,0.3060704,0.01103161,-0.7478257,-0.0796361,-0.01017301,0.7947383,1.475363,0.1501164,0.3789761,1.069704,0.2101404,305.2908,228.1026,2.113149,True
2,0.2888889,-1.194715,0.6346443,-0.7868835,-1.294055,-4.248071,-2.665755,0.5921102,1.255369,0.3925736,-0.9439756,-0.3195731,20.9,58.2,-0.4782069,-0.0571439,0.3893898,-0.5304202,-3.404123,-0.7922038,0.6791325,1.431597,0.3116176,-0.2069594,0.2900906,0.008822071,-0.7478449,-0.07573032,-0.01088088,0.7936132,1.475472,0.1504025,0.3702361,1.07851,0.2108929,303.6464,227.4534,3.531464,True
2,0.3,-1.230143,0.6962295,-0.7967803,-1.2904,-4.261598,-2.647204,0.5883996,1.256937,0.3923011,-0.9470904,-0.2802573,20.9,58.2,-0.4685052,-0.06678763,0.4020444,-0.5262257,-3.398745,-0.7919341,0.6771706,1.431788,0.3114247,-0.2090002,0.2794047,0.02265934,-0.7471493,-0.07157192,-0.01156105,0.7924159,1.475627,0.1507843,0.3616772,1.085766,0.2122186,302.5813,227.0604,4.816425,True
2,0.3111111,-1.260262,0.7621353,-0.7981881,-1.287516,-4.275616,-2.628413,0.584884,1.258646,0.3920074,-0.9502345,-0.2833025,20.9,58.2,-0.4652556,-0.06361878,0.4084272,-0.5224659,-3.392704,-0.7921565,0.675283,1.431925,0.3112047,-0.2088975,0.2783006,0.03543847,-0.7464127,-0.06706879,-0.01262711,0.7912693,1.475833,0.1511195,0.3534266,1.091774,0.2139407,302.0146,226.9862,5.831597,True
2,0.3222222,-1.296767,0.8290983,-0.7974502,-1.28554,-4.290423,-2.608798,0.5811473,1.260468,0.3917978,-0.9521695,-0.1730089,14.9,56,-0.4534191,-0.0381138,0.4244322,-0.5192168,-3.384415,-0.7946867,0.6733512,1.432023,0.3109386,-0.203386,0.2707611,0.06094217,-0.7449448,-0.06299934,-0.0135768,0.7899814,1.475967,0.1513822,0.3454825,1.096947,0.2158369,301.7784,227.1103,6.615232,True
2,0.3333333,-1.304295,0.8460967,-0.7975454,-1.282871,-4.303816,-2.590358,0.5774148,1.262241,0.3914804,-0.9543789,-0.1991967,14.9,56,-0.4501733,-0.03813231,0.4297401,-0.5154191,-3.377789,-0.7955397,0.6713973,1.432195,0.3105578,-0.1969765,0.261147,0.06512128,-0.7442374,-0.05924695,-0.01435151,0.7886765,1.476035,0.1516075,0.3377477,1.101792,0.2177061,301.7236,227.4217,7.14905,True
2,0.3444445,-1.343801,0.8694218,-0.78698,-1.281378,-4.317709,-2.570249,0.5736799,1.264005,0.3912547,-0.9553877,-0.09004047,14.9,56,-0.4562616,-0.04363307,0.464922,-0.5105631,-3.369603,-0.7974543,0.6693114,1.432424,0.3102798,-0.1874173,0.2536812,0.06289536,-0.7436643,-0.05549575,-0.01539733,0.7873073,1.476177,0.1518638,0.3301936,1.106833,0.2194304,301.6564,227.7778,7.539241,True
2,0.3555556,-1.328957,0.8854539,-0.788167,-1.279413,-4.331506,-2.552334,0.5701013,1.265855,0.3908679,-0.9569601,-0.1429805,14.9,56,-0.4472345,-0.04924574,0.5244862,-0.504644,-3.359186,-0.8018179,0.6672551,1.432786,0.3100502,-0.1830701,0.2493747,0.07456692,-0.7425426,-0.05169888,-0.01632571,0.7859529,1.476407,0.152061,0.3226213,1.112437,0.2209101,301.4041,228.0161,7.950851,True
2,0.3666667,-1.321438,0.8716543,-0.7849038,-1.277538,-4.34458,-2.534113,0.5662777,1.267758,0.3905294,-0.9555864,0.1261159,14.9,56,-0.4449738,-0.05464306,0.5393555,-0.4995504,-3.35057,-0.8044786,0.665165,1.433037,0.309778,-0.1797479,0.2514621,0.08945975,-0.7411572,-0.04729641,-0.01776941,0.7844831,1.476601,0.1523659,0.3150679,1.118757,0.2221381,300.8013,227.9146,8.643708,True
2,0.3777778,-1.299935,0.8325038,-0.7527429,-1.276213,-4.355737,-2.517089,0.5626458,1.269575,0.3904886,-0.9569409,-0.125836,10.8,49.9,-0.4351906,-0.07817823,0.5604782,-0.4934976,-3.342327,-0.807173,0.6630614,1.433298,0.30948,-0.1807135,0.2471606,0.1033051,-0.7395614,-0.04337877,-0.0186107,0.783035,1.476755,0.1526082,0.3075332,1.125813,0.2231432,299.9269,227.6851,9.426106,True
2,0.3888889,-1.541805,0.8452866,-0.7578964,-1.275416,-4.369475,-2.488187,0.5591875,1.271332,0.3904386,-0.9553446,0.1456755,10.8,49.9,-0.4404959,-0.1144047,0.5603468,-0.4873217,-3.336254,-0.8074033,0.660928,1.433518,0.3092051,-0.1870652,0.2311628,0.1118277,-0.7380983,-0.04037672,-0.01849246,0.7814614,1.476915,0.1528296,0.3001572,1.133452,0.2240453,298.7765,227.1288,10.49562,True
2,0.4,-1.604648,0.854882,-0.7067519,-1.276619,-4.381773,-2.464387,0.5554713,1.272877,0.3903763,-0.9538831,0.1303701,10.8,49.9,-0.4373108,-0.1207795,0.5581665,-0.4819118,-3.328906,-0.8090899,0.6587557,1.433689,0.3089163,-0.1763287,0.2161973,0.1255532,-0.7362874,-0.03726428,-0.01913668,0.7798218,1.477034,0.1530297,0.2929644,1.141364,0.2249377,297.4915,226.3226,11.76656,True
2,0.4111111,-1.53432,0.8628286,-0.6706535,-1.27787,-4.394027,-2.446684,0.5518724,1.274557,0.3902345,-0.9405209,1.218603,10.8,49.9,-0.427667,-0.08566368,0.5667789,-0.4775085,-3.318049,-0.8142564,0.6566221,1.433896,0.3085957,-0.1720508,0.2076517,0.1286858,-0.7348998,-0.03427036,-0.01964268,0.7783122,1.477212,0.1532466,0.2861186,1.149203,0.2259264,296.1478,225.3698,13.14531,True
2,0.4222222,-1.397762,0.8263587,-0.6279759,-1.278762,-4.404224,-2.432736,0.5481865,1.276144,0.3900654,-0.9416618,-0.1167397,9.6,44.4,-0.3602169,-0.08263016,0.6067055,-0.471412,-3.305606,-0.8234313,0.6544149,1.434082,0.3083696,-0.1625373,0.2076644,0.1190246,-0.7339166,-0.03080106,-0.02069915,0.7767044,1.477358,0.1534679,0.2790522,1.157077,0.2268176,295.2525,224.9499,14.03494,True
2,0.4333333,-1.27507,0.7951162,-0.5917156,-1.279631,-4.414202,-2.41942,0.5446106,1.277899,0.3897698,-0.9454834,-0.3495115,9.6,44.4,-0.3443778,-0.1283439,0.5882436,-0.4649565,-3.300499,-0.824329,0.6521242,1.4342,0.3081174,-0.1615128,0.2119371,0.1126424,-0.7328625,-0.02707116,-0.0216744,0.7749916,1.477513,0.1537187,0.2719809,1.165221,0.2276095,294.3063,224.5199,14.98606,True
2,0.4444444,-1.196843,0.6944048,-0.5624812,-1.278763,-4.42148,-2.406471,0.5412777,1.27934,0.389514,-0.9454775,0.0003322134,9.6,44.4,-0.3575659,-0.1366411,0.5403755,-0.4605287,-3.295808,-0.8241227,0.6498196,1.434352,0.3078852,-0.1679075,0.2151461,0.1116356,-0.7317195,-0.02326977,-0.02240944,0.7733231,1.477711,0.1539497,0.2653751,1.173348,0.2284875,293.0275,223.5901,16.42521,True
2,0.4555556,-1.210671,0.6912271,-0.5496527,-1.279784,-4.43149,-2.38928,0.5382198,1.280518,0.3894098,-0.9416922,0.3420704,9.6,44.4,-0.3857149,-0.1055242,0.4906958,-0.4578869,-3.289448,-0.8245107,0.6474482,1.434459,0.3076584,-0.181519,0.2118769,0.1426308,-0.7290297,-0.0199331,-0.02243846,0.7714974,1.477915,0.1541669,0.2593896,1.18084,0.2295285,291.6003,222.2491,18.24696,True
2,0.4666667,-1.236328,0.7156996,-0.5348461,-1.281951,-4.442091,-2.371612,0.5352303,1.281563,0.3892395,-0.936213,0.4941357,9.6,44.4,-0.3699056,-0.0479078,0.4748609,-0.4556477,-3.27938,-0.8299084,0.64511,1.43457,0.3073673,-0.1729244,0.1937089,0.1563614,-0.7268661,-0.017628,-0.02250691,0.7697062,1.478074,0.1543045,0.2539515,1.187195,0.2307144,290.3937,220.8981,20.07762,True
2,0.4777778,-1.208558,0.7063565,-0.5135044,-1.28383,-4.451287,-2.356859,0.5321298,1.282851,0.3891068,-0.9275151,0.7872728,11.9,39.7,-0.3431305,-0.005372286,0.4940225,-0.4524423,-3.266887,-0.8383256,0.6428525,1.434831,0.3069901,-0.1696858,0.1819579,0.1637663,-0.7248187,-0.01527483,-0.02259399,0.7679076,1.478297,0.1544449,0.2489931,1.192119,0.2319549,289.6032,219.7891,21.6201,True
2,0.4888889,-1.152096,0.7120629,-0.4880229,-1.286389,-4.4604,-2.343822,0.5292253,1.283802,0.3890188,-0.9217483,0.5172564,11.9,39.7,-0.3078479,0.04036856,0.5120522,-0.4497626,-3.25329,-0.848376,0.6407391,1.43487,0.3066657,-0.1674991,0.1712717,0.1733086,-0.7226216,-0.01292219,-0.02257402,0.7661231,1.478451,0.1545269,0.2441278,1.195822,0.2331945,289.3287,219.8388,21.89113,True
2,0.5,-1.029468,0.6958007,-0.4401035,-1.289273,-4.468115,-2.3343,0.5265135,1.284829,0.3889701,-0.9191288,0.2319198,11.9,39.7,-0.3003009,0.03499115,0.5226147,-0.4457631,-3.242495,-0.8549397,0.6385096,1.435039,0.3062654,-0.1557674,0.1573855,0.1774464,-0.720449,-0.01105505,-0.02272182,0.7643073,1.478629,0.1546094,0.2391798,1.198812,0.2344346,289.4145,220.7231,21.3072,True
2,0.5111111,-0.9547583,0.6728683,-0.4070168,-1.291807,-4.475627,-2.32384,0.5235587,1.285918,0.388941,-0.9157099,0.3070326,11.9,39.7,-0.306977,0.01811039,0.4884973,-0.4426642,-3.235733,-0.8573323,0.636295,1.435094,0.3059471,-0.149344,0.1403097,0.1848073,-0.718082,-0.009479522,-0.02250185,0.7624072,1.478703,0.1546562,0.2342643,1.201516,0.2357067,289.5525,221.5795,20.77685,True
2,0.5222223,-0.8041598,0.5928087,-0.3587913,-1.293154,-4.480375,-2.318332,0.5207415,1.286692,0.3888829,-0.9132182,0.2210382,10.2,35.4,-0.2734159,-0.007134587,0.425233,-0.4401965,-3.232594,-0.8580282,0.634086,1.435151,0.3057015,-0.1515139,0.1413939,0.1795005,-0.7162593,-0.006946989,-0.02262835,0.7605724,1.478829,0.1546993,0.2296189,1.204124,0.2370773,289.4999,222.2609,20.46161,True
2,0.5333334,-0.7346866,0.5463486,-0.3383618,-1.294483,-4.486245,-2.310438,0.518052,1.287591,0.388818,-0.9064649,0.611335,10.2,35.4,-0.2437869,-0.01978099,0.4004208,-0.4372442,-3.226477,-0.8618229,0.6318283,1.435303,0.3054996,-0.1525902,0.1403397,0.1773856,-0.7142747,-0.004394881,-0.02288907,0.7586911,1.478888,0.1547489,0.2253826,1.206618,0.2385554,289.2454,222.719,20.38149,True
2,0.5444446,-0.6940827,0.5210298,-0.3244154,-1.296037,-4.492108,-2.302514,0.5153666,1.288316,0.3887689,-0.904213,0.1961677,10.2,35.4,-0.2004443,-0.02702059,0.3605972,-0.4350977,-3.222536,-0.8646038,0.62952,1.43545,0.3052938,-0.1601479,0.1286643,0.1667565,-0.7128238,-0.002744254,-0.02211116,0.7568257,1.479055,0.1547651,0.2212996,1.208949,0.2400353,288.9743,223.0657,20.43205,True
2,0.5555557,-0.632135,0.4894301,-0.3072519,-1.29753,-4.497464,-2.296,0.5129619,1.288812,0.3888464,-0.8961319,0.7329689,10.2,35.4,-0.1794046,-0.02473266,0.3295373,-0.4330705,-3.217598,-0.8676406,0.6272283,1.43553,0.3050947,-0.1686859,0.1212318,0.1657214,-0.7111769,-0.0008978848,-0.02137852,0.7548517,1.479231,0.1548827,0.2175407,1.210893,0.2414668,288.614,222.9935,20.90024,True
2,0.5666668,-0.5649516,0.4770194,-0.291271,-1.299411,-4.502985,-2.290515,0.5105785,1.289294,0.3889139,-0.8894015,0.6045057,10.2,35.4,-0.1795241,0.007283151,0.3179736,-0.4318087,-3.210168,-0.8722854,0.6249551,1.435549,0.30478,-0.1664334,0.1094594,0.183781,-0.7085532,0.0005530054,-0.02072285,0.7528162,1.479457,0.1549244,0.2138835,1.212363,0.2427965,288.4258,223.2139,20.98829,True
2,0.577778,-0.5062885,0.4656284,-0.2752991,-1.301261,-4.508296,-2.285373,0.5083727,1.28973,0.3891561,-0.8844102,0.4473416,7.2,29.5,-0.1763083,0.06052369,0.3235316,-0.4312393,-3.199429,-0.880183,0.622674,1.435552,0.3044789,-0.1545033,0.1030518,0.2102798,-0.7055678,0.001953029,-0.02025973,0.7508175,1.479647,0.1549556,0.2102672,1.21344,0.2440485,288.3812,223.6729,20.76786,True
2,0.5888891,-0.4539052,0.4405444,-0.2518066,-1.303299,-4.514048,-2.280475,0.5059827,1.290208,0.3895564,-0.8794456,0.4461681,7.2,29.5,-0.161405,0.1425349,0.3280622,-0.4321714,-3.185848,-0.8912375,0.620501,1.435417,0.3042047,-0.1363135,0.09330595,0.2250545,-0.7023757,0.003215767,-0.02049702,0.748755,1.479802,0.1549573,0.2068537,1.214173,0.2453066,288.3718,224.194,20.4528,True
2,0.6000003,-0.4111057,0.4014395,-0.2271337,-1.304636,-4.517553,-2.276412,0.5037182,1.290658,0.3897443,-0.8737011,0.5173404,7.2,29.5,-0.1382294,0.172523,0.299242,-0.4329581,-3.177235,-0.8983055,0.6183059,1.435339,0.3040671,-0.1106587,0.07298163,0.240775,-0.6992555,0.003534547,-0.0203564,0.7466679,1.47998,0.1549511,0.2036375,1.214588,0.246628,288.38,224.8059,20.02438,True
2,0.6111114,-0.3842733,0.3579922,-0.2152089,-1.305529,-4.521471,-2.271807,0.5014447,1.291096,0.3898244,-0.8680062,0.512259,7.2,29.5,-0.1154262,0.1302934,0.2221399,-0.4328026,-3.177244,-0.8976778,0.6161887,1.435395,0.3039918,-0.09994958,0.05908829,0.251301,-0.6962307,0.003991945,-0.01982111,0.7446167,1.480132,0.1548984,0.2005752,1.214729,0.2480782,288.4444,225.498,19.47488,True
2,0.6222225,-0.3316971,0.2687599,-0.208386,-1.304265,-4.523127,-2.269388,0.4993534,1.291391,0.3898959,-0.8622985,0.5135797,7.2,29.5,-0.07767248,0.05504343,0.1468769,-0.4318944,-3.181293,-0.8943363,0.6140855,1.435491,0.303937,-0.09470619,0.04312219,0.2437569,-0.693755,0.003998204,-0.01895079,0.7425957,1.480266,0.1547809,0.1974915,1.214678,0.2496919,288.5618,226.315,18.84225,True
2,0.6333337,-0.3049594,0.2422393,-0.2072107,-1.304281,-4.526367,-2.265769,0.4973233,1.291541,0.3897593,-0.8560247,0.5654404,3.5,28.5,-0.04589254,0.02108134,0.123004,-0.4307285,-3.180915,-0.8951779,0.6119744,1.435415,0.3037786,-0.08839449,0.02289237,0.2361892,-0.6914551,0.003449326,-0.01785809,0.7406067,1.480425,0.1546559,0.1944501,1.214483,0.2513624,288.7083,227.1694,18.34626,True
2,0.6444448,-0.261236,0.2306909,-0.2093202,-1.30438,-4.529716,-2.263422,0.4953755,1.291692,0.3898156,-0.8517886,0.3787004,3.5,28.5,-0.01311998,0.01272406,0.09285314,-0.4305836,-3.18121,-0.8959063,0.6099452,1.435372,0.303587,-0.07891384,-0.02398095,0.2317199,-0.6889843,0.0007048056,-0.01517443,0.738494,1.480568,0.1545236,0.1914738,1.214201,0.2529505,288.8818,227.8641,18.09142,True
2,0.655556,-0.2346417,0.2392934,-0.212587,-1.305131,-4.533615,-2.260607,0.4934948,1.291884,0.3898296,-0.8455781,0.5610461,3.5,28.5,-0.01082861,0.04990907,0.1132571,-0.4307951,-3.174588,-0.9018499,0.6079488,1.435413,0.3033278,-0.07889859,-0.03252411,0.2359593,-0.6861395,-0.0003004046,-0.01345189,0.736474,1.480758,0.1543665,0.188777,1.213777,0.2543394,289.0008,228.1482,18.21968,True
2,0.6666671,-0.199582,0.2661634,-0.1957202,-1.307111,-4.537433,-2.258651,0.4916628,1.291933,0.390008,-0.8413496,0.3783409,3.5,28.5,-0.01273984,0.1040886,0.1433599,-0.4314705,-3.165694,-0.9096586,0.6058565,1.435349,0.3031199,-0.05851032,-0.05605549,0.2591713,-0.6824648,-0.002436393,-0.01194428,0.7342185,1.480951,0.1543274,0.1862293,1.213223,0.2554708,289.1298,228.5982,18.03607,True
2,0.6777782,-0.1655469,0.2823762,-0.1787883,-1.309111,-4.540975,-2.256904,0.4899634,1.292,0.3901911,-0.8358789,0.4936788,2.3,40.2,-0.009485342,0.1338778,0.1520014,-0.4321895,-3.158459,-0.9162478,0.6038841,1.435253,0.3029366,-0.05186807,-0.04870293,0.2911006,-0.678223,-0.002856906,-0.01114773,0.7319891,1.481151,0.1542821,0.1838341,1.212567,0.2564374,289.2683,229.068,17.66206,True
2,0.6888894,-0.1506287,0.2846434,-0.1649656,-1.310784,-4.544216,-2.254914,0.4880983,1.292089,0.390368,-0.8315039,0.3923821,2.3,40.2,-0.01286247,0.1637928,0.1329974,-0.4338939,-3.153005,-0.9209379,0.6018278,1.435067,0.3027546,-0.05600825,-0.02955463,0.3029069,-0.6744716,-0.002303767,-0.01079938,0.7298099,1.481339,0.154263,0.1815066,1.21187,0.2573488,289.4363,229.684,17.06627,True
2,0.7000005,-0.1196129,0.2614006,-0.1520774,-1.311628,-4.54651,-2.254146,0.4862628,1.292091,0.3905902,-0.826666,0.435794,2.3,40.2,-0.005598187,0.1788149,0.1117072,-0.4354918,-3.148369,-0.9252871,0.5999351,1.434836,0.3026984,-0.04956564,-0.0178651,0.307154,-0.6708721,-0.002013616,-0.01064359,0.7277162,1.481508,0.15417,0.179266,1.211165,0.2583203,289.5516,230.4108,16.37113,True
2,0.7111117,-0.1088585,0.2390953,-0.1466243,-1.312262,-4.548765,-2.252718,0.4844632,1.292162,0.3909111,-0.8214062,0.4739147,2.3,40.2,0.000556469,0.1800157,0.08396047,-0.43707,-3.145578,-0.9280557,0.5979453,1.434729,0.3026528,-0.04326326,-0.02105003,0.2975001,-0.6680098,-0.002801246,-0.0096228,0.7255858,1.48158,0.1540074,0.1770958,1.210446,0.259394,289.6508,231.1422,15.74583,True
2,0.7222228,-0.09914424,0.2082308,-0.148598,-1.312114,-4.550904,-2.251442,0.4827904,1.292121,0.3910422,-0.8175068,0.3493603,2.3,40.2,0.0290193,0.1439998,0.04625615,-0.4378024,-3.146405,-0.9284999,0.5960011,1.434527,0.3026915,-0.03693593,-0.02529955,0.2899818,-0.6650829,-0.00347183,-0.008922655,0.7235627,1.481705,0.1539047,0.1748759,1.209714,0.260543,289.7675,231.7706,15.29034,True
2,0.7333339,-0.08417536,0.1933411,-0.154919,-1.312253,-4.553433,-2.250326,0.4811758,1.292091,0.3912003,-0.812196,0.4795521,1.6,56.1,0.04270312,0.1377228,0.02586931,-0.4391052,-3.144839,-0.9308653,0.5939606,1.43439,0.3025777,-0.04012972,-0.02849101,0.291059,-0.6618925,-0.004045741,-0.007880027,0.7214906,1.48184,0.1538446,0.1726953,1.208915,0.2617515,289.8619,232.1984,15.05536,True
2,0.7444451,-0.07139156,0.1923061,-0.159187,-1.312693,-4.556333,-2.249201,0.479586,1.291979,0.3913538,-0.8074737,0.4244215,1.6,56.1,0.04267947,0.1473207,0.02378548,-0.4405486,-3.141865,-0.9340745,0.5921074,1.434204,0.3024535,-0.04226664,-0.0274193,0.2900132,-0.6587563,-0.004488491,-0.006973754,0.7195203,1.48197,0.1537473,0.1705695,1.208027,0.263001,289.9891,232.6344,14.8227,True
2,0.7555562,-0.05970978,0.2030252,-0.154986,-1.313806,-4.559124,-2.248281,0.4779374,1.291835,0.3914135,-0.8029532,0.406552,1.6,56.1,0.02785024,0.1717561,0.0357549,-0.4421715,-3.136328,-0.9388239,0.5901854,1.433998,0.3023129,-0.02946499,-0.02638936,0.2920501,-0.6554514,-0.005055479,-0.006676545,0.7174178,1.482077,0.1536276,0.1685328,1.207037,0.2642556,290.1447,233.0394,14.6443,True
2,0.7666674,-0.0437755,0.215921,-0.1465483,-1.315171,-4.562034,-2.24762,0.476425,1.291707,0.3916113,-0.7982255,0.4255316,1.6,56.1,0.02472617,0.1887543,0.0454528,-0.443819,-3.131149,-0.9436592,0.5884138,1.433721,0.3022034,-0.01989886,-0.02426451,0.2887866,-0.6523924,-0.005342434,-0.006559366,0.7154608,1.482191,0.153558,0.166573,1.20595,0.2655127,290.3174,233.5127,14.36959,True
2,0.7777785,-0.03739388,0.2191896,-0.1380525,-1.316357,-4.564668,-2.246652,0.4750059,1.291608,0.3917089,-0.7935219,0.4231458,3.7,78.2,0.02363232,0.1951589,0.04230398,-0.4454217,-3.127182,-0.9475223,0.5867818,1.433583,0.3021398,-0.01559418,-0.01896176,0.2930299,-0.6490299,-0.00549024,-0.006407832,0.7135947,1.482268,0.1534536,0.1646248,1.204773,0.2667761,290.4929,234.1136,13.95953,True
2,0.7888896,-0.02771125,0.20122,-0.1187905,-1.317141,-4.566131,-2.246313,0.4735517,1.291575,0.3918707,-0.7887735,0.4271076,3.7,78.2,0.02559568,0.1995152,0.02313198,-0.4475517,-3.124727,-0.9500678,0.5851424,1.433414,0.30212,-0.005948901,-0.02432473,0.3014639,-0.6453676,-0.006117547,-0.00616575,0.7117416,1.482382,0.1533728,0.1626685,1.203513,0.2680297,290.6713,234.8395,13.43776,True
2,0.8000008,-0.0125886,0.1544669,-0.1078969,-1.316771,-4.566852,-2.24652,0.4721986,1.291596,0.3919356,-0.7832208,0.5004732,3.7,78.2,0.03610432,0.1804368,0.004844449,-0.4489275,-3.123818,-0.9516617,0.5835052,1.433308,0.3020103,-0.001708001,-0.02752616,0.2982265,-0.6421952,-0.006962968,-0.005726329,0.7099688,1.482527,0.1532242,0.160812,1.202176,0.2692937,290.8593,235.5843,12.89533,True
2,0.8111119,-0.008233495,0.1321023,-0.1099022,-1.316659,-4.568359,-2.246209,0.4708322,1.29149,0.3919721,-0.7780697,0.4628726,3.7,78.2,0.0498583,0.1400299,-0.009318359,-0.4493541,-3.124889,-0.9517443,0.5820847,1.433084,0.3018408,-0.004046351,-0.03490249,0.2726561,-0.6401376,-0.00793622,-0.004798484,0.7083129,1.482623,0.1530855,0.1590852,1.200774,0.2705365,291.0861,236.3034,12.40444,True
2,0.8222231,-0.0006582104,0.1022714,-0.116141,-1.315825,-4.569659,-2.246122,0.4695758,1.291479,0.3920219,-0.7727886,0.474988,3.7,78.2,0.048971,0.1133045,0.00974384,-0.4491208,-3.122705,-0.9542053,0.5805854,1.432978,0.3017128,0.002165362,-0.03697784,0.2502356,-0.6381136,-0.008687631,-0.004377438,0.7066326,1.48269,0.152971,0.1575213,1.199295,0.2716867,291.3311,236.8811,12.06988,True
2,0.8333342,0.001495101,0.09693839,-0.1182354,-1.315784,-4.57126,-2.245826,0.468344,1.291414,0.3921041,-0.7664929,0.5673264,6.1,100,0.04385523,0.113179,0.03428787,-0.449426,-3.118702,-0.958105,0.5791329,1.432879,0.3016655,0.01163638,-0.04226787,0.2362985,-0.6359085,-0.009533584,-0.004107926,0.7050055,1.482749,0.1529076,0.1561276,1.197683,0.2726784,291.5785,237.2523,11.90548,True
2,0.8444453,0.00146734,0.1033243,-0.1193351,-1.315974,-4.573223,-2.245355,0.4672301,1.291353,0.3921776,-0.7603335,0.5539109,6.1,100,0.04081733,0.1492923,0.05579968,-0.4510148,-3.112042,-0.9643687,0.5778778,1.432732,0.3015635,0.01474671,-0.04437254,0.2256151,-0.633762,-0.01047714,-0.00362909,0.7035393,1.482814,0.1528468,0.1547957,1.195903,0.2735268,291.8512,237.6076,11.65961,True
2,0.8555565,0.002441622,0.1278882,-0.1098716,-1.317371,-4.575415,-2.244902,0.4661423,1.29123,0.3922923,-0.7535595,0.6099302,6.1,100,0.04504653,0.1578335,0.05261222,-0.4524444,-3.108583,-0.9681563,0.576488,1.432624,0.3015585,0.00938338,-0.03263155,0.2193001,-0.6314973,-0.01044359,-0.00348448,0.7020174,1.482839,0.1527941,0.1535414,1.193956,0.2743079,292.1763,237.9409,11.35551,True
2,0.8666676,0.0002254434,0.1524564,-0.09507874,-1.318952,-4.577315,-2.244407,0.4650406,1.291154,0.3924241,-0.7464798,0.6372401,6.1,100,0.04472858,0.154819,0.01531306,-0.4543944,-3.108596,-0.9686332,0.5752667,1.432476,0.3015943,0.01677629,-0.03155317,0.2107236,-0.6295015,-0.01091031,-0.003547597,0.7006897,1.482889,0.1527314,0.1523338,1.191864,0.2751066,292.5394,238.4256,10.87729,True
2,0.8777788,-0.008323535,0.1631708,-0.07701752,-1.320509,-4.578925,-2.24364,0.464094,1.291082,0.3925557,-0.7391604,0.6585871,16,100,0.04559254,0.1272451,-0.0103972,-0.4553084,-3.109929,-0.9679818,0.5740699,1.432384,0.3015881,0.02195737,-0.04430082,0.1946723,-0.6277987,-0.01259462,-0.002588859,0.6992188,1.482978,0.1526053,0.1511805,1.189668,0.2760015,292.929,239.0605,10.27554,True
2,0.8888899,-0.01576084,0.1621304,-0.06635127,-1.321558,-4.580342,-2.242949,0.4632055,1.291081,0.3927031,-0.7311783,0.7185764,16,100,0.05086,0.1038505,-0.01907562,-0.4558341,-3.110111,-0.9685677,0.5730524,1.432273,0.3015907,0.02505414,-0.05386208,0.1839686,-0.6260772,-0.01416908,-0.001632784,0.6980059,1.483019,0.1524966,0.1500594,1.187401,0.2770346,293.3156,239.8788,9.550649,True
2,0.900001,-0.009332437,0.1579989,-0.04715976,-1.322916,-4.581235,-2.242854,0.4623966,1.29105,0.3927925,-0.7225225,0.7794449,16,100,0.06797108,0.08252414,-0.01293412,-0.4560019,-3.109698,-0.9702349,0.5721446,1.432222,0.3016181,0.03553681,-0.05701445,0.161509,-0.6249603,-0.0154474,-0.001401089,0.6968279,1.483029,0.1524034,0.1489881,1.185078,0.2781948,293.7125,240.7468,8.854585,True
2,0.9111122,-0.01460218,0.1452298,-0.04069006,-1.323725,-4.582234,-2.242233,0.4615343,1.290969,0.3929143,-0.713733,0.7907766,16,100,0.07870378,0.068637,-0.00457485,-0.4561638,-3.108946,-0.9721379,0.5711614,1.432257,0.3017426,0.0460937,-0.06339444,0.1518299,-0.6233959,-0.01699723,-0.0008580705,0.6955789,1.483039,0.1523459,0.148045,1.182716,0.2794407,294.1298,241.5668,8.261018,True
2,0.9222233,-0.01449775,0.12074,-0.03842814,-1.323929,-4.582852,-2.241903,0.4609272,1.290981,0.392967,-0.7049717,0.7878413,16,100,0.07557565,0.04410538,0.001730081,-0.4557489,-3.108662,-0.9731212,0.5704301,1.432248,0.3016682,0.05137664,-0.08044125,0.1496089,-0.6217719,-0.01956824,0.0004442153,0.6944787,1.48306,0.1522205,0.1472546,1.180316,0.2807212,294.5585,242.3082,7.763742,True
2,0.9333345,-0.01656082,0.1047624,-0.03514329,-1.324233,-4.58344,-2.24148,0.4602926,1.290945,0.3929687,-0.6947654,0.9195939,33.7,100,0.07346776,0.04303294,0.003879339,-0.4561537,-3.107654,-0.9747707,0.5696782,1.432295,0.3016915,0.05023791,-0.08574242,0.1410778,-0.6204723,-0.02150383,0.001521464,0.6934199,1.483156,0.1521609,0.1466146,1.177827,0.2819695,294.9532,243.0108,7.30579,True
2,0.9444456,-0.01866177,0.09946718,-0.02765561,-1.324935,-4.584061,-2.24105,0.4596717,1.29089,0.3930366,-0.6846976,0.9054992,33.7,100,0.08195754,0.051576,0.0006520376,-0.4569521,-3.10672,-0.9768224,0.5688878,1.432283,0.3017306,0.05011202,-0.08356686,0.1240456,-0.6195642,-0.02303195,0.002204831,0.6924578,1.483101,0.1520827,0.146072,1.175187,0.2831488,295.3756,243.6341,6.891906,True
2,0.9555568,-0.01970686,0.09630373,-0.02018507,-1.325704,-4.584714,-2.240615,0.4591715,1.290815,0.3930318,-0.6740221,0.9610496,33.7,100,0.08503228,0.05483891,-0.01320973,-0.4579194,-3.107062,-0.977598,0.5682306,1.43228,0.3017714,0.05742934,-0.08777747,0.1058744,-0.6187999,-0.02471853,0.002596848,0.6915436,1.482989,0.1521127,0.1457234,1.172379,0.2842479,295.8498,244.1759,6.53157,True
2,0.9666679,-0.02398424,0.1027277,-0.01063282,-1.326863,-4.585495,-2.240028,0.4586892,1.290755,0.3930531,-0.6630749,0.985173,33.7,100,0.07751396,0.05060949,-0.02062325,-0.4585409,-3.107481,-0.9778331,0.5676804,1.432149,0.3018367,0.05734245,-0.08561278,0.0941627,-0.6181468,-0.02624998,0.003212039,0.6906486,1.482987,0.1520643,0.1454929,1.16938,0.2852525,296.3769,244.7454,6.103735,True
2,0.977779,-0.02932006,0.1070123,-0.002128083,-1.328105,-4.586157,-2.239365,0.458194,1.290675,0.393137,-0.6518539,1.009914,33.7,100,0.07431537,0.03888899,-0.02171877,-0.4586342,-3.107953,-0.9781021,0.5671189,1.432094,0.3019478,0.06050791,-0.07068574,0.08779494,-0.6172706,-0.02670272,0.002885801,0.689809,1.483012,0.1519973,0.1453597,1.166203,0.2861784,296.9492,245.3777,5.578584,True
2,0.9888902,-0.0378046,0.1006329,0.006441485,-1.329088,-4.586484,-2.238632,0.457659,1.290509,0.3932588,-0.6402602,1.04358,68.1,100,0.07103755,0.0101777,-0.03354507,-0.4583146,-3.110361,-0.9766967,0.5666549,1.432007,0.301954,0.06374062,-0.05897308,0.08886432,-0.6162768,-0.02711511,0.002268747,0.6890815,1.482962,0.1518888,0.145347,1.16288,0.2870468,297.5651,246.0347,5.016296,True
2,1.000001,-0.04198799,0.08251693,0.008673556,-1.329446,-4.586565,-2.238004,0.4571769,1.290516,0.3932872,-0.6284634,1.06177,68.1,100,0.07310899,-0.01428101,-0.04220477,-0.4579273,-3.113026,-0.9751753,0.5662125,1.432012,0.3020051,0.06793074,-0.05789169,0.07925141,-0.6156563,-0.02833617,0.002368882,0.6884772,1.482902,0.1518352,0.1454233,1.159459,0.2878847,298.2221,246.7068,4.416447,True
2,1.011112,-0.04296264,0.06227259,0.008784654,-1.329541,-4.586531,-2.237624,0.4566935,1.290556,0.3933351,-0.6164526,1.081134,68.1,100,0.07318527,-0.02816527,-0.03482246,-0.4574794,-3.114245,-0.9749606,0.5657076,1.432054,0.3020492,0.06671063,-0.05996577,0.06008016,-0.615562,-0.02968799,0.002836533,0.6878525,1.483022,0.1517897,0.1455441,1.15598,0.2887203,298.8878,247.333,3.847174,True
2,1.022224,-0.04500481,0.03877623,-0.0006749462,-1.329039,-4.586567,-2.237048,0.456264,1.290634,0.3933096,-0.6044854,1.076877,68.1,100,0.06370288,-0.03036392,-0.02303355,-0.4570166,-3.114736,-0.9750264,0.5653583,1.432082,0.3019633,0.06231321,-0.06310531,0.04305957,-0.6156169,-0.03108308,0.003403254,0.6873196,1.483048,0.1516984,0.1456897,1.152476,0.2895689,299.5585,247.8874,3.364048,True
2,1.033335,-0.04063635,0.01211394,-0.0090544,-1.328298,-4.586375,-2.236851,0.4558634,1.290642,0.3933001,-0.5926939,1.060947,100,100,0.05639493,-0.02298968,-0.004821883,-0.4568157,-3.113507,-0.9764786,0.5649234,1.432074,0.3019483,0.05907418,-0.05988996,0.03777119,-0.6152397,-0.03209495,0.00378089,0.6867696,1.483025,0.1515574,0.1459061,1.149005,0.2904329,300.2584,248.3573,2.986815,True
2,1.044446,-0.0416535,0.001440526,-0.01219118,-1.327996,-4.586391,-2.236452,0.4555284,1.290706,0.3933253,-0.5805159,1.096457,100,100,0.05225332,-0.008150939,0.01020077,-0.4568232,-3.111732,-0.9785165,0.5644957,1.432079,0.3019018,0.05257594,-0.05983963,0.02397206,-0.6154432,-0.03326821,0.004382232,0.6862826,1.483007,0.1514559,0.1462012,1.145603,0.2913201,300.9479,248.7575,2.68365,True
2,1.055557,-0.03524763,-0.0006347818,-0.006859791,-1.328003,-4.586253,-2.236309,0.455164,1.290756,0.3933265,-0.5689103,1.043902,100,100,0.05027242,0.01412777,0.02950541,-0.4570735,-3.108603,-0.981818,0.5641838,1.432094,0.3019514,0.04929792,-0.06087387,0.01440617,-0.615595,-0.03457702,0.005090899,0.6857044,1.482983,0.1514678,0.1465663,1.142288,0.2922387,301.6149,249.0891,2.456303,True
2,1.066668,-0.03209812,0.01110482,-0.004790683,-1.328461,-4.586516,-2.236,0.4549128,1.290792,0.3933339,-0.5571263,1.060947,100,100,0.05130926,0.03118176,0.0274443,-0.4577255,-3.107213,-0.9836732,0.5639809,1.432067,0.3020358,0.04715774,-0.05660317,0.01230443,-0.6155657,-0.0353982,0.005329518,0.6852419,1.482966,0.1514165,0.1470052,1.139057,0.2931937,302.2384,249.3948,2.257421,True
2,1.077779,-0.0299864,0.01536908,-0.005880956,-1.328646,-4.586798,-2.235671,0.4545322,1.290871,0.3933532,-0.5460061,1.000462,100,100,0.04679584,0.008958574,-0.003520273,-0.4578027,-3.11011,-0.9814271,0.5637238,1.432004,0.3020818,0.04826003,-0.05876043,0.0176109,-0.6152222,-0.03686627,0.005935654,0.6849541,1.482804,0.1512728,0.1475057,1.135922,0.2941779,302.86,249.7738,2.005078,True
2,1.08889,-0.03203483,-0.001669295,-0.002586704,-1.32818,-4.586223,-2.235478,0.4541593,1.290972,0.3934267,-0.5350807,0.9835158,100,100,0.04564165,-0.01974567,-0.01643131,-0.4570469,-3.11286,-0.979488,0.5634149,1.431921,0.3020368,0.05151857,-0.05026039,0.02400335,-0.61473,-0.03731621,0.00561421,0.6845484,1.482793,0.1512516,0.14804,1.132895,0.2951538,303.4697,250.1948,1.741347,True
2,1.100002,-0.04257963,-0.02836266,-0.005629188,-1.32711,-4.585595,-2.234772,0.4536762,1.291075,0.3934517,-0.5247029,0.9339874,100,100,0.05731801,-0.06657253,-0.02421076,-0.4553505,-3.116601,-0.9770973,0.5631031,1.431881,0.3021221,0.05255407,-0.04492337,0.0186809,-0.6147742,-0.03792821,0.005453355,0.684182,1.48274,0.1512227,0.1485906,1.129999,0.2960936,304.0717,250.6254,1.466592,True
2,1.111113,-0.05212111,-0.0390773,-0.009821509,-1.326431,-4.585339,-2.234034,0.4533148,1.291213,0.3934858,-0.5147523,0.8956339,100,100,0.05621511,-0.07826414,-0.02958857,-0.454722,-3.119019,-0.9755159,0.5627723,1.431886,0.3021557,0.04928178,-0.04062503,0.00806678,-0.6150683,-0.03844233,0.005477057,0.6838433,1.482728,0.1512218,0.1490816,1.127249,0.2969798,304.6595,250.958,1.259605,True
2,1.122224,-0.06808472,-0.04341647,-0.01191312,-1.325822,-4.585098,-2.232806,0.4529135,1.29125,0.3934784,-0.5048949,0.8878508,100,100,0.03709714,-0.08150285,-0.02304818,-0.4538873,-3.120445,-0.9739939,0.5624496,1.431812,0.3021433,0.03758474,-0.02782184,0.007130676,-0.6150054,-0.0382635,0.005207545,0.6835079,1.482659,0.1512575,0.1495187,1.12466,0.297792,305.2125,251.1476,1.170558,True
2,1.133335,-0.07987501,-0.02860129,-0.02156847,-1.325618,-4.585685,-2.231436,0.4525729,1.291247,0.3933699,-0.4961964,0.7824283,100,100,0.01818313,-0.05929334,0.009180827,-0.4534298,-3.117967,-0.9757545,0.5620679,1.431752,0.3020954,0.03018701,-0.008645445,0.01043838,-0.6147566,-0.03734684,0.004293548,0.6831711,1.482625,0.1512597,0.1498548,1.122262,0.2985162,305.7522,251.2774,1.117038,True
2,1.144446,-0.08744302,-0.00308867,-0.02595887,-1.326019,-4.586568,-2.229998,0.4521891,1.291289,0.3933704,-0.4877047,0.7649436,100,100,0.01085982,-0.03700989,0.02639775,-0.4532375,-3.115799,-0.9775644,0.5617084,1.431708,0.3020456,0.02590324,-0.002234608,0.00622877,-0.6148323,-0.03697813,0.003858121,0.6828097,1.482595,0.1512609,0.150139,1.120127,0.2991651,306.2354,251.4336,1.024608,True
2,1.155557,-0.09396424,0.0277719,-0.02611474,-1.326908,-4.587545,-2.228543,0.4517356,1.291397,0.3933194,-0.4804167,0.6555199,100,100,-0.001763392,-0.02007188,0.04682985,-0.4528833,-3.11313,-0.9795096,0.561366,1.431814,0.3020773,0.01099812,0.003115236,0.006354176,-0.614845,-0.03673271,0.004021639,0.6823801,1.482552,0.1512816,0.150318,1.118275,0.2997299,306.6518,251.6165,0.9205779,True
2,1.166668,-0.1025463,0.04266028,-0.02405546,-1.327512,-4.588289,-2.226953,0.4511967,1.291503,0.3933184,-0.4741348,0.5653939,100,100,-0.007915445,-0.01488859,0.07567402,-0.4518276,-3.109758,-0.9822004,0.5609983,1.431745,0.3020778,0.006703381,0.008463797,0.001077237,-0.6150006,-0.0362861,0.00373029,0.6819878,1.48255,0.1513793,0.1503736,1.116752,0.3002176,307.003,251.8304,0.7787795,True
2,1.17778,-0.1121129,0.03944382,-0.01977009,-1.327632,-4.588544,-2.225384,0.4505332,1.291676,0.3932822,-0.4687323,0.4862629,100,100,-0.01435637,-0.02444897,0.06929068,-0.4510372,-3.109421,-0.982104,0.5605952,1.431675,0.3021276,0.006760756,0.01803057,0.006435988,-0.6146672,-0.03553922,0.003009905,0.6814905,1.482521,0.1514499,0.1502795,1.115599,0.300647,307.2939,252.0801,0.5861746,True
2,1.188891,-0.1322191,0.009559177,-0.01425857,-1.326989,-4.587909,-2.223508,0.4498639,1.291769,0.3933246,-0.4639056,0.4346401,100,100,-0.02405184,-0.0488838,0.05540574,-0.4499064,-3.110802,-0.9802433,0.560201,1.431611,0.3022213,0.014293,0.02545885,0.01385532,-0.614298,-0.0345376,0.00168152,0.6810294,1.482491,0.1515615,0.1500015,1.114832,0.3010103,307.5056,252.3196,0.4173578,True
2,1.200002,-0.1651525,-0.01405457,-0.02155662,-1.325936,-4.587705,-2.220696,0.4491909,1.291853,0.3933415,-0.4598235,0.3673813,100,100,-0.01776397,-0.07544461,0.041373,-0.4485013,-3.112944,-0.9782957,0.5597577,1.431555,0.3023252,0.02072502,0.02330068,0.01912594,-0.613914,-0.03429579,0.000989098,0.6807016,1.482439,0.1516678,0.1495135,1.114425,0.3012964,307.6248,252.4614,0.3444971,True
2,1.211113,-0.1907132,-0.01630914,-0.02471121,-1.325609,-4.587905,-2.217785,0.4486424,1.291967,0.3933203,-0.4559225,0.351752,100,100,-0.01032762,-0.09778893,0.03693714,-0.4469413,-3.114584,-0.9770145,0.5593408,1.43159,0.3023047,0.01651666,0.01902476,0.0266018,-0.6134043,-0.03419792,0.0008639295,0.6802039,1.482375,0.151696,0.1488344,1.114329,0.3014872,307.6414,252.4622,0.3994106,False
2,1.222224,-0.2205433,-0.01644507,-0.02681147,-1.325228,-4.588074,-2.214294,0.4478944,1.292141,0.393347,-0.4522069,0.3352431,100,100,-0.01019168,-0.09573607,0.05292618,-0.4455213,-3.113774,-0.9776368,0.5588372,1.431536,0.3023109,0.00702383,0.02326769,0.03841006,-0.6125553,-0.03344837,0.000535828,0.6797811,1.482265,0.1517727,0.148026,1.114474,0.3015704,307.5706,252.3329,0.5486658,False
2,1.233335,-0.2311858,-0.01859771,-0.02145274,-1.325012,-4.58779,-2.21154,0.4470966,1.292292,0.3932858,-0.4497696,0.2188184,100,100,-0.01097746,-0.07033449,0.08714566,-0.4444741,-3.109541,-0.9813064,0.558286,1.431394,0.3022225,-0.01515523,0.03068873,0.06203263,-0.6111981,-0.03247139,0.0006213155,0.6792914,1.482084,0.151809,0.1471174,1.114833,0.301566,307.4857,252.203,0.6645958,False
2,1.244446,-0.2365454,-0.0100866,-0.01936123,-1.325031,-4.58798,-2.208737,0.4462004,1.292579,0.3932552,-0.4472358,0.2288167,100,100,-0.02577269,-0.0448499,0.1033791,-0.4438605,-3.105943,-0.9837491,0.5577191,1.431214,0.3021033,-0.02579541,0.03709758,0.06213218,-0.6105521,-0.0313747,0.000309193,0.6787666,1.482009,0.1518993,0.1461597,1.115415,0.3014989,307.3876,252.1468,0.6970075,False
2,1.255558,-0.2451404,0.007998308,-0.01838231,-1.325527,-4.588573,-2.205689,0.4453767,1.292838,0.393137,-0.4461562,0.09588481,100,100,-0.0406033,-0.02999683,0.1142321,-0.4431282,-3.102636,-0.9858074,0.5571151,1.431149,0.3020122,-0.03646726,0.04138262,0.05902248,-0.6101579,-0.03041703,0.0002511361,0.6783142,1.481913,0.151989,0.145059,1.116189,0.3013724,307.2924,252.0988,0.7306843,False
2,1.266669,-0.263385,0.03880662,-0.02065458,-1.326534,-4.589629,-2.201903,0.4443655,1.29321,0.3930204,-0.4448715,0.1159514,100,100,-0.05526581,-0.02482356,0.1442118,-0.4416128,-3.097894,-0.9889857,0.5564193,1.431132,0.301893,-0.04078836,0.04780936,0.04948444,-0.6099576,-0.02906933,-0.0003270362,0.6777542,1.481885,0.1520536,0.1438412,1.117119,0.3011654,307.1428,252.0271,0.8051398,False
2,1.27778,-0.275244,0.06958794,-0.03252582,-1.327552,-4.591317,-2.198051,0.4433623,1.293532,0.3928132,-0.4434882,0.1247898,100,100,-0.08052838,-0.02820591,0.1795687,-0.4395116,-3.092204,-0.9923966,0.5557237,1.431159,0.3016891,-0.04606854,0.05206008,0.05486295,-0.6091923,-0.02787624,-0.0006079997,0.6771314,1.481839,0.1520817,0.1425354,1.118169,0.3008935,306.9645,251.9841,0.8332003,False
2,1.288891,-0.2859809,0.08870458,-0.03581055,-1.328597,-4.592704,-2.194177,0.4423635,1.293842,0.3925972,-0.4417982,0.1528511,100,100,-0.08465527,-0.02935427,0.1955781,-0.4377379,-3.087546,-0.9955258,0.5549954,1.431213,0.3016317,-0.04287533,0.04992688,0.05483279,-0.6085483,-0.02698315,-0.0009922938,0.676497,1.481858,0.1521385,0.1411663,1.119311,0.3005788,306.7846,252.0137,0.7835151,False
2,1.300002,-0.2957578,0.1333833,-0.04029901,-1.330608,-4.594962,-2.190049,0.4411963,1.2943,0.3924155,-0.4409577,0.07513729,100,100,-0.08128214,-0.05181654,0.2146161,-0.4349374,-3.083174,-0.9986838,0.5541711,1.431301,0.3014369,-0.0502666,0.05310875,0.06342479,-0.607499,-0.02577341,-0.001112402,0.6756972,1.481883,0.1522381,0.1396447,1.120548,0.30024,306.6485,252.1061,0.6699993,False
2,1.311113,-0.298978,0.1397696,-0.03820172,-1.331742,-4.596227,-2.186365,0.440197,1.294671,0.392189,-0.4401672,0.07126795,100,100,-0.09497795,-0.07854156,0.2305869,-0.4317096,-3.079452,-1.000555,0.5533923,1.431229,0.3012564,-0.05023457,0.06055729,0.06663542,-0.606764,-0.02414555,-0.001849565,0.6750567,1.481951,0.1523528,0.1379896,1.121905,0.2999119,306.4806,252.1847,0.5832548,False
2,1.322224,-0.3107564,0.154646,-0.0361388,-1.333428,-4.59789,-2.182098,0.4386846,1.295204,0.391973,-0.4395153,0.05870865,100,100,-0.1118001,-0.08293743,0.2562783,-0.4287908,-3.07332,-1.004324,0.5524153,1.431255,0.3010488,-0.05862158,0.07864001,0.08060214,-0.6054121,-0.0215222,-0.003058641,0.6742741,1.481977,0.1524756,0.1362425,1.123393,0.2996079,306.2872,252.2854,0.4915487,False
2,1.333336,-0.3310204,0.159883,-0.03614647,-1.334668,-4.599279,-2.177468,0.4372647,1.295615,0.3917243,-0.4392064,0.02750261,100,100,-0.1330949,-0.07336515,0.2586395,-0.4269287,-3.067777,-1.007173,0.5513586,1.431271,0.3007751,-0.07343892,0.09568614,0.08929756,-0.6040129,-0.01862162,-0.004201936,0.6734983,1.481925,0.152601,0.1344068,1.125029,0.2993425,306.0691,252.4442,0.3654589,False
2,1.344447,-0.3502509,0.1714867,-0.04258116,-1.336149,-4.601191,-2.172499,0.4357897,1.296076,0.3915184,-0.4383079,0.08164568,77.9,100,-0.1510719,-0.06493153,0.274815,-0.4246624,-3.061146,-1.010945,0.5501939,1.431241,0.3004959,-0.07984194,0.1052925,0.08617994,-0.6031831,-0.01610813,-0.005189169,0.6726537,1.481878,0.152673,0.1325366,1.12677,0.2990922,305.8098,252.5361,0.3341439,False
2,1.355558,-0.359839,0.1703094,-0.05748045,-1.337109,-4.60334,-2.167876,0.434063,1.296723,0.3912201,-0.4374892,0.07398316,77.9,100,-0.1615192,-0.06292176,0.2994173,-0.4219939,-3.0535,-1.015806,0.549085,1.43131,0.3002243,-0.08620942,0.1095606,0.0873044,-0.6022323,-0.01371355,-0.006146043,0.6719285,1.481814,0.1528149,0.130424,1.128554,0.2988205,305.5818,252.6499,0.2837103,False
2,1.366669,-0.3542542,0.1031324,-0.07417026,-1.335532,-4.603879,-2.163939,0.4321052,1.29729,0.3908637,-0.4369912,0.04479957,77.9,100,-0.1870014,-0.08215381,0.3080655,-0.4186755,-3.047687,-1.018172,0.5476995,1.431298,0.2998888,-0.1042349,0.1287435,0.0949594,-0.6008544,-0.009978731,-0.007448063,0.6709563,1.481805,0.1529214,0.128153,1.130407,0.2985128,305.3392,252.7311,0.2558162,False
2,1.37778,-0.3315618,0.02217392,-0.09080523,-1.332661,-4.603817,-2.160976,0.4299384,1.298025,0.3905101,-0.4371973,-0.01922941,77.9,100,-0.2115013,-0.09175804,0.307164,-0.4156811,-3.042723,-1.01963,0.5461532,1.431153,0.2995305,-0.1286172,0.1415233,0.1079719,-0.5991952,-0.006459896,-0.008099206,0.6697708,1.48184,0.1530085,0.1257338,1.132365,0.2981848,305.1109,252.8237,0.1843252,False
2,1.388891,-0.336618,-0.0482746,-0.1127955,-1.329449,-4.604005,-2.15693,0.4277819,1.298696,0.3901577,-0.4373901,-0.01754469,75.3,100,-0.2314303,-0.08555849,0.343588,-0.4123836,-3.032858,-1.025505,0.5444596,1.431062,0.2991261,-0.1434022,0.1542896,0.1219759,-0.5973662,-0.002676211,-0.009213738,0.6685892,1.481851,0.1532238,0.1231153,1.134421,0.297864,304.8572,252.7721,0.2455266,False
2,1.400002,-0.3342759,-0.1059442,-0.1412529,-1.325582,-4.604432,-2.15309,0.4253136,1.299411,0.389859,-0.4380543,-0.0607558,75.3,100,-0.2750372,-0.0685876,0.3536403,-0.4099042,-3.023686,-1.029393,0.5426042,1.430756,0.2986572,-0.1591986,0.1712999,0.1423886,-0.5951329,0.001709883,-0.01055784,0.667209,1.481854,0.1534545,0.1203196,1.136478,0.2975573,304.543,252.3911,0.6315646,False
2,1.411114,-0.2584674,-0.1493567,-0.1506894,-1.322085,-4.604469,-2.152682,0.4229438,1.300085,0.3894546,-0.436907,0.1052514,75.3,100,-0.2962441,-0.03777853,0.3678284,-0.4079792,-3.01327,-1.034966,0.5409108,1.430586,0.2982795,-0.170802,0.184062,0.1552965,-0.5930881,0.006050303,-0.01186145,0.6657877,1.48188,0.1536653,0.1174415,1.138441,0.2972908,304.2019,251.8526,1.154546,False
2,1.422225,-0.1858766,-0.1918075,-0.1771687,-1.317538,-4.604885,-2.153101,0.4201208,1.300692,0.3892195,-0.4368846,0.001017543,75.3,100,-0.3205189,-0.0006483495,0.3969819,-0.4063153,-2.9996,-1.043034,0.5385194,1.430389,0.2978749,-0.1928567,0.2127568,0.1907062,-0.589749,0.01220966,-0.01404551,0.6641258,1.481877,0.1539419,0.1144877,1.140254,0.2971001,303.9435,251.3635,1.616601,False
2,1.433336,-0.223057,-0.2197049,-0.185503,-1.313556,-4.605044,-2.148948,0.4174604,1.301362,0.3889384,-0.4400224,-0.2869751,75.3,100,-0.3507993,-0.0004062653,0.3439749,-0.4051733,-2.995261,-1.04227,0.5358376,1.430168,0.2974901,-0.226705,0.2223185,0.2197605,-0.5863759,0.01738179,-0.01477948,0.6623265,1.48179,0.1541717,0.1114226,1.141921,0.2970269,303.767,250.9022,2.067255,False
2,1.444447,-0.324184,-0.2349832,-0.1736031,-1.310023,-4.604556,-2.141913,0.4141027,1.301819,0.3887563,-0.440873,-0.07561047,48.7,100,-0.3661436,0.0328415,0.2963278,-0.4055435,-2.989729,-1.042713,0.5329878,1.429858,0.2971017,-0.2691855,0.2244648,0.2371417,-0.5832024,0.0220595,-0.01425484,0.6603937,1.4818,0.1545131,0.1084241,1.143339,0.2971043,303.4953,250.4021,2.586593,False
2,1.455558,-0.3465671,-0.229746,-0.1714794,-1.306957,-4.604831,-2.137416,0.4109308,1.302296,0.3885098,-0.4358806,0.4565719,48.7,100,-0.3758461,0.07123566,0.284884,-0.4057656,-2.980623,-1.046721,0.5303403,1.429548,0.2966318,-0.3062526,0.2489544,0.2609326,-0.5796083,0.0286395,-0.0151193,0.6583936,1.481833,0.1549022,0.1054034,1.144267,0.2974067,303.2599,249.8934,3.102273,False
2,1.466669,-0.3231358,-0.2307443,-0.1778917,-1.303561,-4.605346,-2.134575,0.4074954,1.302725,0.3881917,-0.4322289,0.3297848,48.7,100,-0.4119223,0.1105358,0.3045616,-0.4060484,-2.968345,-1.052092,0.5271999,1.429185,0.2960827,-0.3284735,0.2649148,0.2781978,-0.5759672,0.03507689,-0.01610653,0.6563811,1.481817,0.1552441,0.1022174,1.144803,0.2978666,303.3959,249.6566,3.455685,False
2,1.47778,-0.2996534,-0.2445575,-0.1895601,-1.299533,-4.605794,-2.131904,0.4035108,1.303119,0.3877792,-0.434875,-0.2441566,48.7,100,-0.4532959,0.1327713,0.3263417,-0.4054583,-2.955693,-1.057249,0.5240747,1.42885,0.295625,-0.3558557,0.2754945,0.3178487,-0.5712651,0.04157434,-0.01665115,0.6540947,1.481834,0.1557007,0.09850235,1.145294,0.2982768,303.8303,249.5846,3.744271,False
2,1.488891,-0.3060027,-0.2563358,-0.1948177,-1.295508,-4.606021,-2.128084,0.4000217,1.303603,0.3873551,-0.4370886,-0.1998638,41.3,100,-0.4852841,0.1593924,0.3256781,-0.4060346,-2.944675,-1.060897,0.5207177,1.428461,0.294966,-0.3652825,0.2818552,0.3360413,-0.5672107,0.0479646,-0.01785996,0.6519496,1.481692,0.1561387,0.09451577,1.146118,0.2985365,304.0924,249.4219,4.104686,False
2,1.500003,-0.3209207,-0.258597,-0.2075744,-1.291503,-4.606817,-2.123774,0.3959667,1.304027,0.3868196,-0.4373842,-0.0255684,41.3,100,-0.5249863,0.1659209,0.2930255,-0.4067297,-2.93711,-1.060666,0.5171305,1.427787,0.2943015,-0.3865023,0.2893172,0.3458145,-0.5630828,0.0546466,-0.01848314,0.6494567,1.481601,0.1566579,0.09026697,1.147264,0.2986395,304.0352,249.0729,4.559638,False
2,1.511114,-0.329441,-0.2629375,-0.2160664,-1.287546,-4.607552,-2.119556,0.39197,1.304425,0.3862813,-0.4360681,0.1202549,41.3,100,-0.5795448,0.205409,0.26919,-0.4084554,-2.928063,-1.060883,0.5134898,1.426943,0.293637,-0.4012349,0.3020569,0.3672662,-0.5584905,0.06177309,-0.01958276,0.6470329,1.481447,0.1571417,0.08577924,1.148614,0.2986218,303.7871,248.5725,5.10021,False
2,1.522225,-0.3699339,-0.2620814,-0.2234872,-1.283619,-4.608444,-2.113787,0.3876449,1.304705,0.3855891,-0.4355488,0.04640704,41.3,100,-0.6015807,0.2616482,0.3122671,-0.4102919,-2.911764,-1.068408,0.509707,1.426146,0.2929742,-0.4274735,0.3381904,0.4112524,-0.5524701,0.07152612,-0.02215936,0.6443648,1.481227,0.1577249,0.08131517,1.150156,0.29851,303.5287,248.0687,5.641161,False
2,1.533336,-0.4051261,-0.2569607,-0.2351983,-1.279844,-4.609724,-2.107724,0.3831821,1.304932,0.3849573,-0.4356218,-0.006925022,41.3,100,-0.6088762,0.2519642,0.3303981,-0.4102775,-2.899141,-1.073171,0.5058285,1.425359,0.2923634,-0.4346865,0.3690231,0.4359031,-0.5469456,0.08159233,-0.02582281,0.6414999,1.480998,0.1584024,0.07662502,1.151808,0.2983039,303.3084,247.578,6.166894,False
2,1.544447,-0.4660842,-0.2072883,-0.2620364,-1.27726,-4.612644,-2.099874,0.3785982,1.305033,0.384129,-0.4342252,0.1278837,82.2,100,-0.6334036,0.201912,0.3239735,-0.4091388,-2.890857,-1.072886,0.5017838,1.424516,0.2916737,-0.455046,0.3765613,0.4190364,-0.542944,0.09041525,-0.02761938,0.6386945,1.480731,0.159122,0.07174709,1.153542,0.2980237,303.0684,247.072,6.71731,False
2,1.555558,-0.5984595,-0.1330985,-0.2292786,-1.277285,-4.614366,-2.088451,0.3738323,1.304925,0.3833141,-0.4340654,0.01358755,82.2,100,-0.6569451,0.1838633,0.3102327,-0.4090695,-2.883022,-1.071998,0.4976473,1.423687,0.2910202,-0.4731952,0.3915256,0.4106994,-0.5388597,0.09982886,-0.02982447,0.6359512,1.480506,0.1598616,0.06653079,1.155326,0.2976501,302.8554,246.5876,7.261739,False
2,1.566669,-0.6039459,-0.08605564,-0.1933032,-1.2774,-4.615567,-2.081147,0.3690338,1.304858,0.3824971,-0.433022,0.09562796,82.2,100,-0.6899674,0.1987519,0.3116547,-0.4097966,-2.872108,-1.073094,0.4933424,1.422636,0.2903354,-0.5017217,0.4266563,0.4344591,-0.5333773,0.1119915,-0.0336549,0.6329198,1.480173,0.1606741,0.06098791,1.157205,0.2972049,302.6244,246.1367,7.754677,False
2,1.577781,-0.61277,-0.00821469,-0.1724055,-1.278833,-4.617991,-2.073691,0.3642193,1.304465,0.3815303,-0.4294406,0.3269746,82.2,100,-0.7037061,0.2103969,0.325683,-0.4104048,-2.85925,-1.076559,0.4889597,1.421575,0.2897229,-0.5141824,0.4361506,0.474009,-0.5267115,0.1228147,-0.03691834,0.6296499,1.4799,0.1614511,0.05510098,1.159268,0.2967044,302.3659,245.922,8.062138,False
2,1.588892,-0.6183397,0.05040651,-0.1631265,-1.280151,-4.620652,-2.065799,0.3593922,1.304291,0.3805652,-0.4335818,-0.3809095,100,88.1,-0.7272099,0.1664179,0.2996046,-0.4099313,-2.851615,-1.075065,0.484647,1.420401,0.289031,-0.5266314,0.4498913,0.5156932,-0.5198698,0.134102,-0.04040575,0.6263835,1.479546,0.1623271,0.04891201,1.161731,0.2959732,302.1375,246.0005,8.212826,False
2,1.600003,-0.6236976,0.05239549,-0.1855033,-1.279418,-4.623533,-2.057916,0.3545592,1.303977,0.3795254,-0.4346918,-0.09760359,100,88.1,-0.7466043,0.1615445,0.2895939,-0.409502,-2.845322,-1.071578,0.4802055,1.418875,0.2882528,-0.5435373,0.4807769,0.5276325,-0.5138974,0.1474837,-0.04548546,0.6230552,1.479027,0.1631472,0.04271331,1.164629,0.2948917,301.6009,245.8291,8.579421,False
2,1.611114,-0.6270391,0.09188652,-0.1686621,-1.28087,-4.625779,-2.050305,0.3496211,1.303681,0.3785279,-0.4345933,0.009600977,100,88.1,-0.753804,0.1741688,0.3206067,-0.4094578,-2.832082,-1.07525,0.4758539,1.417682,0.2872887,-0.5563346,0.4797351,0.5266623,-0.5085136,0.1585822,-0.04864051,0.6196068,1.478384,0.1639645,0.03659473,1.167734,0.2934867,300.8219,245.5714,8.889634,False
2,1.622225,-0.625919,0.0791134,-0.1675299,-1.28046,-4.627682,-2.04288,0.3447776,1.303474,0.3773484,-0.4348117,-0.01999759,100,88.1,-0.801572,0.1676546,0.3401621,-0.4087729,-2.820308,-1.075538,0.471424,1.416374,0.2862768,-0.5627424,0.4957399,0.5214318,-0.5032591,0.1715149,-0.05352048,0.6162745,1.477801,0.1648498,0.03057951,1.170865,0.2918768,300.0347,245.1318,9.217428,False
2,1.633336,-0.6225605,0.04187962,-0.1598795,-1.278936,-4.628554,-2.035964,0.3400463,1.303411,0.3762476,-0.4350716,-0.02352526,100,88.1,-0.8203912,0.1940828,0.3798653,-0.4089327,-2.805182,-1.080281,0.4670202,1.415027,0.2855999,-0.5659251,0.518133,0.5193866,-0.4980804,0.1857483,-0.05968277,0.6129217,1.477179,0.1656766,0.02461865,1.173848,0.2902334,299.3207,244.4972,9.652549,False
2,1.644447,-0.6093653,-0.05607207,-0.1593697,-1.274725,-4.628321,-2.029855,0.3352469,1.303339,0.3749721,-0.4353038,-0.02093494,100,68,-0.8345001,0.2628406,0.4783332,-0.4097273,-2.779409,-1.09438,0.4628415,1.413405,0.2845707,-0.5657702,0.5489857,0.5333249,-0.4922544,0.2013857,-0.06742964,0.6095665,1.476374,0.166523,0.01871533,1.176604,0.2886342,298.699,244.0831,9.946014,False
2,1.655559,-0.6124842,-0.07526205,-0.1581977,-1.272645,-4.629184,-2.022726,0.3304802,1.303145,0.373898,-0.435625,-0.02919864,100,68,-0.8523064,0.2712071,0.5083555,-0.4096778,-2.762139,-1.101052,0.4586666,1.412004,0.2838235,-0.5657036,0.5841493,0.5376775,-0.4867774,0.2185096,-0.07608944,0.6059284,1.475709,0.1672027,0.01297661,1.17908,0.2870988,298.2159,243.5791,10.41321,False
2,1.66667,-0.6214412,-0.2167962,-0.1222795,-1.26579,-4.625701,-2.016598,0.3258293,1.30311,0.3725967,-0.4361864,-0.05106304,100,68,-0.8564736,0.2349435,0.5167378,-0.4081747,-2.74702,-1.105396,0.4546022,1.410517,0.2829499,-0.5520636,0.5714159,0.513033,-0.4824939,0.2318551,-0.08235266,0.6025253,1.474803,0.1680396,0.007485756,1.181257,0.28562,297.8598,242.8577,11.13351,False
2,1.677781,-0.6170406,-0.2531097,-0.1380699,-1.26117,-4.6258,-2.009927,0.3211309,1.302952,0.3714621,-0.4355611,0.05761509,100,68,-0.8608421,0.1806849,0.5015989,-0.4060234,-2.735885,-1.105999,0.4502559,1.408872,0.2818637,-0.5511274,0.5554699,0.5065818,-0.477468,0.2451827,-0.08765182,0.5991324,1.473827,0.1688507,0.002156352,1.183079,0.2841725,297.5953,241.9709,12.00306,False
2,1.688892,-0.6147123,-0.3010607,-0.1420779,-1.255793,-4.625095,-2.003477,0.3165837,1.303011,0.3702064,-0.4352447,0.02843702,100,68,-0.8353418,0.1189712,0.48936,-0.4029192,-2.725695,-1.10711,0.4464042,1.407222,0.2810292,-0.5425773,0.5629079,0.5086685,-0.4723915,0.2604856,-0.0955915,0.5957566,1.472804,0.169584,-0.003056807,1.184596,0.2827558,297.4105,241.2568,12.71336,False
2,1.700003,-0.6339955,-0.2810062,-0.1613407,-1.252825,-4.626636,-1.995344,0.3119224,1.303139,0.3688009,-0.4357981,-0.05081524,100,47.5,-0.7828897,0.05069536,0.5141441,-0.3986954,-2.71272,-1.112221,0.4426243,1.405633,0.280118,-0.5257524,0.5534057,0.4808215,-0.4685603,0.2750815,-0.103385,0.5922089,1.471855,0.1707299,-0.008076876,1.185849,0.2812142,297.3731,240.2423,13.76425,False
2,1.711114,-0.6594006,-0.327049,-0.1855624,-1.24704,-4.62711,-1.987019,0.307313,1.303555,0.3676426,-0.4358876,-0.007566979,100,47.5,-0.7473692,0.02597153,0.5552617,-0.3948216,-2.696016,-1.120443,0.4385518,1.404487,0.2794304,-0.5024412,0.5736914,0.4594225,-0.4648047,0.2923778,-0.1140605,0.5887448,1.470964,0.1719053,-0.01308111,1.186962,0.2795893,297.389,239.4138,14.49406,False
2,1.722225,-0.696557,-0.368996,-0.2311093,-1.240398,-4.628751,-1.977555,0.3028148,1.304175,0.3666403,-0.4349459,0.08612959,100,47.5,-0.681306,-0.003352523,0.6781297,-0.3889946,-2.669362,-1.139817,0.4347787,1.403329,0.2785215,-0.4864786,0.5736731,0.4571693,-0.4606384,0.3079619,-0.1231789,0.5855039,1.469901,0.1726768,-0.01807968,1.188107,0.2779385,297.462,238.7867,14.98505,False
2,1.733337,-0.7250992,-0.4311056,-0.2669585,-1.232523,-4.629788,-1.968254,0.2984394,1.304772,0.3655496,-0.4344377,0.04585005,100,47.5,-0.6595986,-0.0376578,0.7225264,-0.3837764,-2.648135,-1.152783,0.4309415,1.40191,0.2773924,-0.4929551,0.5630541,0.4465764,-0.4565095,0.322447,-0.1305404,0.582311,1.468846,0.1735733,-0.02325434,1.18952,0.2763205,297.5713,238.3334,15.29603,False
2,1.744448,-0.7702631,-0.5890665,-0.2863097,-1.220054,-4.628686,-1.958603,0.294306,1.30594,0.3647819,-0.4338225,0.0559909,100,25.9,-0.6235555,0.04020429,0.7076808,-0.3833977,-2.627475,-1.166137,0.4275804,1.400779,0.2764671,-0.4763921,0.5333644,0.3898997,-0.4548173,0.3343444,-0.1364092,0.579421,1.467764,0.1739922,-0.02851199,1.191416,0.274823,297.687,237.4414,16.00499,False
2,1.755559,-0.78388,-0.645603,-0.2891915,-1.210765,-4.62833,-1.949698,0.2902502,1.306722,0.3637366,-0.4339834,-0.01496937,100,25.9,-0.5607027,0.1105469,0.7138777,-0.3839676,-2.604041,-1.183413,0.4240752,1.399844,0.2757251,-0.445822,0.4641536,0.3607149,-0.4519928,0.3419145,-0.1394125,0.5759902,1.466671,0.1744971,-0.03380416,1.193967,0.2735693,297.702,236.221,17.05964,False
2,1.76667,-0.7770573,-0.7565168,-0.318429,-1.189526,-4.628641,-1.932608,0.2826967,1.308926,0.3619123,-0.4332249,0.06971478,100,25.9,-0.5327252,-0.71185,0.9344178,-0.3415888,-2.573451,-1.201393,0.4177032,1.397504,0.2742312,-0.4035939,0.3299528,0.3375629,-0.4462414,0.3512072,-0.1400982,0.569573,1.464447,0.1751039,-0.03896493,1.197189,0.2725971,297.562,234.585,18.64849,False
2,1.777781,-0.7619482,-0.8044255,-0.3245803,-1.17827,-4.628457,-1.924771,0.2792018,1.310022,0.3610725,-0.4257915,0.679231,100,25.9,-0.4392631,-0.4021993,0.7998214,-0.347403,-2.55533,-1.216841,0.4151143,1.396611,0.2741609,-0.3683516,0.2978874,0.355311,-0.4420198,0.3576388,-0.1431034,0.566698,1.463408,0.1754093,-0.0447003,1.200932,0.2717855,297.5729,232.322,20.98999,False
2,1.788892,-0.7458441,-0.8396041,-0.3414553,-1.167133,-4.62902,-1.916771,0.2759151,1.310756,0.3601277,-0.4355083,-0.8934193,100,29,-0.3597534,-0.3832194,0.6330454,-0.3454242,-2.555256,-1.215637,0.4121824,1.395765,0.2733645,-0.3332156,0.2743596,0.3613405,-0.4383196,0.3642558,-0.1464938,0.5637711,1.46245,0.1760526,-0.05218378,1.205438,0.2708533,297.987,230.0382,23.51506,False
2,1.800003,-0.7320599,-0.8279076,-0.3564464,-1.15739,-4.630439,-1.90862,0.2725537,1.311474,0.3592927,-0.4372058,-0.1466422,100,29,-0.3663975,-0.4640171,0.5975632,-0.3349314,-2.548294,-1.217812,0.4096621,1.394313,0.272887,-0.3132782,0.2456674,0.3259556,-0.4362604,0.3691162,-0.1481162,0.5614577,1.461188,0.1762891,-0.05822764,1.210846,0.2699411,297.515,227.7664,26.04203,False
2,1.811115,-0.6673724,-0.7638178,-0.3749512,-1.149947,-4.633108,-1.902175,0.2697302,1.311686,0.3585453,-0.4372996,-0.00820985,100,29,-0.3888016,-0.3415588,0.6036747,-0.3329676,-2.527476,-1.232097,0.406707,1.393201,0.2721922,-0.292133,0.2318383,0.3076434,-0.4338092,0.3751481,-0.1510564,0.5588856,1.460096,0.1766896,-0.06257738,1.21645,0.2690514,296.6119,225.0564,28.96732,False
2,1.822226,-0.6046856,-0.7350008,-0.4145805,-1.14116,-4.636668,-1.896066,0.2666789,1.312074,0.3578353,-0.4373379,-0.003610005,100,29,-0.4109094,-0.2565326,0.6405069,-0.3305169,-2.502027,-1.250576,0.4040852,1.391989,0.2714171,-0.2868961,0.2222387,0.2990648,-0.4308904,0.3808986,-0.1531557,0.5562579,1.459125,0.1769786,-0.06590948,1.221577,0.2681521,295.8199,222.0441,32.10362,False
2,1.833337,-0.5187067,-0.6567824,-0.3980433,-1.135419,-4.639039,-1.892164,0.2641599,1.311678,0.3573551,-0.4393369,-0.1828516,100,48.5,-0.4262397,-0.1402284,0.6007232,-0.3310549,-2.482817,-1.263681,0.4013705,1.39042,0.2705524,-0.2826318,0.2350218,0.2969386,-0.4281383,0.3891575,-0.1576767,0.5538498,1.45802,0.1771998,-0.06894725,1.225832,0.2672803,295.3082,219.4153,34.73478,False
2,1.844448,-0.4731341,-0.6011658,-0.3919854,-1.129306,-4.641529,-1.887004,0.2613836,1.311478,0.3565919,-0.4399212,-0.05204858,100,48.5,-0.50754,-0.2225624,0.4337665,-0.3259715,-2.49004,-1.248455,0.3987033,1.388964,0.26986,-0.2858526,0.2361037,0.2916594,-0.4253132,0.3968753,-0.1614784,0.551258,1.456871,0.1773589,-0.07194109,1.228969,0.2665863,295.0002,217.2927,36.77275,False
2,1.855559,-0.4117345,-0.5049521,-0.377651,-1.125801,-4.644667,-1.883124,0.2587552,1.310573,0.3562496,-0.4411825,-0.1154553,100,48.5,-0.3223992,-0.2329735,0.4065521,-0.3218979,-2.482898,-1.257651,0.3961054,1.387504,0.2693756,-0.3009003,0.2447046,0.2726239,-0.4234107,0.4051058,-0.1650838,0.5487185,1.455699,0.1776097,-0.07509962,1.230893,0.2662451,294.9695,215.651,38.32142,False
2,1.86667,-0.3514721,-0.3873697,-0.3506492,-1.124183,-4.647727,-1.879708,0.2562414,1.309429,0.3560364,-0.4395739,0.1475908,100,48.5,-0.2456783,-0.2180227,0.4102306,-0.3185663,-2.468756,-1.27124,0.3935568,1.386067,0.2688365,-0.3029834,0.253232,0.2758659,-0.4207539,0.4140827,-0.1698633,0.5462924,1.45438,0.1777351,-0.0781517,1.23157,0.2663237,295.0075,214.7184,39.32349,False
2,1.877781,-0.3514721,-0.3873697,-0.3506492,-1.124183,-4.647727,-1.879708,0.2562414,1.309429,0.3560364,-0.4404213,-0.07923535,100,48.5,-0.2456783,-0.2180227,0.4102306,-0.3185663,-2.468756,-1.27124,0.3935568,1.386067,0.2688365,-0.3029834,0.253232,0.2758659,-0.4207539,0.4140827,-0.1698633,0.5462924,1.45438,0.1777351,-0.08126113,1.231162,0.2667031,295.2764,214.6321,39.622,False
2,1.888893,-0.3081593,-0.2922002,-0.3181797,-1.123401,-4.650336,-1.876624,0.2536599,1.30818,0.3558295,-0.4424847,-0.1882289,100,48.5,-0.2580907,-0.3028322,0.3236311,-0.312278,-2.473546,-1.263286,0.3910397,1.384338,0.2687395,-0.2869355,0.2606428,0.2832214,-0.4179181,0.4232824,-0.1756272,0.5439363,1.453049,0.1780963,-0.08366597,1.229985,0.2673694,295.6004,215.2917,39.16932,False
2,1.900004,-0.225938,-0.06674188,-0.2544879,-1.129197,-4.653296,-1.875483,0.2515478,1.306276,0.3557987,-0.4399526,0.2325957,100,61.7,-0.1845303,-0.2138316,0.2136973,-0.3128969,-2.476725,-1.260252,0.3887652,1.38267,0.2685616,-0.2710842,0.3150341,0.2555588,-0.416854,0.4370014,-0.1856599,0.5416611,1.451482,0.1786063,-0.08462457,1.228343,0.2682083,295.8969,216.3265,38.35462,False
2,1.911115,-0.1880538,0.05182637,-0.2221354,-1.132353,-4.65615,-1.873157,0.2492586,1.304765,0.3555324,-0.4392309,0.06338915,100,61.7,-0.1879565,-0.1636512,0.1905333,-0.3123867,-2.472699,-1.261844,0.3861985,1.381025,0.2682014,-0.2668834,0.3342367,0.2438634,-0.4153897,0.4488365,-0.1936169,0.5392873,1.450147,0.1790617,-0.08633105,1.226361,0.2689984,296.2303,217.1,37.74198,False
2,1.922226,-0.139699,0.2195671,-0.1698242,-1.140076,-4.659026,-1.872039,0.2471345,1.30248,0.3554962,-0.4407931,-0.1434982,100,61.7,-0.1776094,-0.0314206,0.1655108,-0.3166717,-2.46486,-1.267424,0.3838823,1.379371,0.2680883,-0.2657298,0.3864493,0.2429372,-0.4141024,0.4652705,-0.2057508,0.5370984,1.448559,0.1797268,-0.0888565,1.224346,0.2696963,296.4512,217.9247,37.04494,False
2,1.933337,-0.1019069,0.3648977,-0.1141888,-1.148053,-4.661219,-1.870981,0.2452413,1.300364,0.3552749,-0.4392442,0.1426663,100,61.7,-0.18663,0.1083538,0.1183276,-0.3223751,-2.459799,-1.269746,0.3816916,1.377701,0.2679257,-0.2570898,0.4119956,0.251467,-0.4121327,0.4802916,-0.2169525,0.534974,1.447071,0.1802843,-0.09165808,1.222457,0.2702979,296.3236,218.9784,36.15081,False
2,1.944448,-0.06386135,0.4483806,-0.07206792,-1.155632,-4.663193,-1.870695,0.2432057,1.298035,0.3551154,-0.4397753,-0.05036034,82.6,67.5,-0.1618888,0.2147263,0.1537894,-0.3275267,-2.445059,-1.282819,0.3794966,1.375941,0.2676926,-0.2454578,0.3992181,0.242818,-0.4105977,0.491702,-0.2249998,0.5328923,1.445605,0.1808448,-0.0945093,1.220781,0.2707456,296.1863,219.8972,35.43064,False
2,1.955559,-0.02667265,0.4774264,-0.04882757,-1.161744,-4.665018,-1.870916,0.2411023,1.295876,0.3549073,-0.4391835,0.05441637,82.6,67.5,-0.1642366,0.1892903,0.1270537,-0.328168,-2.44223,-1.283495,0.3774024,1.374101,0.2675576,-0.2307245,0.3939376,0.2213792,-0.4098775,0.5029721,-0.2331187,0.5307436,1.444184,0.1813779,-0.09707566,1.219322,0.2710141,295.807,220.756,34.7573,False
2,1.966671,0.005339034,0.4723901,-0.02007093,-1.166822,-4.66584,-1.871829,0.2391762,1.293622,0.3546259,-0.4393539,-0.01637982,82.6,67.5,-0.2041777,0.1033043,0.05986149,-0.3269787,-2.448804,-1.273631,0.3753291,1.372131,0.2674148,-0.2136465,0.3789756,0.2286622,-0.4080772,0.5135262,-0.2410621,0.5287343,1.442824,0.1818526,-0.09926119,1.21801,0.2710335,295.3489,221.5251,34.16272,False
2,1.977782,0.01192407,0.4320776,0.006769828,-1.169814,-4.665932,-1.871897,0.2373559,1.291553,0.3542416,-0.4394024,-0.004552734,82.6,67.5,-0.1789129,0.1684411,0.03012776,-0.3305351,-2.447647,-1.27347,0.3733135,1.370474,0.2672551,-0.195365,0.3852921,0.2487775,-0.4059323,0.5267784,-0.2516767,0.526701,1.441551,0.182349,-0.1012835,1.216703,0.270791,294.898,221.9339,33.81932,False
2,1.988893,0.02600077,0.3810661,0.01874931,-1.172289,-4.666066,-1.872636,0.2354566,1.289458,0.3538551,-0.4392719,0.01161008,82.6,67.5,-0.2012405,0.07788344,0.02881315,-0.3282756,-2.448814,-1.269391,0.3713343,1.368572,0.2670517,-0.1791988,0.389461,0.2721024,-0.4033917,0.540112,-0.2625246,0.5246978,1.440265,0.1828041,-0.1032561,1.215271,0.2703564,294.5203,222.0652,33.64634,False
2,2.000004,0.06380007,0.2663236,0.04702808,-1.171541,-4.664302,-1.87518,0.2338679,1.287311,0.3533869,-0.4377624,0.1376958,58.1,64.2,-0.2485542,0.0376381,-0.02530984,-0.3280184,-2.455733,-1.258531,0.3696159,1.36667,0.2668633,-0.1545339,0.3797683,0.2974475,-0.4004654,0.5526651,-0.2730505,0.5228074,1.438972,0.1833448,-0.105104,1.213575,0.2697942,294.2219,222.086,33.56183,False
2,2.011115,0.07892107,0.2217797,0.07175045,-1.17308,-4.663256,-1.876705,0.2324345,1.28497,0.3530607,-0.4380043,-0.02350001,58.1,64.2,-0.2413875,0.03887028,-0.05838279,-0.3290549,-2.45939,-1.252607,0.3677742,1.364661,0.2667253,-0.1332524,0.3786673,0.2994158,-0.3983711,0.5654193,-0.2835444,0.5210193,1.437805,0.1836748,-0.1068619,1.211581,0.269116,294.1104,222.1874,33.39757,False
2,2.022226,0.1121452,0.1815885,0.09963105,-1.174277,-4.66137,-1.879778,0.2310112,1.282616,0.3526344,-0.4388474,-0.07696386,58.1,64.2,-0.2640059,0.05710116,-0.08579911,-0.3309574,-2.463656,-1.244952,0.3661192,1.362849,0.2665627,-0.1088338,0.3573418,0.2927754,-0.3963844,0.5756714,-0.2926313,0.5193076,1.436633,0.1840873,-0.1085221,1.209296,0.2683594,294.0948,222.21,33.29561,False
2,2.033337,0.1867588,0.1832175,0.1453464,-1.179388,-4.65836,-1.886997,0.2285024,1.277599,0.3519042,-0.4379052,0.08660872,58.1,64.2,-0.2402294,0.06922588,-0.166911,-0.3344808,-2.478184,-1.225888,0.3628896,1.358983,0.2664378,-0.07707417,0.3456411,0.2690609,-0.3935012,0.5974873,-0.3119124,0.5159204,1.434343,0.1849549,-0.1098622,1.206627,0.2675554,294.1244,222.0065,33.40449,False
2,2.044448,0.2175054,0.2207154,0.1600237,-1.183677,-4.657489,-1.890554,0.227131,1.274749,0.3516147,-0.4410131,-0.285251,38,56.3,-0.241642,-0.01044962,-0.2130934,-0.3332317,-2.491666,-1.210512,0.3613084,1.357074,0.2663825,-0.05578393,0.3573379,0.2636039,-0.3923252,0.6103778,-0.3239743,0.5142848,1.43331,0.1854107,-0.1112488,1.203478,0.2666961,293.9395,221.8691,33.52393,False
2,2.055559,0.2556254,0.2828187,0.1884101,-1.189551,-4.656151,-1.895168,0.2257922,1.271993,0.3512523,-0.4398722,0.1064837,38,56.3,-0.2216778,-0.03903413,-0.2474945,-0.3332818,-2.504623,-1.196458,0.3596962,1.355351,0.2662556,-0.04837286,0.3594752,0.257161,-0.3911465,0.6227239,-0.3350853,0.5126787,1.432223,0.185827,-0.1129696,1.199385,0.2656728,293.4974,221.7533,33.6719,False
2,2.06667,0.2778525,0.3203015,0.2073596,-1.195042,-4.654867,-1.899281,0.2245147,1.269128,0.3509018,-0.4387542,0.1006479,38,56.3,-0.225035,-0.04428318,-0.2656033,-0.3338177,-2.51492,-1.183898,0.3581945,1.353444,0.2661731,-0.04637489,0.3563233,0.2400884,-0.3904727,0.6341691,-0.3451936,0.5110777,1.43117,0.1862533,-0.114155,1.19448,0.2646177,293.5674,222.7014,32.50596,False
2,2.077781,0.2915227,0.3684183,0.2294558,-1.201706,-4.653504,-1.903538,0.2232946,1.266221,0.3504851,-0.4391398,-0.0362864,38,56.3,-0.2454922,0.001620591,-0.2875774,-0.3368494,-2.52441,-1.171408,0.3567138,1.351554,0.2660229,-0.0504801,0.366931,0.2582609,-0.3886085,0.6485857,-0.3578343,0.5096338,1.430035,0.1866882,-0.1150212,1.189135,0.2636566,294.0076,224.3365,30.53049,False
2,2.088892,0.3137519,0.4091545,0.2590397,-1.208496,-4.651642,-1.908371,0.2222009,1.263211,0.3500617,-0.438368,0.07070606,24.5,49.4,-0.2573149,0.01338902,-0.2980635,-0.3390247,-2.533044,-1.159845,0.3553197,1.34972,0.2659688,-0.05821222,0.3904938,0.217897,-0.3894127,0.6623276,-0.3695472,0.5083531,1.428844,0.1871779,-0.1157182,1.183734,0.2628371,294.4993,226.1624,28.43855,False
2,2.100003,0.3180027,0.4145507,0.2685962,-1.214026,-4.649951,-1.912674,0.221183,1.26022,0.3496695,-0.4380879,0.02477733,24.5,49.4,-0.2619117,-0.02902499,-0.3397767,-0.3394012,-2.549379,-1.141335,0.3539392,1.347728,0.2659931,-0.06462851,0.3990412,0.2126439,-0.3891427,0.6760849,-0.3813777,0.506988,1.427748,0.1876311,-0.1163908,1.178532,0.2621412,294.9075,227.8317,26.63778,False
2,2.111114,0.3191367,0.3996702,0.2740022,-1.218866,-4.648111,-1.916942,0.2202771,1.257467,0.3492472,-0.4381987,-0.01050342,24.5,49.4,-0.2346209,-0.004284054,-0.3857,-0.3425661,-2.564587,-1.125255,0.3526999,1.345875,0.2659271,-0.05382177,0.403231,0.2317488,-0.3879427,0.6907977,-0.3947234,0.5056708,1.42678,0.1880045,-0.1170696,1.173699,0.261492,295.1429,229.3534,25.10583,False
2,2.122225,0.3191367,0.3996702,0.2740022,-1.218866,-4.648111,-1.916942,0.2202771,1.257467,0.3492472,-0.4375084,0.0630632,24.5,49.4,-0.2346209,-0.004284054,-0.3857,-0.3425661,-2.564587,-1.125255,0.3526999,1.345875,0.2659271,-0.05382177,0.403231,0.2317488,-0.3879427,0.6907977,-0.3947234,0.5056708,1.42678,0.1880045,-0.1171163,1.171316,0.261189,295.1486,229.6295,25.02474,False
2,2.133336,0.3181151,0.3911678,0.2783167,-1.223813,-4.646288,-1.921116,0.219247,1.254686,0.348856,-0.4336351,0.3535438,24.5,49.4,-0.2365859,-0.01183856,-0.3654877,-0.3438279,-2.574288,-1.113294,0.351524,1.344129,0.2659993,-0.04738462,0.408539,0.2359717,-0.3871624,0.7054289,-0.4080107,0.5042937,1.425798,0.1883838,-0.1167954,1.170391,0.2611365,294.7464,229.6091,25.23441,False
2,2.144447,0.3108294,0.3539269,0.2923798,-1.227764,-4.643467,-1.925312,0.2184419,1.252359,0.3483539,-0.4368969,-0.3011952,24.5,49.4,-0.2430187,0.009485543,-0.3685267,-0.3464171,-2.584538,-1.100532,0.3504215,1.342711,0.2658012,-0.02726531,0.3733773,0.2271942,-0.3862803,0.7150429,-0.4173301,0.5031893,1.424947,0.1886299,-0.1166473,1.170179,0.2611332,294.4721,229.4206,25.45418,False
2,2.155558,0.3034893,0.3262633,0.3021309,-1.231819,-4.640874,-1.929233,0.2176982,1.250185,0.3485389,-0.4372165,-0.02631933,12.9,39,-0.2472175,0.02753469,-0.3577616,-0.3488416,-2.593632,-1.088906,0.3493442,1.341334,0.2664697,-0.01468667,0.3190644,0.2109689,-0.3853205,0.7212167,-0.4233638,0.5020475,1.424161,0.1886806,-0.1171178,1.169698,0.2609761,293.6436,228.9392,26.2341,False
2,2.166669,0.2910185,0.251634,0.3014834,-1.233279,-4.637697,-1.93312,0.2171771,1.24818,0.3481326,-0.4367733,0.0403988,12.9,39,-0.2374851,0.08496496,-0.3373271,-0.3528161,-2.597735,-1.082759,0.3485382,1.339947,0.2663155,0.001396567,0.3072758,0.2267917,-0.3838489,0.7319829,-0.4338585,0.5008557,1.423474,0.1887982,-0.1181365,1.169713,0.2613174,289.2806,236.226,19.2644,False
2,2.17778,0.2892109,0.1749169,0.296574,-1.234168,-4.634505,-1.937396,0.2166976,1.246267,0.3477926,-0.4364383,0.03021588,12.9,39,-0.2385364,0.09454301,-0.3351445,-0.3558367,-2.605211,-1.073047,0.3478101,1.338523,0.2661211,0.02297613,0.2943496,0.264941,-0.38124,0.7440941,-0.4459926,0.4997149,1.422958,0.1887853,-0.1196707,1.169409,0.2614942,287.8981,237.2937,18.84986,False
2,2.188891,0.3043798,0.1109541,0.2777206,-1.23438,-4.631902,-1.942264,0.2164215,1.24426,0.3473573,-0.4361278,0.02811816,12.9,39,-0.2015663,0.127765,-0.3694048,-0.3606634,-2.615824,-1.061886,0.3471049,1.337228,0.2660849,0.06142074,0.2718741,0.2869831,-0.3787622,0.7556757,-0.4584309,0.4984744,1.422213,0.1896043,-0.1207901,1.167683,0.2616545,287.6934,236.8044,19.70549,False
2,2.200002,0.3226593,0.06510287,0.2555774,-1.234472,-4.629465,-1.947313,0.2163002,1.242538,0.3471465,-0.436449,-0.02954709,6.1,29.9,-0.1758664,0.1000152,-0.3559105,-0.3625958,-2.624407,-1.052718,0.3465919,1.336146,0.2659335,0.08696961,0.2281405,0.2930539,-0.3762034,0.7628109,-0.4668745,0.497548,1.421813,0.1894398,-0.1206928,1.166867,0.2604332,288.2397,233.4582,22.97478,False
2,2.211113,0.3269485,0.05221954,0.2343294,-1.235481,-4.627747,-1.951583,0.2160787,1.240602,0.3468716,-0.4372053,-0.06894885,6.1,29.9,-0.1654063,0.1129075,-0.3761792,-0.366451,-2.633831,-1.042215,0.3458441,1.334947,0.2659049,0.09330255,0.2025855,0.2908133,-0.3741518,0.7710981,-0.4757194,0.4965888,1.421323,0.1895297,-0.1204211,1.166238,0.2598467,288.2211,232.2094,24.6183,False
2,2.222224,0.350307,0.06498069,0.211864,-1.237134,-4.626654,-1.956636,0.2160838,1.239142,0.3468161,-0.4373922,-0.01664262,6.1,29.9,-0.1068731,0.1481176,-0.3807707,-0.3712537,-2.640315,-1.037033,0.3453822,1.334252,0.2657516,0.1047957,0.1664133,0.2682485,-0.3724532,0.7753788,-0.4812686,0.4958214,1.421094,0.1892443,-0.1198206,1.165558,0.2596188,287.8311,230.8556,26.20134,False
2,2.233335,0.3714879,0.08833741,0.1818863,-1.239199,-4.626255,-1.961673,0.2160218,1.237545,0.3468306,-0.4367179,0.0616269,6.1,29.9,-0.07890272,0.139446,-0.3480305,-0.3735936,-2.645446,-1.032117,0.3448726,1.333618,0.2656839,0.1162873,0.1227935,0.2456664,-0.370768,0.7785906,-0.485971,0.4951889,1.420859,0.1889141,-0.1190219,1.164832,0.2595952,287.2293,229.338,27.83694,False
2,2.244446,0.3830741,0.1105615,0.1455335,-1.241174,-4.626572,-1.966187,0.2161037,1.236309,0.3469794,-0.4374945,-0.07162292,6.1,29.9,-0.04576164,0.152175,-0.3333322,-0.3769816,-2.649871,-1.028434,0.3444887,1.333053,0.2655985,0.119321,0.09620307,0.2295857,-0.3690587,0.7815847,-0.4902121,0.4945336,1.420633,0.1886246,-0.1183646,1.164125,0.259554,286.7592,227.8637,29.35369,False
2,2.255557,0.3745025,0.1168014,0.1231357,-1.242875,-4.626606,-1.970065,0.2160831,1.235006,0.3470914,-0.4376383,-0.01261184,3.1,20,-0.0224869,0.1213968,-0.3539262,-0.379786,-2.660188,-1.019288,0.3440594,1.332424,0.265502,0.1093881,0.05798547,0.1922662,-0.3679999,0.7816509,-0.4910858,0.4939299,1.420467,0.1883459,-0.1175848,1.163526,0.2595166,285.9083,226.3122,30.98667,False
2,2.266668,0.3447339,0.0952035,0.09239072,-1.243152,-4.626698,-1.97284,0.2161484,1.23415,0.3473847,-0.4371712,0.04261309,3.1,20,0.01492643,0.1543601,-0.3370419,-0.3838627,-2.663773,-1.017312,0.343727,1.33181,0.2654524,0.1102897,0.04527351,0.1741147,-0.3669383,0.7845526,-0.4949623,0.493399,1.420256,0.1881719,-0.1168418,1.162872,0.259746,285.1857,224.9499,32.35659,False
2,2.277779,0.3257221,0.05349397,0.07770623,-1.242583,-4.626106,-1.976164,0.216223,1.233463,0.3475266,-0.4362567,0.08312721,3.1,20,0.0640173,0.125589,-0.3290833,-0.3862952,-2.670421,-1.013462,0.3434608,1.331573,0.2655425,0.109152,0.02931431,0.1676849,-0.3654203,0.7866721,-0.4981459,0.4930615,1.420177,0.1878676,-0.1163838,1.162317,0.2600326,284.6374,224.3522,32.89959,False
2,2.28889,0.3024184,0.0170333,0.05236038,-1.241655,-4.625877,-1.979063,0.2161868,1.232712,0.3476663,-0.4350524,0.1094069,3.1,20,0.06837463,0.0722864,-0.3208517,-0.3872636,-2.678988,-1.006196,0.3432493,1.331113,0.2654946,0.1046601,-0.005760703,0.1441808,-0.364077,0.7852951,-0.4978809,0.4925817,1.420034,0.1875989,-0.1159875,1.161784,0.2603891,284.0747,224.1336,33.06603,False
2,2.300001,0.2876584,-0.02794381,0.02066032,-1.239658,-4.62593,-1.981735,0.2162581,1.232379,0.3478389,-0.4353246,-0.02566773,0.8,13.8,0.07190388,0.1146968,-0.2791263,-0.3904008,-2.679285,-1.006869,0.3430702,1.330923,0.2653649,0.1055426,-0.01954926,0.1228275,-0.3631864,0.7844079,-0.4982191,0.4922457,1.420018,0.1872995,-0.1157784,1.161446,0.260653,283.4915,224.2347,32.73492,False
2,2.311112,0.2823897,-0.04293748,0.01007884,-1.238755,-4.625912,-1.984832,0.2164055,1.231846,0.3478897,-0.4351594,0.01546218,0.8,13.8,0.05945566,0.1347272,-0.2384369,-0.3929899,-2.678765,-1.007487,0.3429447,1.330785,0.2652643,0.1087474,-0.0302209,0.1249048,-0.3614863,0.7849908,-0.5001808,0.4920003,1.419895,0.186903,-0.115609,1.161129,0.2608691,283.2179,224.171,32.68474,False
2,2.322223,0.2536358,-0.04627739,0.005866863,-1.238099,-4.625743,-1.986686,0.2165546,1.231668,0.3480921,-0.4351014,0.005246872,0.8,13.8,0.0770155,0.1962118,-0.1743668,-0.3964776,-2.672236,-1.014917,0.3429233,1.330811,0.2652171,0.1087032,-0.0707082,0.1269175,-0.3591464,0.7815986,-0.4981818,0.4918198,1.419973,0.1865492,-0.1154388,1.160811,0.2610255,282.9902,223.9311,32.82873,False
2,2.333334,0.2365735,-0.04206242,0.00905332,-1.238098,-4.625495,-1.988751,0.2168167,1.231291,0.3482642,-0.4355925,-0.04485427,0.8,13.8,0.09214333,0.1939673,-0.1500022,-0.3985692,-2.671605,-1.01713,0.3429337,1.330745,0.2652557,0.1150052,-0.09732864,0.1193368,-0.3571976,0.7783328,-0.496679,0.4916841,1.419947,0.1861866,-0.1152437,1.160548,0.2611864,282.7674,223.5408,33.1084,False
2,2.344445,0.2152333,-0.03035944,0.02286233,-1.238491,-4.624784,-1.990572,0.2170471,1.231183,0.3484149,-0.4344601,0.1039593,0.8,13.8,0.1028265,0.1375135,-0.1503695,-0.3989682,-2.676106,-1.014522,0.343096,1.330896,0.2653737,0.1137497,-0.1207041,0.09903646,-0.3558281,0.7732843,-0.4931655,0.4916686,1.420063,0.185878,-0.1149942,1.160286,0.2613423,282.4996,222.9993,33.57253,False
2,2.355556,0.2034702,-0.01648973,0.03558516,-1.239118,-4.624074,-1.992699,0.217391,1.231011,0.3485038,-0.4346588,-0.01898929,0,12.4,0.09872479,0.1182488,-0.1333823,-0.3998896,-2.677755,-1.013897,0.3432811,1.331108,0.2654331,0.1157486,-0.1409081,0.08618042,-0.3543613,0.7685362,-0.4900086,0.4916051,1.420186,0.185545,-0.1147684,1.160099,0.26148,282.2639,222.491,34.02391,False
2,2.366668,0.1895723,-0.002659783,0.04298381,-1.239799,-4.623538,-1.994534,0.2177605,1.230899,0.3485618,-0.4344788,0.01685925,0,12.4,0.09257781,0.1266252,-0.104525,-0.401446,-2.675711,-1.016608,0.3435164,1.331219,0.2654476,0.1123752,-0.1557583,0.06592153,-0.3533296,0.7625711,-0.4855443,0.4916468,1.420387,0.1853194,-0.1145403,1.15994,0.2615703,282.0442,221.9072,34.59885,False
2,2.377779,0.1745797,0.01325465,0.04078355,-1.240664,-4.623558,-1.995845,0.218239,1.230802,0.3487589,-0.434931,-0.04136523,0,12.4,0.06708828,0.1436009,-0.09357377,-0.4036628,-2.674381,-1.017633,0.343751,1.33136,0.265516,0.1091749,-0.1418962,0.06279446,-0.3522105,0.7610428,-0.4851678,0.4917615,1.420489,0.1850636,-0.1143429,1.159832,0.2615888,281.8836,221.2894,35.25676,False
2,2.38889,0.1660159,0.02279528,0.03861065,-1.24133,-4.623476,-1.99744,0.2186195,1.230701,0.3488736,-0.4348985,0.003421399,0,12.4,0.05000229,0.1191213,-0.09993775,-0.4048346,-2.676674,-1.015541,0.3439516,1.331549,0.2655795,0.1059186,-0.1322778,0.05433609,-0.3513077,0.7590106,-0.484212,0.4918211,1.420623,0.1847792,-0.1141265,1.159723,0.2615584,281.7363,220.4908,36.13149,False
2,2.400001,0.1456647,0.04500937,0.02467011,-1.24246,-4.624141,-1.998128,0.2190638,1.230751,0.3491302,-0.4346876,0.01932258,0,12.4,0.06278625,0.08398481,-0.1023499,-0.4053288,-2.679557,-1.014007,0.3441668,1.331744,0.2656274,0.08128084,-0.1034101,0.03117243,-0.3515761,0.7578166,-0.4831885,0.4920343,1.420859,0.1846933,-0.113918,1.159628,0.2615387,281.5931,219.7167,36.9762,False
2,2.411112,0.1456386,0.05031111,0.02038224,-1.243133,-4.624341,-1.999722,0.2193425,1.230702,0.3492846,-0.4350604,-0.03414046,4.1,15.5,0.0606815,0.07225803,-0.1002641,-0.4063052,-2.681398,-1.01301,0.3442751,1.332024,0.2656739,0.06631596,-0.09591129,0.02492244,-0.3510451,0.7559119,-0.4814881,0.4921778,1.421024,0.1843367,-0.1140799,1.159517,0.2614939,281.5028,220.1039,36.38328,False
2,2.422223,0.1263421,0.08007097,0.02343412,-1.244949,-4.624831,-2.000287,0.2196309,1.230723,0.3494418,-0.4345842,0.04396,4.1,15.5,0.06186849,0.08390397,-0.08530252,-0.4076841,-2.680378,-1.014659,0.3444713,1.332308,0.2657549,0.05245923,-0.09055788,0.02291402,-0.3505023,0.7541307,-0.4799344,0.4923507,1.421225,0.1842198,-0.1138813,1.159355,0.2616806,281.2384,219.9449,36.5396,False
2,2.433334,0.1145907,0.0874764,0.02340673,-1.246106,-4.625078,-2.001085,0.2199288,1.2308,0.3496022,-0.435414,-0.07620941,4.1,15.5,0.06170212,0.05737212,-0.1067386,-0.4084959,-2.684898,-1.011194,0.3446749,1.332576,0.2659118,0.04597932,-0.08838736,0.01339186,-0.3500677,0.7517148,-0.4777682,0.4925312,1.421437,0.1839261,-0.1138079,1.159374,0.2620587,280.9176,220.9348,35.56276,False
2,2.444445,0.1039231,0.0895333,0.0180805,-1.247124,-4.625545,-2.001727,0.2202229,1.231032,0.3497763,-0.4347019,0.06594801,4.1,15.5,0.07556906,0.04033065,-0.1058757,-0.408962,-2.687749,-1.009921,0.3448819,1.332841,0.2659895,0.04061341,-0.0766395,0.00600996,-0.3500587,0.7502708,-0.476659,0.4927015,1.421647,0.1838181,-0.1137835,1.159356,0.262383,280.6624,221.9705,34.51481,False
2,2.455556,0.07951594,0.06270927,0.002275076,-1.246599,-4.625864,-2.001664,0.2204348,1.231392,0.3499725,-0.4348974,-0.01842849,9.6,19.7,0.06414641,0.02524628,-0.0717535,-0.4085486,-2.686791,-1.011002,0.3452014,1.333199,0.266001,0.03636128,-0.06491121,0.008216713,-0.3496869,0.7503281,-0.4766121,0.4928408,1.421792,0.1836531,-0.1137957,1.159361,0.2625591,280.5428,222.65,33.82109,False
2,2.466667,0.04666258,0.01881934,-0.01130191,-1.245176,-4.625816,-2.001161,0.2207096,1.23182,0.3501632,-0.4349821,-0.007433236,9.6,19.7,0.06339491,0.05169287,-0.03326918,-0.4094227,-2.68291,-1.015192,0.3455372,1.333516,0.2660921,0.03200014,-0.06593309,-0.004536655,-0.3498094,0.7477576,-0.4743665,0.4931152,1.422034,0.1835613,-0.1137727,1.159394,0.2626235,280.4955,222.7438,33.70871,False
