loc,t,aDotUA,bDotUA,gDotUA,aUA,bUA,gUA,xUA,yUA,zUA,qE,qDotE,emgA,emgB,aDotSH,bDotSH,gDotSH,aSH,bSH,gSH,xSH,ySH,zSH,aDotUB,bDotUB,gDotUB,aUB,bUB,gUB,xUB,yUB,zUB,xHand,yHand,zHand,aHand,bHand,gHand,enable
0,0,-0.08825921,-0.8070338,0.6439414,-1.372007,-4.397361,-2.907079,0.7212495,1.231891,0.4071977,-1.05627,-0.02095889,26.6,64.1,-0.4124682,0.2081522,-0.1048861,-0.5573112,-3.764398,-0.7753072,0.7541395,1.424356,0.3031988,-0.1237419,0.1705379,0.04409022,-0.761704,-0.3392288,-0.006909572,0.8112962,1.473535,0.1181445,0.4874682,1.032567,0.2795218,310.6351,247.4057,355.651,False
0,0.01111111,-0.06645232,-0.6865623,0.6422246,-1.377987,-4.391842,-2.908089,0.7202784,1.23109,0.4063923,-1.056486,-0.01962372,26.6,64.1,-0.4179139,0.2316737,-0.1152888,-0.5608069,-3.762147,-0.7723812,0.7536179,1.424084,0.3033638,-0.1268678,0.190771,0.04843249,-0.7610856,-0.3352857,-0.008176703,0.8114911,1.473584,0.1185253,0.4875129,1.032043,0.2761971,310.7616,246.4444,356.0568,False
0,0.02222222,-0.05741815,-0.570473,0.6288247,-1.383748,-4.387545,-2.90849,0.719617,1.230282,0.4056957,-1.057039,-0.05049016,24.5,61,-0.417834,0.2645381,-0.0979479,-0.5638381,-3.757435,-0.7717617,0.7530102,1.423961,0.3035603,-0.1278882,0.2003513,0.05166767,-0.7603943,-0.3316713,-0.009355685,0.81164,1.473621,0.1188877,0.4876922,1.031368,0.2727537,310.8127,246.1063,355.8766,False
0,0.03333334,-0.04403165,-0.4778679,0.6027572,-1.388867,-4.38349,-2.909083,0.7187549,1.229642,0.4050837,-1.057209,-0.01529399,24.5,61,-0.4057657,0.272653,-0.05002576,-0.5654381,-3.751496,-0.7726451,0.7525438,1.423861,0.3037004,-0.1267976,0.1982055,0.05591486,-0.7596326,-0.3284959,-0.01029605,0.8118265,1.473658,0.1192672,0.4880657,1.030606,0.2692958,310.8336,246.1725,355.2411,False
0,0.04444445,-0.02508966,-0.4331363,0.5833296,-1.393775,-4.378411,-2.910241,0.7179919,1.229055,0.4045925,-1.056748,0.04218611,24.5,61,-0.3915884,0.2520898,-0.01196285,-0.566056,-3.747586,-0.7720813,0.7522711,1.423627,0.3039343,-0.1300091,0.2035576,0.05062036,-0.759378,-0.3249674,-0.01144786,0.8120973,1.473614,0.1196356,0.4886013,1.029781,0.2659441,310.8833,246.2894,354.5278,False
0,0.05555556,-0.01475731,-0.3725762,0.5425241,-1.397854,-4.375264,-2.910969,0.7174788,1.228609,0.4042814,-1.056844,-0.009162227,24.5,61,-0.3659907,0.2478438,-0.008999228,-0.5678669,-3.744087,-0.771828,0.7519565,1.423469,0.3041115,-0.1300625,0.2099781,0.04105208,-0.759272,-0.3212234,-0.01268091,0.8122918,1.473653,0.119952,0.4892403,1.028946,0.2628348,310.9888,246.3701,353.8424,False
0,0.06666667,-0.01172163,-0.3471624,0.5104254,-1.401691,-4.3709,-2.91155,0.7169194,1.228121,0.4038906,-1.057152,-0.02817899,22.3,56,-0.317147,0.2310989,-0.03402027,-0.5702547,-3.743096,-0.7707436,0.7516034,1.423343,0.3043818,-0.1258191,0.1993193,0.04098843,-0.7588235,-0.3184121,-0.01352273,0.8124635,1.47372,0.1203456,0.4898312,1.028145,0.2600499,311.1413,246.3883,353.2592,False
0,0.07777778,-0.01319771,-0.2762388,0.4248291,-1.403311,-4.3697,-2.911584,0.7169122,1.227966,0.4038439,-1.056988,0.01523834,22.3,56,-0.2735188,0.1961435,-0.04851339,-0.5717157,-3.743203,-0.7690996,0.7514361,1.423305,0.3045764,-0.1194694,0.1769309,0.04194174,-0.7583298,-0.316711,-0.01364311,0.8126564,1.47377,0.1206231,0.4904335,1.027453,0.2576475,311.2662,246.3724,352.7893,False
0,0.08888889,-0.0199229,-0.2168608,0.3776509,-1.405808,-4.368533,-2.91121,0.7166779,1.227649,0.4037645,-1.056509,0.04349396,22.3,56,-0.2478598,0.1620602,-0.04475562,-0.5723708,-3.742788,-0.7675022,0.7510799,1.423195,0.3047259,-0.1130794,0.168386,0.04506728,-0.757737,-0.3143005,-0.01424844,0.8128253,1.473674,0.120898,0.4910077,1.026898,0.2557014,311.3553,246.3905,352.3811,False
0,0.1,-0.03007932,-0.1096935,0.3046573,-1.407161,-4.370691,-2.910196,0.7169751,1.227432,0.4037297,-1.056378,0.01152981,22.3,56,-0.2050725,0.1332193,-0.02829175,-0.5724294,-3.741861,-0.7676189,0.75108,1.423174,0.3048644,-0.1035821,0.1662767,0.0322126,-0.7578152,-0.3116535,-0.01537762,0.8130442,1.473754,0.1211081,0.4915287,1.026478,0.254183,311.42,246.3833,352.1,False
0,0.1111111,-0.04664262,-0.002632821,0.2167634,-1.407468,-4.374143,-2.908505,0.7173142,1.227389,0.404001,-1.05593,0.04094722,22.3,56,-0.129354,0.1226355,-0.02150869,-0.5733333,-3.740454,-0.7699398,0.7512614,1.423062,0.3049283,-0.09410213,0.1471042,0.02356403,-0.75786,-0.3101858,-0.01561944,0.8131058,1.473701,0.1212473,0.4919974,1.026257,0.2532368,311.4702,246.3442,351.8538,False
0,0.1222222,-0.05972939,0.05026199,0.1568388,-1.407636,-4.37646,-2.907032,0.7176474,1.227353,0.404089,-1.055787,0.01271027,20.5,49.2,-0.08561976,0.1077627,-0.01771148,-0.5739714,-3.739506,-0.7711042,0.7513249,1.423047,0.3050697,-0.08032033,0.1247223,0.02019967,-0.7577956,-0.3090203,-0.01607564,0.8132972,1.473717,0.1214747,0.4921858,1.026171,0.2528351,311.4925,246.4505,351.6238,False
0,0.1333333,-0.083605,0.1176333,0.02228656,-1.404374,-4.380707,-2.904571,0.718166,1.227776,0.4045637,-1.055342,0.04059185,20.5,49.2,-0.005550798,0.04071137,-0.01039428,-0.5726696,-3.741677,-0.7718086,0.751941,1.423116,0.3051345,-0.05280154,0.07142249,0.01132317,-0.7579282,-0.3104213,-0.01537097,0.8135098,1.473702,0.1214724,0.492122,1.026275,0.2530668,311.4719,246.6284,351.4508,False
0,0.1444445,-0.09760052,0.1353591,-0.03958195,-1.402677,-4.383017,-2.902582,0.7186573,1.227957,0.4047973,-1.055392,-0.004841585,20.5,49.2,0.04673203,0.01094673,-0.007865022,-0.5722846,-3.742696,-0.7730994,0.7523576,1.423194,0.3051898,-0.03689684,0.05223015,0.004757615,-0.7581327,-0.3102796,-0.01568016,0.8137971,1.473814,0.1215422,0.4917606,1.026588,0.2539771,311.4268,246.8232,351.4261,False
0,0.1555556,-0.1202206,0.1710027,-0.1313623,-1.398954,-4.387175,-2.899742,0.7194004,1.228495,0.4052196,-1.054831,0.05140221,20.5,49.2,0.1246434,-0.06458324,-0.005933508,-0.570113,-3.746925,-0.7735127,0.7530508,1.423416,0.3052218,-0.0114922,0.006392039,-0.004081605,-0.758448,-0.3123733,-0.01487162,0.814052,1.473787,0.1214702,0.4911719,1.027111,0.2554431,311.3416,246.9593,351.6519,False
0,0.1666667,-0.140821,0.2322929,-0.209432,-1.395437,-4.392659,-2.896567,0.7204255,1.22895,0.4055703,-1.055045,-0.0199363,20.5,49.2,0.1641898,-0.1199567,-0.001404092,-0.5679319,-3.750858,-0.7730826,0.7536846,1.423517,0.3052285,-0.004226003,-0.01592993,-0.02444549,-0.7594318,-0.3134992,-0.01419651,0.8143396,1.473802,0.1213772,0.4904181,1.027882,0.2574541,311.2394,246.9623,352.0719,False
0,0.1777778,-0.169017,0.3233502,-0.2929687,-1.391397,-4.400433,-2.892436,0.7215917,1.229559,0.4060726,-1.054683,0.03343869,19.4,43.7,0.2238572,-0.1475145,-0.006364226,-0.566229,-3.754761,-0.7743394,0.7545693,1.423669,0.3051035,0.01687413,-0.05427606,-0.04175445,-0.7604917,-0.3163363,-0.01305055,0.8145768,1.4738,0.1211567,0.4895791,1.02886,0.2597815,311.0609,247.0611,352.5896,False
0,0.1888889,-0.1907051,0.3964923,-0.3444542,-1.387844,-4.40831,-2.888306,0.7226635,1.230068,0.4066179,-1.054697,-0.001499745,19.4,43.7,0.2728932,-0.1421531,-0.001359962,-0.56533,-3.75602,-0.7777858,0.755437,1.423896,0.3048742,0.04013127,-0.1075671,-0.05059342,-0.7611304,-0.3205577,-0.01116823,0.814741,1.47379,0.1210289,0.4887699,1.030046,0.2623141,310.8644,247.1374,353.1347,False
0,0.2,-0.2243912,0.5248566,-0.4185857,-1.383561,-4.420039,-2.882565,0.7242012,1.230828,0.4072092,-1.054348,0.03214669,19.4,43.7,0.3102891,-0.1411574,0.01327991,-0.5637736,-3.757199,-0.7815217,0.75639,1.424102,0.3047113,0.06228143,-0.1533744,-0.06900859,-0.7625924,-0.3251396,-0.009346897,0.8149422,1.473677,0.120744,0.4880025,1.031408,0.2649869,310.6378,247.2541,353.5983,False
0,0.2111111,-0.2655035,0.6468059,-0.4916123,-1.378861,-4.432967,-2.875828,0.7258197,1.231654,0.4078255,-1.054544,-0.01810857,19.4,43.7,0.3935014,-0.1198921,0.0330731,-0.5626774,-3.756664,-0.7891985,0.7575046,1.424351,0.3045416,0.08876261,-0.1906895,-0.07889506,-0.7637946,-0.3300083,-0.00767523,0.8151855,1.473658,0.1204014,0.4871711,1.032918,0.267815,310.4168,247.4079,353.9597,False
0,0.2222222,-0.2872326,0.7306682,-0.5293082,-1.374995,-4.445424,-2.86958,0.7274516,1.232506,0.4083786,-1.053907,0.05862546,18.8,40.2,0.4639893,-0.1922759,0.03934729,-0.5590518,-3.762079,-0.7920547,0.7588214,1.424752,0.3042798,0.1067683,-0.2141421,-0.08549295,-0.7650037,-0.334242,-0.006225672,0.8153862,1.473756,0.1200073,0.4862142,1.034551,0.2708086,310.1764,247.6044,354.2755,False
0,0.2333333,-0.3317156,0.8887359,-0.6174373,-1.369804,-4.46285,-2.861155,0.7294374,1.233663,0.4090419,-1.053371,0.04863929,18.8,40.2,0.5462174,-0.2923185,0.04315962,-0.5539727,-3.770057,-0.794017,0.7604058,1.425261,0.3040094,0.1311137,-0.2503841,-0.09642641,-0.7664359,-0.3400717,-0.004308462,0.8155903,1.473708,0.1195459,0.4851478,1.036401,0.2741314,309.9563,247.8521,354.542,False
0,0.2444444,-0.356604,0.9629722,-0.6604089,-1.365245,-4.477677,-2.853469,0.731348,1.234701,0.4096644,-1.054055,-0.06270884,18.8,40.2,0.5996048,-0.3317226,0.05092971,-0.5500477,-3.775112,-0.797707,0.7618426,1.425696,0.303771,0.1533706,-0.2823741,-0.1030685,-0.7676945,-0.3460298,-0.002412291,0.815812,1.473524,0.1190233,0.4839014,1.038543,0.2778829,309.7225,248.1542,354.8802,False
0,0.2555556,-0.4029416,1.064698,-0.7248092,-1.359852,-4.495653,-2.843706,0.7334653,1.235932,0.4103665,-1.053289,0.07090732,18.8,40.2,0.6635251,-0.389034,0.03821516,-0.5456327,-3.783363,-0.8001254,0.7634641,1.426172,0.3033831,0.1724554,-0.3026377,-0.1096557,-0.7691103,-0.3517836,-0.0008077368,0.8159932,1.473462,0.1184974,0.4825331,1.041027,0.2820511,309.417,248.5304,355.2955,False
0,0.2666667,-0.446047,1.158982,-0.7912821,-1.354401,-4.514268,-2.83347,0.7356749,1.237361,0.4112689,-1.053785,-0.04585096,18.8,40.2,0.6911954,-0.4134113,0.02926572,-0.5418643,-3.790331,-0.8025332,0.765108,1.42666,0.3029315,0.1851678,-0.3228917,-0.1140733,-0.7706006,-0.3577778,0.001001881,0.8162392,1.473446,0.1180487,0.481006,1.043915,0.2867551,309.0667,248.9634,355.7401,False
0,0.2777778,-0.4965172,1.236285,-0.8363777,-1.349304,-4.533401,-2.822225,0.7379457,1.238815,0.4120171,-1.052818,0.0890307,19.6,37.5,0.7306974,-0.4421538,0.03403658,-0.5372315,-3.797587,-0.8058169,0.7667881,1.427321,0.302422,0.2063896,-0.357025,-0.1153905,-0.7719598,-0.3651667,0.003259177,0.8164154,1.473409,0.1174133,0.4793887,1.047181,0.2919199,308.5892,249.4,356.3547,False
0,0.2888889,-0.5501522,1.307194,-0.8793064,-1.344196,-4.553082,-2.810127,0.7402526,1.240402,0.4127173,-1.052825,-0.001209706,19.6,37.5,0.7586834,-0.479666,0.06439176,-0.5313422,-3.803773,-0.8095701,0.7684823,1.428189,0.3018129,0.225417,-0.3985831,-0.1231106,-0.7736424,-0.3731892,0.005962817,0.8167069,1.473411,0.116626,0.4776738,1.050825,0.2975354,308.0923,249.8533,356.9938,False
0,0.3,-0.5791093,1.343123,-0.9093004,-1.339048,-4.572169,-2.798526,0.7424719,1.241937,0.4133267,-1.052443,0.03530122,19.6,37.5,0.7950125,-0.5403177,0.06357399,-0.5253048,-3.813592,-0.8111392,0.7701744,1.429172,0.3011801,0.2348611,-0.4326649,-0.1328675,-0.7754955,-0.3817044,0.009125321,0.8168994,1.473391,0.1159875,0.47591,1.054885,0.3036002,307.5578,250.3423,357.6703,False
0,0.3111111,-0.6059459,1.380062,-0.9531444,-1.333393,-4.592221,-2.786402,0.7448268,1.243843,0.4139276,-1.052203,0.02198026,19.6,37.5,0.8548117,-0.5744092,0.07453573,-0.5190437,-3.822261,-0.8150197,0.7718973,1.430176,0.3005238,0.2473841,-0.4656374,-0.1596877,-0.7782827,-0.3904693,0.0122564,0.817124,1.473474,0.1152036,0.4740925,1.059349,0.3099965,306.9706,250.9124,358.4273,False
0,0.3222222,-0.6220373,1.39904,-0.976665,-1.328174,-4.612366,-2.77404,0.7471638,1.245748,0.4144833,-1.053076,-0.07959876,20.5,35.6,0.8901017,-0.567088,0.09457472,-0.5133286,-3.828205,-0.8208909,0.7737174,1.43119,0.2998347,0.2462393,-0.4720048,-0.1692868,-0.7805374,-0.3983334,0.01508548,0.817207,1.473459,0.1145315,0.4722443,1.064199,0.3165558,306.3164,251.4845,359.2975,False
0,0.3333333,-0.6595899,1.447681,-1.015226,-1.322906,-4.634396,-2.759989,0.7498138,1.24793,0.4149914,-1.05336,-0.02507688,20.5,35.6,0.929144,-0.5859092,0.1814709,-0.5045881,-3.830828,-0.8304277,0.7754902,1.432327,0.2990129,0.2452206,-0.4645582,-0.1649959,-0.7824032,-0.4054869,0.01739444,0.8173244,1.473492,0.1137469,0.4704704,1.069366,0.3230937,305.5733,251.9675,0.2609771,False
0,0.3444445,-0.6938242,1.475114,-1.037703,-1.318115,-4.655895,-2.745872,0.752261,1.249919,0.4155674,-1.0536,-0.02155502,20.5,35.6,0.9522977,-0.5931854,0.2835091,-0.4949171,-3.830691,-0.8418654,0.7773308,1.433355,0.2980328,0.2431532,-0.4581863,-0.1575162,-0.784146,-0.4124805,0.01969807,0.8174069,1.473438,0.1130128,0.4689042,1.07481,0.3295338,304.8227,252.3566,1.20384,False
0,0.3555556,-0.7173505,1.491985,-1.050552,-1.313748,-4.676979,-2.731855,0.754442,1.251732,0.4160903,-1.052831,0.07078979,20.5,35.6,0.9536878,-0.5893112,0.3272133,-0.4867087,-3.831613,-0.8516307,0.7790195,1.434204,0.29704,0.2516522,-0.4752563,-0.1554967,-0.7858887,-0.4206218,0.0224073,0.8174596,1.473404,0.1121554,0.4675752,1.080472,0.3358492,304.071,252.7156,2.060517,False
0,0.3666667,-0.744001,1.490663,-1.078219,-1.30867,-4.697898,-2.717442,0.7566888,1.253576,0.4164855,-1.053014,-0.01714161,20.5,35.6,0.9366527,-0.5734225,0.3338676,-0.4801024,-3.833995,-0.8590801,0.780684,1.434956,0.296072,0.2568499,-0.5157318,-0.1609848,-0.7880842,-0.4304153,0.02633334,0.8174399,1.473336,0.1112616,0.4664615,1.086357,0.3421062,303.355,253.0556,2.837219,False
0,0.3777778,-0.7727003,1.469058,-1.110037,-1.303129,1.564753,-2.702473,0.7585772,1.255241,0.4168127,-1.053495,-0.04347262,19.6,32.5,0.8813826,-0.5651544,0.3524727,-0.4725406,-3.834997,-0.8660693,0.7821963,1.435641,0.2951479,0.2685921,-0.5317629,-0.152593,-0.7897061,-0.4394979,0.02933685,0.8174792,1.473278,0.1103907,0.4653437,1.09238,0.3483337,302.5748,253.3455,3.653733,False
0,0.3888889,-0.7854002,1.445482,-1.125891,-1.298011,1.544764,-2.688004,0.7606288,1.256992,0.4171591,-1.053534,-0.002933138,19.6,32.5,0.8236254,-0.5437587,0.3307446,-0.4665187,-3.83766,-0.8705714,0.7837415,1.436233,0.29403,0.2728577,-0.5360321,-0.1515733,-0.79155,-0.4477743,0.03194062,0.8175775,1.473046,0.1094024,0.4641425,1.098431,0.3545128,301.7195,253.5692,4.578726,False
0,0.4,-0.7948465,1.413423,-1.135311,-1.292925,1.52512,-2.673428,0.7621471,1.258666,0.4174941,-1.053292,0.02215497,19.6,32.5,0.809489,-0.5200526,0.2980364,-0.4613101,-3.841036,-0.8760956,0.7851572,1.436854,0.293189,0.2718149,-0.5360394,-0.14837,-0.7933088,-0.4561406,0.03481284,0.817607,1.472966,0.1085663,0.4629357,1.104435,0.3606223,300.8625,253.6292,5.670834,False
0,0.4111111,-0.7946351,1.373007,-1.123399,-1.288573,1.506539,-2.659596,0.7636614,1.260296,0.4178169,-1.05403,-0.06745684,19.6,32.5,0.7741796,-0.4944008,0.2836295,-0.4562155,-3.842786,-0.8820297,0.786248,1.437444,0.2924383,0.2644657,-0.5211384,-0.1376254,-0.794733,-0.4632976,0.03721341,0.8177575,1.472908,0.1076541,0.4617087,1.110338,0.3666476,300.0627,253.5749,6.839749,False
0,0.4222222,-0.7955177,1.342258,-1.095555,-1.285207,1.488231,-2.645711,0.7651137,1.261891,0.4179957,-1.054279,-0.02190584,16.2,27.3,0.7401378,-0.4945247,0.2913467,-0.4496556,-3.844528,-0.8874753,0.787495,1.438092,0.2914751,0.2528374,-0.4977002,-0.1310878,-0.7962266,-0.4698293,0.03945899,0.8177727,1.472882,0.1069167,0.4606308,1.116158,0.3725677,299.3189,253.5061,7.979248,False
0,0.4333333,-0.7921146,1.303023,-1.063392,-1.282095,1.47051,-2.631896,0.7661281,1.263406,0.4182374,-1.055034,-0.06872687,16.2,27.3,0.6922607,-0.4563973,0.3080292,-0.4440677,-3.842882,-0.8951142,0.7885249,1.438653,0.2906384,0.2337008,-0.4603535,-0.1372325,-0.7981611,-0.4752776,0.04128219,0.8177863,1.472805,0.1062546,0.4595367,1.12185,0.378369,298.63,253.4376,9.099482,False
0,0.4444444,-0.7971621,1.250956,-1.035413,-1.278995,1.453779,-2.618173,0.7671691,1.264786,0.4184542,-1.055198,-0.01434498,16.2,27.3,0.6346225,-0.4266176,0.3012735,-0.4391457,-3.84296,-0.9002424,0.7894161,1.439301,0.2897754,0.2219698,-0.4560668,-0.1392825,-0.8001323,-0.4822256,0.04404496,0.8177395,1.472748,0.1055143,0.4585735,1.127424,0.3839769,297.9529,253.4169,10.17932,False
0,0.4555556,-0.7990916,1.211646,-1.012838,-1.276125,1.437283,-2.604484,0.7680012,1.266227,0.418684,-1.055274,-0.006676425,16.2,27.3,0.5529699,-0.3974187,0.3575517,-0.432826,-3.8375,-0.9086455,0.7901458,1.439732,0.2890308,0.2102822,-0.4357939,-0.1412696,-0.801954,-0.4879369,0.04607508,0.8177155,1.472727,0.1048949,0.4576966,1.132864,0.3893155,297.3024,253.4652,11.175,False
0,0.4666667,-0.8136622,1.140377,-0.981539,-1.273173,1.422662,-2.590677,0.7685907,1.267628,0.4190187,-1.055234,0.003689872,16.2,27.3,0.4891915,-0.3243259,0.3927794,-0.428322,-3.82901,-0.9198516,0.7908987,1.440089,0.2882416,0.1900807,-0.3963138,-0.1463496,-0.8040552,-0.4921329,0.04761173,0.817632,1.472606,0.1043534,0.4567449,1.138145,0.3943518,296.6768,253.4258,12.17735,False
0,0.4777778,-0.8229789,1.087204,-0.9546279,-1.270452,1.408303,-2.577031,0.7690359,1.268907,0.419348,-1.055331,-0.008894389,11.9,23.3,0.4505934,-0.2794402,0.3700333,-0.4250011,-3.824875,-0.9273345,0.7915319,1.440431,0.2876627,0.1795749,-0.3643637,-0.1355253,-0.8053442,-0.4961686,0.04878192,0.8175764,1.472564,0.1038573,0.4557917,1.143285,0.3990544,296.0816,253.2589,13.19708,False
0,0.4888889,-0.8353727,1.014957,-0.9063168,-1.268202,1.395669,-2.563658,0.7692366,1.270159,0.41961,-1.054828,0.04614244,11.9,23.3,0.3947789,-0.2396948,0.3239303,-0.4227385,-3.823364,-0.9313844,0.7920094,1.440648,0.287159,0.1585213,-0.3185782,-0.1139374,-0.8060419,-0.4990976,0.04971856,0.8175403,1.472624,0.1033041,0.4547927,1.148321,0.4034525,295.5331,253.0085,14.18995,False
0,0.5,-0.8467757,0.9640762,-0.848529,-1.266996,1.383258,-2.550376,0.7691807,1.271368,0.4198444,-1.055014,-0.01738542,11.9,23.3,0.3741906,-0.2031688,0.2860579,-0.4208593,-3.821158,-0.9368103,0.7924603,1.440913,0.2868204,0.143765,-0.2919549,-0.0999033,-0.8067807,-0.5022554,0.05082243,0.8174464,1.472612,0.1029427,0.4536966,1.153292,0.4075486,295.0171,252.6574,15.2133,False
0,0.5111111,-0.8508304,0.9269728,-0.8089203,-1.265838,1.370957,-2.53707,0.7691016,1.272521,0.4201703,-1.054969,0.004505287,11.9,23.3,0.3384866,-0.1547204,0.2249725,-0.420625,-3.820057,-0.9403864,0.7927105,1.441042,0.2864885,0.1280722,-0.2461956,-0.07301782,-0.806745,-0.5040364,0.05120247,0.8172647,1.472727,0.1025524,0.4525003,1.158239,0.4113532,294.4828,252.2413,16.26088,False
0,0.5222223,-0.8589953,0.8622947,-0.7435935,-1.265193,1.360902,-2.524216,0.7687014,1.273664,0.4204834,-1.055127,-0.01442016,11.9,23.3,0.2678978,-0.148127,0.1904154,-0.4187704,-3.820035,-0.9409667,0.7928995,1.441266,0.2863579,0.1207709,-0.2131861,-0.06221261,-0.8071253,-0.5056922,0.05118382,0.8171151,1.472754,0.1023264,0.4511785,1.16318,0.4148225,293.9342,251.8498,17.27586,False
0,0.5333334,-0.8681943,0.7901322,-0.6803648,-1.264599,1.352316,-2.511607,0.7678711,1.274519,0.4208827,-1.055217,-0.007972833,8,18,0.191271,-0.1632248,0.1972544,-0.4154643,-3.818675,-0.9417318,0.7929778,1.441302,0.2862365,0.106163,-0.143981,-0.03952755,-0.8067157,-0.5046632,0.04987595,0.8169544,1.472818,0.1022997,0.4497032,1.168135,0.4179479,293.3629,251.4407,18.23083,False
0,0.5444446,-0.8815918,0.7094965,-0.6064358,-1.264336,1.34507,-2.499272,0.7669377,1.275301,0.4212332,-1.055114,0.009546839,8,18,0.1071499,-0.1793592,0.1998876,-0.4119207,-3.817365,-0.9414445,0.7929253,1.441148,0.2861578,0.1010359,-0.1173993,-0.0191705,-0.8063104,-0.5054404,0.04948793,0.8168058,1.472751,0.1021426,0.4481425,1.173113,0.4207734,292.7712,250.893,19.22445,False
0,0.5555557,-0.8874905,0.6182758,-0.5228732,-1.264314,1.340025,-2.48767,0.7655365,1.275857,0.4217494,-1.055019,0.008602237,8,18,0.04503551,-0.1801398,0.1566708,-0.4101257,-3.81988,-0.9375105,0.7927976,1.441111,0.2862134,0.08200316,-0.08436157,-0.009348242,-0.8060589,-0.5051427,0.04903545,0.8166164,1.47272,0.1022139,0.4464135,1.178077,0.4232827,292.1402,250.2244,20.32658,False
0,0.5666668,-0.8828052,0.5452992,-0.4255647,-1.265379,1.335486,-2.476633,0.7641212,1.276379,0.4220765,-1.055002,0.001538222,8,18,-0.0386768,-0.1593655,0.08077978,-0.4102909,-3.825162,-0.9294443,0.7922739,1.440984,0.2865283,0.06827246,-0.0609198,0.0004045079,-0.8058422,-0.5051331,0.04872093,0.8165027,1.472654,0.1021841,0.4444209,1.182935,0.4254278,291.4624,249.3851,21.57392,False
0,0.577778,-0.8718768,0.4988326,-0.3550279,-1.266689,1.331239,-2.466041,0.7625778,1.276871,0.4224582,-1.055189,-0.01700415,6.1,15.5,-0.1171607,-0.08103022,0.003232036,-0.4132954,-3.827831,-0.9229773,0.7915965,1.440798,0.2869542,0.03751815,-0.01612477,0.006083854,-0.805521,-0.5032911,0.04810654,0.816347,1.47264,0.10236,0.442224,1.187609,0.4271256,290.7791,248.4301,22.87069,False
0,0.5888891,-0.84806,0.4366201,-0.2524626,-1.269014,1.329095,-2.456789,0.7607014,1.27718,0.4227307,-1.055711,-0.04748623,6.1,15.5,-0.1975328,0.0129738,-0.03900026,-0.4169765,-3.825876,-0.9201235,0.7908281,1.440652,0.2871337,0.01733228,0.02014764,0.003139169,-0.8055636,-0.5013439,0.047302,0.8161836,1.472633,0.1024632,0.4397923,1.192003,0.4283071,290.1146,247.4387,24.10374,False
0,0.6000003,-0.8178231,0.3658639,-0.15732,-1.271279,1.328664,-2.448539,0.7584516,1.277444,0.4229014,-1.056159,-0.04046887,6.1,15.5,-0.2677693,0.06912611,-0.01667047,-0.4186388,-3.821183,-0.9192784,0.7900388,1.440388,0.2874608,-0.01430478,0.08512859,0.02806214,-0.804288,-0.4970469,0.04550783,0.8160199,1.472638,0.1028905,0.4372822,1.196084,0.4289266,289.5084,246.5407,25.10357,False
0,0.6111114,-0.7994042,0.3119287,-0.09743151,-1.272888,1.327793,-2.440058,0.7564635,1.277676,0.4230733,-1.05688,-0.06569,6.1,15.5,-0.3293436,0.07834595,0.0137113,-0.4187757,-3.816991,-0.917431,0.7893232,1.440235,0.2876902,-0.03113263,0.1213286,0.0474707,-0.8028914,-0.493656,0.0440391,0.8159224,1.472666,0.1032054,0.4347089,1.199842,0.4290588,288.9629,245.6713,25.9351,False
0,0.6222225,-0.7615328,0.2039998,0.01280991,-1.274953,1.331325,-2.433736,0.7536614,1.277518,0.4231648,-1.057346,-0.04213542,6.1,15.5,-0.4247832,0.05640304,0.06857034,-0.4170057,-3.812152,-0.9138115,0.7883911,1.439801,0.2880797,-0.05217111,0.1767089,0.06802734,-0.8013238,-0.4885136,0.04170297,0.8157352,1.472702,0.1035569,0.4319959,1.203241,0.4287233,288.4208,244.8944,26.65179,False
0,0.6333337,-0.7334459,0.1331328,0.0877187,-1.277044,1.33429,-2.427332,0.7507771,1.277197,0.4233396,-1.057143,0.01877623,7,16.2,-0.520494,0.05498928,0.09059019,-0.4163261,-3.807784,-0.9086668,0.7873017,1.439233,0.2885883,-0.07329515,0.2171988,0.08108259,-0.7998368,-0.4832889,0.03960653,0.8155558,1.472708,0.1040041,0.4291293,1.206229,0.4279035,287.9402,244.0408,27.37382,False
0,0.6444448,-0.7161599,0.08869974,0.1337346,-1.278951,1.336409,-2.420409,0.7480842,1.276952,0.4235103,-1.057813,-0.06164139,7,16.2,-0.573849,0.05606604,0.08034093,-0.4168119,-3.80603,-0.9021602,0.786209,1.438569,0.2891815,-0.08702122,0.2406347,0.09190252,-0.7983731,-0.4786736,0.03788373,0.8153524,1.472773,0.1044526,0.4261976,1.208806,0.42667,287.537,243.0724,28.10624,False
0,0.655556,-0.6902602,0.02733499,0.1936829,-1.280955,1.340758,-2.414875,0.7448217,1.276213,0.4238145,-1.057781,0.003390178,7,16.2,-0.6808805,0.03202397,0.009556085,-0.4178984,-3.81111,-0.8862872,0.7845442,1.437613,0.2902372,-0.1006331,0.2821508,0.1123653,-0.7961946,-0.4722621,0.03502643,0.815156,1.472748,0.1049845,0.4229717,1.210903,0.4249924,287.1071,242.1004,28.83083,False
0,0.6666671,-0.6601715,-0.01694411,0.2556676,-1.283534,1.345076,-2.409804,0.7414546,1.2753,0.4242578,-1.057293,0.04443705,7,16.2,-0.7429464,0.01630592,-0.03059661,-0.418666,-3.814791,-0.8726926,0.7829071,1.436863,0.2911584,-0.1206141,0.3247379,0.1360703,-0.7937797,-0.4653685,0.03221919,0.8149841,1.472732,0.1055663,0.4195214,1.212497,0.4229251,286.7697,241.1763,29.32647,False
0,0.6777782,-0.6334745,-0.02189955,0.3046747,-1.287057,1.348942,-2.404776,0.7381804,1.274388,0.4246044,-1.057797,-0.04670925,8.2,16.1,-0.812957,0.02134317,-0.1301688,-0.4220455,-3.823115,-0.8536446,0.7808999,1.436017,0.292455,-0.1386005,0.3428549,0.1479726,-0.7915362,-0.4591443,0.03003353,0.814788,1.472743,0.1062484,0.4159748,1.21369,0.4206596,286.5579,240.3099,29.60321,False
0,0.6888894,-0.5726727,-0.02441254,0.3856003,-1.292103,1.354023,-2.401853,0.7346869,1.273425,0.424897,-1.058127,-0.02983337,8.2,16.1,-0.8709747,0.1910846,-0.2997479,-0.4336265,-3.827423,-0.8384004,0.7783158,1.435196,0.2936802,-0.1557714,0.3248155,0.1363278,-0.7902861,-0.4552047,0.02963139,0.8144777,1.472793,0.1069992,0.4122282,1.214522,0.418348,286.3188,239.4017,29.90517,False
0,0.7000005,-0.4937008,-0.0428946,0.4506014,-1.296504,1.359768,-2.400513,0.7313359,1.272614,0.4250011,-1.058086,0.003779988,8.2,16.1,-0.8956539,0.2837533,-0.3029869,-0.4400863,-3.823435,-0.8315169,0.7763453,1.434465,0.2944696,-0.2078312,0.387787,0.1368887,-0.7885593,-0.4459875,0.02746758,0.8142059,1.472936,0.1080244,0.4083837,1.215021,0.4161008,286.071,238.7507,29.9615,False
0,0.7111117,-0.4177938,-0.09454134,0.491284,-1.299749,1.366766,-2.400378,0.7280562,1.271747,0.4249408,-1.059553,-0.1344512,8.2,16.1,-0.9376931,0.4308085,-0.194828,-0.4464726,-3.806176,-0.8353058,0.7741024,1.43352,0.2951264,-0.2329948,0.4921672,0.1608167,-0.7856458,-0.4330212,0.02179851,0.8140237,1.473047,0.1090612,0.4045791,1.215288,0.4139931,285.8535,238.6783,29.52528,False
0,0.7222228,-0.3856548,-0.139007,0.4935521,-1.301789,1.371164,-2.398023,0.7246073,1.270931,0.4253395,-1.060713,-0.1051728,8.2,16.1,-0.9817359,0.4905003,-0.08743218,-0.4500231,-3.790547,-0.8369775,0.7720677,1.432527,0.2958672,-0.2487817,0.5433021,0.1717331,-0.7831925,-0.4219632,0.01723172,0.813767,1.473081,0.109971,0.4009048,1.215375,0.4119817,285.6103,239.0372,28.81547,False
0,0.7333339,-0.3361615,-0.2485365,0.4887411,-1.301294,1.379828,-2.398397,0.7210411,1.269654,0.4255595,-1.061156,-0.04009005,11.4,15,-1.049962,0.4604903,0.04066399,-0.449801,-3.775397,-0.8366296,0.7698672,1.431526,0.2965295,-0.2879372,0.61792,0.1850179,-0.7806034,-0.4086941,0.01239781,0.8134633,1.473191,0.1110806,0.3975337,1.215241,0.4099321,285.3856,239.3276,28.30032,False
0,0.7444451,-0.3060715,-0.3058638,0.4975184,-1.302086,1.387506,-2.397958,0.7174213,1.268223,0.4258404,-1.059124,0.1856592,11.4,15,-1.081528,0.3706695,0.07312435,-0.4494148,-3.77137,-0.8273597,0.7675091,1.430349,0.2975142,-0.2994702,0.6541176,0.2001228,-0.7778444,-0.3969527,0.007721303,0.8131614,1.473285,0.1119924,0.3943739,1.214801,0.4077705,285.2229,239.1709,28.15604,False
0,0.7555562,-0.2675177,-0.3438416,0.5370969,-1.303993,1.396593,-2.398768,0.7136649,1.266597,0.426295,-1.060005,-0.08249945,11.4,15,-1.084902,0.3166475,0.03751451,-0.4510713,-3.770157,-0.8162666,0.7652292,1.429276,0.2985919,-0.2907835,0.663625,0.2203314,-0.774591,-0.385848,0.002694054,0.8128302,1.473339,0.1129026,0.391076,1.214104,0.4056868,285.1689,238.6392,28.23203,False
0,0.7666674,-0.2078439,-0.3443618,0.5806972,-1.307417,1.403926,-2.400206,0.7100786,1.265244,0.4265397,-1.059142,0.07953734,11.4,15,-1.081964,0.315008,-0.1361674,-0.4589063,-3.777249,-0.7979387,0.7626854,1.428114,0.2999027,-0.2932767,0.597684,0.1892527,-0.7736057,-0.3798919,0.001617071,0.8124343,1.473306,0.1140509,0.3877494,1.213037,0.4035843,285.0794,237.7217,28.75783,False
0,0.7777785,-0.1631117,-0.3387443,0.5987442,-1.310413,1.41169,-2.401985,0.7067341,1.264067,0.426569,-1.059481,-0.03226046,13.1,16.4,-1.054038,0.4725168,-0.3523226,-0.4746776,-3.778844,-0.7856812,0.7603791,1.427111,0.3010194,-0.2996621,0.5891699,0.1924734,-0.7713974,-0.370885,-0.001247158,0.8119358,1.473577,0.1153235,0.3843037,1.211566,0.4014246,284.9861,237.3589,28.72736,False
0,0.7888896,-0.0992496,-0.326759,0.594366,-1.312918,1.418259,-2.404768,0.7036618,1.263089,0.4260614,-1.060197,-0.06550258,13.1,16.4,-1.019303,0.5634445,-0.3890744,-0.4850458,-3.77285,-0.7812665,0.7580884,1.426241,0.3019845,-0.3014246,0.6092728,0.2383535,-0.767245,-0.3603587,-0.00549996,0.8115047,1.47375,0.1166213,0.3807924,1.20971,0.399133,284.9398,237.7404,27.92863,False
0,0.8000008,-0.04182731,-0.3096555,0.5558811,-1.314446,1.42372,-2.407582,0.7006907,1.262161,0.4257712,-1.060029,0.01551474,13.1,16.4,-0.9861329,0.5344378,-0.2351061,-0.4859971,-3.760432,-0.7827582,0.7559306,1.425712,0.3027115,-0.3300943,0.6892734,0.2249555,-0.76527,-0.3458205,-0.01150965,0.8111069,1.473863,0.1179211,0.377398,1.207586,0.3967048,285.0269,238.733,26.4888,False
0,0.8111119,-0.007840306,-0.2926262,0.5227442,-1.316133,1.429004,-2.410007,0.6977798,1.261173,0.4255805,-1.060807,-0.07160922,13.1,16.4,-0.9759549,0.3517507,-0.05568737,-0.4800929,-3.755098,-0.7768723,0.7537488,1.425205,0.3032246,-0.3376647,0.731992,0.195309,-0.7642127,-0.3319688,-0.01748445,0.8107145,1.474027,0.119118,0.37432,1.205336,0.3941133,285.257,239.8529,24.95929,False
0,0.8222231,0.007045925,-0.2883617,0.5109935,-1.318012,1.435109,-2.411988,0.6947111,1.26001,0.4256797,-1.060655,0.01414245,13.1,16.4,-0.9714245,0.3174393,-0.02940518,-0.4818377,-3.75115,-0.7699385,0.7513878,1.424499,0.304096,-0.3452583,0.7160715,0.1804083,-0.7627288,-0.3217037,-0.02097719,0.8102837,1.474148,0.12023,0.3716148,1.203091,0.39139,285.5385,240.59,23.78728,False
0,0.8333342,0.0239235,-0.2510066,0.5097259,-1.321157,1.440041,-2.414046,0.6918738,1.258602,0.425879,-1.059739,0.08314501,13.7,17.3,-0.9569454,0.2348543,0.03580838,-0.4793903,-3.747551,-0.7630947,0.74936,1.423892,0.3047879,-0.3390756,0.6606975,0.1684782,-0.7613935,-0.3138117,-0.02314074,0.8097591,1.474278,0.1211836,0.3691253,1.200926,0.3887363,285.785,240.8255,22.98162,False
0,0.8444453,0.03017087,-0.2179363,0.5138131,-1.324582,1.445202,-2.415785,0.6890066,1.257356,0.4259896,-1.058539,0.1086432,13.7,17.3,-0.9123574,0.2638275,0.02080083,-0.4826383,-3.741886,-0.7594332,0.7471954,1.422978,0.3056018,-0.3231921,0.6159239,0.1682317,-0.7595761,-0.3059007,-0.02588672,0.8092175,1.474432,0.1223526,0.366654,1.198892,0.3863477,285.9312,240.9371,22.27705,False
0,0.8555565,0.0416882,-0.1731479,0.5125121,-1.328507,1.449311,-2.417611,0.6864344,1.256156,0.4261963,-1.058447,0.007281085,13.7,17.3,-0.8436662,0.3624086,-0.0310498,-0.4891337,-3.73391,-0.7593764,0.7451048,1.422204,0.3064663,-0.2977295,0.5572624,0.1721356,-0.7576592,-0.2999934,-0.02784228,0.8086252,1.474583,0.1234033,0.3640608,1.196996,0.3843187,285.9717,241.1323,21.5701,False
0,0.8666676,0.06286403,-0.1454198,0.500636,-1.331756,1.453392,-2.41995,0.6839336,1.255083,0.4263198,-1.057802,0.0588144,13.7,17.3,-0.7991973,0.42872,-0.05317377,-0.494728,-3.725449,-0.7595685,0.7429968,1.421393,0.3073761,-0.2827289,0.5316043,0.1911356,-0.7549854,-0.2924885,-0.03080319,0.8080573,1.474705,0.1245754,0.3614503,1.195217,0.3826904,285.9246,241.6159,20.71349,False
0,0.8777788,0.07556953,-0.1305189,0.4867018,-1.334841,1.457451,-2.422158,0.6815655,1.254176,0.4264405,-1.057843,-0.004435173,13.7,17.3,-0.7428556,0.4778416,-0.05742645,-0.4998642,-3.716202,-0.7612081,0.7409028,1.420944,0.308249,-0.2826753,0.5422481,0.1943646,-0.7529411,-0.282996,-0.03462216,0.8075013,1.474893,0.1258161,0.3588863,1.193566,0.3814022,285.9046,242.4078,19.70446,False
0,0.8888899,0.09258807,-0.1284511,0.4600561,-1.337169,1.461538,-2.4247,0.6793854,1.253474,0.4266031,-1.058151,-0.02819742,11.7,18.8,-0.711929,0.4693526,-0.05559474,-0.5035462,-3.709532,-0.7601991,0.738897,1.4205,0.3091261,-0.2901191,0.5507808,0.1944493,-0.7509683,-0.2735125,-0.03797508,0.8068893,1.475049,0.1269865,0.3565238,1.192057,0.3803975,285.9051,243.2527,18.7213,False
0,0.900001,0.1117736,-0.1349009,0.432377,-1.339017,1.465608,-2.427552,0.6772535,1.252903,0.4269137,-1.057827,0.02967663,11.7,18.8,-0.628823,0.3780452,-0.07621127,-0.5053694,-3.710213,-0.755428,0.7371061,1.420479,0.3098941,-0.297632,0.5337728,0.1912617,-0.7490646,-0.2652723,-0.04045528,0.806296,1.475158,0.1281762,0.3543878,1.190674,0.3795943,285.9072,243.9814,17.92212,False
0,0.9111122,0.1299434,-0.1508803,0.4164638,-1.340666,1.47009,-2.430629,0.6753104,1.252253,0.4271219,-1.057883,-0.005615949,11.7,18.8,-0.5797226,0.2918884,-0.08266962,-0.5065237,-3.710991,-0.749841,0.7353671,1.420369,0.3106833,-0.2913336,0.4964764,0.1900383,-0.7471642,-0.2587214,-0.04220924,0.8057688,1.475301,0.1291611,0.3524635,1.189405,0.3788959,285.928,244.6656,17.19573,False
0,0.9222233,0.1448519,-0.1508859,0.4026112,-1.342784,1.474186,-2.433685,0.6732371,1.251475,0.4272888,-1.057981,-0.009065844,11.7,18.8,-0.5550637,0.2428471,-0.07475734,-0.50768,-3.709689,-0.7456244,0.7336004,1.420173,0.3114049,-0.2829381,0.4666545,0.1813632,-0.7456287,-0.2523284,-0.04406573,0.8052907,1.475464,0.1301687,0.3507315,1.188231,0.3782229,285.9718,245.1657,16.62263,False
0,0.9333345,0.1629215,-0.1455866,0.381264,-1.344522,1.4777,-2.436929,0.6715281,1.250842,0.4275942,-1.057889,0.008337477,8.8,17.6,-0.518659,0.1820847,-0.0638496,-0.5078659,-3.710214,-0.7405873,0.7319713,1.419978,0.312072,-0.2629815,0.4315414,0.1523516,-0.7450438,-0.2468738,-0.04578666,0.8047689,1.475582,0.1310668,0.349136,1.187114,0.3775387,285.9987,245.4932,16.18184,False
0,0.9444456,0.1703228,-0.132818,0.3716084,-1.34686,1.481084,-2.439836,0.6696424,1.250217,0.4278255,-1.05772,0.01519379,8.8,17.6,-0.4791867,0.1874016,-0.05665286,-0.5097775,-3.707297,-0.7391455,0.7304827,1.419493,0.3125796,-0.2482093,0.4166488,0.1351634,-0.7442731,-0.2405391,-0.048265,0.8041681,1.475685,0.1320016,0.3476422,1.185971,0.3767807,285.9732,245.7805,15.78822,False
0,0.9555568,0.1660532,-0.1361499,0.3481944,-1.348142,1.484383,-2.442256,0.6679687,1.24974,0.4280784,-1.057805,-0.008047059,8.8,17.6,-0.461076,0.2267711,-0.04791953,-0.5125483,-3.70185,-0.7394147,0.7290204,1.419079,0.3131213,-0.215329,0.3793257,0.1252353,-0.743284,-0.2358949,-0.0504661,0.8035348,1.47587,0.1329422,0.3461435,1.184727,0.3759226,285.9452,246.1198,15.29753,False
0,0.9666679,0.1544444,-0.1672667,0.3142735,-1.348142,1.488316,-2.44449,0.6663604,1.24943,0.4283748,-1.057312,0.04504255,8.8,17.6,-0.4342846,0.3436047,-0.002340361,-0.5168189,-3.688161,-0.7473299,0.7279223,1.418695,0.3136384,-0.1993987,0.356909,0.1261191,-0.7419796,-0.2309393,-0.05231594,0.8029419,1.475963,0.1338589,0.3447353,1.183352,0.3750104,285.9915,246.4731,14.70571,False
0,0.977779,0.1460952,-0.2089826,0.2889184,-1.347521,1.492773,-2.446822,0.6647046,1.249207,0.4285574,-1.056634,0.06146018,8.8,17.6,-0.4096508,0.3626238,0.01894334,-0.5191705,-3.680667,-0.7500881,0.7266647,1.418636,0.3142219,-0.1738611,0.3248717,0.1322331,-0.7404387,-0.2270319,-0.05412688,0.8023423,1.476057,0.1347167,0.3433019,1.181873,0.3740953,286.1221,246.9673,13.95977,False
0,0.9888902,0.1337947,-0.3275817,0.2309296,-1.343171,1.499079,-2.449356,0.663326,1.249363,0.4288185,-1.056154,0.04331507,8.8,15,-0.3390261,0.1996913,0.02442971,-0.5169398,-3.683848,-0.7457589,0.7257197,1.418791,0.3147826,-0.1559244,0.2950447,0.1181703,-0.7396451,-0.2234678,-0.05552132,0.8017212,1.476093,0.1354711,0.3419404,1.180362,0.3732048,286.3591,247.3041,13.37864,False
0,1.000001,0.1350515,-0.3735478,0.2002761,-1.340865,1.504417,-2.452287,0.6619008,1.249148,0.4290047,-1.056058,0.008494285,8.8,15,-0.323006,0.1390624,0.01631038,-0.5166964,-3.684941,-0.7417167,0.7245111,1.418758,0.3154395,-0.1496789,0.283373,0.09998339,-0.7393095,-0.219216,-0.05727634,0.8011092,1.476237,0.1362841,0.3406723,1.178914,0.3723335,286.6582,247.4087,13.05984,False
0,1.011112,0.1480307,-0.4248337,0.1589782,-1.337131,1.509809,-2.455568,0.6607766,1.249106,0.4292579,-1.055825,0.02124045,8.8,15,-0.2591081,-0.03517361,-0.02619554,-0.5137051,-3.696825,-0.7306686,0.7234823,1.418824,0.3159907,-0.1253842,0.2418213,0.08477262,-0.7389446,-0.2170739,-0.05817888,0.8004388,1.476295,0.1368718,0.3395375,1.177597,0.3714204,286.963,247.2218,13.08548,False
0,1.022224,0.1469606,-0.4248744,0.1525872,-1.335523,1.514454,-2.458219,0.6592811,1.248973,0.4295211,-1.056396,-0.05225451,8.8,15,-0.2452983,-0.05211005,-0.03604367,-0.5138463,-3.698792,-0.7266408,0.7222975,1.418722,0.3165629,-0.1158299,0.2279483,0.08466148,-0.7380935,-0.2138197,-0.05955148,0.7998258,1.476373,0.1374948,0.3386634,1.176424,0.3703769,287.2692,246.4686,13.64691,False
0,1.033335,0.1478267,-0.3834101,0.1353322,-1.334359,1.517381,-2.460582,0.6585547,1.248777,0.4299181,-1.056738,-0.03095899,7,13.5,-0.1783901,-0.004976332,-0.05317722,-0.5157132,-3.698219,-0.7275649,0.7214419,1.418468,0.3168881,-0.1021083,0.1959806,0.07700969,-0.7375603,-0.2120678,-0.06018957,0.7991655,1.476478,0.1380274,0.3379502,1.175363,0.3692207,287.4334,245.7798,14.06898,False
0,1.044446,0.1434327,-0.3536433,0.128791,-1.333437,1.520702,-2.462859,0.6576952,1.24859,0.4301786,-1.056237,0.04597831,7,13.5,-0.1582347,0.1026418,-0.05262726,-0.5184419,-3.694006,-0.72983,0.7204687,1.41835,0.3172038,-0.08829978,0.1576151,0.07784849,-0.7369329,-0.2104807,-0.06064444,0.7985739,1.476562,0.1385553,0.3373515,1.174339,0.3680164,287.5577,245.0614,14.44553,False
0,1.055557,0.1431829,-0.2993574,0.1199946,-1.333322,1.522577,-2.464913,0.6571994,1.24842,0.4304898,-1.056236,-0.0003845927,7,13.5,-0.1561651,0.1398346,-0.04142029,-0.5212813,-3.687598,-0.7339813,0.7195033,1.418241,0.3175135,-0.08095941,0.1266928,0.07556538,-0.7361739,-0.2103447,-0.06029796,0.7979335,1.47666,0.138979,0.3366546,1.173336,0.3668735,287.6769,244.6678,14.4482,False
0,1.066668,0.1493605,-0.2514325,0.1122966,-1.333339,1.524374,-2.467259,0.6567529,1.248364,0.4307997,-1.05604,0.01797775,7,13.5,-0.1421621,0.2066324,-0.005778305,-0.523145,-3.679265,-0.7401186,0.7187883,1.418304,0.3177481,-0.08207453,0.1160537,0.0723373,-0.7356402,-0.2087853,-0.06044869,0.7974145,1.476763,0.1393986,0.3361576,1.172359,0.3659461,287.7977,244.4254,14.31486,False
0,1.077779,0.1546006,-0.2333426,0.1036836,-1.332787,1.5267,-2.469751,0.6563036,1.248259,0.4310868,-1.056117,-0.007192728,7,13.5,-0.1090339,0.1959318,0.005594556,-0.5239232,-3.676269,-0.7427532,0.7180983,1.41836,0.3180614,-0.07792325,0.09476399,0.06372064,-0.7352461,-0.2082812,-0.06009929,0.7967979,1.47684,0.1397943,0.3357875,1.171419,0.3652893,287.9346,244.3358,14.14343,False
0,1.08889,0.1587183,-0.203598,0.08328788,-1.332158,1.527882,-2.472024,0.6560119,1.248103,0.431267,-1.056417,-0.0274467,4.7,9,-0.06866302,0.1312648,-0.02403642,-0.5241921,-3.679383,-0.740665,0.7176491,1.418408,0.3183053,-0.07374261,0.06919426,0.06041227,-0.7347315,-0.2084419,-0.05932618,0.7961318,1.476904,0.1400313,0.3356022,1.170553,0.3649566,288.0788,244.4369,13.86884,False
0,1.100002,0.1649365,-0.1685384,0.05861041,-1.331689,1.528448,-2.474234,0.6560043,1.247967,0.431541,-1.056429,-0.0008003305,4.7,9,-0.04533954,0.1005918,-0.04579598,-0.5252116,-3.681002,-0.7393944,0.7170544,1.418274,0.3186951,-0.06100506,0.03933164,0.06236151,-0.7339677,-0.2092105,-0.05865026,0.7955505,1.477025,0.1403375,0.3355286,1.16977,0.3649366,288.2027,244.5947,13.65956,False
0,1.111113,0.1647609,-0.1345951,0.02967561,-1.330982,1.528283,-2.47601,0.656094,1.247746,0.4317477,-1.056424,0.0003926815,4.7,9,-0.01031554,0.03913926,-0.07749539,-0.5255024,-3.686249,-0.7359886,0.7166555,1.418198,0.3189681,-0.05251703,0.03506186,0.05908497,-0.733523,-0.2087728,-0.05865,0.7950246,1.477095,0.140559,0.3354986,1.169027,0.3651391,288.2892,244.6599,13.65299,False
0,1.122224,0.1710453,-0.1133506,0.01252069,-1.330321,1.528601,-2.478186,0.656094,1.247491,0.4319687,-1.056452,-0.002610457,4.7,9,0.019298,0.01178505,-0.11205,-0.5266635,-3.690488,-0.73338,0.7163212,1.418239,0.3191178,-0.04714009,0.04036836,0.06332643,-0.7327129,-0.2075985,-0.05928196,0.7945069,1.477131,0.1407402,0.3355373,1.168287,0.3655069,288.3605,244.696,13.6959,False
0,1.133335,0.1751051,-0.07188286,-0.006867867,-1.330169,1.52754,-2.48001,0.6562612,1.24724,0.4322345,-1.056148,0.02776312,4.7,9,0.05112975,0.01942801,-0.1271403,-0.5284308,-3.692327,-0.7333422,0.7160023,1.418049,0.3192658,-0.03229578,0.0286307,0.05679185,-0.7323666,-0.2077925,-0.05935334,0.7939604,1.477219,0.1406994,0.3356928,1.168005,0.3658624,288.0904,245.3702,12.95235,False
0,1.144446,0.1877239,-0.03671606,-0.01451506,-1.330249,1.526806,-2.482342,0.6564745,1.247044,0.4324117,-1.056365,-0.02006461,1,5.5,0.07024653,0.02804096,-0.1346658,-0.5300543,-3.693838,-0.7336029,0.7157413,1.418018,0.3193145,-0.0270263,0.01797955,0.05246322,-0.7318915,-0.2079773,-0.05904521,0.7934655,1.477215,0.1408384,0.3359025,1.167832,0.3661388,287.8388,245.6709,12.58156,False
0,1.155557,0.2013785,0.003745586,-0.03071007,-1.330417,1.525087,-2.484646,0.6567145,1.246851,0.4326673,-1.056332,0.003203692,1,5.5,0.09263302,0.03762972,-0.130488,-0.5315536,-3.694429,-0.7349302,0.7155001,1.417953,0.3194289,-0.01532855,0.006230704,0.05341066,-0.7312401,-0.2084666,-0.05893948,0.7930082,1.477232,0.1408415,0.3361177,1.167683,0.3663487,287.6035,245.7101,12.42787,False
0,1.166668,0.2171751,0.0431853,-0.03837936,-1.330839,1.523415,-2.487184,0.6570991,1.24675,0.4329352,-1.0567,-0.03373631,1,5.5,0.1193921,0.02157254,-0.1169867,-0.5319739,-3.69627,-0.7354583,0.7152945,1.418034,0.3195472,-0.005777176,-0.0086951,0.05222639,-0.7307469,-0.2091274,-0.05877037,0.7925552,1.477131,0.1408174,0.3363307,1.16755,0.366565,287.3719,245.7532,12.26828,False
0,1.17778,0.2287767,0.06769596,-0.04703493,-1.331156,1.521593,-2.489723,0.6574044,1.246634,0.4331234,-1.056869,-0.01523709,1,5.5,0.1439542,-0.01353981,-0.1174751,-0.531983,-3.699965,-0.7347512,0.7151913,1.418012,0.3195579,-0.003712155,-0.02146535,0.04684757,-0.730325,-0.2100141,-0.05817436,0.7921591,1.477165,0.1407785,0.3365513,1.167421,0.3668075,287.1258,245.8714,12.04206,False
0,1.188891,0.2329264,0.08998348,-0.06632339,-1.331069,1.519445,-2.491977,0.6576607,1.246591,0.4333072,-1.057,-0.01195125,0.4,4.3,0.1621531,-0.03594114,-0.111414,-0.5319435,-3.703147,-0.7344497,0.7151248,1.417968,0.3196113,0.001580305,-0.03212193,0.04570334,-0.7299511,-0.2109225,-0.0576585,0.7916656,1.477126,0.1407075,0.3367949,1.16729,0.3671233,286.8684,246.0739,11.68726,False
0,1.200002,0.2297095,0.09093489,-0.08549751,-1.330428,1.51771,-2.493994,0.6580759,1.246531,0.4334464,-1.05693,0.006363674,0.4,4.3,0.1664635,-0.04131752,-0.1061554,-0.532057,-3.705303,-0.734551,0.7148921,1.417983,0.3196251,0.0100337,-0.05023734,0.04132859,-0.7295671,-0.2126708,-0.05683133,0.791273,1.47721,0.1407232,0.3370844,1.167158,0.3675015,286.5977,246.348,11.2398,False
0,1.211113,0.2222921,0.08018503,-0.09821938,-1.329567,1.516333,-2.49591,0.6584003,1.246574,0.433553,-1.056606,0.02951222,0.4,4.3,0.1645072,-0.05003004,-0.08490974,-0.5315968,-3.706854,-0.7349803,0.7148449,1.41801,0.3195462,0.01421618,-0.06514362,0.03485037,-0.7295048,-0.214551,-0.05574209,0.7910019,1.477305,0.1404676,0.337349,1.167021,0.3679181,286.3315,246.8497,10.62515,False
0,1.222224,0.2117291,0.05769016,-0.1119418,-1.328174,1.515525,-2.497774,0.6587578,1.246528,0.4337406,-1.056165,0.04002967,0.4,4.3,0.1507614,-0.03422298,-0.06762397,-0.5319254,-3.706831,-0.736237,0.7146995,1.418051,0.3194821,0.02161291,-0.07153331,0.02731534,-0.729476,-0.2160796,-0.05519135,0.7908037,1.477405,0.1401691,0.3375917,1.166891,0.3683585,286.0823,247.4314,9.93782,False
0,1.233335,0.1990166,0.03945873,-0.1246235,-1.326647,1.514557,-2.499334,0.6590834,1.246571,0.4339111,-1.055906,0.02330828,0.4,4.3,0.1380528,-0.007754192,-0.05131613,-0.5324644,-3.705631,-0.7383716,0.7146199,1.418064,0.3193727,0.02369339,-0.07364977,0.02090238,-0.7294121,-0.2174085,-0.05453515,0.7905525,1.477431,0.1399646,0.3378677,1.166779,0.3687709,285.8462,247.827,9.461995,False
0,1.244446,0.1894334,0.03725014,-0.1320581,-1.325631,1.513199,-2.500791,0.6594801,1.246556,0.4341078,-1.055705,0.01824831,2.7,5.5,0.1327685,0.01769993,-0.04039473,-0.5330929,-3.70442,-0.7408019,0.7144899,1.418204,0.3193541,0.02576531,-0.08002618,0.01445965,-0.7296374,-0.2189937,-0.05368853,0.7902563,1.477391,0.1397119,0.3381346,1.16669,0.3692922,285.4884,249.0688,8.350553,False
0,1.255558,0.1745095,0.03821633,-0.1384429,-1.32451,1.511751,-2.501837,0.6598551,1.246664,0.4342632,-1.055459,0.02241339,2.7,5.5,0.1348251,0.02204388,-0.04889433,-0.5339723,-3.704808,-0.7419889,0.7144898,1.418271,0.3192632,0.02569024,-0.08319344,0.004862771,-0.7298436,-0.2205261,-0.05283125,0.7900046,1.477402,0.139529,0.3384268,1.166588,0.3697882,285.2622,249.6174,7.757742,False
0,1.266669,0.1606444,0.04240887,-0.1395118,-1.323728,1.510344,-2.502914,0.6602642,1.246806,0.4343786,-1.055483,-0.002411649,2.7,5.5,0.1433201,0.01676199,-0.05325977,-0.5343366,-3.705891,-0.7428629,0.7146325,1.418345,0.3192241,0.02672626,-0.08531053,0.001646616,-0.7299895,-0.2218835,-0.0521186,0.7898788,1.477511,0.1394229,0.3387207,1.166514,0.3702152,285.0593,249.9816,7.330102,False
0,1.27778,0.1521206,0.04236001,-0.1416351,-1.322692,1.50895,-2.503964,0.6606324,1.246949,0.4345183,-1.055177,0.02805375,2.7,5.5,0.1561121,-0.001296908,-0.05670422,-0.5344011,-3.707645,-0.7435032,0.7147472,1.418375,0.319047,0.03307698,-0.09170357,-0.002679121,-0.7300811,-0.2236752,-0.05140673,0.7896941,1.47747,0.1391611,0.3390205,1.166454,0.3706035,284.9313,250.0046,7.198113,False
0,1.288891,0.1330036,0.03057707,-0.1362321,-1.321595,1.508274,-2.504744,0.6610278,1.247157,0.4344811,-1.055253,-0.007084229,3.7,6.4,0.167886,-0.02366744,-0.05485438,-0.5340682,-3.709773,-0.7439527,0.7148521,1.418471,0.3189993,0.03195582,-0.09701233,-0.008014814,-0.7303,-0.2256048,-0.05020139,0.7894102,1.47751,0.1389191,0.3393052,1.166432,0.3709837,284.8455,250.0522,7.068438,False
0,1.300002,0.1277329,0.01885182,-0.1329696,-1.320416,1.50757,-2.505882,0.6613411,1.247379,0.4346559,-1.05533,-0.00683344,3.7,6.4,0.1796429,-0.0428282,-0.05404479,-0.5337667,-3.712079,-0.7443591,0.7149832,1.418579,0.3188941,0.04148245,-0.1087433,-0.01237937,-0.7305061,-0.2281368,-0.04906794,0.7892505,1.477452,0.1385524,0.3395948,1.166429,0.3713663,284.7931,250.0185,7.064332,False
0,1.311113,0.1108245,-0.01104736,-0.131739,-1.318592,1.507592,-2.506628,0.6615242,1.247635,0.4348075,-1.054989,0.03124882,3.7,6.4,0.176626,-0.06430767,-0.03502724,-0.5325688,-3.713756,-0.744785,0.7150564,1.41863,0.3187869,0.04680167,-0.1140907,-0.01136635,-0.7304875,-0.2304452,-0.04801733,0.7890028,1.477402,0.1382957,0.3399006,1.16643,0.3717765,284.7372,250.0554,7.042303,False
0,1.322224,0.09813856,-0.03346784,-0.1294842,-1.316858,1.507629,-2.507318,0.6617419,1.247901,0.4349151,-1.055416,-0.03918233,3.7,6.4,0.1714091,-0.07189219,-0.02226155,-0.5316229,-3.714952,-0.7454979,0.7151992,1.418745,0.3186693,0.05315762,-0.1215596,-0.01463041,-0.7306771,-0.2329684,-0.04698828,0.7888674,1.477444,0.1381109,0.3402867,1.166436,0.3721677,284.8008,250.2814,6.862078,False
0,1.333336,0.08016457,-0.06336592,-0.1271883,-1.314764,1.508202,-2.507783,0.6618621,1.248174,0.4350169,-1.054997,0.03870765,3.7,6.4,0.159741,-0.07303426,-0.01579177,-0.5309997,-3.716145,-0.7458806,0.7153163,1.418814,0.3185201,0.05742618,-0.1215729,-0.0135951,-0.7307267,-0.2350501,-0.04621517,0.788729,1.477414,0.1378105,0.340614,1.166437,0.3725393,284.7376,250.167,6.989155,False
0,1.344447,0.06327806,-0.09859683,-0.1259324,-1.312347,1.509197,-2.508244,0.662004,1.248419,0.4349532,-1.054995,-0.0001698134,2.9,4.5,0.1427777,-0.06252629,-0.002787691,-0.5304815,-3.716264,-0.7468766,0.7154948,1.418837,0.318243,0.05742814,-0.1205116,-0.01358933,-0.7307581,-0.2370798,-0.04531901,0.7886624,1.477369,0.1375659,0.3408733,1.166457,0.3728469,284.7519,249.9165,7.246031,False
0,1.355558,0.05059852,-0.1210034,-0.1215481,-1.310125,1.510189,-2.508636,0.6621175,1.248703,0.4349627,-1.054772,0.02059005,2.9,4.5,0.1193153,-0.03383146,0.0008369461,-0.530784,-3.715265,-0.748319,0.7156042,1.418884,0.3180122,0.06062617,-0.125852,-0.01149706,-0.7307363,-0.2394529,-0.04433843,0.7885592,1.47735,0.1372755,0.3410998,1.166482,0.3730996,284.7944,249.608,7.565632,False
0,1.366669,0.04217422,-0.1434082,-0.1203664,-1.307658,1.51124,-2.509107,0.6622356,1.24897,0.4348669,-1.05478,-0.0007801946,2.9,4.5,0.1055431,-0.01904501,0.01278528,-0.5306311,-3.714289,-0.7501121,0.7156802,1.418947,0.3178043,0.06055392,-0.1482139,-0.01369802,-0.7309291,-0.2430389,-0.04228114,0.7883227,1.477374,0.1369693,0.3412928,1.166517,0.3732554,284.8385,249.2312,8.000722,False
0,1.37778,0.03686172,-0.1466322,-0.1214074,-1.305572,1.511791,-2.509529,0.6623787,1.249239,0.4348142,-1.054861,-0.007357857,2.9,4.5,0.08437744,-0.01074282,0.03431744,-0.5300117,-3.712576,-0.751744,0.7157747,1.419084,0.3176343,0.05526996,-0.1300888,-0.01467477,-0.7311416,-0.2443329,-0.04183666,0.7882533,1.477345,0.1366923,0.3414842,1.166557,0.3732953,284.906,248.5465,8.747743,False
0,1.388891,0.01652056,-0.1232667,-0.1172497,-1.304232,1.511582,-2.508989,0.6626762,1.249403,0.4346926,-1.05507,-0.01889167,0.4,3.5,0.07591752,-0.00232989,0.04511131,-0.5294892,-3.71108,-0.7535819,0.7159797,1.419085,0.3173904,0.05001374,-0.1130397,-0.01140415,-0.7313355,-0.2452654,-0.04160044,0.7881129,1.477179,0.1364815,0.3416756,1.166608,0.3732574,284.9948,247.6965,9.629397,False
0,1.400002,0.004731984,-0.1073146,-0.1119883,-1.30303,1.511528,-2.508621,0.6628767,1.249627,0.4346142,-1.055287,-0.01961441,0.4,3.5,0.07904822,0.01370743,0.03989735,-0.5299259,-3.709726,-0.7558328,0.7161019,1.419153,0.3171558,0.04785442,-0.1087601,-0.01671219,-0.7317807,-0.2470171,-0.04074477,0.7880338,1.477068,0.1360924,0.341877,1.166655,0.3731834,285.0923,246.7605,10.59521,False
0,1.411114,-0.00392966,-0.07536781,-0.1068156,-1.302363,1.51069,-2.508069,0.6630474,1.249729,0.4345291,-1.054662,0.05733472,0.4,3.5,0.07995181,0.01496143,0.01859419,-0.5304958,-3.710081,-0.7564608,0.716273,1.419178,0.3170111,0.05107481,-0.1034447,-0.0145968,-0.7319555,-0.2484853,-0.04029736,0.7880133,1.477156,0.1357121,0.3420976,1.166695,0.3731504,285.1869,245.8954,11.46393,False
0,1.422225,-0.002994963,-0.04441954,-0.09737507,-1.302131,1.50989,-2.507928,0.6632443,1.249777,0.4345241,-1.05486,-0.01846196,0.4,3.5,0.08938909,-0.01354186,-0.008364962,-0.5305645,-3.713072,-0.7552032,0.7164047,1.419156,0.3168342,0.0532537,-0.09387501,-0.01139025,-0.7319778,-0.2496948,-0.04010667,0.7881466,1.477215,0.1353996,0.342314,1.166747,0.3732006,285.2819,245.3497,12.02115,False
0,1.433336,-0.002076277,-0.01028887,-0.09008569,-1.302161,1.508684,-2.507606,0.6634532,1.249791,0.4343429,-1.055055,-0.01756656,0.4,3.5,0.09679006,-0.04642081,-0.02362404,-0.5300138,-3.716509,-0.7535718,0.7165653,1.4192,0.3166833,0.05112844,-0.08854033,-0.01242482,-0.7321008,-0.2508997,-0.03970906,0.788129,1.477196,0.1350932,0.3424957,1.16681,0.37332,285.3759,245.153,12.25216,False
0,1.444447,-0.003270298,0.01848174,-0.08703505,-1.302058,1.507246,-2.507126,0.6636168,1.249918,0.4341817,-1.055582,-0.04790353,0.2,7.8,0.09893645,-0.04962598,-0.02260112,-0.5296516,-3.717614,-0.7537856,0.7167315,1.41934,0.3164301,0.05009473,-0.08428563,-0.009215062,-0.7321717,-0.2520914,-0.03932264,0.7880404,1.477154,0.1348708,0.3426453,1.166858,0.3735134,285.4588,245.2549,12.17912,False
0,1.455558,-0.003307857,0.02699961,-0.08813724,-1.30161,1.506232,-2.506835,0.6638175,1.25009,0.4341776,-1.055634,-0.004407625,0.2,7.8,0.09472772,-0.04756835,-0.01509391,-0.529266,-3.718174,-0.7542123,0.7168635,1.419405,0.316211,0.04479706,-0.08321707,-0.005979853,-0.7321206,-0.2534642,-0.03869413,0.7880115,1.47721,0.1346707,0.3428013,1.166872,0.3737634,285.4981,245.556,11.92444,False
0,1.466669,-0.01088217,0.0525493,-0.08506162,-1.301767,1.504539,-2.505956,0.6639705,1.25017,0.4340818,-1.055587,0.004399592,0.2,7.8,0.07996546,-0.03500202,0.007490881,-0.5288202,-3.716955,-0.7556767,0.7167763,1.419476,0.315923,0.04583802,-0.08534513,-0.008136475,-0.7324257,-0.2550435,-0.03801955,0.7878532,1.477123,0.1344357,0.3429337,1.166883,0.3740301,285.5056,246.0197,11.56924,False
0,1.47778,-0.01519559,0.06424484,-0.08511627,-1.301586,1.503159,-2.505296,0.6641451,1.250347,0.4339817,-1.055704,-0.01069384,0.2,7.8,0.06405348,-0.006404676,0.02383744,-0.5289155,-3.714531,-0.7578752,0.7168593,1.419542,0.3157327,0.03840398,-0.08001049,-0.005938667,-0.7324204,-0.2561683,-0.03728532,0.7878633,1.477056,0.1341438,0.3430309,1.16692,0.3742963,285.5649,246.3301,11.32523,False
0,1.488891,-0.01953686,0.08343819,-0.07775231,-1.302012,1.501504,-2.504501,0.6642936,1.250492,0.4338765,-1.055362,0.03140113,1.6,11.9,0.06620213,0.01377153,0.03145468,-0.5290518,-3.712685,-0.7602313,0.7170306,1.419581,0.3156273,0.03307274,-0.07892713,-0.006971254,-0.7326005,-0.2573596,-0.0365945,0.7879062,1.477027,0.1338608,0.3431301,1.166968,0.3745621,285.6619,246.4028,11.27077,False
0,1.500003,-0.02276221,0.08982757,-0.07564953,-1.302101,1.500054,-2.50374,0.6645182,1.250593,0.4337685,-1.055521,-0.01476778,1.6,11.9,0.06507672,0.01383727,0.02400055,-0.5292245,-3.712592,-0.7609589,0.7171817,1.41965,0.3154464,0.03198064,-0.07784808,-0.01122275,-0.7328444,-0.2586405,-0.0359833,0.7879373,1.476991,0.1335995,0.3431947,1.167025,0.3748615,285.7587,246.6156,11.11906,False
0,1.511114,-0.02919924,0.1004677,-0.07250199,-1.302457,1.498396,-2.502748,0.664605,1.250802,0.4336517,-1.055545,-0.002003912,1.6,11.9,0.06819911,-0.008388676,0.00780463,-0.5289517,-3.714371,-0.7604238,0.7175237,1.419771,0.3153052,0.02982729,-0.08103202,-0.01335827,-0.7331768,-0.2601836,-0.0350994,0.7882131,1.477053,0.1332567,0.343248,1.167089,0.3752033,285.8875,246.7774,11.04072,False
0,1.522225,-0.04091186,0.1004291,-0.06929526,-1.302556,1.497135,-2.501628,0.6647669,1.250987,0.4335289,-1.055581,-0.003230306,1.6,11.9,0.07138479,-0.02963423,0.002262319,-0.5284697,-3.716005,-0.7598054,0.7177176,1.419829,0.3149846,0.03083962,-0.08208229,-0.01976347,-0.7336205,-0.2616355,-0.03432655,0.7882748,1.477015,0.1329155,0.3433032,1.16716,0.3756141,285.9844,247.1548,10.77434,False
0,1.533336,-0.05788191,0.0832847,-0.07345618,-1.302016,1.496265,-2.50026,0.6648601,1.251201,0.4332802,-1.055466,0.01062979,1.6,11.9,0.07045788,-0.05956592,0.01372599,-0.5269368,-3.717705,-0.7590803,0.7179527,1.41996,0.314791,0.03189539,-0.08527596,-0.02084607,-0.7338308,-0.263187,-0.03363466,0.7883613,1.477039,0.1326768,0.3433693,1.16723,0.3760768,286.061,247.6438,10.40981,False
0,1.544447,-0.06630883,0.06084354,-0.07972824,-1.301121,1.495596,-2.499066,0.664854,1.25143,0.4331677,-1.055287,0.01626636,2.7,15,0.06427121,-0.0693773,0.03926291,-0.5253304,-3.716966,-0.7602004,0.7181522,1.420068,0.3145068,0.02868834,-0.08633076,-0.02189695,-0.7341658,-0.2647018,-0.03270122,0.7884268,1.477083,0.1323609,0.3434021,1.167292,0.3766664,286.259,247.3344,10.94278,False
0,1.555558,-0.07584563,0.04694167,-0.08284475,-1.300467,1.494792,-2.497609,0.66493,1.25162,0.4330442,-1.055009,0.02536153,2.7,15,0.04527361,-0.06005064,0.06611675,-0.5240355,-3.715267,-0.7614555,0.7183057,1.420168,0.3142889,0.02977701,-0.08207323,-0.02082647,-0.7343454,-0.2658029,-0.03233743,0.7885263,1.477133,0.1322048,0.3434807,1.16736,0.3773609,286.5845,246.706,11.89134,False
0,1.566669,-0.08638654,0.02240323,-0.08058229,-1.299446,1.49473,-2.496294,0.6648393,1.251876,0.4329925,-1.055208,-0.01829342,2.7,15,0.0367751,-0.04200219,0.07273016,-0.5235066,-3.713479,-0.7632231,0.7183378,1.420224,0.3140941,0.02658539,-0.07353009,-0.0229101,-0.7346804,-0.2665013,-0.03199469,0.7886031,1.47711,0.1319301,0.3434835,1.167492,0.3778609,286.8448,245.8089,13.02521,False
0,1.577781,-0.08528373,0.01492765,-0.08373712,-1.298601,1.494222,-2.495367,0.6648197,1.252211,0.4329207,-1.055115,0.008714734,2.7,15,0.03248378,-0.02389996,0.07292234,-0.5231716,-3.711786,-0.7649357,0.7184464,1.420257,0.3138993,0.02549799,-0.06925251,-0.02821931,-0.7351789,-0.2675344,-0.03153849,0.7887319,1.477068,0.1316557,0.3434751,1.167604,0.3783428,287.1949,244.7186,14.35604,False
0,1.588892,-0.08410981,-0.008482054,-0.07935887,-1.297475,1.494486,-2.49452,0.6647086,1.252502,0.4329147,-1.055152,-0.003399416,2.7,15,0.02919773,-0.0206107,0.06126209,-0.5227929,-3.711597,-0.7653669,0.718592,1.420313,0.3137393,0.02126118,-0.0628541,-0.02710899,-0.7354948,-0.2682987,-0.03109214,0.7887396,1.477078,0.1313901,0.3434349,1.167733,0.3787921,287.3803,244.6389,14.61482,False
0,1.600003,-0.08506811,-0.02871512,-0.07606079,-1.296293,1.494793,-2.493811,0.6645942,1.252712,0.4328773,-1.055752,-0.05475491,3.9,16.4,0.02486193,-0.03540675,0.04731936,-0.5220898,-3.712664,-0.7646372,0.7186484,1.420363,0.3135581,0.02126985,-0.0553968,-0.02815406,-0.7358612,-0.2689496,-0.03083035,0.788875,1.477031,0.1311154,0.3433609,1.167848,0.3792118,287.6247,244.3702,15.07146,False
0,1.611114,-0.08180051,-0.04467983,-0.07598299,-1.294998,1.495107,-2.493092,0.664481,1.252962,0.4328604,-1.055743,0.001352872,3.9,16.4,0.02587433,-0.05129032,0.03651888,-0.5212951,-3.714161,-0.7636321,0.71876,1.420419,0.3134232,0.01703727,-0.04793774,-0.02703441,-0.7360716,-0.2694758,-0.03052222,0.7889349,1.476941,0.1309526,0.3433127,1.167956,0.3796227,287.9179,243.9987,15.62658,False
0,1.622225,-0.08059776,-0.07556364,-0.07475808,-1.293307,1.496205,-2.492513,0.6643471,1.253226,0.4328272,-1.055888,-0.01327027,3.9,16.4,0.02271843,-0.06303002,0.03751227,-0.5200733,-3.714991,-0.7632273,0.7188666,1.420496,0.3132699,0.01487473,-0.03619014,-0.03550192,-0.7366815,-0.2695419,-0.03057762,0.7889583,1.476891,0.1308434,0.3432443,1.168052,0.3799885,288.1045,243.7829,16.0057,False
0,1.633336,-0.07301679,-0.1021351,-0.06930384,-1.291595,1.497564,-2.492345,0.6641644,1.253461,0.4328077,-1.055911,-0.001956047,3.9,16.4,0.02061286,-0.06837869,0.03961192,-0.519065,-3.71565,-0.7628236,0.7188988,1.420529,0.313138,0.01490272,-0.02767099,-0.03441159,-0.737025,-0.2695586,-0.03073101,0.7890738,1.476861,0.1306503,0.3431791,1.168122,0.3802881,288.2806,243.5263,16.40991,False
0,1.644447,-0.06860405,-0.1340474,-0.06383,-1.289509,1.499291,-2.492263,0.66396,1.253638,0.4327459,-1.055851,0.00546515,5.9,15.4,0.0110338,-0.06840106,0.0396903,-0.5181169,-3.716043,-0.7623916,0.7189521,1.420515,0.3130131,0.01492897,-0.02661534,-0.03121623,-0.7372701,-0.2699802,-0.03060984,0.7893288,1.476867,0.1304905,0.3431108,1.168196,0.3804762,288.4034,243.5414,16.49031,False
0,1.655559,-0.06215319,-0.1467733,-0.05843936,-1.28801,1.500659,-2.49214,0.6637444,1.253821,0.4327567,-1.056188,-0.03088518,5.9,15.4,-0.01132182,-0.06314214,0.04310016,-0.5173265,-3.71596,-0.7615134,0.7188991,1.420532,0.3128989,0.01283973,-0.02128736,-0.02798693,-0.7374314,-0.2699791,-0.03075924,0.7894297,1.476847,0.1304038,0.343044,1.168263,0.3805165,288.5417,243.3359,16.77716,False
0,1.66667,-0.05686758,-0.1349563,-0.04358869,-1.287368,1.501589,-2.491951,0.6635234,1.253847,0.4326901,-1.056195,-0.0003642296,5.9,15.4,-0.03051892,-0.04082659,0.04557578,-0.5170367,-3.714553,-0.761749,0.7188563,1.420491,0.3128438,0.008619057,-0.008494707,-0.02578527,-0.7376221,-0.269343,-0.03109001,0.7893018,1.476634,0.1303244,0.342994,1.16831,0.3804003,288.6815,242.9251,17.23411,False
0,1.677781,-0.05056276,-0.1146183,-0.02878081,-1.287083,1.502249,-2.491676,0.6634104,1.253864,0.4325681,-1.056223,-0.002570893,5.9,15.4,-0.04234159,-0.003513627,0.04066468,-0.5176999,-3.712276,-0.7628566,0.7187849,1.420452,0.3127444,0.005428636,-0.001023436,-0.02680643,-0.7379694,-0.2689275,-0.03127164,0.7893412,1.476614,0.1302543,0.3429688,1.168333,0.3801525,288.854,242.1513,17.99336,False
0,1.688892,-0.04428633,-0.08683351,-0.0172071,-1.287213,1.502419,-2.491447,0.6632422,1.253809,0.4324071,-1.056254,-0.002837771,5.9,15.4,-0.04985523,0.0124904,0.03660042,-0.5179886,-3.710912,-0.7632776,0.7188497,1.420499,0.312588,0.003321964,0.004302641,-0.02464759,-0.738232,-0.2686159,-0.03140293,0.7894102,1.476632,0.1300831,0.3429263,1.168352,0.3798858,289.0154,241.5149,18.64699,False
0,1.700003,-0.03902778,-0.0697173,-0.006645948,-1.287179,1.502829,-2.491281,0.6631069,1.253763,0.4322612,-1.056217,0.003420895,5.7,14.5,-0.05941863,0.01776161,0.04098099,-0.517735,-3.709554,-0.7634881,0.7187915,1.420449,0.3124886,-0.0009160768,0.005363146,-0.02142476,-0.7384498,-0.2686441,-0.03118695,0.7894413,1.47661,0.1299777,0.34288,1.168355,0.3797047,289.1275,241.1803,19.02355,False
0,1.711114,-0.03058147,-0.05043981,0.006034074,-1.287638,1.503036,-2.491297,0.6629023,1.253655,0.4320881,-1.056362,-0.01337839,5.7,14.5,-0.057303,0.01672199,0.0388277,-0.5175433,-3.708766,-0.7635936,0.7186047,1.420502,0.3123825,-0.002991699,0.006411473,-0.0139498,-0.7383438,-0.2684982,-0.03118029,0.7894913,1.476585,0.1299281,0.3428346,1.168353,0.3795982,289.1942,241.0863,19.17796,False
0,1.722225,-0.0178371,-0.03751979,0.02193759,-1.288161,1.503585,-2.491716,0.6626571,1.253633,0.4319153,-1.056335,0.002557067,5.7,14.5,-0.05628927,0.005090032,0.0291355,-0.5172381,-3.709179,-0.7626604,0.7185655,1.420479,0.3122642,-0.008260187,0.01386223,-0.008565849,-0.7382991,-0.2679601,-0.03134967,0.7895895,1.476625,0.1299086,0.3427851,1.168341,0.3795353,289.2417,241.1099,19.2098,False
0,1.733337,-0.006164567,-0.02461036,0.03677667,-1.288903,1.504034,-2.492155,0.6624207,1.253493,0.4317651,-1.056522,-0.01711874,5.7,14.5,-0.05963042,-0.003250837,0.007780084,-0.5174671,-3.710541,-0.7607208,0.7184871,1.420431,0.312247,-0.01145786,0.02240164,-0.01171413,-0.7385595,-0.2671723,-0.03169375,0.7896703,1.476616,0.1298754,0.3427315,1.168324,0.3794782,289.2768,241.1568,19.22415,False
0,1.744448,-0.0008739457,-0.01494151,0.04843853,-1.289658,1.504484,-2.492389,0.662203,1.253335,0.4316127,-1.056783,-0.02381383,5.1,12.3,-0.05972468,-0.005252764,-0.006087903,-0.5178527,-3.711281,-0.7594755,0.7184271,1.42031,0.3122201,-0.0146493,0.02987392,-0.01272782,-0.7386863,-0.2662465,-0.03200907,0.7897913,1.476611,0.1299267,0.3426508,1.1683,0.3794103,289.3147,241.2214,19.22688,False
0,1.755559,0.005468775,-0.002083634,0.05795903,-1.290663,1.504784,-2.492748,0.6619779,1.253147,0.431488,-1.056771,0.001276747,5.1,12.3,-0.06408961,-0.005138822,-0.01990394,-0.5183369,-3.712391,-0.7576643,0.7182986,1.420235,0.3121958,-0.0220937,0.03628489,-0.01265497,-0.7388222,-0.2653177,-0.03214861,0.7898587,1.476601,0.1299756,0.3425557,1.168267,0.3793262,289.3427,241.3155,19.22561,False
0,1.76667,0.004376888,0.006475613,0.06749812,-1.291572,1.505182,-2.492919,0.6617932,1.252963,0.4313204,-1.056474,0.02700645,5.1,12.3,-0.06618637,0.00544668,-0.01233408,-0.5184743,-3.711304,-0.7577567,0.7180715,1.420197,0.3122013,-0.02949076,0.04374101,-0.006177833,-0.7385446,-0.264198,-0.03236486,0.7899483,1.476523,0.1300492,0.342471,1.168212,0.37924,289.3418,241.4017,19.23756,False
0,1.777781,0.005446296,0.008660667,0.07814158,-1.292608,1.50588,-2.493283,0.6615506,1.252805,0.4312034,-1.056538,-0.006072191,5.1,12.3,-0.07683262,0.02349191,-0.006773584,-0.5190224,-3.709888,-0.7577359,0.7178743,1.420155,0.3121946,-0.03160842,0.04907373,-0.005081678,-0.7385814,-0.2630543,-0.03271294,0.7899196,1.476542,0.1300926,0.3423879,1.168152,0.37916,289.3238,241.4937,19.2381,False
0,1.788892,0.00757746,0.008704616,0.08452904,-1.293567,1.506457,-2.493533,0.661338,1.252618,0.4310548,-1.056276,0.02391484,5.1,12.3,-0.08641859,0.03942855,-0.003368977,-0.5196823,-3.708396,-0.7578217,0.717586,1.420069,0.3121538,-0.03585573,0.05227649,-0.003967512,-0.7384695,-0.2620206,-0.03291827,0.7899443,1.476497,0.1301489,0.3423035,1.168092,0.3790925,289.29,241.6124,19.2061,False
0,1.800003,0.01076672,0.01196444,0.09303652,-1.294843,1.507025,-2.493934,0.661129,1.252455,0.4309914,-1.056314,-0.003610291,2.7,9.2,-0.09071905,0.0458398,-0.006475585,-0.5202736,-3.707693,-0.7572475,0.7173893,1.419959,0.3122292,-0.0369141,0.05653245,-0.002873931,-0.7383731,-0.2609962,-0.03307753,0.7899256,1.476475,0.1301687,0.3422095,1.16804,0.3790165,289.2569,241.7361,19.1753,False
0,1.811115,0.009699121,0.01304102,0.0962279,-1.295889,1.507603,-2.494156,0.6609057,1.252269,0.4308472,-1.056205,0.009876329,2.7,9.2,-0.0886215,0.05119783,-0.009640437,-0.52095,-3.706919,-0.7570208,0.717235,1.419868,0.3122342,-0.0411373,0.06292494,0.0003706198,-0.7382996,-0.2596284,-0.03345676,0.7899383,1.476479,0.1302574,0.3420995,1.167993,0.3789179,289.2357,241.8322,19.17738,False
0,1.822226,0.0129158,0.007725156,0.09731106,-1.29654,1.508422,-2.494559,0.6606441,1.252073,0.4306474,-1.056315,-0.01010821,2.7,9.2,-0.08550092,0.05023625,-0.02033312,-0.5218208,-3.707068,-0.7561239,0.7170371,1.41974,0.3122463,-0.04533806,0.06183848,0.009990271,-0.7378134,-0.2587146,-0.03343226,0.7898787,1.476539,0.1303697,0.3419852,1.167948,0.3788038,289.2193,241.8847,19.21815,False
0,1.833337,0.007609331,0.003445511,0.09840213,-1.297372,1.509223,-2.49468,0.6604012,1.251887,0.4304836,-1.056119,0.01799854,2.7,9.2,-0.0897522,0.04915418,-0.01924539,-0.5223066,-3.706601,-0.7554006,0.7168767,1.419641,0.3122778,-0.04638837,0.06183472,0.01212829,-0.7376291,-0.2576835,-0.03364078,0.7898929,1.476566,0.1304412,0.3418693,1.167903,0.3786971,289.1955,241.9448,19.2429,False
0,1.844448,0.00551533,-0.005081495,0.09952041,-1.298151,1.510277,-2.494919,0.6602863,1.251621,0.4303966,-1.056186,-0.006320069,2.7,9.2,-0.08765271,0.05237642,-0.0224304,-0.5229921,-3.706206,-0.7548189,0.7168403,1.419669,0.3123174,-0.04322708,0.06290512,0.006779053,-0.7378458,-0.2566751,-0.03402694,0.7899418,1.476616,0.1305072,0.3417434,1.167852,0.3785796,289.1687,242.0208,19.26689,False
0,1.855559,0.004466174,-0.008273996,0.1016678,-1.298967,1.511221,-2.495213,0.6600679,1.251433,0.4302406,-1.055909,0.02541866,0,5.9,-0.08230963,0.05661881,-0.01923713,-0.5236014,-3.705179,-0.7549939,0.7166985,1.419613,0.3123443,-0.04533632,0.06503494,0.008930959,-0.7376951,-0.255464,-0.03436783,0.7899579,1.476668,0.1306281,0.3416163,1.167793,0.3784291,289.1451,242.027,19.37064,False
0,1.86667,0.004474673,-0.01040795,0.1006144,-1.299746,1.512039,-2.49549,0.6598433,1.251242,0.4301443,-1.055928,-0.002005944,0,5.9,-0.08649423,0.05226789,-0.009656921,-0.5237415,-3.704234,-0.7546738,0.71652,1.419472,0.3123081,-0.04750151,0.06505153,0.004679834,-0.7378959,-0.2544186,-0.03445971,0.7899517,1.476609,0.1307652,0.3415029,1.167738,0.3782595,289.1187,241.9473,19.5527,False
0,1.877781,0.004494164,-0.01467186,0.1006385,-1.300448,1.513059,-2.495844,0.6596681,1.25106,0.4299896,-1.056026,-0.008923008,0,5.9,-0.08969067,0.065019,-0.006329112,-0.5245538,-3.702564,-0.7549537,0.7163852,1.419381,0.3123081,-0.04536996,0.06291357,0.005726225,-0.7377856,-0.2533951,-0.0347649,0.7899268,1.476639,0.1308818,0.3414228,1.167683,0.3780826,289.0729,241.7937,19.8038,False
0,1.888893,0.006632444,-0.01682806,0.09318371,-1.30088,1.513669,-2.496232,0.6594861,1.250952,0.4298692,-1.056053,-0.002286188,0,5.9,-0.09072442,0.06711348,-0.002039034,-0.5250449,-3.701079,-0.755245,0.7161765,1.419378,0.3123074,-0.04749094,0.0671754,0.005760407,-0.7376328,-0.2521524,-0.03508022,0.7899481,1.476691,0.1309848,0.3413173,1.167635,0.3779071,289.0447,241.679,20.01381,False
0,1.900004,0.007717228,-0.02109463,0.09001057,-1.301466,1.514489,-2.496615,0.6593533,1.250753,0.4298146,-1.056073,-0.001850431,1.4,7.8,-0.08746707,0.05428937,0.00315099,-0.524974,-3.700536,-0.7548967,0.7160255,1.419352,0.3123519,-0.04963832,0.07038651,0.002587396,-0.7377819,-0.2508137,-0.03541898,0.7898841,1.476556,0.1310396,0.3411975,1.167589,0.3777459,289.0197,241.6108,20.16946,False
0,1.911115,0.008816667,-0.02963883,0.08472609,-1.301717,1.515486,-2.497004,0.659156,1.250633,0.4297731,-1.056206,-0.01216375,1.4,7.8,-0.07893643,0.04579104,0.001946596,-0.5251147,-3.700337,-0.7545193,0.7158195,1.419297,0.3123615,-0.04750288,0.06931295,0.003634556,-0.7377366,-0.2496931,-0.0358022,0.7898785,1.476554,0.1311364,0.3410832,1.167548,0.3775832,288.9911,241.5315,20.33532,False
0,1.922226,0.01202946,-0.03391685,0.07941462,-1.301934,1.516384,-2.497537,0.6589217,1.250545,0.4297168,-1.05614,0.006056128,1.4,7.8,-0.07260349,0.04161349,-0.006666046,-0.525668,-3.700464,-0.7537537,0.7156742,1.419249,0.3124237,-0.04854331,0.06931478,0.006834289,-0.7375875,-0.2483412,-0.03625468,0.7897698,1.476652,0.1313379,0.340978,1.16751,0.3774349,288.9599,241.4235,20.50179,False
0,1.933337,0.01738181,-0.0403193,0.07305281,-1.30203,1.517378,-2.498187,0.6586783,1.250514,0.4297128,-1.056073,0.006038818,1.4,7.8,-0.0588037,0.03744213,-0.01426361,-0.5261623,-3.700643,-0.7534056,0.7155229,1.419218,0.3124788,-0.04855363,0.06505361,0.006821754,-0.7375284,-0.2474539,-0.03635614,0.7897449,1.47665,0.1314399,0.3408934,1.167461,0.3773087,288.9082,241.3185,20.65002,False
0,1.944448,0.01950695,-0.04032465,0.07091659,-1.302266,1.51821,-2.498634,0.6584573,1.250437,0.4296513,-1.056221,-0.01352936,1.4,7.8,-0.05879433,0.03424401,-0.01428904,-0.5264074,-3.700405,-0.7530003,0.7152439,1.419211,0.3126311,-0.04536357,0.06078029,0.007848221,-0.7374767,-0.2466622,-0.03651141,0.7896258,1.476608,0.1315503,0.3407911,1.167417,0.3771852,288.8691,241.2434,20.76545,False
0,1.955559,0.02161239,-0.0360927,0.06237889,-1.302578,1.518681,-2.499063,0.6583108,1.250343,0.4295604,-1.056305,-0.007568218,4.9,10.5,-0.049175,0.03422354,-0.01009983,-0.5266433,-3.699773,-0.753342,0.7150668,1.419211,0.3126779,-0.04748945,0.05651793,0.009981198,-0.7373009,-0.2459158,-0.03644829,0.7895852,1.476596,0.1316316,0.3406664,1.167382,0.3770574,288.8492,241.1786,20.86475,False
0,1.966671,0.02369662,-0.02758535,0.05806895,-1.302896,1.518991,-2.49941,0.6582529,1.250312,0.4295435,-1.056123,0.01665304,4.9,10.5,-0.04694552,0.03304239,0.002655743,-0.526475,-3.698818,-0.7536991,0.7149714,1.419245,0.3126762,-0.04643506,0.04692184,0.01206541,-0.7372642,-0.2455951,-0.03614016,0.7895965,1.476611,0.1317024,0.3405342,1.167349,0.376929,288.8348,241.1089,20.96173,False
0,1.977782,0.024727,-0.0212257,0.05058233,-1.303171,1.519285,-2.499799,0.6581827,1.250276,0.4296205,-1.056157,-0.003345462,4.9,10.5,-0.05005619,0.03825113,0.01550627,-0.5264776,-3.697156,-0.7544432,0.7148389,1.419209,0.3126602,-0.04855755,0.04906926,0.01208385,-0.7372051,-0.2444105,-0.03642911,0.7895185,1.476614,0.1319003,0.3404071,1.167316,0.3767994,288.8121,241.0436,21.06122,False
0,1.988893,0.02365098,-0.02020271,0.04312087,-1.303244,1.519603,-2.500139,0.6580761,1.250262,0.4296427,-1.056107,0.004654422,4.9,10.5,-0.0490021,0.04995989,0.01666923,-0.5269315,-3.695441,-0.7554206,0.7146503,1.419092,0.3127642,-0.04541484,0.03948657,0.007772146,-0.737236,-0.2442199,-0.03615401,0.7894967,1.476599,0.1319716,0.3403086,1.167287,0.3766795,288.7714,240.9482,21.18114,False
0,2.000004,0.02258836,-0.02240229,0.03140957,-1.302929,1.519888,-2.500478,0.6580257,1.250282,0.4297392,-1.056132,-0.00235389,8.2,14.9,-0.04582543,0.05210766,0.0145315,-0.5272718,-3.694647,-0.7556882,0.7146267,1.41918,0.3127913,-0.04436505,0.03309229,0.007745879,-0.737156,-0.2439642,-0.03588077,0.7894721,1.476579,0.1320398,0.3402357,1.167272,0.3765905,288.7209,240.8364,21.28244,False
0,2.011115,0.01729653,-0.03206718,0.02080928,-1.302426,1.520398,-2.500632,0.6579308,1.250322,0.4297662,-1.056066,0.006029135,8.2,14.9,-0.03302136,0.03509543,0.01322109,-0.5270811,-3.694729,-0.7556645,0.7145689,1.419198,0.3128464,-0.03904473,0.03522039,0.005583072,-0.737229,-0.2431802,-0.03626906,0.7893895,1.476675,0.1320171,0.3401649,1.16726,0.3765405,288.6675,240.7839,21.29884,False
0,2.022226,0.01414345,-0.04277784,0.01127977,-1.301852,1.520941,-2.500859,0.6578587,1.25033,0.4297802,-1.056056,0.0009019486,8.2,14.9,-0.024496,0.01914371,0.01088898,-0.5267163,-3.695264,-0.755106,0.7144894,1.419163,0.3128383,-0.03690765,0.03201431,0.007692899,-0.7369989,-0.2427499,-0.03621473,0.7893828,1.476725,0.1320283,0.3402637,1.167212,0.376658,288.4424,240.8665,21.13236,False
0,2.033337,0.009885088,-0.04497036,0.002771679,-1.301294,1.521253,-2.500916,0.6578092,1.250401,0.4298286,-1.055811,0.02238446,8.2,14.9,-0.009600659,0.01068656,0.00644123,-0.5267163,-3.695458,-0.7552951,0.7144469,1.419208,0.3128862,-0.03157979,0.02027074,0.0118821,-0.7367278,-0.2429872,-0.03585973,0.7893659,1.476739,0.1320224,0.34018,1.167219,0.376615,288.5135,240.8581,21.1377,False
0,2.044448,0.01201265,-0.04500369,-0.004695775,-1.300659,1.52146,-2.501226,0.6577423,1.250431,0.4298093,-1.055862,-0.004854775,8.2,14.9,-0.004294893,0.006453753,0.003168678,-0.5266449,-3.69577,-0.755061,0.7143329,1.419219,0.3129423,-0.02418293,0.007483849,0.00647722,-0.7366783,-0.2435417,-0.0355492,0.789428,1.476757,0.1320899,0.3400702,1.167219,0.3765212,288.5277,240.7586,21.20744,False
0,2.055559,0.01198056,-0.03863346,-0.008988984,-1.300329,1.521478,-2.501367,0.6577089,1.250513,0.4298668,-1.055783,0.007314947,11,17.3,9.312131E-05,0.002060291,0.01907783,-0.5259956,-3.694875,-0.7560022,0.7143248,1.41924,0.3129451,-0.02528016,0.01283176,0.0001087761,-0.7369441,-0.2430989,-0.03556731,0.7894197,1.476766,0.1321254,0.3399948,1.167217,0.3764204,288.524,240.5937,21.34383,False
0,2.06667,0.007685344,-0.03015229,-0.01329157,-1.300058,1.52135,-2.501388,0.6576074,1.250613,0.4300604,-1.056069,-0.02616527,11,17.3,-0.001979781,0.001975181,0.02761811,-0.525447,-3.69409,-0.7564563,0.7142472,1.419374,0.3128865,-0.02520841,0.01920547,0.007590468,-0.7365377,-0.2422276,-0.03596093,0.7892855,1.476782,0.1322265,0.3399498,1.167288,0.3765693,288.4304,241.1717,20.7512,False
0,2.077781,0.005553052,-0.03017256,-0.0154204,-1.299658,1.521471,-2.501411,0.6575749,1.250674,0.4301291,-1.055988,0.007684227,11,17.3,-0.004143024,0.00413509,0.0233917,-0.5254316,-3.693901,-0.7565529,0.7141923,1.419369,0.3129311,-0.02311811,0.0149518,0.003301899,-0.7366511,-0.2422136,-0.03578277,0.7892776,1.47679,0.1322362,0.3399108,1.167295,0.3768472,288.308,242.0888,19.86273,False
0,2.088892,0.002331577,-0.02488251,-0.02076917,-1.299334,1.521276,-2.501322,0.6575838,1.250752,0.4302263,-1.055895,0.008343323,11,17.3,7.161871E-05,0.01270198,0.01917368,-0.5256803,-3.693174,-0.7573524,0.714177,1.419363,0.3129296,-0.01887328,-0.00424446,0.006420761,-0.7363246,-0.2433258,-0.03502003,0.7893349,1.476749,0.1321456,0.3398814,1.167301,0.3770608,288.2337,242.7115,19.21969,False
0,2.100003,-0.002987667,-0.02706339,-0.02714651,-1.298748,1.521208,-2.501144,0.6576215,1.250849,0.4302821,-1.055834,0.005499085,11,17.3,0.005378078,0.01378979,0.01701279,-0.5256494,-3.692847,-0.7578315,0.7141352,1.419356,0.3129017,-0.01569355,2.195872E-05,0.002155742,-0.736348,-0.2430591,-0.03518489,0.7892914,1.476822,0.132169,0.3398642,1.167285,0.3771997,288.2017,243.0085,18.85429,False
0,2.111114,-0.004068476,-0.0249751,-0.03461332,-1.298088,1.521014,-2.501027,0.657614,1.250919,0.4302995,-1.05582,0.001309782,11,17.3,0.01392924,-0.003239212,0.01679962,-0.5250981,-3.693472,-0.7576984,0.7141597,1.419386,0.312892,-0.01357511,0.004287446,-0.001042491,-0.7364887,-0.2427963,-0.03530126,0.7892982,1.476828,0.1321573,0.339852,1.167282,0.377247,288.2022,243.0858,18.73815,False
0,2.122225,-0.006192873,-0.027139,-0.03992852,-1.297411,1.520926,-2.500885,0.6577449,1.251044,0.4303472,-1.055721,0.009035242,11,17.3,0.0182138,-0.003248544,0.01889918,-0.5248649,-3.693079,-0.7584895,0.7142342,1.419455,0.3129466,-0.01252246,0.003229391,-0.00211032,-0.736429,-0.2426272,-0.0352781,0.7893099,1.476941,0.1321988,0.3398432,1.167295,0.377256,288.2186,243.0524,18.73822,False
0,2.133336,-0.006246387,-0.01542634,-0.04105264,-1.29715,1.520427,-2.500679,0.6577964,1.251119,0.4303761,-1.055832,-0.01017931,11,17.3,0.02352672,-3.404543E-05,0.01782217,-0.5248174,-3.692703,-0.7592686,0.7142662,1.419481,0.3129363,-0.009319732,-0.003179496,0.001044203,-0.7362927,-0.2429905,-0.03500086,0.7893306,1.476947,0.1321678,0.3398409,1.167312,0.3772404,288.2403,242.9477,18.81513,False
0,2.144447,-0.004193603,0.002709961,-0.03794982,-1.297283,1.51971,-2.500538,0.6579186,1.251184,0.4303982,-1.055819,0.001340553,11,17.3,0.02350271,0.003173356,0.01571583,-0.5248675,-3.692557,-0.7595841,0.7142472,1.419474,0.3129222,-0.006145028,-0.01597596,0.002050839,-0.7362021,-0.2439338,-0.03436756,0.7893195,1.476964,0.1321054,0.3398473,1.167331,0.3772278,288.2533,242.8411,18.89584,False
0,2.155558,-0.003198347,0.01870453,-0.03590036,-1.297449,1.518889,-2.500321,0.6579908,1.251238,0.4304447,-1.055882,-0.0058356,11,17.3,0.02244034,-0.003210731,0.01460249,-0.5246017,-3.692751,-0.7596251,0.7142791,1.419512,0.3129156,-0.006164884,-0.01490121,-0.001141821,-0.7363081,-0.244136,-0.03414892,0.7893513,1.476976,0.1320662,0.339862,1.167359,0.3772367,288.2522,242.7719,18.93449,False
0,2.166669,-0.003272396,0.03576152,-0.03386236,-1.297692,1.517822,-2.500007,0.6580482,1.2513,0.4304311,-1.056025,-0.01304341,11,17.3,0.02356365,-0.008591983,0.02093716,-0.5240504,-3.69261,-0.7600478,0.7142706,1.4196,0.3128154,-0.008329305,-0.01594462,-0.005400823,-0.7366629,-0.2443101,-0.03383972,0.7891673,1.476897,0.1319838,0.3398634,1.167389,0.3772711,288.2524,242.779,18.88696,False
0,2.17778,-0.00760044,0.05066612,-0.03180359,-1.298059,1.516835,-2.499499,0.6581569,1.251359,0.4304483,-1.055995,0.002883271,11,17.3,0.02678302,-0.0107411,0.02302181,-0.5236787,-3.692606,-0.7605314,0.714285,1.419642,0.3127692,-0.005158248,-0.01380915,-0.00967809,-0.7369158,-0.2444456,-0.03379951,0.7891868,1.47689,0.1319282,0.339856,1.167423,0.377325,288.2518,242.8487,18.77306,False
0,2.188891,-0.0129547,0.0570392,-0.03076608,-1.298322,1.515954,-2.498931,0.6582799,1.251391,0.4304478,-1.055961,0.003075411,11,17.3,0.03315866,-0.01071113,0.0208436,-0.5234677,-3.692564,-0.7611386,0.7143569,1.419691,0.3127501,-0.005192799,-0.01805349,-0.01396394,-0.7373468,-0.2449269,-0.033473,0.7890996,1.476793,0.13185,0.3398325,1.167451,0.3773905,288.2592,242.9687,18.60369,False
0,2.200002,-0.01512896,0.06662778,-0.02975298,-1.298671,1.514812,-2.498377,0.6583994,1.25146,0.4305351,-1.055751,0.01922313,11,17.3,0.03205246,-0.01279523,0.01550244,-0.5234187,-3.692945,-0.7610316,0.7143207,1.419748,0.3127337,-0.002032567,-0.02230535,-0.01720033,-0.7377047,-0.2453416,-0.03320243,0.7890502,1.47679,0.1318083,0.3397989,1.167483,0.3774619,288.2715,243.1265,18.39929,False
0,2.211113,-0.02474354,0.07298713,-0.02764667,-1.29908,1.513806,-2.497546,0.6585655,1.251493,0.4304998,-1.055666,0.007527683,11.2,16.9,0.0319474,-0.02117749,-0.00055061,-0.5234608,-3.694513,-0.7600318,0.7144158,1.419777,0.3127325,0.001170412,-0.02551522,-0.01510165,-0.7377835,-0.2459216,-0.03288205,0.789098,1.476786,0.1317451,0.3397686,1.167521,0.3775322,288.2799,243.2915,18.196,False
0,2.222224,-0.02795716,0.07615579,-0.03085247,-1.299339,1.512759,-2.49685,0.6587437,1.25144,0.4305112,-1.055778,-0.01020674,11.2,16.9,0.0319217,-0.02540018,-0.004849361,-0.5233069,-3.695286,-0.7596995,0.7144969,1.419693,0.3127556,0.001194475,-0.025521,-0.01191596,-0.7379395,-0.2462543,-0.03266607,0.7891852,1.476778,0.1316845,0.3397355,1.167562,0.3775942,288.2932,243.4458,18.00795,False
0,2.233335,-0.03438284,0.0846761,-0.02556361,-1.300001,1.511679,-2.495953,0.658888,1.25144,0.4305098,-1.055518,0.02387914,11.2,16.9,0.03612876,-0.02639262,-0.0123471,-0.5233543,-3.69626,-0.7593988,0.7146026,1.419687,0.3127592,0.007571423,-0.02233112,-0.01514729,-0.7382442,-0.2464517,-0.03283358,0.7892618,1.476774,0.1316428,0.3397027,1.167603,0.377674,288.3041,243.6137,17.78853,False
0,2.244446,-0.04395921,0.08358713,-0.02128988,-1.300432,1.510925,-2.495011,0.6590565,1.251429,0.4305129,-1.055677,-0.01470077,11.2,16.9,0.03826684,-0.02214273,-0.01019153,-0.5233074,-3.696254,-0.7598965,0.7148591,1.419759,0.3127117,0.009687074,-0.02232905,-0.01728861,-0.7384514,-0.2468148,-0.03271853,0.7894801,1.476753,0.1316049,0.3396982,1.167635,0.3777531,288.2913,243.7422,17.61286,False
0,2.255557,-0.05354116,0.08248421,-0.02021147,-1.300804,1.510087,-2.493876,0.6591722,1.251452,0.4305053,-1.055557,0.01120824,10.8,16.9,0.04150109,-0.03068708,-0.00709442,-0.5228654,-3.697119,-0.7597213,0.7150223,1.419777,0.3126876,0.01393089,-0.0201993,-0.02050809,-0.738779,-0.2470553,-0.0328397,0.7895977,1.476735,0.1315436,0.3396928,1.167661,0.3778149,288.2764,243.8835,17.45088,False
0,2.266668,-0.05884747,0.07821397,-0.01699078,-1.30113,1.509452,-2.492893,0.6592683,1.251477,0.4305036,-1.055462,0.008559666,10.8,16.9,0.03941315,-0.03498269,-0.002858358,-0.5225127,-3.697675,-0.7596462,0.7151167,1.419777,0.3125899,0.01388398,-0.02230814,-0.02691427,-0.7394128,-0.2475102,-0.03269004,0.7895617,1.476654,0.1313822,0.3396756,1.167695,0.37788,288.2706,244.0521,17.26178,False
0,2.277779,-0.06202982,0.0749985,-0.01803738,-1.301379,1.508716,-2.491893,0.6593724,1.251513,0.4304688,-1.055349,0.01035595,10.8,16.9,0.03940881,-0.03710389,-0.003942253,-0.5222379,-3.698489,-0.7593911,0.7152879,1.4198,0.3125465,0.01920025,-0.02338315,-0.0280201,-0.7397457,-0.24797,-0.03277339,0.7896879,1.476623,0.1312978,0.3396477,1.167737,0.3779329,288.2755,244.2285,17.07801,False
0,2.28889,-0.06627553,0.0718151,-0.01162558,-1.301868,1.508208,-2.490864,0.6595467,1.251571,0.4304488,-1.055507,-0.0144794,10.8,16.9,0.0393922,-0.0360212,-0.006066301,-0.5221378,-3.699244,-0.7591892,0.7154932,1.419853,0.3124788,0.02234772,-0.02869462,-0.0333945,-0.7404237,-0.2485752,-0.03271294,0.7897195,1.476621,0.1312377,0.3395921,1.167789,0.3779873,288.3009,244.4628,16.84209,False
0,2.300001,-0.06840217,0.07073493,-0.01268372,-1.302182,1.507473,-2.489829,0.6596558,1.251618,0.4304073,-1.0556,-0.008338432,10.8,16.9,0.037259,-0.04240796,-0.007170971,-0.5217314,-3.700431,-0.7584382,0.7156404,1.419888,0.3124094,0.02339543,-0.02975618,-0.03553565,-0.7408776,-0.2491695,-0.03258031,0.7898362,1.476589,0.1311467,0.3395293,1.167848,0.3780355,288.337,244.6823,16.61826,False
0,2.311112,-0.07372221,0.0685843,-0.01160854,-1.302434,1.506817,-2.488595,0.6597168,1.25176,0.4303312,-1.055573,0.002633117,9.4,15.5,0.03839056,-0.03929416,0.002436087,-0.5212195,-3.700426,-0.7588973,0.7158536,1.419934,0.3123598,0.02764105,-0.0318992,-0.03663342,-0.7412222,-0.2499809,-0.03239469,0.7899472,1.476616,0.1310892,0.3394747,1.167901,0.3780653,288.3739,244.837,16.4613,False
0,2.322223,-0.0747508,0.06005925,-0.01049898,-1.30258,1.50652,-2.487612,0.6599164,1.251856,0.430335,-1.055671,-0.009007942,9.4,15.5,0.04157035,-0.0382046,0.0002823928,-0.5210932,-3.701191,-0.7588164,0.7161093,1.419987,0.3123617,0.0318936,-0.03830835,-0.03562082,-0.7416121,-0.2510164,-0.03211772,0.7900038,1.476586,0.131031,0.3394313,1.167966,0.3780832,288.4059,244.9576,16.34782,False
0,2.333334,-0.07896726,0.05046345,-0.008316739,-1.302723,1.506335,-2.486508,0.6599596,1.251989,0.4302647,-1.055511,0.01469206,9.4,15.5,0.0426968,-0.04997113,0.005506479,-0.5201297,-3.702126,-0.7585341,0.7163514,1.420057,0.3123329,0.02969255,-0.04573823,-0.0430846,-0.7423444,-0.2522278,-0.03148602,0.7901298,1.476546,0.1309328,0.339375,1.168034,0.3780908,288.4552,245.0501,16.25474,False
