loc,t,aDotUA,bDotUA,gDotUA,aUA,bUA,gUA,xUA,yUA,zUA,qE,qDotE,emgA,emgB,aDotSH,bDotSH,gDotSH,aSH,bSH,gSH,xSH,ySH,zSH,aDotUB,bDotUB,gDotUB,aUB,bUB,gUB,xUB,yUB,zUB,xHand,yHand,zHand,aHand,bHand,gHand,enable
2,0,-0.179107,-0.3101046,0.8798097,-1.250065,-4.258021,-2.773988,0.6822448,1.26144,0.3963482,-0.9336776,-0.006057584,13.3,14,-0.3980277,0.2276829,-0.01573303,-0.4996404,-3.616028,-0.9037861,0.748301,1.435335,0.2910526,-0.08106882,0.1078817,-0.06301272,-0.7628753,-0.3774706,0.05622359,0.8075984,1.475112,0.1085689,0.4478065,1.061904,0.2610274,311.5151,229.0166,10.54872,False
2,0.01111111,-0.1575765,-0.3623024,0.8587468,-1.256327,-4.249096,-2.775697,0.6810854,1.260184,0.3949893,-0.933831,-0.0138566,13.3,14,-0.4224197,0.229559,-0.1209694,-0.5046994,-3.62037,-0.894486,0.7476968,1.434886,0.2911935,-0.1011695,0.1419765,-0.05314956,-0.7629871,-0.3735687,0.05510959,0.807669,1.475037,0.1087875,0.4477674,1.061157,0.2579386,310.9067,230.5213,8.891382,False
2,0.02222222,-0.136079,-0.4069988,0.8472412,-1.262666,-4.23976,-2.777791,0.6799695,1.259028,0.3935983,-0.9332148,0.05640606,13.3,14,-0.4505372,0.1926608,-0.1732102,-0.5073913,-3.62493,-0.8847336,0.7470067,1.434445,0.2912478,-0.1273974,0.1674286,-0.00598298,-0.7613125,-0.3698784,0.05475859,0.8077223,1.475022,0.1089787,0.4484018,1.059711,0.2538159,310.7964,230.8809,7.967387,False
2,0.03333334,-0.0997922,-0.4228841,0.8334407,-1.269069,-4.231377,-2.780463,0.6788014,1.257763,0.3924954,-0.9339067,-0.06378363,13.3,14,-0.4845751,0.1553255,-0.1721404,-0.5089477,-3.627181,-0.8761209,0.7462653,1.434074,0.2914164,-0.1272057,0.1950628,0.0122249,-0.7603905,-0.3654442,0.05289757,0.8077264,1.47494,0.1092172,0.4495871,1.057751,0.2488324,310.9865,230.7556,7.136978,False
2,0.04444445,-0.07968119,-0.3961506,0.8343629,-1.27658,-4.224682,-2.782153,0.6778464,1.256492,0.3913252,-0.934206,-0.02680089,12.1,14.3,-0.4843526,0.1594031,-0.1476063,-0.5110079,-3.625407,-0.8724856,0.7454247,1.433808,0.291445,-0.1409063,0.2227411,0.0252157,-0.7594622,-0.3604875,0.05131565,0.8077757,1.474925,0.109472,0.4512642,1.055504,0.2432867,311.2437,230.4712,6.185105,False
2,0.05555556,-0.06206545,-0.292777,0.8242583,-1.284942,-4.221753,-2.782706,0.6771163,1.255271,0.3903699,-0.9349847,-0.07118221,12.1,14.3,-0.4637114,0.2005818,-0.09739512,-0.513539,-3.619671,-0.8731762,0.7442688,1.433705,0.2915213,-0.1568329,0.2376724,0.02751427,-0.7590867,-0.3562279,0.05034413,0.8078491,1.474931,0.1097953,0.4533358,1.05318,0.2375326,311.5049,230.1601,5.08686,False
2,0.06666667,-0.04846658,-0.2405723,0.812273,-1.292668,-4.217794,-2.783709,0.6763194,1.254115,0.389302,-0.934434,0.05070606,12.1,14.3,-0.4654102,0.2228389,-0.05899599,-0.5156034,-3.615707,-0.8714795,0.7433536,1.433522,0.2915764,-0.1717569,0.2536984,0.02235809,-0.758848,-0.3513672,0.04924345,0.8078213,1.474908,0.1100862,0.4555672,1.050898,0.2319692,311.7014,229.9146,3.864174,False
2,0.07777778,-0.02849101,-0.1895014,0.7843107,-1.299698,-4.214222,-2.785031,0.6753802,1.252975,0.3882978,-0.9341645,0.02395201,12.1,14.3,-0.4601109,0.2396095,-0.04704618,-0.5182304,-3.610859,-0.8706848,0.7422831,1.433264,0.2916996,-0.1877238,0.280377,0.01831645,-0.7585642,-0.3455262,0.04772172,0.8076469,1.474914,0.1104252,0.4576889,1.048787,0.2269171,311.8933,229.93,2.538352,False
2,0.08888889,-0.005185544,-0.1683133,0.7383814,-1.305519,-4.210793,-2.786679,0.6744712,1.252126,0.3874123,-0.9341677,-0.0007086261,18.2,13.3,-0.4336457,0.2802265,-0.05974621,-0.5223556,-3.606678,-0.8704121,0.7413692,1.433034,0.2917361,-0.206783,0.2899553,0.03127962,-0.7575926,-0.340354,0.04695606,0.8075073,1.474958,0.1107087,0.4594101,1.046984,0.2226416,312.0739,230.1814,1.2626,False
2,0.1,0.008677617,-0.18124,0.7011532,-1.310729,-4.205587,-2.788491,0.6733658,1.251162,0.3865056,-0.9344782,-0.02830662,18.2,13.3,-0.4210069,0.2846293,-0.07475197,-0.5259019,-3.604788,-0.8677271,0.7404015,1.432702,0.2918785,-0.2173497,0.2846045,0.04412399,-0.7565274,-0.3361623,0.04666018,0.8073162,1.475017,0.1109955,0.4605578,1.045523,0.2191825,312.2091,230.4343,0.3706802,False
2,0.1111111,0.02585983,-0.224216,0.6139876,-1.312901,-4.200286,-2.790821,0.6723228,1.250653,0.3858936,-0.9347163,-0.02160642,18.2,13.3,-0.4293166,0.2301623,-0.05913085,-0.5265964,-3.604013,-0.8633651,0.7394353,1.43255,0.2919257,-0.2216311,0.2824895,0.04201842,-0.7559537,-0.3317661,0.04608254,0.8071234,1.475017,0.1112857,0.4611062,1.044385,0.2165038,312.2641,230.6543,359.811,False
2,0.1222222,0.02477495,-0.2276477,0.5682126,-1.31672,-4.195786,-2.792172,0.6712502,1.249915,0.3853424,-0.9342684,0.04095237,18.2,13.3,-0.4291494,0.2140402,-0.04221554,-0.527797,-3.60152,-0.8606029,0.7384348,1.432245,0.2920122,-0.2227193,0.2867699,0.03777793,-0.7556016,-0.3268639,0.04498532,0.8070604,1.47504,0.1116166,0.4611897,1.043546,0.2145456,312.2332,230.8471,359.5276,False
2,0.1333333,0.01402567,-0.2173798,0.4999873,-1.319099,-4.192646,-2.792749,0.6702212,1.249377,0.384973,-0.9345474,-0.0259701,18.2,13.3,-0.4226132,0.2139211,-0.02629495,-0.5294322,-3.598027,-0.8591062,0.7374058,1.43204,0.2920828,-0.2333214,0.3048923,0.0400536,-0.754897,-0.3210056,0.04374215,0.8068423,1.475051,0.1119552,0.4609618,1.042879,0.2130999,312.1541,230.9486,359.5068,False
2,0.1444445,5.921721E-05,-0.2018094,0.4306841,-1.32091,-4.189982,-2.792972,0.6692034,1.24895,0.3847852,-0.9336718,0.08027439,15.7,14.9,-0.4087184,0.2224243,-0.01996896,-0.5318647,-3.59434,-0.8582399,0.7362423,1.431874,0.2923174,-0.2343284,0.3123399,0.04541514,-0.7539947,-0.3154829,0.04228327,0.8066796,1.475073,0.112371,0.4606535,1.042334,0.2120846,312.0789,230.8958,359.6155,False
2,0.1555556,-0.01285466,-0.187298,0.3624374,-1.322029,-4.187639,-2.792914,0.6681229,1.248747,0.3844943,-0.9330502,0.05595214,15.7,14.9,-0.3970805,0.2246383,-0.02857973,-0.5341896,-3.591969,-0.8563392,0.7352201,1.431696,0.2924447,-0.2309846,0.3218611,0.06246874,-0.7524959,-0.309873,0.04058178,0.8064101,1.475121,0.1126869,0.4602534,1.041793,0.2113045,312.029,231.0092,359.5837,False
2,0.1666667,-0.02671423,-0.1962383,0.2900496,-1.321982,-4.184998,-2.792809,0.6669042,1.24871,0.3842428,-0.9327461,0.02738971,15.7,14.9,-0.3609608,0.2258497,-0.04061842,-0.5367532,-3.590103,-0.85523,0.7340894,1.431598,0.2925358,-0.2245282,0.3218321,0.06988592,-0.7512266,-0.3046092,0.03881477,0.8060124,1.475217,0.1130509,0.4597799,1.041256,0.2106711,312.0573,231.1047,359.502,False
2,0.1777778,-0.03519602,-0.2157229,0.2368858,-1.321865,-4.181504,-2.792994,0.665572,1.248635,0.3838992,-0.932549,0.01788796,15.7,14.9,-0.3448409,0.2151104,-0.02700865,-0.5382531,-3.587388,-0.8542619,0.7329924,1.431563,0.2925744,-0.2192074,0.3100953,0.07193296,-0.7503078,-0.3002866,0.0378848,0.8057854,1.475159,0.1131768,0.4592315,1.040774,0.2101434,312.1557,231.1376,359.424,False
2,0.1888889,-0.04474836,-0.2331187,0.1741241,-1.320568,-4.178528,-2.792952,0.6641706,1.248799,0.3836708,-0.9324622,0.007826594,15.7,14.9,-0.33913,0.1998807,0.01330239,-0.5385162,-3.583047,-0.8544624,0.7320278,1.431558,0.2925377,-0.2086843,0.2674866,0.0653097,-0.7497523,-0.2980216,0.03815458,0.8054153,1.475167,0.1133831,0.4585527,1.040405,0.2096484,312.3059,231.1015,359.4009,False
2,0.2,-0.05749111,-0.2493732,0.1315946,-1.319543,-4.175207,-2.79272,0.6628509,1.248795,0.3833339,-0.9325948,-0.01212419,10.6,13,-0.3302698,0.1974615,0.05048984,-0.5389599,-3.577745,-0.8555866,0.7310675,1.431529,0.2925057,-0.2024403,0.2472835,0.05134485,-0.7495009,-0.2948753,0.03797801,0.8050353,1.475212,0.1136315,0.4577067,1.040195,0.2091284,312.4331,230.9584,359.4767,False
2,0.2111111,-0.08941889,-0.2702069,0.04010129,-1.31573,-4.17259,-2.791352,0.6613306,1.249181,0.3832042,-0.9325634,0.002989618,10.6,13,-0.3443917,0.1722696,0.1345812,-0.5369588,-3.569949,-0.8580716,0.7300839,1.431562,0.2923717,-0.1930374,0.2313581,0.03097538,-0.7497485,-0.2919687,0.03765497,0.8046976,1.475252,0.113874,0.456721,1.040147,0.2085164,312.4867,230.75,359.6111,False
2,0.2222222,-0.1011652,-0.2736656,-0.002483424,-1.313545,-4.169969,-2.790389,0.6598806,1.249315,0.3831413,-0.9323407,0.02039882,10.6,13,-0.3494676,0.1528718,0.1600358,-0.5360842,-3.565226,-0.8580518,0.7288976,1.431514,0.29249,-0.1951812,0.2367074,0.02781843,-0.7493544,-0.2875664,0.03666693,0.8043109,1.475259,0.1141307,0.4556423,1.040276,0.2078447,312.4745,230.4694,359.7639,False
2,0.2333333,-0.1204504,-0.2569478,-0.05155654,-1.310648,-4.168541,-2.788773,0.6583316,1.249571,0.3831108,-0.9314513,0.08124503,10.6,13,-0.3421544,0.1444955,0.1428568,-0.5363771,-3.562012,-0.8572723,0.7278259,1.431427,0.2925403,-0.2036811,0.2484415,0.02792482,-0.7489507,-0.2829899,0.035856,0.8039298,1.475281,0.1144099,0.4544902,1.040539,0.207125,312.4119,230.1196,359.9376,False
2,0.2444444,-0.1354879,-0.2379853,-0.08252724,-1.308395,-4.167356,-2.786884,0.65696,1.249828,0.3831713,-0.9319008,-0.04162701,7,11.1,-0.3382106,0.142646,0.1065765,-0.5376453,-3.560701,-0.8549564,0.7267479,1.431275,0.2926767,-0.21108,0.2644198,0.03229145,-0.7484079,-0.2779664,0.03481497,0.8036431,1.475324,0.114675,0.4531725,1.040954,0.2064714,312.3874,229.6118,0.1342859,False
2,0.2555556,-0.1527208,-0.2042239,-0.133816,-1.304868,-4.167587,-2.78454,0.6553408,1.250194,0.3832221,-0.9317607,0.01328614,7,11.1,-0.3300145,0.1418809,0.07027366,-0.5391671,-3.559622,-0.8525362,0.7255883,1.431178,0.2927568,-0.2110436,0.2708001,0.03550978,-0.7478055,-0.2732825,0.03371029,0.8032403,1.475338,0.1149514,0.4516711,1.041523,0.2059687,312.2888,229.2082,0.2834867,False
2,0.2666667,-0.1710431,-0.1651207,-0.1808695,-1.301377,-4.168392,-2.781848,0.6537793,1.250582,0.3832493,-0.9316792,0.007455383,7,11.1,-0.3161342,0.1514598,0.07449001,-0.5400278,-3.555316,-0.8532443,0.7246246,1.431234,0.2927547,-0.2099898,0.2729428,0.03230796,-0.7475642,-0.2687681,0.03253877,0.8027687,1.475304,0.1153054,0.4499493,1.042223,0.2056784,312.1647,228.8884,0.4488801,False
2,0.2777778,-0.1947256,-0.117499,-0.2247629,-1.297912,-4.170132,-2.778465,0.6520758,1.251057,0.383332,-0.9317421,-0.005724024,7,11.1,-0.3065205,0.1535664,0.07868116,-0.5406249,-3.551517,-0.853317,0.7232606,1.431033,0.2927623,-0.2120922,0.2686748,0.03656941,-0.7469442,-0.2646009,0.03185514,0.8022028,1.47525,0.1156209,0.4480469,1.043054,0.2056312,312.033,228.6209,0.6662899,False
2,0.2888889,-0.2226655,-0.07093848,-0.2622586,-1.294293,-4.172303,-2.774391,0.6503326,1.251493,0.3835061,-0.9317138,0.002756925,7,11.1,-0.3064587,0.1503195,0.08504698,-0.5410537,-3.547817,-0.8530962,0.7220474,1.430967,0.2927639,-0.2110533,0.263354,0.03441197,-0.7465325,-0.2605816,0.03120479,0.8016623,1.475252,0.115886,0.4458118,1.043966,0.2058229,311.9285,228.3235,0.945321,False
2,0.3,-0.2462363,-0.04561893,-0.2889991,-1.290711,-4.173925,-2.77047,0.648553,1.252104,0.3834636,-0.9314395,0.02521935,6.1,7.6,-0.3021282,0.1460049,0.092425,-0.5413642,-3.544237,-0.8529215,0.7208667,1.430886,0.2927961,-0.2067786,0.2654688,0.03545596,-0.7459685,-0.2562677,0.03012621,0.8011056,1.475319,0.1160712,0.4432367,1.044986,0.2062819,311.8311,228.0771,1.258744,False
2,0.3111111,-0.2752101,-0.00437712,-0.3243393,-1.286726,-4.177155,-2.765502,0.646672,1.252698,0.383673,-0.9310395,0.03648117,6.1,7.6,-0.2882235,0.1470273,0.09763873,-0.5415346,-3.540499,-0.8535527,0.7195637,1.430816,0.292814,-0.2057661,0.259094,0.03009894,-0.7457368,-0.2523815,0.02951661,0.8005548,1.47532,0.1163292,0.4402957,1.04614,0.2069924,311.7277,227.8985,1.599332,False
2,0.3222222,-0.3147337,0.01442231,-0.361695,-1.28209,-4.17966,-2.760086,0.6448488,1.253384,0.383693,-0.9312313,-0.01768385,6.1,7.6,-0.2873031,0.1375805,0.07944208,-0.5422606,-3.538674,-0.8520366,0.7182831,1.430721,0.2928836,-0.2026036,0.2591032,0.02581023,-0.7455722,-0.2481577,0.02859037,0.7999403,1.475474,0.1165695,0.4370412,1.047472,0.2079073,311.6071,227.7745,2.02631,False
2,0.3333333,-0.3671404,0.05448109,-0.3991457,-1.27753,-4.183779,-2.753055,0.6429262,1.254019,0.383935,-0.9308994,0.03068147,6.1,7.6,-0.2862839,0.1205972,0.07183987,-0.5424913,-3.536892,-0.8503969,0.716954,1.430644,0.2929428,-0.1950676,0.2579862,0.03640222,-0.7447231,-0.2440314,0.02748036,0.799251,1.475489,0.1168225,0.433588,1.049016,0.2089099,311.4635,227.6417,2.553004,False
2,0.3444445,-0.3940426,0.1107301,-0.4164471,-1.274027,-4.188743,-2.74636,0.6409461,1.254665,0.3842013,-0.9304861,0.03772771,4.3,7.8,-0.2809311,0.121621,0.07499118,-0.5426856,-3.534082,-0.8498291,0.7155225,1.430661,0.2930012,-0.1886628,0.2526252,0.04059429,-0.74406,-0.2403054,0.02674746,0.7985785,1.475511,0.1170127,0.4299524,1.050779,0.2099497,311.2744,227.474,3.088187,False
2,0.3555556,-0.4318594,0.2222355,-0.4531946,-1.270663,-4.197453,-2.737705,0.6388321,1.255252,0.3845768,-0.9296259,0.07856688,4.3,7.8,-0.2701731,0.1119635,0.0854661,-0.542561,-3.530987,-0.8498394,0.7141094,1.430602,0.2931085,-0.177995,0.2590024,0.03947134,-0.7436073,-0.2357057,0.02488564,0.7978461,1.475502,0.1172523,0.4261829,1.052772,0.2109581,311.0493,227.2309,3.67623,False
2,0.3666667,-0.4672281,0.2678182,-0.4640511,-1.267378,-4.203798,-2.729647,0.636686,1.255825,0.3847904,-0.9304962,-0.0799059,4.3,7.8,-0.2926009,0.07582098,0.07259728,-0.5420699,-3.530914,-0.8460519,0.712997,1.430567,0.2930872,-0.1715472,0.2578962,0.04687022,-0.7428382,-0.2316067,0.0235466,0.797128,1.47553,0.1175008,0.4222005,1.055014,0.2119087,310.7927,227.023,4.157167,False
2,0.3777778,-0.5174069,0.2876851,-0.4928789,-1.262962,-4.209884,-2.720478,0.6342331,1.25662,0.3850555,-0.9301154,0.0358387,4.3,7.8,-0.3404455,0.04908749,0.07920676,-0.5412592,-3.529634,-0.8417192,0.7115362,1.430564,0.293201,-0.1587064,0.2514562,0.05420304,-0.7419977,-0.2277952,0.02193166,0.796345,1.475558,0.1177497,0.4179595,1.057521,0.2128308,310.4418,226.903,4.505492,False
2,0.3888889,-0.5610765,0.2809213,-0.5279736,-1.257771,-4.215726,-2.710957,0.6316227,1.257472,0.385196,-0.9303242,-0.01914575,4.3,7.8,-0.3433473,0.04456773,0.1111582,-0.5400124,-3.525867,-0.8409961,0.7099924,1.430485,0.2932754,-0.150164,0.2450334,0.05837654,-0.7411401,-0.2241248,0.02060088,0.7954767,1.475575,0.1180451,0.4132979,1.060278,0.213823,310.0129,226.8617,4.800502,False
2,0.4,-0.5834301,0.2743132,-0.550299,-1.25272,-4.221367,-2.7021,0.6290551,1.258402,0.3853397,-0.9295476,0.0713452,3.5,7.6,-0.3495986,0.03912941,0.1250112,-0.5391564,-3.522868,-0.8396745,0.7084102,1.430386,0.293237,-0.1447735,0.2513916,0.06475008,-0.7401697,-0.2196947,0.01877076,0.7946588,1.475568,0.1183755,0.4083686,1.063274,0.2149004,309.5247,226.7237,5.341663,False
2,0.4111111,-0.6250055,0.2738926,-0.5971445,-1.246523,-4.22798,-2.691602,0.6260252,1.259407,0.3854575,-0.9294629,0.007325925,3.5,7.6,-0.4007154,0.03904194,0.1275917,-0.5385364,-3.52047,-0.835529,0.7066477,1.430328,0.2932522,-0.1510494,0.2694757,0.07551536,-0.7389036,-0.214346,0.01672146,0.7937332,1.475591,0.1186848,0.4031881,1.066473,0.2159871,309.0805,226.4357,6.066623,False
2,0.4222222,-0.6474708,0.2918259,-0.6121392,-1.241591,-4.235,-2.681499,0.6234032,1.260269,0.3856344,-0.9304978,-0.0943084,3.5,7.6,-0.4250119,0.04522222,0.1513039,-0.5374557,-3.515802,-0.8340211,0.7049658,1.430294,0.2932222,-0.1489514,0.2705504,0.07123981,-0.7382373,-0.2098631,0.01503301,0.7929276,1.475682,0.1189005,0.3978257,1.069891,0.2170359,308.644,226.0634,6.882058,False
2,0.4333333,-0.6795828,0.3235804,-0.6239937,-1.237138,-4.242896,-2.670306,0.6205161,1.261199,0.3858833,-0.9296845,0.07550055,3.5,7.6,-0.4267365,0.05443302,0.1982591,-0.5356725,-3.509313,-0.8347942,0.7031116,1.430324,0.293241,-0.1533625,0.255701,0.0552407,-0.7381356,-0.2064068,0.01432461,0.7919527,1.475724,0.1191919,0.3923876,1.073507,0.2180438,308.1522,225.632,7.711926,False
2,0.4444444,-0.7128595,0.3766825,-0.6252952,-1.233678,-4.251679,-2.658461,0.6178112,1.262116,0.3861911,-0.9304978,-0.07484226,5.1,10.2,-0.4327031,0.07108283,0.24745,-0.5337603,-3.501294,-0.8368374,0.7011995,1.430352,0.2932405,-0.1554995,0.2439923,0.05628261,-0.7374559,-0.202831,0.01337386,0.7907757,1.475784,0.1196125,0.3867374,1.077261,0.2190005,307.6606,225.1573,8.519541,False
2,0.4555556,-0.7247739,0.4203313,-0.6201755,-1.23065,-4.260813,-2.647018,0.614965,1.263029,0.3864295,-0.9301788,0.0302159,5.1,10.2,-0.4357854,0.08374357,0.2624845,-0.5325944,-3.494822,-0.8374185,0.6992697,1.430491,0.2933691,-0.1672256,0.2354884,0.05740704,-0.7367507,-0.1994144,0.01309743,0.7897347,1.475846,0.1199763,0.3811009,1.08119,0.2200148,307.0805,224.7549,9.283855,False
2,0.4666667,-0.7272516,0.4959883,-0.6130902,-1.228591,-4.271682,-2.63518,0.6120223,1.264019,0.3866391,-0.9301415,0.003326825,5.1,10.2,-0.4303387,0.06237176,0.2729136,-0.5305091,-3.489715,-0.8371495,0.6970199,1.430537,0.2935224,-0.1756881,0.2461399,0.06176959,-0.7358586,-0.1948002,0.0118255,0.7885764,1.475986,0.1204269,0.3754238,1.085245,0.2210848,306.4981,224.4539,9.964583,False
2,0.4777778,-0.7294852,0.5204983,-0.607887,-1.225813,-4.280928,-2.623955,0.6090636,1.264979,0.3868344,-0.931015,-0.07962549,5.1,10.2,-0.433493,0.04422298,0.2770346,-0.5284116,-3.485694,-0.8354818,0.6949233,1.430614,0.2936015,-0.178794,0.2589059,0.06929202,-0.7348737,-0.1898172,0.01009072,0.7874041,1.476104,0.1208539,0.36975,1.089446,0.2222251,305.9172,224.2438,10.60228,False
2,0.4888889,-0.7348863,0.5375445,-0.6026408,-1.223401,-4.290598,-2.612192,0.6059245,1.265847,0.387042,-0.931577,-0.05050011,5.1,10.2,-0.4441343,0.01227632,0.2736806,-0.5257053,-3.482497,-0.8328898,0.6927213,1.43072,0.2937658,-0.1904147,0.2588826,0.08216439,-0.7334761,-0.1854736,0.009410013,0.7861412,1.476194,0.1212959,0.3640049,1.093751,0.2234018,305.3271,224.071,11.21697,False
2,0.5,-0.7370665,0.5514303,-0.5909891,-1.221254,-4.299929,-2.600697,0.6027417,1.266712,0.3872423,-0.9319077,-0.02972088,7.2,12.8,-0.4451408,-0.01222941,0.2756273,-0.5230129,-3.478829,-0.8311356,0.6904902,1.430575,0.2938228,-0.1924935,0.2439441,0.09171769,-0.7321003,-0.1820795,0.009016398,0.7848424,1.476214,0.1216602,0.3581434,1.09814,0.2246398,304.7126,223.9283,11.81658,False
2,0.5111111,-0.7273849,0.5334533,-0.5727967,-1.219062,-4.308037,-2.590089,0.5995022,1.267486,0.387419,-0.9317154,0.01779889,7.2,12.8,-0.4453074,-0.03230026,0.2541619,-0.5207891,-3.47722,-0.8275749,0.6881094,1.430629,0.2939425,-0.1945551,0.2417834,0.1013137,-0.7306292,-0.1781832,0.008356467,0.7834805,1.476333,0.1220303,0.3522485,1.102542,0.2259379,304.0711,223.6485,12.58366,False
2,0.5222223,-0.7145793,0.5314515,-0.557884,-1.217205,-4.316445,-2.579686,0.5963493,1.268194,0.387579,-0.9320105,-0.02697972,7.2,12.8,-0.453874,-0.02480614,0.2500362,-0.5192232,-3.473098,-0.8258593,0.6855826,1.430599,0.2940717,-0.1935126,0.2385878,0.09915201,-0.7297519,-0.1744509,0.007670703,0.7821262,1.476424,0.1223359,0.3462864,1.106883,0.2272533,303.4381,223.3651,13.35652,False
2,0.5333334,-0.6986476,0.5454984,-0.5323953,-1.216424,-4.325306,-2.569351,0.5931441,1.268845,0.387774,-0.9326454,-0.0577066,7.2,12.8,-0.4463098,0.007032663,0.2662047,-0.5176386,-3.46617,-0.827156,0.6829875,1.43056,0.2941091,-0.1946104,0.23434,0.09594929,-0.7287644,-0.1707181,0.007109042,0.7806728,1.476525,0.122736,0.3403545,1.111134,0.2285665,302.8184,223.0964,14.13641,False
2,0.5444446,-0.6924386,0.5915183,-0.4942809,-1.217217,-4.335212,-2.558369,0.5900823,1.269538,0.3878946,-0.9330859,-0.03978931,6.7,17.8,-0.4356869,0.08689114,0.2742071,-0.5180753,-3.456059,-0.831387,0.6804127,1.430555,0.2941372,-0.2051588,0.2332512,0.1098714,-0.7270738,-0.1666988,0.006798784,0.7791643,1.476736,0.1231632,0.3345881,1.115225,0.2298317,302.2067,222.7876,14.96355,False
2,0.5555557,-0.6808676,0.6268358,-0.4720898,-1.218065,-4.344912,-2.548065,0.5870608,1.270124,0.3880079,-0.9333602,-0.02474372,6.7,17.8,-0.4336202,0.1337726,0.2735001,-0.5183316,-3.447618,-0.8341172,0.6779289,1.430561,0.2941816,-0.2028359,0.2320913,0.1354176,-0.7247042,-0.1629865,0.006132727,0.7776498,1.4769,0.1235917,0.3290521,1.119102,0.2310245,301.6278,222.5234,15.68699,False
2,0.5666668,-0.6406288,0.6858134,-0.4297836,-1.220724,-4.355358,-2.538766,0.584047,1.270734,0.3880339,-0.9330763,0.0261239,6.7,17.8,-0.4366853,0.1826203,0.2941599,-0.5184749,-3.43666,-0.8386955,0.6754659,1.430528,0.2941287,-0.2217673,0.2352172,0.167533,-0.7216889,-0.1588188,0.006171343,0.7759421,1.476979,0.1241262,0.3237019,1.122752,0.2321402,301.1066,222.4539,16.14381,False
2,0.577778,-0.621459,0.6892009,-0.4074434,-1.221818,-4.364288,-2.529328,0.5810196,1.271313,0.3880708,-0.9336063,-0.0487004,6.7,17.8,-0.4377348,0.1953877,0.2974612,-0.5181372,-3.428322,-0.8410558,0.6729808,1.430572,0.2941639,-0.2260344,0.2384246,0.1665077,-0.7200117,-0.154672,0.005756157,0.7743483,1.477166,0.1246314,0.3184985,1.126253,0.2331883,300.65,222.597,16.37062,True
2,0.5888891,-0.6139009,0.6701647,-0.3860483,-1.222845,-4.372355,-2.520016,0.5780225,1.271797,0.3880513,-0.9348148,-0.110137,6.7,17.8,-0.4566517,0.1759831,0.3230529,-0.5161366,-3.41979,-0.8427605,0.6705803,1.430682,0.2941382,-0.2292786,0.2469833,0.15804,-0.7185251,-0.1500511,0.004957208,0.7726529,1.477308,0.1251686,0.3134165,1.129662,0.2341842,300.2084,222.7762,16.54633,True
2,0.6000003,-0.6126202,0.6266292,-0.3581258,-1.223649,-4.378917,-2.510973,0.5750084,1.272309,0.3879809,-0.9341096,0.06531921,7.8,30.2,-0.4457858,0.1417655,0.341862,-0.5135256,-3.412506,-0.8445491,0.6681229,1.430811,0.2942476,-0.2282691,0.2491332,0.150584,-0.7170939,-0.1458741,0.00428689,0.7709596,1.47754,0.1256585,0.3084415,1.133002,0.2351618,299.7129,222.9841,16.69676,True
2,0.6111114,-0.6017565,0.5841876,-0.3334219,-1.224353,-4.385119,-2.502519,0.5718673,1.272725,0.387887,-0.9336851,0.03795867,7.8,30.2,-0.406184,0.0735465,0.3526815,-0.5094275,-3.408046,-0.8453438,0.6656457,1.430913,0.294431,-0.2261264,0.2469909,0.1526908,-0.7153309,-0.1418151,0.003655455,0.7691823,1.47771,0.1261573,0.3035697,1.136232,0.2361132,299.236,222.9952,17.05235,True
2,0.6222225,-0.5781372,0.5493039,-0.3012956,-1.225559,-4.391006,-2.494849,0.5687538,1.273108,0.3878787,-0.9333117,0.03379915,7.8,30.2,-0.3702563,0.03768134,0.3147805,-0.5075905,-3.40576,-0.844502,0.6629888,1.430993,0.294733,-0.2250185,0.2405766,0.1601219,-0.7132095,-0.1379645,0.003247991,0.7673098,1.477744,0.1265585,0.2988193,1.139345,0.2369869,298.7891,222.9372,17.4924,True
2,0.6333337,-0.5599378,0.5324314,-0.2831139,-1.226785,-4.397232,-2.487087,0.5655928,1.273499,0.38781,-0.9336723,-0.0332691,7.8,30.2,-0.3688294,0.02023569,0.2336535,-0.5076651,-3.406002,-0.840177,0.660289,1.430954,0.29495,-0.2228419,0.2181599,0.1717445,-0.7108728,-0.1354208,0.003740676,0.765368,1.477911,0.1270211,0.2941957,1.142344,0.2376834,298.3823,222.8695,17.93338,True
2,0.6444448,-0.5375136,0.5263075,-0.2500656,-1.228958,-4.4031,-2.479998,0.5625001,1.273869,0.3877976,-0.9342982,-0.05693393,7.8,30.2,-0.3832734,0.0058451,0.165487,-0.5076086,-3.40735,-0.834314,0.6576254,1.430897,0.295177,-0.2185376,0.2064045,0.1801929,-0.7086219,-0.1325703,0.003824033,0.763397,1.478102,0.1275513,0.2896684,1.145224,0.23815,297.9775,222.7528,18.33291,True
2,0.655556,-0.5257605,0.5222201,-0.2255507,-1.231141,-4.408862,-2.472698,0.5593814,1.274199,0.3877482,-0.9342406,0.005618339,9.6,50.4,-0.391984,0.02622476,0.1476166,-0.5075719,-3.403908,-0.832697,0.6549867,1.430821,0.295301,-0.2184749,0.201044,0.1897614,-0.7061883,-0.1294738,0.003883954,0.7614594,1.478271,0.1280749,0.2852721,1.147975,0.2384315,297.5565,222.6222,18.63261,True
2,0.6666671,-0.5065181,0.5150757,-0.1797185,-1.234248,-4.413838,-2.466148,0.5563978,1.274479,0.3876929,-0.9346023,-0.03328446,9.6,50.4,-0.3833536,0.08041182,0.1671459,-0.5079852,-3.396336,-0.835386,0.6522737,1.430719,0.295398,-0.22149,0.2158945,0.2090099,-0.7033014,-0.1249751,0.002926548,0.7593744,1.478423,0.1287107,0.280954,1.150603,0.2385975,297.16,222.5262,18.82086,True
2,0.6777782,-0.496882,0.5077682,-0.1594437,-1.236734,-4.419117,-2.459231,0.5533959,1.274826,0.3876395,-0.9342113,0.03595434,9.6,50.4,-0.3787866,0.1333657,0.2080174,-0.507844,-3.386005,-0.8404872,0.6496203,1.430662,0.295356,-0.2171927,0.2126771,0.2132322,-0.7008156,-0.1214697,0.002392051,0.7573393,1.478588,0.1293147,0.276746,1.153126,0.2387334,296.7614,222.5069,18.91983,True
2,0.6888894,-0.4914818,0.4940225,-0.1434,-1.239124,-4.423945,-2.452339,0.5502342,1.275094,0.3875895,-0.9344659,-0.02375551,9.6,50.4,-0.3868298,0.1584736,0.2647538,-0.506611,-3.37497,-0.8455036,0.6468168,1.430675,0.2954068,-0.2108031,0.2115995,0.2131797,-0.6984348,-0.1178666,0.001787514,0.7552332,1.478774,0.1298945,0.2726197,1.155555,0.2388716,296.3812,222.5639,18.98014,True
2,0.7000005,-0.4872148,0.4940863,-0.13595,-1.241652,-4.429511,-2.445164,0.5470535,1.275406,0.3876159,-0.934059,0.03731893,13.1,73.9,-0.3833345,0.1497137,0.2966169,-0.5047521,-3.366442,-0.8487582,0.6440375,1.430724,0.2955394,-0.2022401,0.217961,0.2173993,-0.6958472,-0.1136559,0.0005928196,0.7530375,1.478974,0.1304672,0.268642,1.157904,0.2390171,296.0007,222.6883,19.01373,True
2,0.7111117,-0.480764,0.48575,-0.103954,-1.244915,-4.433783,-2.438611,0.5436796,1.275672,0.3876209,-0.9337394,0.02878153,13.1,73.9,-0.3704428,0.1357978,0.3070414,-0.503102,-3.359276,-0.8512357,0.6412164,1.430674,0.2957404,-0.1926024,0.2061906,0.2268722,-0.6929545,-0.1105964,6.684534E-05,0.7507738,1.479156,0.1310167,0.2646936,1.160182,0.239155,295.6662,222.7512,19.08191,True
2,0.7222228,-0.4796528,0.4772753,-0.09539291,-1.24756,-4.438424,-2.431839,0.5404285,1.27595,0.3875484,-0.9335562,0.01644666,13.1,73.9,-0.3642041,0.1348758,0.2899315,-0.5024469,-3.353108,-0.8528118,0.6384159,1.430596,0.295917,-0.1872169,0.1954864,0.2363734,-0.690156,-0.1079748,-0.0001217065,0.7486875,1.479381,0.1315546,0.260642,1.16242,0.239285,295.3581,222.7709,19.14577,True
2,0.7333339,-0.4795797,0.4623981,-0.08786279,-1.250065,-4.442643,-2.425133,0.5370554,1.276197,0.387464,-0.9331573,0.03557192,13.1,73.9,-0.3518081,0.1203462,0.2439033,-0.502286,-3.349786,-0.8522581,0.6356702,1.430449,0.2960606,-0.1775042,0.20287,0.2512486,-0.6867435,-0.1039195,-0.001554221,0.7464237,1.479516,0.1320961,0.2564391,1.16467,0.2394722,295.0362,222.8372,19.14655,True
2,0.7444451,-0.4773886,0.4496402,-0.08460563,-1.252526,-4.446879,-2.418523,0.5336932,1.276499,0.3873415,-0.9320057,0.1039722,13.1,73.9,-0.3413883,0.1056653,0.2159931,-0.5018381,-3.346623,-0.851562,0.6328272,1.430331,0.2962208,-0.1806997,0.2114059,0.2491725,-0.6840308,-0.09968279,-0.00271456,0.7441608,1.47967,0.1326098,0.2521215,1.166916,0.2397148,294.6587,222.9727,19.16206,True
2,0.7555562,-0.4773355,0.4379171,-0.08561343,-1.254745,-4.4511,-2.411892,0.5303521,1.276844,0.3872344,-0.9303103,0.1526143,19.8,86.2,-0.3425969,0.09197533,0.1977911,-0.5012612,-3.342896,-0.850975,0.6298984,1.430215,0.2963014,-0.1828548,0.2028914,0.2480934,-0.681325,-0.09654465,-0.003031476,0.7419368,1.479845,0.1331348,0.2477881,1.169113,0.2400153,294.2715,223.0376,19.30396,True
2,0.7666674,-0.4761203,0.4048881,-0.08758262,-1.256161,-4.454568,-2.40552,0.5269821,1.277243,0.3871262,-0.9281963,0.1900448,19.8,86.2,-0.3647545,0.09921062,0.2225523,-0.5000868,-3.335904,-0.8522419,0.6270007,1.43012,0.2963469,-0.1806963,0.1762092,0.258631,-0.6781442,-0.09518737,-0.002129197,0.7396724,1.480013,0.1337161,0.2434493,1.171199,0.2403521,293.8997,223.0759,19.47881,True
2,0.7777785,-0.4876571,0.3643226,-0.09376815,-1.257027,-4.457491,-2.398733,0.5235498,1.277651,0.386961,-0.9254389,0.2483055,19.8,86.2,-0.3760858,0.1222691,0.2686482,-0.4986865,-3.325702,-0.8565552,0.6240817,1.429996,0.2963676,-0.1838312,0.1900452,0.262966,-0.6750575,-0.09107319,-0.003192331,0.7373474,1.480204,0.1343329,0.2391467,1.173129,0.2407244,293.5678,223.1555,19.59782,True
2,0.7888896,-0.4949576,0.3290978,-0.1010478,-1.257676,-4.460349,-2.392086,0.5200579,1.278072,0.3868284,-0.9221307,0.2976499,19.8,86.2,-0.366268,0.1391056,0.2963926,-0.497511,-3.316031,-0.8612964,0.6211931,1.429849,0.2963979,-0.1762888,0.2091836,0.2693685,-0.6718623,-0.08624434,-0.005255749,0.7350289,1.480363,0.1349478,0.2349055,1.174866,0.2411413,293.2928,223.24,19.69703,True
2,0.8000008,-0.4959135,0.3056727,-0.09773627,-1.258736,-4.462985,-2.385767,0.5166187,1.27845,0.3867021,-0.91772,0.3978078,26.6,84.1,-0.3609335,0.1284719,0.2952003,-0.4962433,-3.309436,-0.8633963,0.6184168,1.429688,0.2964671,-0.1751268,0.2219326,0.277926,-0.6685892,-0.08161843,-0.007092797,0.7327332,1.480581,0.1355288,0.2307213,1.176368,0.2415794,293.0851,223.2701,19.85446,True
2,0.8111119,-0.4989281,0.2662482,-0.09647548,-1.259128,-4.464895,-2.37973,0.51318,1.27873,0.3865778,-0.913411,0.3872496,26.6,84.1,-0.3534317,0.1060935,0.297086,-0.4943812,-3.303679,-0.8649119,0.6155036,1.429569,0.2965589,-0.1857186,0.2240569,0.2854716,-0.6652794,-0.07757961,-0.007929562,0.7304883,1.480739,0.136054,0.2265329,1.177622,0.2419811,292.9591,223.3161,19.99078,True
2,0.8222231,-0.4924915,0.2599444,-0.08900352,-1.260534,-4.467834,-2.373816,0.5101153,1.278787,0.3865004,-0.9088176,0.4131314,26.6,84.1,-0.3558424,0.07228366,0.2616816,-0.4930592,-3.301755,-0.8625997,0.6125004,1.429356,0.2966106,-0.1953399,0.228341,0.2812887,-0.6625055,-0.07361124,-0.008488027,0.7281443,1.480906,0.1364565,0.22234,1.178648,0.2423359,292.8821,223.4197,20.03423,True
2,0.8333342,-0.487175,0.2632011,-0.08156572,-1.262185,-4.470606,-2.367704,0.506551,1.279028,0.386409,-0.9034556,0.4826712,26.6,84.1,-0.3602368,0.06281754,0.2456656,-0.4919189,-3.297767,-0.8619363,0.6094489,1.42919,0.2966454,-0.2039101,0.2305127,0.2749672,-0.6597114,-0.06925537,-0.009335445,0.7257148,1.481092,0.1369827,0.2182136,1.17945,0.2426588,292.8037,223.572,20.01771,True
2,0.8444453,-0.4818619,0.2664288,-0.08051988,-1.263788,-4.473654,-2.361558,0.5029586,1.279296,0.386332,-0.8979162,0.4979493,26.6,84.1,-0.3633337,0.07125387,0.2574769,-0.4907694,-3.290696,-0.8640062,0.6062278,1.429077,0.2966404,-0.2027888,0.2304777,0.2802858,-0.6564713,-0.0652794,-0.01046489,0.7232716,1.481281,0.1375706,0.214245,1.179989,0.2429638,292.7234,223.682,20.02888,True
2,0.8555565,-0.4796727,0.2536554,-0.08045866,-1.264844,-4.476107,-2.355495,0.4993118,1.279652,0.3862174,-0.8912769,0.5981848,29.4,87.7,-0.3961253,0.1018676,0.287852,-0.4895492,-3.280491,-0.8673532,0.6031101,1.42883,0.2965384,-0.2080174,0.2315043,0.29311,-0.6527898,-0.06097773,-0.01138475,0.7208735,1.481445,0.1381474,0.2104424,1.180243,0.2433061,292.6533,223.9533,19.83023,True
2,0.8666676,-0.4719885,0.2047155,-0.07382615,-1.264914,-4.476983,-2.350204,0.4956386,1.280062,0.3860044,-0.8844891,0.6106845,29.4,87.7,-0.4204336,0.177227,0.3195646,-0.4900872,-3.266628,-0.8740005,0.599993,1.428574,0.2963758,-0.1970121,0.2291872,0.3398928,-0.647431,-0.05673931,-0.01294429,0.7183909,1.481595,0.1386788,0.206455,1.180239,0.2436562,292.696,224.4306,19.38954,True
2,0.8777788,-0.4707808,0.1759475,-0.07794791,-1.264997,-4.478622,-2.344665,0.4921484,1.280431,0.3858318,-0.8771605,0.6597443,29.4,87.7,-0.4074043,0.2419422,0.3561879,-0.4905692,-3.251506,-0.8831753,0.5969427,1.428396,0.2962976,-0.1990994,0.2323792,0.3441862,-0.6434964,-0.05199982,-0.01448547,0.7159004,1.481675,0.139272,0.2022562,1.180061,0.2440656,292.8298,224.968,18.90486,True
2,0.8888899,-0.4706237,0.1396602,-0.09161934,-1.264154,-4.479952,-2.338995,0.48858,1.280815,0.3856027,-0.8698193,0.6602422,29.4,87.7,-0.3807717,0.223882,0.3536731,-0.4896254,-3.24235,-0.8879195,0.5938421,1.428167,0.2961826,-0.213049,0.2388501,0.3294006,-0.6403438,-0.04711412,-0.01555286,0.7135031,1.481748,0.1397929,0.1979435,1.179788,0.2445478,293.0126,225.4685,18.54374,True
2,0.900001,-0.4716336,0.125745,-0.1075325,-1.263719,-4.482203,-2.33299,0.4850419,1.2812,0.3855598,-0.8618575,0.7167703,29.4,87.7,-0.3799033,0.1836036,0.326724,-0.488126,-3.23733,-0.8880993,0.590813,1.427886,0.2960696,-0.2280836,0.2400004,0.3135411,-0.6374585,-0.0424677,-0.0161811,0.7110295,1.48188,0.1403716,0.1937058,1.179444,0.24505,293.1932,225.8423,18.38101,True
2,0.9111122,-0.4727438,0.1342155,-0.117161,-1.263863,-4.484744,-2.326917,0.4815926,1.281361,0.3853631,-0.8533631,0.7647899,30.3,100,-0.3821914,0.1528773,0.3051937,-0.4869196,-3.232251,-0.8882606,0.5877154,1.42766,0.2960227,-0.2378025,0.2475436,0.2944658,-0.6349381,-0.03730676,-0.01733318,0.7086469,1.481963,0.1408548,0.18963,1.179038,0.2455598,293.3557,226.154,18.25485,True
2,0.9222233,-0.4686174,0.1651089,-0.1269023,-1.265025,-4.488437,-2.320912,0.4781356,1.281427,0.3852942,-0.8447819,0.7722266,30.3,100,-0.369429,0.1475927,0.3018505,-0.4860328,-3.224483,-0.8914546,0.584627,1.4274,0.2959414,-0.2346098,0.2443362,0.2933689,-0.6316917,-0.03303731,-0.01849166,0.706129,1.482005,0.1413233,0.1856285,1.178571,0.2460622,293.5418,226.3731,18.14398,True
2,0.9333345,-0.459175,0.1971224,-0.1238675,-1.266549,-4.491724,-2.315149,0.4747221,1.281487,0.3852081,-0.8360989,0.7814214,30.3,100,-0.3569208,0.1350783,0.2696768,-0.4856908,-3.220125,-0.8918586,0.5815426,1.427016,0.2958291,-0.2355842,0.2314934,0.3082498,-0.6277268,-0.02948053,-0.01877129,0.7036071,1.482049,0.1418042,0.1816289,1.17808,0.246627,293.7158,226.6432,17.92319,True
2,0.9444456,-0.4422406,0.2239056,-0.1122973,-1.26847,-4.495014,-2.309851,0.471273,1.281661,0.3851283,-0.8276221,0.7623689,30.3,100,-0.3666546,0.1575406,0.2561024,-0.486111,-3.212829,-0.8939446,0.5784078,1.426648,0.2956631,-0.2343606,0.2378148,0.327439,-0.6235046,-0.0244895,-0.02026399,0.7010962,1.482146,0.1422682,0.1775773,1.177569,0.2472953,293.8315,227.042,17.61283,True
2,0.9555568,-0.4209621,0.23474,-0.09851402,-1.270265,-4.497681,-2.305175,0.4677308,1.281731,0.38502,-0.8187031,0.8027799,26.4,100,-0.3623354,0.1798457,0.2658296,-0.486216,-3.203305,-0.8983833,0.5752333,1.42634,0.295583,-0.2353228,0.2463013,0.3381382,-0.6193783,-0.01902829,-0.02209758,0.6985035,1.482219,0.142751,0.173454,1.177029,0.2481343,293.8966,227.5848,17.2006,True
2,0.9666679,-0.40386,0.2231355,-0.09101073,-1.271339,-4.499748,-2.300626,0.4642891,1.281884,0.384861,-0.8099232,0.7896316,26.4,100,-0.3412887,0.1864829,0.2379918,-0.4869132,-3.197162,-0.900745,0.5721572,1.425901,0.2954144,-0.2363106,0.2569295,0.3456409,-0.6153393,-0.0132435,-0.02417538,0.6959794,1.482254,0.143208,0.1693134,1.17644,0.2491475,293.9706,228.2634,16.74391,True
2,0.977779,-0.3899348,0.2061583,-0.08987042,-1.271929,-4.501697,-2.296098,0.4608468,1.282087,0.3846731,-0.8009947,0.8032851,26.4,100,-0.3435824,0.1780926,0.2198481,-0.4868727,-3.191798,-0.9014795,0.5691013,1.425521,0.295212,-0.2416039,0.2611838,0.3488884,-0.6115332,-0.008011588,-0.02561801,0.6934978,1.482326,0.1436679,0.1651695,1.175778,0.2502841,294.0659,229.005,16.29856,True
2,0.9888902,-0.3675356,0.1998626,-0.09091885,-1.272751,-4.504044,-2.29208,0.4573867,1.282238,0.3844221,-0.7914419,0.8600961,26.4,100,-0.3487876,0.1566964,0.2303792,-0.4858778,-3.185526,-0.9029405,0.5659904,1.425235,0.2950256,-0.2438197,0.2590953,0.3382445,-0.6081829,-0.002954245,-0.02696211,0.6910261,1.482345,0.1440942,0.1610597,1.174976,0.251459,294.1653,229.7042,15.94939,True
2,1.000001,-0.3535522,0.1690118,-0.09610607,-1.272645,-4.505721,-2.288039,0.4541055,1.282304,0.3842466,-0.7816644,0.8799838,26.4,100,-0.3443371,0.1331153,0.248265,-0.4842394,-3.178735,-0.9052258,0.5628372,1.425053,0.2947946,-0.239677,0.2570145,0.3222357,-0.6051006,0.002149704,-0.02870728,0.6884379,1.482367,0.1445777,0.1570758,1.173987,0.2525845,294.3278,230.3306,15.67222,True
2,1.011112,-0.35464,0.1732422,-0.1014526,-1.273334,-4.508186,-2.283326,0.4507512,1.282319,0.3840957,-0.7723359,0.8386595,20.4,100,-0.3410506,0.1298472,0.2577976,-0.4833099,-3.171521,-0.9079142,0.5596951,1.424727,0.2945592,-0.2407587,0.2484942,0.3222137,-0.6015767,0.006692524,-0.02972487,0.685913,1.482402,0.144995,0.1531947,1.172796,0.2535933,294.5668,230.9301,15.35765,True
2,1.022224,-0.3685764,0.1923202,-0.107927,-1.274572,-4.511194,-2.277889,0.4475891,1.282176,0.3839576,-0.7620524,0.9262393,20.4,100,-0.3411173,0.1501274,0.2536977,-0.4836599,-3.163799,-0.910881,0.5566688,1.424287,0.2942781,-0.2396144,0.2484561,0.3328562,-0.5976272,0.01181285,-0.03132037,0.6833957,1.482406,0.1453669,0.1494222,1.171397,0.2544893,294.8196,231.4916,15.00388,True
2,1.033335,-0.373955,0.202962,-0.1058483,-1.275831,-4.513878,-2.272722,0.4443205,1.282112,0.3838098,-0.7513278,0.9657003,20.4,100,-0.3433668,0.1800434,0.2443658,-0.4847161,-3.155745,-0.9140928,0.5536224,1.423767,0.2940204,-0.2417483,0.2516562,0.3318232,-0.5940447,0.01718884,-0.03301867,0.6808867,1.482466,0.1458337,0.1458078,1.169773,0.2553068,295.1072,231.9818,14.64813,True
2,1.044446,-0.3782727,0.2157215,-0.1069848,-1.277092,-4.516829,-2.267593,0.441083,1.282144,0.3836954,-0.7403972,0.9842791,20.4,100,-0.34557,0.2099019,0.2403612,-0.4858043,-3.147166,-0.9177876,0.5505532,1.423231,0.2937937,-0.2352755,0.251606,0.342427,-0.5900351,0.02239306,-0.03497716,0.6783371,1.482441,0.1462348,0.142229,1.167976,0.2560885,295.4407,232.6105,14.10182,True
2,1.055557,-0.3772256,0.2210646,-0.1048792,-1.278406,-4.519416,-2.26282,0.4377542,1.282166,0.3835273,-0.7301509,0.9215044,13.7,100,-0.343422,0.2162631,0.2435939,-0.4859944,-3.139054,-0.9212018,0.5475876,1.422748,0.2935979,-0.2362562,0.2579607,0.3520455,-0.5859556,0.02808503,-0.03708052,0.6757597,1.482412,0.1466517,0.1386683,1.166109,0.2568947,295.8141,233.3791,13.4273,True
2,1.066668,-0.3846358,0.2103969,-0.1005613,-1.279335,-4.52141,-2.257766,0.4345487,1.282331,0.3831844,-0.7197294,0.9378832,13.7,100,-0.3273792,0.2109055,0.2497982,-0.4859577,-3.131383,-0.9249145,0.544668,1.422331,0.293447,-0.2223042,0.2653498,0.3636843,-0.5816914,0.0340834,-0.04013996,0.6731982,1.482352,0.1470518,0.1350763,1.16427,0.2577407,296.2166,234.1493,12.78126,True
2,1.077779,-0.3920956,0.2114558,-0.09523133,-1.280618,-4.523652,-2.25258,0.431265,1.282402,0.382951,-0.7092174,0.9458182,13.7,100,-0.3124011,0.1970366,0.2548791,-0.4855545,-3.124107,-0.9283929,0.5416577,1.42194,0.293304,-0.2159616,0.2589748,0.3572268,-0.5780796,0.0393052,-0.04245505,0.670568,1.482282,0.1475358,0.1314535,1.162538,0.2586535,296.6042,234.8775,12.20536,True
2,1.08889,-0.4112614,0.2081316,-0.103726,-1.281444,-4.526277,-2.246652,0.4279124,1.282552,0.382596,-0.6978356,1.025132,13.7,100,-0.2995861,0.1608416,0.2534104,-0.4843704,-3.118586,-0.9303836,0.5387707,1.421551,0.2931743,-0.203209,0.2515012,0.3549722,-0.5743096,0.04431993,-0.04482633,0.6679955,1.482239,0.1479421,0.1278106,1.160933,0.2596158,296.9362,235.5815,11.73022,True
2,1.100002,-0.4176506,0.2092012,-0.09839187,-1.282845,-4.528546,-2.241211,0.4245079,1.282714,0.3823903,-0.6866375,1.007663,13.7,100,-0.2888199,0.1309552,0.261602,-0.4828231,-3.112474,-0.9329306,0.5357678,1.421288,0.2930737,-0.196942,0.2419379,0.3421147,-0.5709226,0.04884863,-0.04656191,0.6653312,1.482138,0.1483743,0.1242159,1.159459,0.2605571,297.2456,236.2428,11.35761,True
2,1.111113,-0.4283696,0.2240773,-0.09632711,-1.284617,-4.531346,-2.23526,0.4210867,1.282976,0.382026,-0.6747012,1.075105,22.3,100,-0.269501,0.08083516,0.2706171,-0.4801349,-3.107825,-0.9347461,0.5328208,1.421008,0.292902,-0.1864438,0.2291953,0.3249437,-0.5680491,0.05298865,-0.04836221,0.6627474,1.48206,0.1487193,0.1205975,1.158088,0.2614306,297.511,236.856,10.99859,True
2,1.122224,-0.4400799,0.2240328,-0.09311739,-1.286061,-4.533621,-2.229508,0.4176204,1.283256,0.3816583,-0.6635149,1.005778,22.3,100,-0.260817,0.07113194,0.2875128,-0.4784049,-3.100314,-0.938695,0.5298354,1.420638,0.29263,-0.1853912,0.2206623,0.3259718,-0.5644389,0.05732295,-0.04991084,0.6601257,1.482032,0.1490278,0.1168864,1.156811,0.2622275,297.7841,237.4275,10.62763,True
2,1.133335,-0.4433674,0.2453539,-0.08788779,-1.288299,-4.536465,-2.223798,0.4143561,1.283549,0.3813341,-0.6515051,1.081646,22.3,100,-0.2648296,0.1070947,0.3197909,-0.4777892,-3.089206,-0.9454749,0.5271133,1.420143,0.2923827,-0.1800381,0.2024933,0.3365169,-0.5604276,0.06061315,-0.05071058,0.6575943,1.481883,0.1493347,0.1131219,1.155619,0.2629733,298.0298,238.0276,10.19693,True
2,1.144446,-0.4635529,0.2335599,-0.08462211,-1.289623,-4.538571,-2.217393,0.4109024,1.284106,0.3809483,-0.6396439,1.067195,22.3,100,-0.2749206,0.1310673,0.3850605,-0.4759378,-3.075001,-0.954727,0.5242842,1.419806,0.2920713,-0.173612,0.1864714,0.3449332,-0.5563759,0.06389403,-0.05179103,0.6550407,1.48175,0.1496577,0.1093076,1.154504,0.2636717,298.2762,238.683,9.737847,True
2,1.155557,-0.4784203,0.2228408,-0.08456182,-1.290723,-4.540678,-2.210954,0.4075247,1.284654,0.3805575,-0.6278253,1.063403,40.7,100,-0.2819939,0.1264627,0.4266389,-0.4733923,-3.06286,-0.9621969,0.5214346,1.41943,0.2917883,-0.1736875,0.192899,0.3332447,-0.5531055,0.06870276,-0.05392981,0.6525223,1.481635,0.150058,0.1055316,1.153446,0.2643256,298.5099,239.2901,9.333453,True
2,1.166668,-0.5175356,0.1544372,-0.09484749,-1.289547,-4.5414,-2.203639,0.4039846,1.285529,0.3801544,-0.6147987,1.173798,40.7,100,-0.298667,0.1229249,0.4672464,-0.4705912,-3.049326,-0.9703105,0.5186886,1.419281,0.291467,-0.1674296,0.1865529,0.3171942,-0.5501676,0.07268672,-0.05564782,0.6500691,1.481483,0.1503901,0.1018844,1.152428,0.2649617,298.7407,239.9296,8.882146,True
2,1.17778,-0.538663,0.1127747,-0.09888948,-1.288858,-4.542405,-2.196655,0.4006648,1.286248,0.3797526,-0.6024454,1.111247,40.7,100,-0.286817,0.1249503,0.4820716,-0.4686269,-3.037122,-0.9783769,0.5160363,1.41909,0.2912614,-0.161112,0.1716385,0.3117744,-0.5468359,0.07571114,-0.05659031,0.6476239,1.481285,0.1506834,0.09826454,1.151447,0.2655477,299.0571,240.5029,8.493498,True
2,1.188891,-0.5618852,0.0625025,-0.118872,-1.286818,-4.543437,-2.189266,0.3972356,1.287172,0.3792126,-0.5889394,1.217249,40.7,100,-0.271861,0.09619787,0.482773,-0.465724,-3.026899,-0.9850002,0.5134441,1.418851,0.2909706,-0.1559781,0.1514612,0.2914212,-0.5443411,0.07794633,-0.05692879,0.6452705,1.481126,0.1509328,0.09466196,1.150529,0.2660729,299.4123,240.9272,8.235483,True
2,1.200002,-0.6000909,0.02919953,-0.1410577,-1.284994,-4.545023,-2.181062,0.3939109,1.288121,0.3787506,-0.5769392,1.078602,40.7,100,-0.2707844,0.07066238,0.4804323,-0.4628686,-3.01711,-0.9907385,0.5107527,1.418599,0.2906101,-0.1486257,0.1344396,0.281721,-0.5414324,0.08025502,-0.0574569,0.6427686,1.480986,0.1512697,0.0910451,1.149729,0.2665055,299.8335,241.1341,8.170119,True
2,1.211113,-0.6224161,0.01732354,-0.1527048,-1.283589,-4.546689,-2.172846,0.3905188,1.289042,0.378299,-0.5642663,1.141384,58.1,100,-0.2705657,0.03960922,0.5004261,-0.4588515,-3.006047,-0.9976249,0.5082042,1.418405,0.2903354,-0.1454703,0.1259229,0.2784702,-0.5384907,0.08277584,-0.05809393,0.6404352,1.480816,0.1515391,0.08747815,1.149092,0.2668576,300.1822,241.289,8.135997,True
2,1.222224,-0.6596828,0.01173257,-0.171834,-1.282178,-4.548861,-2.16387,0.3872163,1.290128,0.3778133,-0.5511848,1.177998,58.1,100,-0.2704007,0.006468683,0.5140163,-0.4546154,-2.995284,-1.004338,0.5058465,1.418215,0.2900105,-0.1444929,0.1174293,0.2699095,-0.5358227,0.08516816,-0.05850965,0.6382304,1.480622,0.1517956,0.08389027,1.148615,0.2671546,300.5134,241.3592,8.14799,True
2,1.233335,-0.6756719,0.01484418,-0.1739645,-1.281388,-4.55066,-2.155635,0.3838591,1.2912,0.3773985,-0.5388379,1.110729,58.1,100,-0.2576145,-0.01055205,0.5127006,-0.4512151,-2.985419,-1.010738,0.5033921,1.418126,0.2896998,-0.1456594,0.1153378,0.2560647,-0.5334791,0.08755568,-0.05902337,0.6360769,1.480448,0.1520212,0.08025806,1.148341,0.2674648,300.8266,241.4505,8.106414,True
2,1.244446,-0.6979657,-0.002301328,-0.1738674,-1.279781,-4.551965,-2.14686,0.3806165,1.292454,0.3770032,-0.5260339,1.153248,58.1,100,-0.2531578,-0.02136013,0.5328164,-0.4472705,-2.973442,-1.01889,0.5010529,1.418035,0.2894294,-0.1521402,0.1196571,0.2433456,-0.5313278,0.09067118,-0.05981193,0.634059,1.480324,0.1522863,0.07654176,1.14829,0.2678303,301.0928,241.6031,8.030209,True
2,1.255558,-0.7213687,-0.009876307,-0.1780764,-1.278431,-4.553624,-2.137872,0.3774391,1.293756,0.3764825,-0.5144625,1.04009,58.1,100,-0.2509298,-0.03102088,0.5423076,-0.4435143,-2.961802,-1.026701,0.498743,1.417935,0.2890697,-0.1511515,0.120746,0.2337582,-0.5290689,0.09343048,-0.06055975,0.6319307,1.480175,0.1526377,0.07276611,1.148505,0.2682784,301.3409,241.7975,7.963652,True
2,1.266669,-0.7457972,-0.02816363,-0.1918213,-1.276314,-4.555379,-2.128443,0.374402,1.295097,0.3760207,-0.5018695,1.134723,69.1,100,-0.2593658,-0.0726102,0.5463156,-0.4384399,-2.952169,-1.032313,0.4965909,1.417945,0.2887495,-0.1417726,0.1176288,0.2070422,-0.5277927,0.09589231,-0.06142901,0.6300541,1.480026,0.1529229,0.06898932,1.148975,0.2687993,301.5057,241.9677,7.975197,True
2,1.27778,-0.7575037,-0.03146158,-0.2024623,-1.274536,-4.557522,-2.119234,0.371576,1.29636,0.3755686,-0.4898608,1.08054,69.1,100,-0.2507406,-0.09716648,0.5545589,-0.4336606,-2.9418,-1.039241,0.4946187,1.41807,0.2884696,-0.1462172,0.1123932,0.1825573,-0.5266337,0.09795346,-0.06162954,0.6282501,1.479944,0.1531951,0.0652879,1.149671,0.2693503,301.657,242.0794,8.092602,True
2,1.288891,-0.7841617,-0.02737235,-0.2131186,-1.272987,-4.559844,-2.109053,0.36868,1.297776,0.3751359,-0.4779,1.076929,69.1,100,-0.2397559,-0.09212294,0.5917873,-0.4290278,-2.926853,-1.050535,0.492576,1.418091,0.2881515,-0.1431308,0.110307,0.1686769,-0.5253288,0.1004086,-0.06229081,0.6264641,1.479872,0.1534476,0.06165712,1.150576,0.2698784,301.7891,242.1584,8.25393,True
2,1.300002,-0.797008,-0.01467364,-0.2174208,-1.272003,-4.56216,-2.099228,0.365696,1.299095,0.3746116,-0.4668974,0.9894994,69.1,100,-0.23884,-0.0877285,0.5758374,-0.4255359,-2.915313,-1.058402,0.49058,1.418087,0.2877977,-0.1378476,0.1060544,0.1643583,-0.5236504,0.1027476,-0.06293396,0.6245646,1.479699,0.1537004,0.05812935,1.151675,0.2703791,301.8903,242.1489,8.460624,True
2,1.311113,-0.8162546,0.0001225583,-0.2238724,-1.271125,-4.564878,-2.088748,0.3629103,1.300644,0.3741877,-0.4550607,1.066808,70.8,100,-0.2517656,-0.08123422,0.5610908,-0.4222405,-2.904178,-1.065343,0.4887224,1.418069,0.2875359,-0.1293841,0.09647025,0.1589325,-0.5221596,0.1043201,-0.06320294,0.622819,1.479592,0.1539798,0.05470718,1.152929,0.2708693,301.9409,242.15,8.62125,True
2,1.322224,-0.8312243,0.01069894,-0.2260397,-1.270314,-4.56743,-2.0783,0.3600983,1.302207,0.3737605,-0.4446691,0.9341378,70.8,100,-0.2549259,-0.09828863,0.5631153,-0.4178329,-2.892651,-1.072883,0.486748,1.418105,0.2873189,-0.1198936,0.1018308,0.1439784,-0.5210475,0.107125,-0.06475157,0.6210181,1.479299,0.1542473,0.05122811,1.154324,0.27133,302.0225,242.2468,8.698765,True
2,1.333336,-0.8545607,-0.01178783,-0.2280464,-1.268257,-4.569356,-2.067412,0.3574154,1.303923,0.3733881,-0.4339206,0.9683406,70.8,100,-0.2236446,-0.1432881,0.5997628,-0.4112922,-2.879008,-1.084026,0.4849989,1.418273,0.2871792,-0.1200176,0.1104183,0.1258933,-0.5204429,0.1103152,-0.06611431,0.6194435,1.479179,0.1546586,0.04764953,1.155868,0.2717251,302.0889,242.3839,8.757565,True
2,1.344447,-0.8778293,-0.05029785,-0.2374284,-1.265076,-4.571037,-2.056215,0.3548529,1.305907,0.373008,-0.4239369,0.898172,70.8,100,-0.1957467,-0.2030141,0.612884,-0.4041352,-2.86754,-1.093442,0.4833555,1.418495,0.2870312,-0.1286656,0.1211565,0.1068221,-0.5199955,0.113819,-0.06741446,0.6179565,1.479115,0.1549668,0.04408028,1.157637,0.2720631,302.1651,242.5183,8.793861,True
2,1.355558,-0.8830898,-0.06528874,-0.2437526,-1.262568,-4.5731,-2.04565,0.3522854,1.307782,0.3727148,-0.4138403,0.909528,70.8,100,-0.1905151,-0.2423048,0.5986789,-0.3979689,-2.857852,-1.100165,0.4816409,1.418804,0.2868161,-0.1265333,0.1190247,0.1078613,-0.5188365,0.1166611,-0.06849916,0.6165062,1.479106,0.1552589,0.04053884,1.159673,0.2723404,302.2029,242.5491,8.911884,True
2,1.366669,-0.8894116,-0.08241893,-0.2553838,-1.259747,-4.575384,-2.03483,0.3497934,1.309677,0.3723176,-0.4043275,0.8562768,68.9,100,-0.183887,-0.2692419,0.5035874,-0.3933617,-2.857025,-1.099151,0.4799415,1.419066,0.2866092,-0.1319083,0.1190578,0.1015104,-0.5180035,0.1195309,-0.0693647,0.6151156,1.47906,0.1555269,0.03710557,1.162019,0.2725597,302.2359,242.3818,9.198768,True
2,1.37778,-0.8893867,-0.08679985,-0.2724098,-1.256976,-4.578043,-2.024213,0.3473883,1.311605,0.3720248,-0.3962959,0.7215113,68.9,100,-0.1766595,-0.260516,0.4801549,-0.3890921,-2.848972,-1.104759,0.4781954,1.419317,0.2862992,-0.1351655,0.1158948,0.09406558,-0.5172967,0.1220074,-0.06990106,0.6135862,1.479011,0.155813,0.03376924,1.164722,0.2727312,302.2503,242.0725,9.59,True
2,1.388891,-0.8808509,-0.09106856,-0.2819823,-1.254415,-4.580803,-2.013851,0.3449351,1.313434,0.3716512,-0.3878127,0.7642567,68.9,100,-0.1783599,-0.2225822,0.5326738,-0.3846191,-2.831817,-1.11856,0.4765233,1.419609,0.2859938,-0.1544458,0.1149178,0.08143589,-0.5168461,0.1247758,-0.06967282,0.6122754,1.478776,0.1560719,0.03043554,1.167732,0.272891,302.1245,241.7569,9.974486,True
2,1.400002,-0.855259,-0.096334,-0.2883734,-1.251646,-4.583409,-2.004407,0.3425624,1.315317,0.371285,-0.3800352,0.6994308,68.9,100,-0.1801737,-0.1920005,0.5723482,-0.3802845,-2.813902,-1.133059,0.4749646,1.419879,0.2857246,-0.1609732,0.1256744,0.06126957,-0.517024,0.1283935,-0.07074208,0.6110015,1.478741,0.1564567,0.02707674,1.170966,0.2730733,301.9153,241.4226,10.39429,True
2,1.411114,-0.8307891,-0.08984593,-0.291617,-1.249557,-4.586246,-1.995173,0.3403729,1.316987,0.3709133,-0.3725475,0.6736861,62.8,100,-0.2103181,-0.1949482,0.5374482,-0.3761736,-2.805104,-1.137808,0.4734944,1.419998,0.2853794,-0.1674276,0.1353019,0.05178346,-0.5168312,0.1325651,-0.07217167,0.6096795,1.478631,0.1568863,0.02369395,1.174336,0.2733293,301.6537,241.0583,10.85557,True
2,1.422225,-0.8264375,-0.1056603,-0.2617148,-1.247319,-4.58753,-1.985747,0.3381397,1.318501,0.3704021,-0.3658379,0.6027985,62.8,100,-0.2286194,-0.179911,0.5185515,-0.3726359,-2.794595,-1.144434,0.4719934,1.420215,0.2851677,-0.1695736,0.1545076,0.04441752,-0.5166506,0.1374987,-0.07468516,0.6084486,1.478573,0.1572685,0.0202765,1.177727,0.2736747,301.3652,240.7086,11.35541,True
2,1.433336,-0.8287472,-0.06734097,-0.2661622,-1.246644,-4.590832,-1.9754,0.3359679,1.320014,0.3700259,-0.3587512,0.6379884,62.8,100,-0.214624,-0.1736269,0.5355228,-0.368475,-2.779665,-1.156547,0.4704447,1.420409,0.2850103,-0.1727169,0.1694138,0.04875714,-0.5161099,0.1424598,-0.0768061,0.6071851,1.478477,0.1574509,0.01695491,1.181025,0.2741182,301.0557,240.3497,11.90955,True
2,1.444447,-0.8182933,-0.0235964,-0.2642569,-1.246727,-4.594273,-1.965567,0.3337816,1.321261,0.3695769,-0.350921,0.7058902,62.8,100,-0.1849208,-0.218181,0.5157248,-0.3628877,-2.770872,-1.163782,0.4688373,1.420562,0.2848806,-0.1822288,0.1736678,0.05844111,-0.5151374,0.1471467,-0.0784514,0.6058639,1.478213,0.1578157,0.01381362,1.18409,0.2746277,300.7375,240.0791,12.45193,True
2,1.455558,-0.799188,-0.007494587,-0.256892,-1.246048,-4.597003,-1.956527,0.3317315,1.322711,0.3691366,-0.3437166,0.6483055,62.8,100,-0.1882137,-0.2361945,0.5028305,-0.3579651,-2.761139,-1.170588,0.4672242,1.420786,0.2846956,-0.1876023,0.1715667,0.05314603,-0.5149222,0.1508335,-0.07935261,0.6045982,1.478118,0.1581602,0.01080697,1.186823,0.2750542,300.5374,239.9509,12.90028,True
2,1.466669,-0.7619538,0.004413934,-0.2527119,-1.245512,-4.599753,-1.948609,0.3296281,1.323894,0.3688087,-0.3376888,0.5415389,53.8,100,-0.1990125,-0.252043,0.4846918,-0.3530872,-2.752309,-1.176353,0.4656406,1.420884,0.2844713,-0.2037051,0.1695309,0.03727869,-0.515303,0.1545884,-0.07985329,0.6034949,1.478208,0.1586816,0.007831473,1.189294,0.2753554,300.4633,240.0609,13.01486,True
2,1.47778,-0.7364532,0.01838602,-0.2496044,-1.245059,-4.602617,-1.940427,0.3277243,1.325124,0.3684657,-0.332566,0.4606639,53.8,100,-0.2076634,-0.2540671,0.4687652,-0.3487148,-2.743323,-1.182424,0.4642313,1.420937,0.2841904,-0.2143824,0.1770062,0.03632138,-0.5150282,0.1589715,-0.08046874,0.6024185,1.477995,0.1586802,0.004876143,1.191615,0.2755255,300.4384,240.2325,13.00017,False
2,1.488891,-0.6991826,0.02503579,-0.2315483,-1.244871,-4.604715,-1.933362,0.3257286,1.326039,0.3681836,-0.3287129,0.3455456,53.8,100,-0.2152589,-0.2422487,0.4550776,-0.3449017,-2.733485,-1.189048,0.4625859,1.420868,0.28389,-0.2291952,0.1961782,0.045026,-0.514454,0.1648402,-0.08252976,0.6012221,1.477809,0.159003,0.002038745,1.193914,0.2755662,300.4294,240.2397,13.09147,False
2,1.500003,-0.6799599,0.01455304,-0.2155154,-1.244139,-4.606402,-1.925804,0.3237313,1.327232,0.3679297,-0.3241818,0.4088769,53.8,100,-0.2112707,-0.1600467,0.4333273,-0.344344,-2.721062,-1.19878,0.4611753,1.420796,0.2835834,-0.2249199,0.2014969,0.04927854,-0.5138702,0.1704068,-0.0846278,0.6000729,1.477556,0.1593564,-0.0006979699,1.196217,0.2755179,300.3257,240.1235,13.24638,False
2,1.511114,-0.6542807,-0.006517533,-0.1909268,-1.242941,-4.607389,-1.91909,0.3218539,1.328181,0.3675706,-0.3211527,0.2712712,39.9,86,-0.2120144,-0.1134993,0.4741916,-0.3420767,-2.702246,-1.214179,0.4598511,1.420914,0.2834058,-0.2153788,0.1897726,0.04596768,-0.5136268,0.1738719,-0.08562622,0.5988959,1.477322,0.1596575,-0.003312818,1.198561,0.2754231,300.1714,240.0064,13.39415,False
2,1.522225,-0.6137519,-0.01804783,-0.1919591,-1.241714,-4.609382,-1.912937,0.3199985,1.329233,0.3671253,-0.3172592,0.3518774,39.9,86,-0.2312212,-0.1624484,0.4643912,-0.3371988,-2.691832,-1.220845,0.4583985,1.420855,0.2831368,-0.2080478,0.1738492,0.0341523,-0.5135581,0.1776882,-0.08682597,0.5977302,1.476828,0.1601088,-0.005883586,1.200901,0.2752813,299.9617,239.8498,13.59254,False
2,1.533336,-0.5913549,-0.02434132,-0.1919414,-1.240539,-4.611386,-1.906433,0.3181223,1.330148,0.3667383,-0.3149002,0.2110118,39.9,86,-0.256043,-0.181341,0.423986,-0.3336248,-2.685451,-1.223486,0.4568549,1.420885,0.2829096,-0.2059139,0.1653316,0.03623635,-0.5132396,0.1815517,-0.08798658,0.5963977,1.476901,0.1607432,-0.008414557,1.203265,0.2750703,299.811,239.6562,13.85201,False
2,1.544447,-0.5391247,-0.03152464,-0.1897949,-1.239586,-4.613205,-1.901637,0.3160695,1.331154,0.3665764,-0.3133108,0.1422127,39.9,86,-0.2518766,-0.191896,0.4121455,-0.3298708,-2.676143,-1.22962,0.4552517,1.420791,0.2827337,-0.204804,0.1631759,0.04261212,-0.5127293,0.1851672,-0.08890404,0.5951449,1.476708,0.1611052,-0.01087446,1.205654,0.2747509,299.6411,239.3641,14.22465,False
2,1.555558,-0.5563406,0.005657926,-0.1963579,-1.240055,-4.616077,-1.893962,0.3141574,1.332091,0.3661835,-0.3108117,0.226048,39.9,86,-0.2467258,-0.1906666,0.3929259,-0.3267619,-2.667296,-1.235522,0.4536909,1.420621,0.282552,-0.2143252,0.1620976,0.05120441,-0.5120188,0.1888372,-0.08949552,0.5938717,1.476565,0.161521,-0.01330529,1.208045,0.2743639,299.438,239.0253,14.57678,False
2,1.566669,-0.5264636,-0.003752723,-0.1878089,-1.239113,-4.617755,-1.888598,0.3120337,1.332911,0.3658793,-0.3104079,0.03379303,20.2,56.8,-0.2426769,-0.1660006,0.3728417,-0.3246319,-2.65807,-1.241706,0.4519316,1.420521,0.282326,-0.2225675,0.1790685,0.08115547,-0.5104364,0.1952004,-0.09257707,0.5926071,1.476326,0.1625071,-0.01578401,1.210419,0.2739813,299.2357,238.688,14.85386,False
2,1.577781,-0.5072449,-0.01321548,-0.1782023,-1.237949,-4.619334,-1.882957,0.3100471,1.333725,0.3654435,-0.3063072,0.3737531,20.2,56.8,-0.2480871,-0.1573964,0.3623266,-0.3220774,-2.647638,-1.24882,0.4501723,1.420672,0.2819524,-0.2267765,0.1748073,0.08434793,-0.5099708,0.1987871,-0.09357762,0.5912811,1.476429,0.1629119,-0.01833746,1.21274,0.2736978,298.9973,238.4008,15.06485,False
2,1.588892,-0.4676745,-0.04602812,-0.1716766,-1.235917,-4.620609,-1.878552,0.3080086,1.334411,0.3651266,-0.3064713,-0.01913451,20.2,56.8,-0.2737516,-0.1647916,0.3507836,-0.3189141,-2.639137,-1.252879,0.4483093,1.420575,0.2816205,-0.2396203,0.1812575,0.07488079,-0.5096459,0.2035189,-0.09456645,0.5899825,1.476273,0.1633968,-0.02100575,1.215083,0.2735179,298.8375,238.3704,15.1371,False
2,1.600003,-0.4473591,-0.06192792,-0.1716128,-1.234065,-4.622097,-1.873763,0.3058811,1.335133,0.364722,-0.3051024,0.1248556,20.2,56.8,-0.2927597,-0.1415186,0.3681911,-0.3166871,-2.625445,-1.262351,0.4465609,1.420336,0.2813716,-0.2460904,0.1866682,0.0600245,-0.5099314,0.2084228,-0.09615849,0.5885975,1.476029,0.1633399,-0.02373685,1.217442,0.2734039,298.6265,238.0909,15.53406,False
2,1.611114,-0.4291271,-0.08846322,-0.1682986,-1.231789,-4.623318,-1.869133,0.3038376,1.335748,0.3643391,-0.30503,0.004776492,20.2,56.8,-0.3101963,-0.1199132,0.3291129,-0.3153646,-2.618541,-1.264799,0.4447096,1.420055,0.2810314,-0.2578044,0.1920122,0.05905643,-0.5096156,0.212892,-0.09684665,0.5872403,1.475946,0.163852,-0.02640396,1.219773,0.2733046,298.3828,237.6905,16.08719,False
2,1.622225,-0.4076043,-0.1373754,-0.1702005,-1.228282,-4.624307,-1.864909,0.3016029,1.336473,0.3639495,-0.3037665,0.1148591,22.1,28.7,-0.3177284,-0.1038868,0.3197211,-0.3136788,-2.609528,-1.269945,0.4428735,1.420016,0.280869,-0.260909,0.1887767,0.07185251,-0.5085977,0.2171827,-0.09756757,0.585816,1.475819,0.1643758,-0.0290007,1.221965,0.2732069,298.1045,237.1633,16.72169,False
2,1.633336,-0.384021,-0.1714218,-0.1839011,-1.224645,-4.625963,-1.860864,0.2993842,1.337175,0.3635306,-0.3028446,0.08270729,22.1,28.7,-0.3657997,-0.1304382,0.3018437,-0.3104458,-2.603128,-1.270296,0.4408937,1.419645,0.2805359,-0.2778183,0.1898132,0.08903045,-0.5072832,0.2219243,-0.0980978,0.5845397,1.475524,0.164958,-0.0315771,1.223957,0.2731029,297.8839,236.7164,17.25498,False
2,1.644447,-0.3762912,-0.2354039,-0.2038332,-1.219182,-4.627438,-1.856371,0.2970075,1.337616,0.3631589,-0.3023455,0.04451154,22.1,28.7,-0.4082936,-0.1518598,0.3116412,-0.3071147,-2.594082,-1.273021,0.4386525,1.419127,0.2800956,-0.3106733,0.2164707,0.1042937,-0.5059138,0.2295413,-0.100166,0.5831279,1.474951,0.1655436,-0.03412507,1.225734,0.272984,297.7507,236.2529,17.78738,False
2,1.655559,-0.3666276,-0.2545775,-0.2122637,-1.215309,-4.629073,-1.851886,0.2948175,1.338113,0.3627951,-0.3020339,0.02766779,22.1,28.7,-0.4264619,-0.1656586,0.3042466,-0.3041404,-2.585747,-1.275683,0.4366645,1.418648,0.2797472,-0.3361335,0.2697675,0.1089316,-0.5051686,0.239531,-0.1038944,0.5817364,1.474681,0.1660523,-0.03673039,1.227306,0.2728556,297.7216,235.7071,18.36757,False
2,1.66667,-0.3506448,-0.2577835,-0.2293034,-1.211535,-4.631439,-1.847701,0.2923548,1.33841,0.3624356,-0.3009042,0.1027108,39.9,19.2,-0.4425605,-0.1719605,0.2904949,-0.3013159,-2.579022,-1.276619,0.4343777,1.418152,0.2793961,-0.3627757,0.3146064,0.09651076,-0.5050541,0.2499578,-0.1080769,0.580317,1.474305,0.1668749,-0.03942238,1.228698,0.2727782,297.7155,235.0599,19.01052,False
2,1.677781,-0.3442816,-0.2514069,-0.236796,-1.20829,-4.633609,-1.84334,0.289905,1.338597,0.3620162,-0.3003423,0.0501297,39.9,19.2,-0.486278,-0.1804748,0.2844555,-0.2983108,-2.571066,-1.277518,0.4320649,1.417369,0.2791977,-0.3872986,0.3402703,0.08721684,-0.5047356,0.2599031,-0.1117023,0.5789418,1.473545,0.1675422,-0.04221642,1.229926,0.2728148,297.7377,234.3537,19.71725,False
2,1.688892,-0.3368724,-0.2418166,-0.2432393,-1.205235,-4.635975,-1.839005,0.2873993,1.338832,0.361656,-0.3004184,-0.0076282,39.9,19.2,-0.4958269,-0.1539134,0.2922096,-0.2964951,-2.560443,-1.281776,0.4297442,1.416753,0.2788765,-0.41917,0.3680138,0.09182061,-0.5041257,0.2706826,-0.1153098,0.5774313,1.473021,0.1683691,-0.04502053,1.231089,0.2729768,297.7592,233.8917,20.23912,False
2,1.700003,-0.3348733,-0.2108475,-0.2284735,-1.203424,-4.637611,-1.834765,0.2849493,1.338835,0.3611896,-0.2997942,0.05691599,39.9,19.2,-0.4754146,-0.09869778,0.319094,-0.2961861,-2.544682,-1.292278,0.4274301,1.41619,0.2785404,-0.4298209,0.3850841,0.09198419,-0.5034189,0.2811651,-0.1190801,0.5758524,1.472617,0.1694047,-0.04796201,1.2322,0.2732654,297.7368,233.5048,20.74004,False
2,1.711114,-0.3361211,-0.1670508,-0.2009846,-1.202488,-4.638794,-1.830458,0.282267,1.338684,0.3607044,-0.299465,0.02931315,39.9,19.2,-0.4818383,-0.1348643,0.3114243,-0.2925584,-2.535894,-1.295009,0.4250454,1.415331,0.2781985,-0.4233759,0.3946604,0.09516244,-0.5028921,0.2915554,-0.1238112,0.5740499,1.472271,0.1705277,-0.0509856,1.233291,0.2736421,297.7039,233.1939,21.22772,False
2,1.722225,-0.327669,-0.1499104,-0.1893553,-1.200922,-4.640308,-1.826476,0.2796491,1.33857,0.3602355,-0.2989723,0.0446213,56.2,15.2,-0.500192,-0.1538468,0.283739,-0.2894904,-2.531116,-1.293182,0.4226346,1.414573,0.2777746,-0.42334,0.3946094,0.1026446,-0.5017289,0.300678,-0.1268429,0.5723144,1.471709,0.171385,-0.05403474,1.234403,0.2740518,297.6537,232.9388,21.70622,False
2,1.733337,-0.3021611,-0.1337088,-0.167085,-1.199542,-4.641281,-1.823547,0.2769882,1.338227,0.359653,-0.2984487,0.04733197,56.2,15.2,-0.5013161,-0.1644344,0.277272,-0.2868464,-2.522806,-1.295464,0.4200405,1.413693,0.277607,-0.436,0.3860369,0.1230069,-0.4996761,0.3099776,-0.1294957,0.5705728,1.471174,0.1723473,-0.05706835,1.235529,0.2743567,297.5269,232.8014,22.14369,False
2,1.744448,-0.2723602,-0.1282669,-0.1713921,-1.197834,-4.643061,-1.82089,0.2743239,1.337657,0.3590467,-0.2986357,-0.01759331,56.2,15.2,-0.5484811,-0.1812669,0.2434812,-0.2838546,-2.519981,-1.290592,0.4174358,1.412627,0.2771928,-0.4412466,0.3849431,0.1336966,-0.4982945,0.3192078,-0.1324965,0.5686861,1.470417,0.1733148,-0.06015769,1.236636,0.2744024,297.3648,232.6674,22.55549,False
2,1.755559,-0.2606623,-0.1229018,-0.1724967,-1.195997,-4.644842,-1.817686,0.2716462,1.33713,0.3583295,-0.2993047,-0.06113768,56.2,15.2,-0.5792689,-0.1718246,0.2576922,-0.2814301,-2.509499,-1.29314,0.4149552,1.411556,0.2766705,-0.4508203,0.4094665,0.1286156,-0.4971312,0.3308147,-0.1375738,0.5670461,1.469709,0.174309,-0.06322843,1.237696,0.2741512,297.1917,232.3191,23.05896,False
2,1.76667,-0.235053,-0.1301879,-0.1618266,-1.194101,-4.645936,-1.815533,0.268939,1.336285,0.3576515,-0.2996669,-0.03277831,69.3,10,-0.6121928,-0.1730126,0.2686386,-0.2786407,-2.499898,-1.294528,0.4123126,1.410364,0.2761278,-0.4592103,0.4488709,0.1362817,-0.4962833,0.3442754,-0.1440869,0.565102,1.468947,0.1752996,-0.06625891,1.238601,0.2736213,296.9467,231.7609,23.65993,False
2,1.777781,-0.2243439,-0.1407427,-0.1511234,-1.191938,-4.646771,-1.813066,0.2662218,1.335678,0.3571274,-0.2988631,0.07348255,69.3,10,-0.611299,-0.1079624,0.2595568,-0.2786172,-2.49022,-1.297113,0.4097219,1.409288,0.2757008,-0.4633477,0.4765444,0.1470108,-0.4955003,0.3574535,-0.1503384,0.5625255,1.468056,0.1763196,-0.06926513,1.239219,0.2729273,296.6928,231.1069,24.24497,False
2,1.788892,-0.2029305,-0.1607921,-0.1318632,-1.189333,-4.647032,-1.811387,0.2633682,1.334771,0.3565166,-0.2992983,-0.04063624,69.3,10,-0.621108,-0.06946808,0.2407775,-0.2785113,-2.482103,-1.297647,0.4069368,1.407931,0.2752123,-0.4600703,0.4711745,0.1576259,-0.4941916,0.3685802,-0.1552066,0.5604051,1.46718,0.1772928,-0.07225703,1.23951,0.2721728,296.5335,230.5417,24.7179,False
2,1.800003,-0.1772804,-0.1733084,-0.0998491,-1.187049,-4.646376,-1.810519,0.2605335,1.333869,0.3559148,-0.2986985,0.05509334,69.3,10,-0.617185,-0.05853295,0.2067259,-0.2778348,-2.47908,-1.293712,0.4040814,1.406922,0.275167,-0.4632214,0.4764731,0.1640377,-0.4932462,0.3800974,-0.1600512,0.5583174,1.466341,0.1782198,-0.07519866,1.239431,0.27143,296.4396,230.0251,25.13961,False
2,1.811115,-0.1676939,-0.1688527,-0.06898344,-1.185475,-4.645724,-1.80918,0.257813,1.332869,0.3552539,-0.2989617,-0.024797,69.3,10,-0.5770373,-0.06884402,0.1689942,-0.2765139,-2.477795,-1.289933,0.4014803,1.405516,0.2747936,-0.4407083,0.4955128,0.1788883,-0.4918209,0.3934841,-0.1677096,0.5560935,1.465515,0.1790316,-0.07810456,1.239021,0.2707533,296.4693,229.6413,25.44009,False
2,1.822226,-0.139022,-0.1462613,-0.04887078,-1.184575,-4.645326,-1.808731,0.2551842,1.331697,0.3544929,-0.2992237,-0.0238537,77.7,6.2,-0.5783807,-0.09203285,0.1368551,-0.2745772,-2.478085,-1.283139,0.3988551,1.404073,0.2742352,-0.4245983,0.4623867,0.2031105,-0.4895369,0.4027548,-0.1718261,0.5539237,1.464625,0.1798139,-0.08101986,1.238297,0.2701418,296.5357,229.2991,25.76479,False
2,1.833337,-0.1081809,-0.1322307,-0.04044146,-1.183463,-4.645405,-1.808522,0.2524929,1.330448,0.3537722,-0.2985345,0.06299306,77.7,6.2,-0.5996089,-0.06977016,0.1489462,-0.2739636,-2.470666,-1.282677,0.3961314,1.402517,0.2737684,-0.4150169,0.4314265,0.2093122,-0.4878379,0.4108218,-0.1747084,0.551906,1.463699,0.1806107,-0.08385577,1.237284,0.2695464,296.6163,229.1137,25.99528,False
2,1.844448,-0.08366251,-0.1352985,-0.03724651,-1.181831,-4.645313,-1.808438,0.2497452,1.329018,0.3530991,-0.2992024,-0.06179575,77.7,6.2,-0.5977978,-0.02692384,0.1194343,-0.2749266,-2.468244,-1.278323,0.3933166,1.400958,0.2732384,-0.4149555,0.4292651,0.2178265,-0.4859736,0.4217962,-0.1797594,0.5495997,1.462607,0.1813784,-0.08656433,1.236053,0.2688915,296.7233,229.1481,26.04071,False
2,1.855559,-0.06658385,-0.1405176,-0.02977673,-1.179951,-4.644948,-1.808354,0.2469209,1.327617,0.3524718,-0.2994474,-0.02198944,77.7,6.2,-0.5882573,0.008241594,0.119626,-0.2757112,-2.462173,-1.277771,0.3904145,1.399291,0.2728021,-0.4116656,0.4238883,0.2305648,-0.4838389,0.4328522,-0.1850508,0.5473182,1.461553,0.1821928,-0.0891609,1.234651,0.2681397,296.8093,229.1843,26.03874,False
2,1.86667,-0.0505432,-0.1510033,-0.01056031,-1.178084,-4.643832,-1.808782,0.2441119,1.325968,0.3518648,-0.2992365,0.01923699,86.1,9,-0.5437651,0.07555485,0.1005678,-0.2786668,-2.457115,-1.27821,0.3875418,1.397441,0.2723243,-0.4148471,0.4174402,0.2369688,-0.4816636,0.4425794,-0.1888999,0.5450175,1.460387,0.1831024,-0.09176081,1.233085,0.2673388,296.8853,229.0707,26.08657,False
2,1.877781,-0.04409654,-0.1604973,0.003332123,-1.176133,-4.642722,-1.808896,0.2413576,1.324409,0.3512211,-0.2988365,0.03617727,86.1,9,-0.5312783,0.06943613,0.06845105,-0.2791872,-2.457495,-1.272138,0.3846486,1.395727,0.2719014,-0.4201373,0.4131239,0.2444459,-0.4795911,0.4523637,-0.1927399,0.5427234,1.459171,0.1838677,-0.09443691,1.231354,0.2665597,296.9723,228.8472,26.19335,False
2,1.888893,-0.002349811,-0.2007219,0.01733444,-1.172783,-4.641115,-1.810895,0.2387073,1.322606,0.3505025,-0.2987763,0.00504298,86.1,9,-0.4823406,0.04719675,0.05823991,-0.2788543,-2.457254,-1.268727,0.3819164,1.394168,0.2713685,-0.4264463,0.390706,0.2603926,-0.4768944,0.4613051,-0.19577,0.5403505,1.457968,0.1844714,-0.09719235,1.229486,0.2658436,297.0808,228.636,26.31493,False
2,1.900004,0.02860118,-0.215492,0.01740308,-1.170031,-4.640178,-1.812512,0.2361294,1.320898,0.3498321,-0.2982554,0.04744064,86.1,9,-0.4458627,0.02573884,0.08436587,-0.2778971,-2.45077,-1.271188,0.3792475,1.392561,0.2708676,-0.4198832,0.3810298,0.2837397,-0.4738866,0.4712883,-0.2002708,0.5378841,1.45666,0.1846731,-0.09993891,1.227481,0.2651733,297.18,228.4731,26.46042,False
2,1.911115,0.06908846,-0.2163342,0.02483642,-1.167766,-4.639002,-1.815063,0.2337694,1.318861,0.349159,-0.2996685,-0.1297394,86.1,9,-0.4387714,0.02073711,0.04377757,-0.2781315,-2.454275,-1.263178,0.3766843,1.390549,0.2702556,-0.3993296,0.3819133,0.3240654,-0.4698674,0.4829277,-0.2068038,0.5353776,1.45547,0.1851192,-0.1025933,1.225372,0.264506,297.3138,228.3185,26.64715,False
2,1.922226,0.09671985,-0.2001623,0.03858826,-1.166351,-4.637567,-1.817597,0.2313674,1.316602,0.3484361,-0.2994314,0.02262163,93.7,20.4,-0.4099309,-0.2526756,0.1362032,-0.2642516,-2.44996,-1.263556,0.3745686,1.388384,0.2701182,-0.3565755,0.361505,0.3481682,-0.465968,0.4925905,-0.2126622,0.533089,1.454139,0.1854041,-0.1050637,1.223085,0.2638358,297.4246,227.9418,27.03087,False
2,1.933337,0.1221877,-0.1765643,0.0480511,-1.16536,-4.636267,-1.820265,0.229097,1.314191,0.3478084,-0.2998996,-0.04333886,93.7,20.4,-0.4403264,-0.1447289,0.08938651,-0.2672562,-2.449782,-1.257408,0.3721448,1.386234,0.269882,-0.3278299,0.3465371,0.3489549,-0.4629362,0.5018705,-0.2182386,0.5308664,1.452791,0.1858778,-0.1073509,1.220587,0.2632075,297.536,227.6703,27.26,False
2,1.944448,0.1444677,-0.155104,0.0585849,-1.164625,-4.634942,-1.823147,0.2270036,1.31181,0.3472145,-0.2995039,0.03634804,93.7,20.4,-0.3928785,-0.1165878,0.03909807,-0.2677324,-2.456194,-1.248082,0.3699063,1.384072,0.269351,-0.3066558,0.341225,0.3349172,-0.4606337,0.5116826,-0.2241111,0.5287297,1.451249,0.1864386,-0.109443,1.217805,0.2626448,297.5941,227.4948,27.41595,False
2,1.955559,0.1731903,-0.1431812,0.07448794,-1.16362,-4.633153,-1.826701,0.2249533,1.309438,0.3466303,-0.2993212,0.01610847,93.7,20.4,-0.3942217,0.03157395,0.02854202,-0.2720696,-2.449306,-1.250235,0.3674061,1.382227,0.2686248,-0.2885445,0.34547,0.3337342,-0.4579396,0.5228102,-0.2313094,0.5265406,1.449866,0.1867833,-0.1114472,1.214666,0.2621103,297.6618,227.5036,27.43187,False
2,1.966671,0.186999,-0.1323972,0.08827531,-1.162913,-4.631315,-1.829978,0.2229426,1.307051,0.3460381,-0.2992168,0.009235904,93.7,20.4,-0.4111353,-0.03469956,-0.08155367,-0.2713777,-2.468326,-1.226629,0.3652377,1.380136,0.2683949,-0.2482058,0.3305378,0.3184561,-0.4556397,0.5316615,-0.237803,0.5244079,1.448563,0.1870871,-0.1133324,1.211172,0.2615857,297.8022,227.6565,27.28568,False
2,1.977782,0.2274688,-0.1279121,0.09674677,-1.16193,-4.62958,-1.834558,0.221128,1.304561,0.3454301,-0.299408,-0.01776759,93.5,36.8,-0.3390478,-0.01516253,-0.1172249,-0.272305,-2.477734,-1.216066,0.3632365,1.378167,0.267879,-0.2349597,0.346304,0.3738071,-0.4508668,0.545006,-0.2476945,0.522387,1.447226,0.1875308,-0.1150446,1.207392,0.2610667,298.0437,227.9232,26.99308,False
2,1.988893,0.2668871,-0.12771,0.1009815,-1.160896,-4.627819,-1.839656,0.2193524,1.302089,0.344903,-0.2988594,0.05011612,93.5,36.8,-0.3375989,-0.009102196,-0.07457593,-0.2722566,-2.475303,-1.214714,0.3612725,1.376145,0.2673631,-0.2084704,0.3399264,0.3565356,-0.4484742,0.5549096,-0.255179,0.520368,1.44593,0.1877406,-0.1166116,1.203399,0.2605419,298.3512,228.2197,26.65395,False
2,2.000004,0.2891117,-0.09346117,0.1125152,-1.161435,-4.626152,-1.844374,0.2180676,1.299417,0.344523,-0.2998549,-0.09163425,93.5,36.8,-0.3776772,-0.0202854,-0.1478161,-0.2734598,-2.490216,-1.194291,0.3593219,1.374094,0.2674806,-0.1692376,0.3314106,0.3359587,-0.4465583,0.5643823,-0.2630271,0.5183172,1.444539,0.1881216,-0.1180691,1.19929,0.2599923,298.6872,228.5614,26.26975,False
2,2.011115,0.2890161,-0.07214135,0.1156085,-1.161716,-4.624655,-1.84808,0.2165339,1.296904,0.3441341,-0.3001489,-0.02630236,93.5,36.8,-0.2618344,-0.002903342,-0.175376,-0.2750971,-2.498951,-1.186986,0.357419,1.372256,0.2669618,-0.1531095,0.3419692,0.3539851,-0.4431899,0.5765473,-0.2727343,0.5163714,1.443414,0.1883008,-0.1193642,1.195103,0.2594463,298.9745,228.7684,25.98616,False
2,2.022226,0.2918594,0.006800006,0.1354654,-1.164821,-4.623138,-1.851907,0.2154026,1.294163,0.3439572,-0.2994671,0.06226005,86.1,51.8,-0.2207832,0.03162244,-0.2255546,-0.278123,-2.511367,-1.174054,0.3558717,1.370399,0.2666695,-0.1412784,0.3642921,0.3635567,-0.4403628,0.5904719,-0.2840584,0.5146062,1.442147,0.1883523,-0.1204448,1.190832,0.2589703,299.2035,228.9457,25.69569,False
2,2.033337,0.308655,0.06230924,0.1426407,-1.167599,-4.621965,-1.856393,0.2142037,1.291545,0.3437119,-0.2981574,0.1189655,86.1,51.8,-0.1984557,0.0540355,-0.2277127,-0.2802711,-2.517689,-1.166198,0.3545629,1.368639,0.2663994,-0.1051528,0.3365543,0.3567901,-0.4375904,0.599295,-0.2922308,0.5130395,1.441187,0.1883378,-0.1212478,1.186494,0.2586025,299.4066,229.315,25.22912,False
2,2.044448,0.3177905,0.1647601,0.1708975,-1.173481,-4.620591,-1.860801,0.2134248,1.288888,0.3435869,-0.2979523,0.01764168,86.1,51.8,-0.1439613,0.1325593,-0.3170897,-0.2865758,-2.533275,-1.151549,0.3534965,1.367088,0.2663293,-0.07987428,0.2844046,0.3319075,-0.4352777,0.6042985,-0.2966743,0.5117089,1.44022,0.1883764,-0.122002,1.182167,0.2583182,299.6827,229.882,24.60247,False
2,2.055559,0.3228405,0.2277104,0.186572,-1.178478,-4.619227,-1.864981,0.2125276,1.286293,0.343338,-0.2985952,-0.05896958,86.1,51.8,-0.128247,0.1775131,-0.3403285,-0.2916167,-2.542933,-1.141168,0.3520885,1.365298,0.2661359,-0.05239835,0.2482118,0.3123985,-0.4329858,0.6103222,-0.3023047,0.5102881,1.439397,0.188447,-0.1226287,1.177971,0.2580737,299.8987,230.644,23.82817,False
2,2.06667,0.3256731,0.3098552,0.2074749,-1.185453,-4.618066,-1.869047,0.2120481,1.283968,0.3432031,-0.2983502,0.02283909,86.1,51.8,-0.08868983,0.2370367,-0.3178525,-0.297016,-2.544984,-1.139625,0.3512346,1.36396,0.2660365,-0.004626125,0.2066227,0.3001642,-0.4305394,0.6143245,-0.3075,0.5091448,1.438621,0.1884151,-0.1229565,1.174554,0.2579597,300.1136,231.1357,23.38587,False
2,2.077781,0.328721,0.3450858,0.2200905,-1.190831,-4.616662,-1.873349,0.2114093,1.281704,0.3430829,-0.2979332,0.03772532,70.6,64.2,-0.05449635,0.261459,-0.3030564,-0.3012584,-2.547953,-1.13713,0.3503214,1.362572,0.26613,0.01979023,0.1895719,0.2924489,-0.4283535,0.6203994,-0.314025,0.5079129,1.437802,0.1885355,-0.1227612,1.173353,0.2579955,299.7601,231.5406,23.1708,False
2,2.088892,0.3159,0.355767,0.2381576,-1.195728,-4.614682,-1.877071,0.2109683,1.2798,0.3428762,-0.2977382,0.01746899,70.6,64.2,-0.02267575,0.2339387,-0.3216734,-0.3044749,-2.558204,-1.128203,0.3494506,1.361236,0.2660322,0.0358156,0.19272,0.2976645,-0.4258112,0.6280366,-0.3219075,0.5067564,1.437103,0.1884928,-0.1224009,1.17267,0.2579779,299.1687,231.6597,23.26924,False
2,2.100003,0.3043794,0.3087322,0.2160231,-1.197952,-4.613635,-1.880372,0.2105912,1.278115,0.3426101,-0.2977718,-0.003280748,70.6,64.2,-0.05777192,0.1965822,-0.3184533,-0.3065352,-2.568228,-1.116497,0.3486594,1.360094,0.2659028,0.05612722,0.1691913,0.3123329,-0.4225062,0.6335591,-0.3281896,0.5058159,1.436525,0.1884222,-0.1220947,1.17213,0.2578247,298.4765,231.924,23.25801,False
2,2.111114,0.3013684,0.2649461,0.1970626,-1.199811,-4.612609,-1.883955,0.2100931,1.276321,0.3423612,-0.2969249,0.07743229,70.6,64.2,-0.06046978,0.1663468,-0.2675228,-0.3077496,-2.570233,-1.113829,0.3480028,1.3591,0.2656555,0.06880727,0.1436285,0.3046866,-0.4198122,0.6375739,-0.3330597,0.5048279,1.435949,0.1883385,-0.1218703,1.171591,0.2575836,297.8689,231.991,23.36729,False
2,2.122225,0.2931897,0.1870381,0.1761417,-1.199592,-4.611176,-1.887452,0.2096496,1.275162,0.3421211,-0.2967438,0.01593127,59.1,75.3,-0.08478123,0.1565771,-0.2471427,-0.3100719,-2.574399,-1.108101,0.3473112,1.358153,0.2653189,0.07184571,0.11492,0.2896444,-0.4174888,0.640484,-0.3366395,0.5040038,1.435364,0.1881497,-0.1217101,1.17109,0.2572389,297.3352,231.9232,23.58193,False
2,2.133336,0.2860293,0.1187279,0.1562379,-1.198955,-4.609782,-1.890836,0.2092659,1.273929,0.3419292,-0.2970415,-0.02729292,59.1,75.3,-0.1039049,0.1320271,-0.2439538,-0.3117645,-2.580794,-1.100129,0.3467133,1.357088,0.2650542,0.07284321,0.08297154,0.2873901,-0.4145375,0.6429756,-0.3397637,0.5032623,1.434998,0.1879847,-0.1216267,1.170612,0.2568592,296.874,231.644,23.90525,False
2,2.144447,0.2525401,-0.0179321,0.1239123,-1.194663,-4.607821,-1.89315,0.2089273,1.273432,0.3418937,-0.2968524,0.01751462,59.1,75.3,-0.04605427,0.1924828,-0.2014015,-0.3161258,-2.577197,-1.105095,0.3462055,1.35638,0.2648294,0.0792643,0.07228419,0.2936945,-0.4114115,0.6467968,-0.3443422,0.5024686,1.434696,0.1878409,-0.1216053,1.170142,0.2565193,296.4126,231.3554,24.15859,False
2,2.155558,0.2379237,-0.08629238,0.09763199,-1.192217,-4.606439,-1.895903,0.2085784,1.272587,0.3417451,-0.2967443,0.009723007,59.1,75.3,-0.08724485,0.1293365,-0.1695655,-0.3158509,-2.580817,-1.099292,0.3459476,1.355564,0.2646461,0.07925925,0.06482551,0.2947361,-0.4084096,0.6510934,-0.34915,0.5016926,1.434388,0.1877418,-0.1216295,1.169729,0.2562164,295.9449,231.1207,24.31353,False
2,2.166669,0.2127944,-0.1867219,0.06191638,-1.186653,-4.605103,-1.897943,0.2083343,1.272259,0.3415728,-0.2955214,0.111782,59.1,75.3,-0.0548691,0.1194347,-0.1251926,-0.3166264,-2.579627,-1.100757,0.3456509,1.354987,0.2645571,0.08872479,0.08299106,0.2744877,-0.4066242,0.65673,-0.355617,0.5011163,1.434088,0.1877351,-0.1216647,1.169359,0.2559369,295.4826,230.8167,24.48781,False
2,2.17778,0.1714222,-0.2252813,0.05786796,-1.183525,-4.603283,-1.899173,0.2081292,1.271706,0.3414314,-0.2961558,-0.05881659,47.4,87.6,-0.03875354,0.1278311,-0.107174,-0.3187111,-2.578928,-1.101367,0.3454678,1.354773,0.2646568,0.08751105,0.08840281,0.2532063,-0.4051494,0.6615587,-0.3610165,0.5005647,1.433711,0.1876619,-0.1217682,1.16908,0.2556604,295.1642,230.4812,24.64278,False
2,2.188891,0.1447634,-0.2189915,0.0621156,-1.181682,-4.60165,-1.900462,0.2078983,1.271174,0.3413136,-0.2956791,0.04423623,47.4,87.6,-0.03782299,0.07898812,-0.1278059,-0.3189945,-2.586124,-1.094112,0.3451722,1.354292,0.2646291,0.08178218,0.07793934,0.2031419,-0.4048612,0.6632183,-0.3632767,0.5002438,1.433443,0.1876576,-0.1218717,1.168813,0.2553762,294.8382,230.1121,24.81995,False
2,2.200002,0.1103506,-0.1477287,0.07137484,-1.18308,-4.600861,-1.900806,0.2077834,1.27055,0.3412113,-0.2947991,0.0802066,47.4,87.6,-0.03352922,0.05447684,-0.1259028,-0.3194845,-2.59083,-1.089163,0.3450026,1.354235,0.2647595,0.07729398,0.06739752,0.1754261,-0.4041326,0.6650052,-0.3656363,0.5000874,1.433198,0.1874657,-0.1219816,1.168588,0.2550826,294.5894,229.7318,25.00828,False
2,2.211113,0.09913081,-0.02528467,0.06865232,-1.18682,-4.601568,-1.901319,0.2077869,1.269999,0.3410845,-0.2950644,-0.0247789,47.4,87.6,-0.04285281,0.04786069,-0.09817161,-0.3199341,-2.590666,-1.088545,0.3448491,1.353831,0.2646539,0.06435629,0.04403776,0.1605294,-0.4026955,0.6656582,-0.3665812,0.4998414,1.433028,0.1874235,-0.1224398,1.168315,0.2564577,291.2536,233.4077,22.16432,False
2,2.222224,0.08608624,0.0289608,0.06200653,-1.188979,-4.601843,-1.901669,0.2076838,1.269474,0.3411047,-0.2947395,0.03013847,37.6,96.4,-0.02464245,0.05735761,-0.08441612,-0.3209983,-2.590567,-1.088751,0.3445545,1.353609,0.264668,0.05142324,0.04093935,0.1414373,-0.4020351,0.6674883,-0.3684145,0.499478,1.432787,0.1873333,-0.1233902,1.168127,0.2574299,290.5854,238.3752,17.71,False
2,2.233335,0.05923421,0.07678676,0.06392077,-1.191353,-4.601861,-1.901417,0.2076034,1.269117,0.3410764,-0.2956732,-0.08548074,37.6,96.4,0.004976302,0.06183097,-0.1070314,-0.3228108,-2.595075,-1.085564,0.3442737,1.353445,0.2646592,0.03942342,0.03789977,0.1052983,-0.4022124,0.6685627,-0.3694774,0.4991629,1.432695,0.1872263,-0.1238194,1.168021,0.2570557,290.7728,237.8798,17.92726,False
2,2.244446,0.05287261,0.07037088,0.06502134,-1.192209,-4.601286,-1.901974,0.2075637,1.268979,0.341083,-0.2956513,0.002871744,37.6,96.4,0.0282965,0.02895961,-0.1234815,-0.3230856,-2.602106,-1.08,0.3441822,1.353547,0.2645667,0.03279281,0.01456609,0.07969791,-0.4019797,0.6670748,-0.3682411,0.4990542,1.432679,0.1870217,-0.1242474,1.168077,0.2568603,290.9314,238.6216,17.28151,False
2,2.255557,0.06156465,0.03205106,0.06200123,-1.191414,-4.600424,-1.903287,0.2075772,1.268936,0.3411465,-0.2951251,0.04818671,37.6,96.4,0.02451216,0.009393219,-0.0735305,-0.3221578,-2.600236,-1.081801,0.3443137,1.353656,0.2644856,0.03473013,-0.02585655,0.0635526,-0.4012872,0.6635306,-0.3654885,0.4990595,1.432722,0.1868176,-0.1242172,1.168065,0.2561941,291.1422,237.1888,18.8662,False
2,2.266668,0.08209758,-0.03288911,0.05164993,-1.188999,-4.599264,-1.905364,0.2077085,1.26907,0.3411944,-0.29585,-0.06653079,37.6,96.4,0.008770101,0.04429705,-0.04328416,-0.3233424,-2.596233,-1.085178,0.3444195,1.353743,0.2643738,0.04846777,-0.04608807,0.05378734,-0.4006097,0.6609493,-0.3640903,0.4990556,1.432872,0.1865797,-0.124361,1.16804,0.2557439,291.1737,236.7856,19.34109,False
2,2.277779,0.08447487,-0.08832911,0.04019698,-1.186396,-4.598237,-1.906748,0.2079441,1.269178,0.3413012,-0.2967252,-0.07929346,27,100,0.0236466,0.09117503,-0.04198569,-0.3259102,-2.593812,-1.088217,0.3447881,1.353977,0.2645082,0.05481283,-0.05353692,0.04837365,-0.4001293,0.6593982,-0.3635992,0.4991117,1.433,0.1864319,-0.1243843,1.168006,0.2554423,291.092,236.3833,19.72876,False
2,2.28889,0.08143296,-0.1224684,0.03290745,-1.184159,-4.597219,-1.907934,0.208184,1.269309,0.341476,-0.2975044,-0.07063329,27,100,0.04368941,0.09243052,-0.06346596,-0.3275166,-2.59613,-1.087191,0.3449834,1.354165,0.2645452,0.056878,-0.05351051,0.03983522,-0.3998055,0.6581772,-0.3632016,0.499196,1.433233,0.1862001,-0.1242726,1.16795,0.2552753,290.9149,235.9091,20.09743,False
2,2.300001,0.07823864,-0.124656,0.02439382,-1.182778,-4.596745,-1.908841,0.208574,1.269381,0.3416719,-0.2969196,0.05401308,27,100,0.04340632,0.09480207,-0.09434457,-0.3294474,-2.600448,-1.08353,0.3451797,1.354386,0.2646322,0.05998575,-0.07693402,0.03439702,-0.3990896,0.6544102,-0.3604059,0.4993005,1.433521,0.1860716,-0.1239978,1.167865,0.2552859,290.7349,235.3392,20.59149,False
2,2.311112,0.08230574,-0.08415588,0.02419769,-1.183269,-4.596553,-1.909879,0.2090249,1.269506,0.3419027,-0.2966469,0.02438956,27,100,0.06892244,0.1417041,-0.09421513,-0.3328158,-2.598573,-1.086837,0.3454551,1.354736,0.2647617,0.0653025,-0.07053893,0.03117615,-0.3987743,0.6533468,-0.3603649,0.4994441,1.433825,0.1858068,-0.1237173,1.167796,0.2553776,290.508,234.9398,20.92307,False
2,2.322223,0.08739416,-0.03515988,0.01654903,-1.18384,-4.596786,-1.910854,0.2094175,1.2696,0.3421319,-0.2965851,0.005517534,27,100,0.08175148,0.16403,-0.08670042,-0.3354358,-2.596748,-1.089937,0.345765,1.35504,0.2648089,0.07385366,-0.07696504,0.03641449,-0.3978432,0.6513656,-0.3596503,0.4996195,1.434144,0.1855774,-0.1234784,1.16776,0.2554885,290.299,234.6628,21.14107,False
2,2.333334,0.08942363,-0.01174184,0.01212525,-1.18479,-4.597164,-1.911879,0.2098919,1.269757,0.3423917,-0.2968599,-0.02510735,19.4,100,0.08810204,0.1789758,-0.08877753,-0.3382007,-2.596411,-1.091272,0.3459558,1.355473,0.2648408,0.07273583,-0.08973176,0.03318008,-0.3971402,0.6482241,-0.357425,0.4997475,1.434357,0.185322,-0.123281,1.167748,0.255601,290.111,234.5021,21.26537,False
2,2.344445,0.08826729,0.006306097,0.0003200837,-1.185319,-4.597814,-1.912595,0.2104289,1.270074,0.342732,-0.2970101,-0.01351409,19.4,100,0.1074336,0.1969559,-0.06963684,-0.340735,-2.592978,-1.096357,0.3463686,1.356001,0.2649198,0.07893366,-0.1195073,0.01491649,-0.3967338,0.6422514,-0.3530076,0.5000145,1.434734,0.1850283,-0.1231222,1.167756,0.2556889,289.9572,234.3939,21.36255,False
2,2.355556,0.09359701,0.003073636,-0.01138619,-1.184924,-4.598226,-1.913605,0.2109362,1.270473,0.3429503,-0.2971278,-0.01068255,19.4,100,0.1138855,0.1958385,-0.06224942,-0.3427914,-2.591458,-1.099097,0.3467356,1.356406,0.2649219,0.08210286,-0.1280349,0.01379448,-0.3960589,0.6382554,-0.3502786,0.5002252,1.435047,0.1847401,-0.1229921,1.167765,0.2557763,289.8247,234.3266,21.41313,False
2,2.366668,0.1065497,-0.03637053,-0.02931381,-1.182911,-4.598571,-1.915125,0.2114374,1.271053,0.3433435,-0.2969281,0.01835955,19.4,100,0.1290876,0.1785774,-0.03269209,-0.3437736,-2.587885,-1.104397,0.3471299,1.356949,0.2649579,0.08419289,-0.1322848,0.009502087,-0.3955492,0.6341843,-0.3475161,0.5005136,1.435471,0.1844521,-0.1228642,1.167788,0.2558939,289.6874,234.2895,21.4115,False
2,2.377779,0.108897,-0.0864848,-0.04292835,-1.180174,-4.598672,-1.916308,0.2119868,1.271802,0.3437798,-0.2971044,-0.01631619,12.9,100,0.1323263,0.1764145,-0.02848004,-0.3455324,-2.585808,-1.107977,0.3475628,1.357371,0.2651417,0.08520018,-0.1439822,0.004116908,-0.3951577,0.629308,-0.34405,0.5008365,1.435742,0.1842241,-0.1227423,1.167847,0.2560435,289.5564,234.2559,21.36746,False
2,2.38889,0.1102256,-0.1483799,-0.06712979,-1.176352,-4.598899,-1.917421,0.2125701,1.272515,0.3441477,-0.2975896,-0.0442199,12.9,100,0.1257516,0.1850794,-0.0475293,-0.3481923,-2.58585,-1.109119,0.3479411,1.357864,0.2652044,0.08401734,-0.154588,-0.008695565,-0.3949755,0.6236577,-0.3397563,0.5012004,1.436121,0.1839554,-0.1226197,1.167922,0.256205,289.4311,234.1899,21.32671,False
2,2.400001,0.1093559,-0.1943001,-0.08927792,-1.172307,-4.599313,-1.918442,0.2131911,1.27324,0.3445501,-0.2971699,0.03869952,12.9,100,0.1624601,0.1442439,0.001891963,-0.3478285,-2.58143,-1.116058,0.3485711,1.358553,0.2652979,0.08609045,-0.1524296,-0.01722573,-0.3949026,0.6194402,-0.3369258,0.5015985,1.436487,0.1836016,-0.1224831,1.168002,0.2564276,289.2879,234.1062,21.23195,False
2,2.411112,0.1115693,-0.212452,-0.1009142,-1.169237,-4.599786,-1.919669,0.2138988,1.273849,0.3449767,-0.2970623,0.009467305,12.9,100,0.1710317,0.1133448,0.00370276,-0.3479676,-2.580721,-1.118938,0.3491793,1.35883,0.2653875,0.08609,-0.1524334,-0.01721637,-0.3943311,0.6152034,-0.3339721,0.5020541,1.436878,0.1832247,-0.1223437,1.168102,0.2566779,289.1427,234.011,21.1147,False
2,2.422223,0.1082725,-0.1911819,-0.1052763,-1.167386,-4.600568,-1.920464,0.2145991,1.274389,0.3454702,-0.2970282,0.003053135,12.9,100,0.1641861,0.1552425,-0.0417218,-0.3518195,-2.582225,-1.119056,0.3497145,1.359521,0.2655699,0.08609322,-0.1684278,-0.01301163,-0.3935699,0.6092424,-0.3294317,0.5025077,1.437289,0.182934,-0.1221888,1.168203,0.2569284,288.9901,233.8643,21.04051,False
2,2.433334,0.1091764,-0.1538641,-0.09905881,-1.166658,-4.60116,-1.921571,0.2152581,1.274881,0.3459353,-0.2972434,-0.0196516,7,100,0.1876836,0.1786256,-0.03216324,-0.3544039,-2.578643,-1.12527,0.3502831,1.360182,0.2656791,0.08612998,-0.1727064,-0.007707603,-0.3929388,0.6041814,-0.3257517,0.5029505,1.437626,0.182689,-0.1220165,1.1683,0.2571636,288.8363,233.63,21.04827,False
2,2.444445,0.1184902,-0.09415948,-0.09828933,-1.167174,-4.602613,-1.922646,0.2160241,1.275295,0.346442,-0.2969451,0.0274379,7,100,0.1995683,0.1465637,-0.01760615,-0.3546441,-2.57721,-1.12925,0.3509509,1.360731,0.2658262,0.08710758,-0.1758665,-0.01837963,-0.3928088,0.5986124,-0.3215967,0.5034966,1.438042,0.1824102,-0.1218123,1.168372,0.2573889,288.6502,233.3759,21.11098,False
2,2.455556,0.1139258,-0.02702717,-0.08903499,-1.168463,-4.604075,-1.923191,0.2168667,1.27572,0.3468218,-0.2971379,-0.01789008,7,100,0.194103,0.1498739,-0.03244758,-0.3566489,-2.577308,-1.131045,0.3515389,1.36143,0.2660317,0.08706035,-0.1811807,-0.02266493,-0.3925734,0.5927895,-0.3171215,0.5040618,1.438469,0.1820993,-0.1216162,1.168448,0.2576074,288.461,233.1856,21.14654,False
2,2.466667,0.09451938,0.02295898,-0.08820076,-1.169805,-4.605754,-1.922959,0.2177346,1.276139,0.3472672,-0.2974495,-0.02831319,7,100,0.198409,0.1434536,-0.02827535,-0.35798,-2.576149,-1.13452,0.3522243,1.362074,0.2661698,0.08487685,-0.1832849,-0.02904762,-0.3924381,0.5871205,-0.3127472,0.5046681,1.438859,0.1818633,-0.1212268,1.168483,0.257971,288.2018,232.6139,21.51162,False
2,2.477778,0.08057931,0.04315629,-0.0850909,-1.17057,-4.607013,-1.922884,0.2185284,1.276666,0.3477595,-0.2969254,0.04810926,2.3,100,0.1803191,0.1008394,-0.03058013,-0.3578868,-2.577728,-1.134382,0.3529796,1.362493,0.2663796,0.08374657,-0.1896586,-0.03439276,-0.3922985,0.5808045,-0.3076239,0.5053123,1.439286,0.1816406,-0.1209243,1.168564,0.2584441,287.8309,233.0927,21.00387,False
2,2.488889,0.07951887,0.04317069,-0.0808264,-1.170694,-4.607896,-1.923416,0.2192697,1.277236,0.3481712,-0.296184,0.06734399,2.3,100,0.1759651,0.09665687,-0.04122677,-0.3590628,-2.578762,-1.135189,0.3536505,1.363065,0.2665741,0.08262636,-0.1928299,-0.04078738,-0.3922804,0.5747489,-0.3028872,0.5059987,1.439663,0.1814611,-0.1205134,1.16864,0.2591271,287.8217,233.0733,20.93349,False
2,2.5,0.0859814,0.0282918,-0.08075604,-1.170249,-4.608732,-1.924323,0.2200985,1.277864,0.348706,-0.2961765,0.0002097063,2.3,100,0.1657094,0.108015,0.003699079,-0.3601276,-2.572586,-1.1426,0.3544096,1.363871,0.2667961,0.07403611,-0.1895862,-0.04923128,-0.392502,0.569362,-0.2983209,0.5067178,1.439999,0.181304,-0.1200209,1.16878,0.2598693,287.8424,233.2098,20.75314,False
2,2.511111,0.08609582,0.00377541,-0.08383153,-1.169157,-4.609474,-1.925043,0.2208114,1.278556,0.3491385,-0.2967273,-0.05023015,2.3,100,0.1519473,0.06961259,0.008844413,-0.3596455,-2.572889,-1.143543,0.3551335,1.364551,0.2670956,0.07289141,-0.1970086,-0.05777436,-0.3927108,0.5627021,-0.2929459,0.507365,1.440362,0.1811144,-0.1191181,1.1689,0.2606547,288.3013,234.7117,19.25049,False
