loc,t,aDotUA,bDotUA,gDotUA,aUA,bUA,gUA,xUA,yUA,zUA,qE,qDotE,emgA,emgB,aDotSH,bDotSH,gDotSH,aSH,bSH,gSH,xSH,ySH,zSH,aDotUB,bDotUB,gDotUB,aUB,bUB,gUB,xUB,yUB,zUB,xHand,yHand,zHand,aHand,bHand,gHand,enable
3,0,-0.06917694,-0.7059515,-0.1760994,-1.508129,-4.201655,2.871358,0.626876,1.094155,0.477972,-1.841623,-0.01384979,0,0,-0.3904551,0.484777,-0.06999991,-0.9148549,-4.279489,0.1104384,0.6343726,1.291338,0.424335,-0.3297684,0.449819,0.00211721,-0.9748373,0.4310662,-0.08428692,0.7673043,1.379961,0.2795382,0.4638811,0.9993384,0.2910064,295.1027,245.4568,342.6305,True
3,0.01111111,-0.07240526,-0.6910886,-0.1804727,-1.508058,-4.194074,2.871771,0.6252674,1.094277,0.4769266,-1.841753,-0.01178135,0,0,-0.3957431,0.4943721,-0.06674506,-0.9148502,-4.272129,0.1105217,0.6332895,1.291505,0.4233916,-0.3353875,0.4339197,-0.02023965,-0.9761641,0.436094,-0.08319316,0.7672532,1.379913,0.2794094,0.4632789,0.999473,0.2890909,295.0756,245.4599,342.2962,True
3,0.02222222,-0.07987496,-0.6815691,-0.185869,-1.507846,-4.186389,2.872267,0.6236952,1.094351,0.4757571,-1.841971,-0.0198189,0,0,-0.3956707,0.4975491,-0.05608961,-0.9145146,-4.265046,0.1105713,0.6322529,1.29164,0.4224887,-0.3354954,0.4222239,-0.02665767,-0.9769253,0.4413731,-0.08232737,0.7671795,1.379868,0.2792096,0.462965,0.9996612,0.2867873,295.0447,245.1084,342.1776,True
3,0.03333334,-0.08414572,-0.6741955,-0.1944432,-1.507471,-4.17882,2.872723,0.6221859,1.094544,0.474673,-1.841744,0.0209283,0.3,0,-0.3912975,0.5017807,-0.04013256,-0.9137385,-4.257899,0.1103641,0.6312536,1.291834,0.4215448,-0.3365293,0.4158229,-0.0234701,-0.9774334,0.4465988,-0.08150258,0.7671242,1.379843,0.279058,0.462851,0.9998854,0.2841538,295.0124,244.5875,342.1216,True
3,0.04444445,-0.08632237,-0.6710516,-0.2008799,-1.506912,-4.170951,2.873435,0.620759,1.094756,0.4735808,-1.841652,0.008253252,0.3,0,-0.3857952,0.4974695,-0.01567721,-0.9125077,-4.251292,0.1104123,0.6303197,1.292014,0.4205375,-0.3428495,0.4062276,-0.01704618,-0.977835,0.4517753,-0.08034464,0.7671796,1.379815,0.2788363,0.4629252,1.000141,0.2813247,294.9663,244.0039,342.062,True
3,0.05555556,-0.09271839,-0.660425,-0.2020195,-1.506655,-4.163575,2.87403,0.6192397,1.094984,0.472508,-1.841727,-0.006948703,0.3,0,-0.3803692,0.4867961,-0.001886781,-0.911518,-4.244932,0.110534,0.6293292,1.292259,0.4195638,-0.3481336,0.3870408,-0.01171817,-0.9780698,0.4561517,-0.0787494,0.7671584,1.379766,0.2786009,0.4631378,1.000414,0.2784087,294.915,243.3844,342.0105,True
3,0.06666667,-0.09380987,-0.6540805,-0.2063291,-1.506253,-4.155865,2.87466,0.6177332,1.095108,0.4714749,-1.841502,0.02071244,0.3,0,-0.3793077,0.4761324,-0.0008454025,-0.9109566,-4.238731,0.1110674,0.6283388,1.292327,0.4185574,-0.3504046,0.3710947,-0.02133561,-0.9789546,0.4604864,-0.07710651,0.7671925,1.379668,0.2783489,0.4634701,1.000714,0.2755494,294.8781,242.7302,341.9839,True
3,0.07777778,-0.09702552,-0.6498971,-0.2148782,-1.505569,-4.148203,2.875329,0.6162622,1.095398,0.4704223,-1.84167,-0.01550564,0.3,0,-0.3751375,0.459116,-0.01475806,-0.9111585,-4.232841,0.111498,0.6274676,1.292511,0.4175515,-0.3516714,0.3551453,-0.03414834,-0.9799432,0.4646161,-0.0751861,0.7672756,1.379617,0.2780733,0.4638348,1.001042,0.2728149,294.8541,242.0753,341.9783,True
3,0.08888889,-0.09599639,-0.6414863,-0.2277355,-1.504579,-4.140613,2.875855,0.6148279,1.095524,0.4693897,-1.841679,-0.0006300479,6,0,-0.3688852,0.4495579,-0.03399208,-0.9116794,-4.226738,0.1117462,0.6266693,1.292675,0.4166043,-0.3528298,0.3423843,-0.04056872,-0.9808513,0.4686827,-0.07345983,0.7673618,1.379567,0.2777781,0.4640912,1.001392,0.2702358,294.8186,241.4885,341.9506,True
3,0.1,-0.09598601,-0.6414986,-0.2287977,-1.50404,-4.132952,2.876322,0.6133319,1.095865,0.4683459,-1.841677,0.0002255203,6,0,-0.3593227,0.4399809,-0.03832975,-0.9116384,-4.220888,0.1117825,0.6259178,1.292895,0.4156544,-0.3539605,0.3306869,-0.04379062,-0.9816401,0.4728556,-0.07162705,0.7673327,1.379456,0.2775016,0.464219,1.001745,0.2678459,294.7632,240.9474,341.9651,True
3,0.1111111,-0.09921351,-0.6352029,-0.2394983,-1.502876,-4.125479,2.877044,0.6119589,1.09622,0.4673035,-1.841854,-0.01619036,6,0,-0.3549322,0.4292967,-0.02027104,-0.9107739,-4.215299,0.1121564,0.6252391,1.293197,0.4146938,-0.3615761,0.3062288,-0.05443208,-0.9827959,0.4758913,-0.06898946,0.7674462,1.379403,0.2771242,0.4642332,1.002102,0.2656474,294.7031,240.3986,342.0765,True
3,0.1222222,-0.09921351,-0.6352029,-0.2394983,-1.502876,-4.125479,2.877044,0.6119589,1.09622,0.4673035,-1.841944,-0.008119365,6,0,-0.3549322,0.4292967,-0.02027104,-0.9107739,-4.215299,0.1121564,0.6252391,1.293197,0.4146938,-0.3615761,0.3062288,-0.05443208,-0.9827959,0.4758913,-0.06898946,0.7674462,1.379403,0.2771242,0.4641572,1.002441,0.2636188,294.6402,239.8869,342.2137,True
3,0.1333333,-0.1013472,-0.6396438,-0.2586315,-1.501464,-4.117265,2.877578,0.6107217,1.096597,0.4662924,-1.842906,-0.08785227,6,0,-0.3472267,0.4079251,0.015858,-0.9089816,-4.210585,0.1129196,0.6245791,1.293434,0.4135983,-0.3701676,0.2817478,-0.05653501,-0.9836343,0.4788053,-0.06600884,0.7676116,1.379268,0.2766852,0.4641837,1.002806,0.2619119,294.5869,239.4434,342.2368,True
3,0.1444445,-0.103482,-0.6236243,-0.2523724,-1.500715,-4.110242,2.87817,0.6094913,1.097004,0.4652541,-1.841745,0.1067825,6,0,-0.3352454,0.3886847,0.05302377,-0.9067925,-4.206093,0.1134789,0.6240398,1.293827,0.4126604,-0.3733942,0.2540536,-0.05553383,-0.9844252,0.4812331,-0.06291931,0.7677243,1.37921,0.2762451,0.4644117,1.003183,0.2609009,294.4876,239.2831,342.1102,True
3,0.1555556,-0.1046043,-0.6023749,-0.2589404,-1.499252,-4.10344,2.878888,0.6083282,1.097454,0.464313,-1.841724,0.0009497741,10.2,0,-0.3233301,0.3747755,0.0827449,-0.9045714,-4.201548,0.1140208,0.6235161,1.294181,0.4117622,-0.3788224,0.2221308,-0.06090557,-0.9854346,0.483131,-0.05954162,0.7679473,1.379054,0.2758126,0.4643194,1.003446,0.2598828,294.481,238.9666,342.4136,True
3,0.1666667,-0.1056877,-0.58961,-0.2611823,-1.497963,-4.096672,2.879504,0.6071726,1.097811,0.4633484,-1.841786,-0.005552174,10.2,0,-0.3178426,0.3630309,0.1029136,-0.902516,-4.197105,0.1144416,0.6230371,1.294533,0.4108636,-0.3735925,0.200838,-0.06637512,-0.9865158,0.4849855,-0.05647979,0.7681617,1.37897,0.2753606,0.4641019,1.003656,0.2586224,294.5322,238.5133,342.8425,True
3,0.1777778,-0.1046736,-0.5650374,-0.2528526,-1.496984,-4.090732,2.880306,0.6062016,1.09803,0.4623573,-1.841703,0.007666112,10.2,0,-0.3049921,0.3395639,0.1144937,-0.9006214,-4.193623,0.1153503,0.6226659,1.294861,0.4099202,-0.3534983,0.1742176,-0.07522583,-0.9876455,0.48632,-0.0538358,0.768545,1.378925,0.274879,0.4638757,1.003893,0.2570582,294.6019,238.0945,343.1068,True
3,0.1888889,-0.1100451,-0.5416905,-0.2604901,-1.495415,-4.08459,2.881116,0.6049907,1.098416,0.4614797,-1.84182,-0.01077371,10.2,0,-0.2996614,0.3278513,0.1144333,-0.8990145,-4.189594,0.1159666,0.6223404,1.295179,0.4090519,-0.3429509,0.1625248,-0.08285978,-0.9889926,0.4882393,-0.05132018,0.7689226,1.378853,0.2743986,0.4637825,1.00421,0.2552758,294.6207,237.5676,343.3435,True
3,0.2,-0.1164862,-0.5225655,-0.2649008,-1.493748,-4.078784,2.882197,0.6040323,1.098839,0.4606264,-1.84173,0.008325682,8.7,0,-0.2890023,0.2958862,0.1153798,-0.8973511,-4.187053,0.1172142,0.6220657,1.295443,0.4081392,-0.331415,0.1519042,-0.09688556,-0.9906203,0.4897435,-0.04883678,0.769229,1.378752,0.2739108,0.4638713,1.004611,0.2533483,294.5604,237.027,343.5006,True
3,0.2111111,-0.1175921,-0.4969164,-0.2533984,-1.492637,-4.073354,2.883141,0.6031569,1.099269,0.4597745,-1.841718,0.001091591,8.7,0,-0.2645004,0.2543445,0.1140666,-0.8959689,-4.185376,0.1181405,0.6218562,1.295677,0.4072356,-0.3262501,0.1348952,-0.107667,-0.9922491,0.4909541,-0.04579998,0.7696315,1.378621,0.2733262,0.4641174,1.005062,0.2513424,294.4637,236.4958,343.5837,True
3,0.2222222,-0.1176415,-0.4810089,-0.2620543,-1.490699,-4.067829,2.884029,0.6023049,1.099687,0.4589844,-1.841505,0.01946521,8.7,0,-0.2378641,0.2351699,0.1138419,-0.8945505,-4.183021,0.1183677,0.6216759,1.295986,0.4064555,-0.3210041,0.1125332,-0.1120639,-0.9936446,0.4915854,-0.04266437,0.7699561,1.378502,0.2727807,0.4644367,1.005547,0.2493266,294.3894,235.8394,343.7278,True
3,0.2333333,-0.1198191,-0.4554035,-0.2558814,-1.489176,-4.062791,2.885035,0.6016768,1.100138,0.4582126,-1.841687,-0.01679091,8.7,0,-0.211225,0.2159926,0.1146866,-0.8930261,-4.180874,0.1185187,0.621576,1.29631,0.4057391,-0.30915,0.1071607,-0.1005161,-0.9945011,0.4928323,-0.04026007,0.770257,1.378435,0.2721844,0.4648187,1.006083,0.247417,294.338,235.1941,343.8826,True
3,0.2444444,-0.1188026,-0.4351759,-0.2560519,-1.487535,-4.057784,2.885972,0.6009557,1.100582,0.4574327,-1.841792,-0.009345595,8.7,0,-0.1963388,0.210683,0.1092409,-0.8918138,-4.178146,0.1184079,0.6213598,1.296654,0.4050198,-0.2887123,0.1028392,-0.0837222,-0.9948494,0.4943058,-0.03845152,0.7705928,1.378404,0.2716401,0.4652053,1.006675,0.2456531,294.2752,234.6339,344.0203,True
3,0.2555556,-0.1145853,-0.4117045,-0.2530653,-1.485819,-4.053329,2.886698,0.6003423,1.100893,0.4567034,-1.841745,0.00437924,3.3,0,-0.1898959,0.20641,0.1155793,-0.8900971,-4.175564,0.1186723,0.6212046,1.296926,0.4042444,-0.2702445,0.0984585,-0.05413153,-0.9945122,0.4954486,-0.03666507,0.7708526,1.37838,0.2711241,0.4655765,1.007294,0.2440629,294.1814,234.0477,344.2443,True
3,0.2666667,-0.1061153,-0.3710127,-0.2299798,-1.484918,-4.050135,2.887311,0.5996356,1.101269,0.4560385,-1.841829,-0.007746288,3.3,0,-0.19517,0.2064009,0.1220024,-0.8883757,-4.172889,0.1192121,0.6209656,1.297281,0.4035282,-0.2614841,0.09199047,-0.03401677,-0.9942395,0.4964338,-0.03459793,0.7711612,1.378322,0.2706141,0.4659186,1.007926,0.2426484,294.09,233.5448,344.453,True
3,0.2777778,-0.1029657,-0.3454015,-0.2259438,-1.483375,-4.046576,2.888042,0.5990904,1.101681,0.4553919,-1.842103,-0.02490018,3.3,0,-0.1919148,0.2181039,0.1294668,-0.8862712,-4.169559,0.1190619,0.6209913,1.297623,0.4028206,-0.243117,0.09403634,-0.01292692,-0.9937553,0.4979286,-0.03323651,0.7714927,1.378144,0.2701497,0.4661641,1.008536,0.2413441,293.9869,233.066,344.681,True
3,0.2888889,-0.1051761,-0.296315,-0.2156883,-1.48055,-4.04037,2.889824,0.5980694,1.102496,0.4542069,-1.842337,-0.02125506,0.3,0,-0.180155,0.2287509,0.1336661,-0.8825817,-4.163124,0.1185762,0.6211898,1.298278,0.4014575,-0.2221953,0.07813363,-0.04308393,-0.9957528,0.4994998,-0.02969025,0.7723022,1.377873,0.2691612,0.466298,1.009086,0.2401474,293.8839,232.64,344.8651,True
3,0.3,-0.1073168,-0.2877882,-0.2125548,-1.479227,-4.036674,2.890759,0.597702,1.102875,0.4535527,-1.84119,0.1050556,0.3,0,-0.1555976,0.2095565,0.141983,-0.8805172,-4.161148,0.118267,0.621456,1.298607,0.4009111,-0.2130219,0.05585423,-0.07524153,-0.9977432,0.4992707,-0.02744254,0.7728179,1.377825,0.2687118,0.4662005,1.009565,0.2389619,293.8668,232.3348,345.0316,True
3,0.3111111,-0.1105566,-0.2686295,-0.2137752,-1.477437,-4.03378,2.891846,0.5973051,1.103298,0.4529593,-1.841846,-0.06090498,0.3,0,-0.1406508,0.1850428,0.1471614,-0.878555,-4.159773,0.1184848,0.6216699,1.298909,0.4003139,-0.2005548,0.03993952,-0.09994921,-0.9996068,0.4991288,-0.02549178,0.7732201,1.377738,0.2682049,0.4659545,1.010037,0.2376129,293.9145,231.7578,345.504,True
3,0.3222222,-0.1105566,-0.2686295,-0.2137752,-1.477437,-4.03378,2.891846,0.5973051,1.103298,0.4529593,-1.842012,-0.01449547,0.3,0,-0.1406508,0.1850428,0.1471614,-0.878555,-4.159773,0.1184848,0.6216699,1.298909,0.4003139,-0.2005548,0.03993952,-0.09994921,-0.9996068,0.4991288,-0.02549178,0.7732201,1.377738,0.2682049,0.4659148,1.010593,0.2364758,293.8599,231.2816,345.7933,True
3,0.3333333,-0.1212728,-0.2400015,-0.2235789,-1.473608,-4.027785,2.894167,0.5968918,1.104391,0.4518354,-1.843255,-0.1135629,0.3,0,-0.05963646,0.1551989,0.1539855,-0.8749544,-4.156564,0.115725,0.622286,1.299563,0.3993526,-0.1898665,0.03884679,-0.09688697,-1.001707,0.5001365,-0.02203659,0.7740191,1.377639,0.2671814,0.4661119,1.011199,0.2356163,293.7193,231.0042,345.8562,True
3,0.3444445,-0.1212728,-0.2400015,-0.2235789,-1.473608,-4.027785,2.894167,0.5968918,1.104391,0.4518354,-1.84053,0.2500182,0.3,0,-0.05963646,0.1551989,0.1539855,-0.8749544,-4.156564,0.115725,0.622286,1.299563,0.3993526,-0.1898665,0.03884679,-0.09688697,-1.001707,0.5001365,-0.02203659,0.7740191,1.377639,0.2671814,0.4664187,1.01175,0.2350706,293.5739,230.8973,345.8631,True
3,0.3555556,-0.1480245,-0.2083226,-0.2483125,-1.468456,-4.022469,2.897739,0.5964959,1.105551,0.4510894,-1.843055,-0.2331436,0,0,-0.01704053,0.04439735,0.1513723,-0.8718119,-4.159731,0.116675,0.6232182,1.300137,0.3984246,-0.1820709,0.007816359,-0.0651513,-1.002437,0.4990245,-0.01736061,0.7748657,1.37759,0.2660956,0.466581,1.012239,0.2343728,293.5844,230.2954,346.4013,True
3,0.3666667,-0.1597862,-0.1967188,-0.2590462,-1.465757,-4.019957,2.899611,0.5963306,1.106008,0.4507055,-1.839911,0.2897656,0,0,-0.01492287,0.0006958693,0.145992,-0.8700249,-4.162339,0.1180089,0.6237214,1.300549,0.3981636,-0.149064,-0.0252509,-0.06352948,-1.003064,0.4973513,-0.01584741,0.7754103,1.377527,0.2654247,0.4667643,1.012723,0.2337999,293.542,230.0126,346.6,True
3,0.3777778,-0.1662116,-0.1871909,-0.2623129,-1.463305,-4.017267,2.901467,0.5961563,1.106704,0.4504175,-1.841158,-0.1166826,0,0,-0.01065844,-0.04084964,0.1480097,-0.8686368,-4.164873,0.1196854,0.6242076,1.30098,0.3978775,-0.1426939,-0.03378001,-0.06469873,-1.003824,0.496581,-0.01406815,0.7758291,1.377445,0.2648873,0.4668755,1.013251,0.2330062,293.6353,229.2985,347.2755,True
3,0.3888889,-0.1747576,-0.1711752,-0.2560423,-1.461099,-4.015365,2.90343,0.596045,1.107337,0.4501259,-1.841345,-0.01565479,0,0,-0.0116024,-0.06219128,0.1629009,-0.8664195,-4.16713,0.1209927,0.624898,1.301367,0.3974125,-0.1258181,-0.06358957,-0.07564978,-1.004972,0.4945632,-0.01212111,0.7764788,1.377284,0.2643113,0.4670639,1.013954,0.2321815,293.6239,228.6155,347.7655,True
3,0.4,-0.1768993,-0.1659071,-0.2603378,-1.458692,-4.012846,2.905116,0.5959506,1.107959,0.4498832,-1.841424,-0.00710818,0,0,-0.006059498,-0.06544485,0.1937504,-0.8633627,-4.168746,0.121923,0.6255635,1.301848,0.397085,-0.1198366,-0.09544419,-0.1067235,-1.007257,0.4921095,-0.009726929,0.7771754,1.377109,0.2637317,0.4672955,1.014803,0.231402,293.5014,228.0897,348.0713,True
3,0.4111111,-0.1875693,-0.1552382,-0.2561501,-1.456309,-4.010905,2.907346,0.5959169,1.10854,0.4496887,-1.841476,-0.004692479,0,0,0.0005695149,-0.0623242,0.2246296,-0.8595778,-4.170208,0.1223946,0.6263959,1.302378,0.3967304,-0.1096499,-0.121966,-0.1420817,-1.009905,0.4895737,-0.007462976,0.7778696,1.377075,0.2631557,0.467557,1.015783,0.2307134,293.3629,227.6066,348.3523,True
3,0.4222222,-0.1950871,-0.1404762,-0.2711753,-1.453142,-4.008972,2.909543,0.5958351,1.109226,0.4495127,-1.841744,-0.02444299,0,0,0.002861217,-0.05811763,0.2438169,-0.8560838,-4.171602,0.1228969,0.6271586,1.302783,0.3964984,-0.09929577,-0.1453375,-0.1646586,-1.012442,0.4868535,-0.005300489,0.7785569,1.376932,0.2625,0.4677932,1.016858,0.2301125,293.1968,227.1504,348.6552,True
3,0.4333333,-0.2100224,-0.1298795,-0.2723067,-1.450447,-4.00708,2.91211,0.5960882,1.10995,0.4493017,-1.841342,0.03700674,0,0,0.005118765,-0.06134574,0.2629685,-0.852734,-4.173149,0.1238903,0.6279852,1.303368,0.3962295,-0.08444369,-0.166658,-0.1681115,-1.014426,0.4837888,-0.003245594,0.7792946,1.376819,0.2618799,0.4680263,1.017973,0.2296063,292.9969,226.6646,349.0212,True
3,0.4444444,-0.2175159,-0.120388,-0.2819614,-1.447342,-4.005342,2.91454,0.5961272,1.110667,0.4491584,-1.84139,-0.004635352,0,0,0.009438112,-0.07095037,0.2714424,-0.8496,-4.175176,0.124959,0.6288296,1.303876,0.395973,-0.0779296,-0.1784196,-0.156505,-1.015642,0.4810961,-0.001092429,0.7799894,1.376682,0.2612948,0.4682149,1.019076,0.2291698,292.8027,226.1489,349.4265,True
3,0.4555556,-0.2303334,-0.1065786,-0.2820561,-1.444464,-4.003818,2.917374,0.5962971,1.111347,0.4490178,-1.841116,0.02520735,0,0,0.01908152,-0.1157216,0.2798178,-0.8465577,-4.179666,0.1273398,0.629953,1.304253,0.3956988,-0.06182316,-0.2040531,-0.1440004,-1.016799,0.477331,0.001007474,0.780697,1.376553,0.2606611,0.4683643,1.020152,0.2288135,292.645,225.5852,349.9152,True
3,0.4666667,-0.2431681,-0.08639086,-0.2854012,-1.44136,-4.002859,2.92037,0.5965076,1.11201,0.4488988,-1.841328,-0.01957981,0,0,0.02650186,-0.1444912,0.2722661,-0.8439339,-4.183774,0.1292302,0.6309018,1.304715,0.3955455,-0.05547057,-0.2242916,-0.1452093,-1.018449,0.4737491,0.003319098,0.7814761,1.376427,0.2600324,0.468547,1.021222,0.2285411,292.5247,225.0821,350.3973,True
3,0.4777778,-0.2527906,-0.066154,-0.281294,-1.43856,-4.001918,2.923255,0.5967289,1.112694,0.4487793,-1.841072,0.02367176,0,0,0.04453567,-0.192419,0.2635257,-0.8418316,-4.18919,0.1317831,0.632036,1.305197,0.3953981,-0.04909427,-0.2339068,-0.145328,-1.020235,0.470115,0.005706089,0.7823029,1.376393,0.2593787,0.4687131,1.022286,0.2282876,292.4039,224.5374,350.9028,True
3,0.4888889,-0.2549733,-0.03733388,-0.2740759,-1.43572,-4.001831,2.926132,0.5970117,1.113336,0.448673,-1.841053,0.001587574,0,0,0.05613565,-0.228615,0.2452728,-0.8400713,-4.194636,0.134152,0.6331072,1.305733,0.3952577,-0.04284018,-0.2551901,-0.1561237,-1.022327,0.4659365,0.007938617,0.7830595,1.376186,0.2588153,0.4688713,1.023352,0.228046,292.2747,224.011,351.3916,True
3,0.5,-0.2582117,-0.01279801,-0.2678849,-1.432929,-4.001724,2.929058,0.597297,1.113997,0.4485962,-1.841274,-0.02012404,0,0,0.05715218,-0.2349893,0.2399245,-0.8380201,-4.198616,0.1363136,0.6341084,1.306204,0.3951221,-0.04184982,-0.279673,-0.1594055,-1.024147,0.4615427,0.01072721,0.783882,1.376115,0.2582135,0.4690056,1.024435,0.2278121,292.1418,223.4826,351.8845,True
3,0.5111111,-0.2667857,0.01816525,-0.2574784,-1.4302,-4.00246,2.932443,0.5976391,1.114582,0.4485385,-1.841509,-0.02118861,0,0,0.06571034,-0.2318097,0.2441298,-0.8354709,-4.202497,0.1378109,0.6352776,1.30657,0.3951094,-0.03970286,-0.2924713,-0.1573298,-1.025732,0.4571874,0.01328385,0.7846029,1.375898,0.2575994,0.4691193,1.025548,0.2275909,292.0054,222.9883,352.3508,True
3,0.5222223,-0.2710983,0.04269647,-0.2523572,-1.427267,-4.00299,2.935764,0.5981048,1.115144,0.4485099,-1.841549,-0.003497084,0,0,0.07219175,-0.2275656,0.2568786,-0.8324189,-4.206121,0.1392495,0.6363941,1.307062,0.3950448,-0.03121999,-0.296731,-0.1595778,-1.027663,0.4532464,0.01546551,0.7854403,1.375728,0.2568934,0.4691994,1.02669,0.2274033,291.8528,222.5052,352.8155,True
3,0.5333334,-0.2785698,0.05448784,-0.2407316,-1.424712,-4.003342,2.939297,0.5985843,1.115607,0.4484713,-1.841273,0.02527499,0,0,0.07224527,-0.2424969,0.2653709,-0.8296328,-4.211109,0.1418538,0.63763,1.307326,0.3949142,-0.01325163,-0.3052343,-0.1704764,-1.030048,0.4490014,0.0171417,0.7862202,1.375503,0.256248,0.4692423,1.027853,0.2272677,291.6857,222.0233,353.2899,True
3,0.5444446,-0.2743426,0.07585835,-0.2345285,-1.421978,-4.004393,2.942338,0.5989965,1.116077,0.4483924,-1.841359,-0.00797677,0,0,0.08074987,-0.265937,0.263139,-0.827238,-4.216856,0.1445239,0.6387638,1.30766,0.3947718,-0.003912598,-0.3126338,-0.1897873,-1.032886,0.4447499,0.01910871,0.78702,1.375412,0.2556655,0.4692311,1.02903,0.2272021,291.5005,221.5614,353.7788,True
3,0.5555557,-0.2764921,0.08866249,-0.2303701,-1.419344,-4.005179,2.94558,0.5993625,1.116528,0.4483583,-1.841221,0.01275288,0,0,0.1019063,-0.2861455,0.2448409,-0.8256822,-4.222441,0.1466419,0.6399847,1.307951,0.3946314,0.001377642,-0.3147543,-0.1930462,-1.035073,0.4406894,0.02088797,0.78782,1.375217,0.255013,0.4692282,1.03021,0.2272331,291.2953,221.1073,354.3125,True
3,0.5666668,-0.2669587,0.1207324,-0.2200024,-1.416771,-4.007133,2.948557,0.5998615,1.116905,0.4483223,-1.841873,-0.05961189,0,0,0.1165769,-0.2924743,0.2106404,-0.8248545,-4.22734,0.1481844,0.6410115,1.308185,0.394469,0.002643377,-0.3137325,-0.1760146,-1.036526,0.4368974,0.02283288,0.7885325,1.375098,0.2543266,0.4692235,1.031372,0.2272919,291.0888,220.6962,354.8213,True
3,0.577778,-0.261672,0.135659,-0.2190754,-1.413952,-4.008522,2.951644,0.6004004,1.117423,0.4483778,-1.841751,0.01166852,0,0,0.1153394,-0.2828431,0.1872315,-0.8239527,-4.231439,0.1498497,0.6421753,1.30842,0.3942988,0.001014918,-0.3064004,-0.1354859,-1.036752,0.4332584,0.02472532,0.7891812,1.375058,0.2537744,0.4691727,1.032491,0.2273345,290.8885,220.257,355.3396,True
3,0.5888891,-0.2542317,0.1485217,-0.2117385,-1.411488,-4.010188,2.954508,0.6008734,1.117807,0.4483209,-1.842186,-0.03991211,0,0,0.1098101,-0.2508229,0.158567,-0.8234228,-4.233773,0.1504705,0.6431153,1.308696,0.3942406,0.001317814,-0.2958271,-0.1109482,-1.037196,0.4298972,0.0265147,0.7898414,1.374947,0.253243,0.4690802,1.033549,0.2273722,290.7038,219.8141,355.8459,True
3,0.6000003,-0.2446669,0.1634978,-0.2065521,-1.408988,-4.011961,2.957224,0.6012204,1.118173,0.4482303,-1.842042,0.01347736,0,0,0.1075873,-0.2028615,0.1458879,-0.8223719,-4.234991,0.1503243,0.6440358,1.308858,0.3940411,0.009209365,-0.2810279,-0.07690601,-1.037018,0.4268708,0.02763509,0.7904652,1.374847,0.2527237,0.4689754,1.034544,0.2274738,290.5349,219.397,356.3436,True
3,0.6111114,-0.2372064,0.1667642,-0.2002,-1.406643,-4.013564,2.959877,0.6016611,1.118556,0.4481804,-1.842273,-0.02120267,0,0,0.1097397,-0.1719726,0.1480634,-0.8207825,-4.236454,0.1500252,0.6449944,1.309087,0.3938923,0.02324048,-0.26191,-0.06423213,-1.037359,0.4242571,0.02814535,0.7912533,1.374793,0.2522199,0.4688941,1.035485,0.2276613,290.405,218.9742,356.8718,True
3,0.6222225,-0.2318746,0.1657338,-0.1970031,-1.404307,-4.014948,2.962591,0.6021122,1.119038,0.4481106,-1.842438,-0.0149804,0,0,0.1152536,-0.1283506,0.1747399,-0.8179718,-4.237156,0.1491383,0.6459106,1.309309,0.3937173,0.03602394,-0.2587295,-0.06437921,-1.038229,0.421008,0.02896933,0.7918866,1.374602,0.2515347,0.4687514,1.036367,0.2278415,290.2738,218.5969,357.3683,True
3,0.6333337,-0.2318733,0.166817,-0.1948816,-1.401909,-4.016475,2.965431,0.6025178,1.119424,0.4480956,-1.842445,-0.0005512126,0,0,0.1132235,-0.1198567,0.189687,-0.8155702,-4.239245,0.1494513,0.6469821,1.309512,0.3935852,0.04220288,-0.2640022,-0.08152454,-1.039838,0.417515,0.0300306,0.7926532,1.374579,0.2510076,0.4685284,1.037184,0.227989,290.1495,218.2435,357.8457,True
3,0.6444448,-0.2318762,0.159282,-0.2033466,-1.399037,-4.017455,2.968247,0.6029477,1.119686,0.4481273,-1.8423,0.01325705,0,0,0.114334,-0.1347869,0.1971035,-0.8135387,-4.242488,0.1504113,0.6479883,1.309646,0.3936222,0.05167446,-0.2714346,-0.09018658,-1.041193,0.4138952,0.03100266,0.7932534,1.374469,0.2505131,0.4683176,1.037953,0.2281507,290.0564,217.932,358.2988,True
3,0.655556,-0.2318762,0.159282,-0.2033466,-1.399037,-4.017455,2.968247,0.6029477,1.119686,0.4481273,-1.842148,0.01370095,0,0,0.114334,-0.1347869,0.1971035,-0.8135387,-4.242488,0.1504113,0.6479883,1.309646,0.3936222,0.05167446,-0.2714346,-0.09018658,-1.041193,0.4138952,0.03100266,0.7932534,1.374469,0.2505131,0.4681582,1.038708,0.2283141,289.9903,217.5972,358.7672,True
3,0.6666671,-0.2318711,0.1528276,-0.2096864,-1.396275,-4.018436,2.970976,0.6034226,1.120038,0.4481432,-1.844615,-0.2256654,0,0,0.1153286,-0.1614048,0.1885221,-0.8121688,-4.246603,0.151965,0.6489963,1.309712,0.3935657,0.05590594,-0.2735639,-0.09237717,-1.042388,0.4103044,0.03207085,0.7938654,1.374328,0.2499914,0.4680132,1.039458,0.2284384,289.8853,217.3019,359.1423,True
3,0.6777782,-0.2297177,0.1400147,-0.2138448,-1.393589,-4.019141,2.973544,0.6037252,1.120355,0.4481997,-1.842082,0.2333958,0,0,0.1152619,-0.1763008,0.1810325,-0.8109,-4.250217,0.1533105,0.6499654,1.309877,0.3935335,0.07194293,-0.2757218,-0.08831981,-1.043288,0.4068029,0.03234968,0.794486,1.374263,0.2494991,0.4679479,1.040103,0.2285383,289.6679,217.175,359.3341,True
3,0.6888894,-0.2286535,0.1292643,-0.2244161,-1.390572,-4.019629,2.976234,0.6041083,1.120684,0.4482992,-1.841773,0.02594008,0,0,0.1279424,-0.1879885,0.1660011,-0.810042,-4.253749,0.1537864,0.6509297,1.30995,0.393523,0.08484653,-0.2725658,-0.07887874,-1.043923,0.4035737,0.03265036,0.7950106,1.374243,0.2491188,0.468001,1.040588,0.2286425,289.5664,216.6878,359.8832,True
3,0.7000005,-0.2275681,0.1110494,-0.237048,-1.38748,-4.019708,2.978718,0.6043719,1.121057,0.4483676,-1.841901,-0.01171089,0,0,0.142803,-0.1773201,0.1595241,-0.8088073,-4.256079,0.1534364,0.6519305,1.310037,0.393564,0.09136635,-0.2736735,-0.068308,-1.0444,0.4000437,0.03317926,0.7955403,1.37415,0.2486343,0.4681168,1.041008,0.2287411,289.5746,216.1063,0.4799664,True
3,0.7111117,-0.2349879,0.07027382,-0.2697262,-1.380508,-4.018955,2.983999,0.604933,1.121971,0.4485483,-1.841777,0.0115064,0,0,0.15663,-0.1869019,0.1572744,-0.806084,-4.262658,0.1541533,0.6538632,1.310197,0.3936155,0.1203798,-0.2758983,-0.04843162,-1.045124,0.3930854,0.0330445,0.7965394,1.374064,0.2477331,0.4682325,1.041434,0.2288288,289.6005,215.5705,0.999858,True
3,0.7222228,-0.2392288,0.04666209,-0.2897605,-1.376767,-4.018148,2.986591,0.6052269,1.122369,0.4486537,-1.839419,0.2155426,0,0,0.153426,-0.2177903,0.158297,-0.8049852,-4.267581,0.1561425,0.6548644,1.31027,0.3936834,0.1298542,-0.2907963,-0.05605061,-1.046085,0.3889071,0.0334549,0.7970675,1.373947,0.247288,0.4684098,1.041925,0.2289657,289.6366,214.859,1.727717,True
3,0.7333339,-0.2434936,0.04124515,-0.2992958,-1.373163,-4.017833,2.989345,0.6055052,1.122813,0.4487612,-1.841532,-0.1948958,0,0,0.1481072,-0.2327073,0.1593682,-0.8037415,-4.272088,0.1577872,0.6558573,1.310416,0.3937199,0.1370187,-0.3013674,-0.07751924,-1.048163,0.3851802,0.0337838,0.797876,1.373851,0.2467952,0.4686246,1.042608,0.229108,289.7451,213.7263,2.838587,True
3,0.7444451,-0.2499232,0.04856278,-0.3131922,-1.369246,-4.017982,2.992331,0.6057771,1.123209,0.4489498,-1.842009,-0.04164915,0,0,0.1481064,-0.2550792,0.1614531,-0.8024935,-4.277288,0.1598813,0.6569227,1.310484,0.3938799,0.1431891,-0.3172948,-0.09469828,-1.049961,0.3805973,0.03419179,0.7984509,1.373729,0.2463202,0.4687755,1.04354,0.2291968,289.6714,212.9267,3.599584,True
3,0.7555562,-0.2520922,0.06236246,-0.3186265,-1.365486,-4.018644,2.99529,0.606094,1.123681,0.4491572,-1.84198,0.002816972,0,0.1,0.1523879,-0.268931,0.1645902,-0.8011364,-4.28233,0.1615239,0.6579216,1.310617,0.3939583,0.1536773,-0.328998,-0.1076135,-1.051333,0.375763,0.03449672,0.7986466,1.373475,0.2458832,0.4689268,1.044626,0.2292543,289.4681,212.201,4.324088,True
3,0.7666674,-0.2532165,0.0890004,-0.3177845,-1.361722,-4.020067,2.998437,0.6064138,1.124146,0.4493878,-1.841838,0.01286015,0,0.1,0.1522977,-0.2763622,0.1528555,-0.800379,-4.287088,0.1632118,0.6589166,1.310786,0.3940592,0.1599773,-0.330043,-0.1151443,-1.052895,0.3716431,0.03455984,0.7990507,1.373561,0.2453773,0.4690698,1.045775,0.2292814,289.2333,211.343,5.165072,True
3,0.7777785,-0.2543533,0.1274412,-0.3064047,-1.358125,-4.02212,3.001814,0.6068122,1.124612,0.4496546,-1.841967,-0.01181953,0,0.1,0.1575616,-0.2869975,0.1442741,-0.7996876,-4.292196,0.1648262,0.6599734,1.311016,0.3941128,0.1599964,-0.3311243,-0.1151077,-1.053829,0.3671587,0.03482669,0.7994236,1.373506,0.2448971,0.469185,1.046916,0.2293348,289.0211,210.38,6.075191,True
3,0.7888896,-0.2522516,0.1423866,-0.3033383,-1.354651,-4.023757,3.004849,0.6071375,1.125065,0.4498765,-1.841963,0.0005070709,0,0.1,0.1681878,-0.3019106,0.1420453,-0.7988104,-4.297827,0.1666281,0.660975,1.311046,0.3941088,0.1525351,-0.3385692,-0.1150245,-1.054953,0.3627315,0.03555879,0.8001825,1.373487,0.2444415,0.4692354,1.04802,0.2294742,288.8584,209.4628,6.940837,True
3,0.8000008,-0.2448578,0.1840878,-0.286658,-1.351627,-4.026759,3.0079,0.6075469,1.12558,0.4502287,-1.841875,0.008050174,0,0.3,0.16829,-0.2987481,0.156966,-0.7971225,-4.302767,0.1682633,0.6620128,1.311098,0.3940539,0.1504335,-0.3492292,-0.1118373,-1.056227,0.3579756,0.03627492,0.8006408,1.373402,0.2439642,0.4691636,1.049072,0.2297424,288.7332,208.6247,7.769905,True
3,0.8111119,-0.2395653,0.2022395,-0.2825575,-1.348324,-4.029123,3.010882,0.6079472,1.125998,0.4505093,-1.84213,-0.02335425,0,0.3,0.164031,-0.2955503,0.1580693,-0.7959123,-4.307438,0.1699707,0.6629748,1.311227,0.3941524,0.1537054,-0.3513929,-0.1054945,-1.057381,0.3533727,0.03673804,0.8010138,1.373493,0.2434795,0.46895,1.050079,0.2301657,288.6316,207.906,8.565487,True
3,0.8222231,-0.23748,0.2289703,-0.2721273,-1.345296,-4.032304,3.014188,0.6083654,1.126465,0.4509044,-1.842426,-0.02693961,0,0.3,0.1640548,-0.2891652,0.1623435,-0.7944897,-4.311987,0.1714389,0.6638867,1.311406,0.3943572,0.151692,-0.3492864,-0.09694778,-1.058387,0.3490731,0.03710582,0.8014473,1.373401,0.2430489,0.4686106,1.051045,0.2307225,288.551,207.295,9.314723,True
3,0.8333342,-0.233261,0.2556848,-0.2638384,-1.342122,-4.035748,3.017391,0.6087887,1.126897,0.4512129,-1.842355,0.006716002,0,0.3,0.1661985,-0.2817114,0.1634061,-0.7931756,-4.316483,0.1726162,0.6647686,1.311607,0.3943934,0.1464619,-0.343982,-0.08941153,-1.059354,0.3448375,0.03772634,0.8017533,1.373313,0.2426107,0.4681714,1.051989,0.2314384,288.4752,206.7863,10.01543,True
3,0.8444453,-0.225822,0.272842,-0.2533409,-1.339157,-4.03918,3.020429,0.6092318,1.127326,0.4515493,-1.842166,0.01712174,0,0.3,0.1650904,-0.2742402,0.1581031,-0.7920774,-4.320701,0.1738216,0.665642,1.311768,0.3944776,0.1401492,-0.338664,-0.08399539,-1.060323,0.3407423,0.03827681,0.8021544,1.373281,0.2422061,0.4676648,1.052898,0.2322653,288.3967,206.2729,10.76951,True
3,0.8555565,-0.2119851,0.2889619,-0.2407187,-1.336363,-4.042651,3.023137,0.6096897,1.127773,0.4518685,-1.842288,-0.01133124,0,0.3,0.158639,-0.2657034,0.1496427,-0.7911794,-4.324864,0.1752134,0.666526,1.311918,0.3945339,0.1315631,-0.3386375,-0.08922464,-1.061733,0.3364186,0.03919268,0.8026333,1.373296,0.2417495,0.4670948,1.053792,0.2331689,288.3333,205.8038,11.48954,True
3,0.8666676,-0.2024069,0.3007913,-0.2301808,-1.333697,-4.046235,3.02593,0.6101469,1.128186,0.4521828,-1.842439,-0.01367499,0,0.3,0.1553994,-0.2614371,0.1443431,-0.7903362,-4.329207,0.1767111,0.6673582,1.31208,0.3944952,0.1261169,-0.3364675,-0.09873767,-1.063282,0.3322957,0.0400329,0.8030601,1.373122,0.241262,0.466461,1.054687,0.2340988,288.2708,205.3493,12.22235,True
3,0.8777788,-0.1842974,0.3180169,-0.2122506,-1.331376,-4.050068,3.028215,0.6107121,1.128553,0.4524627,-1.842746,-0.02795791,0,0.3,0.1543515,-0.2539783,0.1454227,-0.7892145,-4.33319,0.1777077,0.6681311,1.312219,0.3945482,0.1270225,-0.3300141,-0.1125956,-1.065243,0.3286217,0.04027206,0.8037134,1.37297,0.2407532,0.4658229,1.055589,0.2350416,288.2057,204.9426,12.92092,True
3,0.8888899,-0.1789771,0.3223079,-0.210165,-1.328674,-4.05366,3.030904,0.6111912,1.128956,0.4527624,-1.842648,0.009067167,0,0.3,0.1554035,-0.2518513,0.1443514,-0.7881785,-4.337489,0.1790116,0.6689594,1.312369,0.394598,0.1291995,-0.3236354,-0.109405,-1.066506,0.324753,0.040618,0.8041552,1.372889,0.2403157,0.4652256,1.056493,0.2359724,288.132,204.5548,13.59698,True
3,0.900001,-0.1789771,0.3223079,-0.210165,-1.328674,-4.05366,3.030904,0.6111912,1.128956,0.4527624,-1.84311,-0.04239664,0,0.3,0.1554035,-0.2518513,0.1443514,-0.7881785,-4.337489,0.1790116,0.6689594,1.312369,0.394598,0.1291995,-0.3236354,-0.109405,-1.066506,0.324753,0.040618,0.8041552,1.372889,0.2403157,0.4646884,1.057387,0.2368656,288.049,204.1795,14.24721,True
3,0.9111122,-0.1502265,0.3417136,-0.1901384,-1.324132,-4.061599,3.035324,0.6123896,1.129746,0.4533782,-1.844381,-0.1159248,0,0,0.1447698,-0.2507921,0.1465442,-0.7860789,-4.346136,0.1821722,0.6705966,1.312731,0.3947322,0.1357849,-0.2960092,-0.0976516,-1.068464,0.3176902,0.04068431,0.8044864,1.37265,0.2396131,0.4642155,1.058237,0.2376601,287.9074,203.9398,14.77486,True
3,0.9222233,-0.1363746,0.3407123,-0.1869471,-1.321844,-4.065335,3.037359,0.6129314,1.130075,0.4536698,-1.841418,0.2717957,0,0,0.1287868,-0.24972,0.1466568,-0.7850232,-4.350352,0.1842441,0.6713686,1.312911,0.3947051,0.1347366,-0.2853498,-0.09760505,-1.069677,0.314571,0.04067472,0.8048888,1.372676,0.2393436,0.4639177,1.058919,0.2382864,287.7582,203.717,15.20946,True
3,0.9333345,-0.1257118,0.336483,-0.1848102,-1.319368,-4.068688,3.039306,0.613501,1.130423,0.4538691,-1.842558,-0.1067525,0,0,0.117095,-0.2486604,0.1510036,-0.7837108,-4.354679,0.1864322,0.672171,1.313019,0.3946865,0.1283199,-0.2715067,-0.1017263,-1.07094,0.3112363,0.04094876,0.8053235,1.372705,0.2389987,0.4637736,1.059542,0.2390511,287.8785,202.9797,16.01832,True
3,0.9444456,-0.1257118,0.336483,-0.1848102,-1.319368,-4.068688,3.039306,0.613501,1.130423,0.4538691,-1.842952,-0.03486187,0,0,0.117095,-0.2486604,0.1510036,-0.7837108,-4.354679,0.1864322,0.672171,1.313019,0.3946865,0.1283199,-0.2715067,-0.1017263,-1.07094,0.3112363,0.04094876,0.8053235,1.372705,0.2389987,0.4635454,1.060212,0.2398497,287.9266,202.526,16.58601,True
3,0.9555568,-0.1000833,0.3120748,-0.1825043,-1.314745,-4.074959,3.04244,0.6145657,1.131135,0.4543471,-1.843959,-0.09206354,0,0.1,0.09258153,-0.2145577,0.1491108,-0.7812554,-4.360895,0.1894852,0.67375,1.313062,0.3945088,0.1027089,-0.2395105,-0.1077066,-1.073747,0.3060486,0.04188939,0.8063862,1.372472,0.238291,0.4632092,1.060895,0.2405987,287.8364,202.3394,16.9889,True
3,0.9666679,-0.1000833,0.3120748,-0.1825043,-1.314745,-4.074959,3.04244,0.6145657,1.131135,0.4543471,-1.842087,0.1718283,0,0.1,0.09258153,-0.2145577,0.1491108,-0.7812554,-4.360895,0.1894852,0.67375,1.313062,0.3945088,0.1027089,-0.2395105,-0.1077066,-1.073747,0.3060486,0.04188939,0.8063862,1.372472,0.238291,0.4629042,1.061467,0.2412033,287.7044,202.1979,17.37517,True
3,0.977779,-0.08940585,0.3014471,-0.1824311,-1.312414,-4.077856,3.043812,0.6150718,1.131451,0.4545424,-1.843576,-0.1377876,0,0.1,0.07764085,-0.2028275,0.1449774,-0.780148,-4.363898,0.1912413,0.6745193,1.313108,0.3944991,0.09201017,-0.2149812,-0.113889,-1.075275,0.3042167,0.04204732,0.8070482,1.372288,0.2381752,0.4627033,1.061978,0.241889,287.7643,201.6272,18.11255,True
3,0.9888902,-0.07979549,0.2865322,-0.184453,-1.310054,-4.080354,3.045125,0.6156471,1.131761,0.4548175,-1.842801,0.07215428,0,0.1,0.06376825,-0.1942972,0.1418878,-0.779161,-4.366986,0.193175,0.6752123,1.313102,0.3946714,0.08118348,-0.1840174,-0.1307031,-1.077334,0.3032138,0.04199006,0.8076427,1.37209,0.2380579,0.462468,1.062412,0.2424309,287.7007,201.5149,18.391,True
3,1.000001,-0.0755109,0.2769846,-0.1801237,-1.307959,-4.082905,3.046579,0.6160276,1.132024,0.4549992,-1.84278,0.001093496,0,0.1,0.05519505,-0.1889539,0.1345012,-0.7783301,-4.369971,0.1949748,0.6759603,1.313136,0.3947258,0.07261065,-0.1722767,-0.1358887,-1.07904,0.3015251,0.04227342,0.8083318,1.37191,0.2378933,0.4623171,1.062754,0.242933,287.7216,201.2643,18.77691,True
3,1.011112,-0.06909904,0.2631782,-0.1799862,-1.305986,-4.085629,3.047965,0.6164429,1.132471,0.4554527,-1.842657,0.01117708,0,0.1,0.0455846,-0.1836117,0.1303069,-0.7775397,-4.372765,0.1966846,0.6767508,1.313151,0.3948092,0.0630409,-0.1584161,-0.1357267,-1.08058,0.3001654,0.04250192,0.8089265,1.371752,0.2377412,0.4622475,1.063045,0.2434613,287.791,200.8953,19.24621,True
3,1.022224,-0.08075559,0.2375573,-0.1840142,-1.301344,-4.09002,3.051154,0.61739,1.133047,0.4559636,-1.842442,0.01955903,0,0.1,0.01245524,-0.1963587,0.1166614,-0.7763668,-4.3798,0.2023736,0.6783867,1.313293,0.3948889,0.04906239,-0.1562365,-0.1472656,-1.084248,0.2964679,0.04341512,0.810225,1.371333,0.2373636,0.4622348,1.063317,0.2440392,287.8591,200.5579,19.66706,True
3,1.033335,-0.0881741,0.2258594,-0.1785852,-1.299324,-4.091977,3.052876,0.617919,1.133344,0.4561872,-1.841571,0.079397,0,0.1,0.006044731,-0.2070034,0.1134836,-0.7758289,-4.383794,0.2052791,0.6791248,1.31343,0.3949647,0.04149671,-0.1615208,-0.1567819,-1.086391,0.2943607,0.04400714,0.8108606,1.371278,0.2373435,0.4622109,1.06361,0.2446789,287.9615,200.1857,20.09073,True
3,1.044446,-0.09240209,0.2109624,-0.177379,-1.297321,-4.093988,3.054597,0.6183747,1.133805,0.4565094,-1.841997,-0.03956392,0,0.1,-0.002500445,-0.2091267,0.1114027,-0.7752441,-4.387394,0.2082288,0.6799539,1.31352,0.3950677,0.02872218,-0.1487228,-0.1565829,-1.088147,0.2930748,0.04478105,0.8115721,1.371131,0.237174,0.4621941,1.064036,0.2455753,288.1303,199.6578,20.68312,True
3,1.055557,-0.09345837,0.2066936,-0.1773374,-1.295208,-4.095935,3.056133,0.6189291,1.134117,0.4567609,-1.841967,0.003090063,0,0,-0.006723776,-0.2038101,0.1167704,-0.7742481,-4.390731,0.2108374,0.680927,1.313699,0.3950346,0.01910317,-0.1455115,-0.1596518,-1.090072,0.2913975,0.04562208,0.8122972,1.37094,0.2370389,0.4620217,1.064619,0.2465114,288.1425,199.3832,21.17299,True
3,1.066668,-0.09983204,0.1971197,-0.1761688,-1.293264,-4.09797,3.058049,0.6194422,1.134489,0.4570479,-1.841981,-0.001259891,0,0,-0.01513456,-0.1931864,0.1328292,-0.7727023,-4.393803,0.213507,0.6818,1.313782,0.3951085,0.006333143,-0.1359071,-0.1594664,-1.091874,0.2901962,0.04651397,0.8130947,1.370797,0.2371085,0.4617863,1.065311,0.2473826,288.0801,199.213,21.63579,True
3,1.077779,-0.109428,0.1960187,-0.1793354,-1.291023,-4.100226,3.060247,0.6199867,1.134786,0.4573154,-1.842152,-0.01566968,0,0,-0.01394534,-0.1825712,0.1509507,-0.7708557,-4.396854,0.2158745,0.6826303,1.313884,0.3951619,0.002148375,-0.1306014,-0.1530106,-1.093475,0.2887578,0.04734355,0.8139317,1.370652,0.2369833,0.4615777,1.066083,0.2481553,288.0177,198.9275,22.18337,True
3,1.08889,-0.1179362,0.1928255,-0.1771632,-1.288971,-4.102257,3.062344,0.6204845,1.135059,0.4576292,-1.841817,0.03082317,0,0,-0.01804945,-0.1570428,0.1733994,-0.7684546,-4.398833,0.217719,0.6834795,1.314005,0.3952363,-0.006286204,-0.1189062,-0.1475357,-1.094876,0.2875996,0.04816913,0.8145747,1.370461,0.236943,0.4614746,1.066879,0.248834,287.9403,198.4918,22.82354,True
3,1.100002,-0.1318133,0.2056052,-0.1761757,-1.286848,-4.10517,3.065043,0.6210335,1.135333,0.4578671,-1.84158,0.02136131,0,0,-0.03504606,-0.1378649,0.1799504,-0.7665169,-4.400627,0.2200013,0.6842657,1.314071,0.3952427,-0.008373573,-0.1167856,-0.1443123,-1.096498,0.2862854,0.04891108,0.8153212,1.370254,0.236805,0.4614673,1.067665,0.2494151,287.8707,197.9963,23.44924,True
3,1.111113,-0.1424877,0.2184154,-0.1698747,-1.284942,-4.107972,3.06778,0.6215693,1.135573,0.4581716,-1.841643,-0.005838497,37.7,3.6,-0.03931285,-0.1314698,0.1789275,-0.7648731,-4.402982,0.2222917,0.6851213,1.314154,0.3953278,-0.01044987,-0.117877,-0.1400317,-1.098042,0.2846147,0.04982109,0.8159559,1.370048,0.236764,0.4615296,1.068419,0.2499156,287.8116,197.419,24.10498,True
3,1.122224,-0.1531836,0.2397254,-0.1689663,-1.282804,-4.111603,3.070824,0.6221622,1.1358,0.4585147,-1.841355,0.02639911,37.7,3.6,-0.03726579,-0.1325182,0.167194,-0.7638058,-4.405741,0.2246217,0.686096,1.314052,0.3954678,-0.002899438,-0.1179051,-0.1326696,-1.099372,0.2832743,0.0501665,0.8166612,1.3698,0.2368901,0.4616252,1.069129,0.2503628,287.7632,196.8509,24.71703,True
3,1.133335,-0.1713538,0.2685082,-0.1627867,-1.280854,-4.115696,3.074562,0.6227751,1.136123,0.4588799,-1.841331,0.002031319,37.7,3.6,-0.01397218,-0.1601907,0.1467327,-0.7634329,-4.409961,0.2270118,0.6870133,1.314011,0.3956137,0.009911552,-0.1179408,-0.1306974,-1.100903,0.2816638,0.05032256,0.8173068,1.369641,0.2368889,0.4616814,1.069808,0.2507825,287.7371,196.3241,25.28687,True
3,1.144446,-0.185258,0.3015957,-0.1523834,-1.27922,-4.120331,3.078371,0.6233857,1.136278,0.4592891,-1.841347,-0.001342194,37.7,3.6,0.007244974,-0.1900032,0.1358711,-0.7629882,-4.414664,0.2297059,0.6879058,1.313961,0.3958304,0.01630764,-0.120079,-0.1297134,-1.102322,0.28023,0.05065306,0.8179003,1.369484,0.2369542,0.4616938,1.070481,0.2512424,287.7173,195.821,25.84103,True
3,1.155557,-0.1948953,0.3314897,-0.1419744,-1.277549,-4.124978,3.082143,0.6241158,1.13636,0.4596915,-1.840889,0.04190119,74,5,0.03156146,-0.2389607,0.1111044,-0.7634473,-4.420624,0.2329001,0.6888378,1.313909,0.3960183,0.02064772,-0.1179857,-0.1233709,-1.103608,0.2787316,0.05099501,0.8185645,1.36945,0.2368977,0.4616328,1.071179,0.2518087,287.7115,195.3291,26.40273,True
3,1.166668,-0.2045105,0.3496486,-0.1335874,-1.276122,-4.129538,3.086021,0.6246661,1.136544,0.4600618,-1.841047,-0.0147038,74,5,0.05483074,-0.2730126,0.08850245,-0.7641749,-4.426533,0.2358091,0.6896156,1.313864,0.3962069,0.02939282,-0.1105999,-0.1053453,-1.104283,0.2776348,0.05094121,0.8192242,1.369394,0.2369545,0.4614462,1.071961,0.2525127,287.7024,194.9037,26.94317,True
3,1.17778,-0.2066675,0.3764279,-0.1167701,-1.274962,-4.13476,3.089792,0.6252088,1.136738,0.4603446,-1.841235,-0.0169644,74,5,0.05577481,-0.2655224,0.07146727,-0.7644476,-4.430256,0.2379795,0.6903555,1.313976,0.3963213,0.03416783,-0.1000843,-0.06381795,-1.103641,0.2767616,0.05089114,0.8197081,1.369297,0.2367413,0.4611355,1.07285,0.2533898,287.6244,194.4651,27.58262,True
3,1.188891,-0.2088079,0.3860726,-0.1093897,-1.273785,-4.139491,3.093548,0.6257119,1.136932,0.4606781,-1.841231,0.0005486721,74,5,0.04294498,-0.2452637,0.06413969,-0.7644753,-4.433288,0.2401071,0.6910833,1.31399,0.3964603,0.03455421,-0.09166179,-0.03289937,-1.102978,0.275906,0.05089354,0.8202108,1.36923,0.2367184,0.4607415,1.073824,0.2544265,287.5022,194.0247,28.31215,True
3,1.200002,-0.2098501,0.3872395,-0.09768037,-1.272831,-4.143998,3.097149,0.6261078,1.137223,0.4609199,-1.841618,-0.03530321,74,5,0.0237902,-0.2090495,0.066479,-0.7638729,-4.435277,0.2420025,0.6917026,1.314079,0.3966432,0.04117492,-0.09173361,-0.01487222,-1.102735,0.2745914,0.05071431,0.8207487,1.369157,0.2367332,0.4602037,1.074878,0.2555102,287.3774,193.6628,29.00123,True
3,1.211113,-0.2108942,0.3840733,-0.09339061,-1.27177,-4.148211,3.10067,0.6265609,1.137478,0.4611826,-1.842093,-0.04238037,81.1,4.2,0.01324789,-0.1888352,0.08150717,-0.7628326,-4.437709,0.2439868,0.6923512,1.314156,0.3967791,0.04105186,-0.08638603,-0.02550859,-1.103472,0.273537,0.05075958,0.8212279,1.36908,0.2367663,0.4595443,1.076022,0.2565929,287.2493,193.3502,29.67198,True
3,1.222224,-0.2076462,0.3649185,-0.09217778,-1.270561,-4.151714,3.103822,0.6269256,1.137706,0.4614754,-1.843207,-0.1004679,81.1,4.2,-0.003556535,-0.1505458,0.1147295,-0.7605807,-4.439296,0.2457379,0.6929364,1.314298,0.3969958,0.03646533,-0.07883252,-0.05312798,-1.104992,0.2729726,0.05071484,0.821753,1.368952,0.2368121,0.458849,1.077263,0.2576414,287.1223,193.044,30.34339,True
3,1.233335,-0.2054397,0.33402,-0.09405005,-1.269376,-4.154538,3.106747,0.6272157,1.137855,0.4616907,-1.844789,-0.1422825,81.1,4.2,-0.004544273,-0.1313943,0.1254296,-0.7591309,-4.441199,0.2472074,0.693542,1.314395,0.3971126,0.02647036,-0.07661324,-0.0870894,-1.107071,0.2717277,0.05126346,0.8220831,1.36876,0.2369249,0.4581786,1.07863,0.2585911,286.9903,192.7143,31.02746,True
3,1.244446,-0.2064503,0.3052093,-0.1001964,-1.268017,-4.15717,3.109858,0.627481,1.138043,0.4620187,-1.847123,-0.2103026,81.1,4.2,-0.01512164,-0.1133026,0.1361933,-0.7574978,-4.442808,0.2489568,0.694095,1.314433,0.3972971,0.01988745,-0.07655279,-0.1029891,-1.108721,0.2708912,0.05159715,0.8225409,1.368666,0.2369578,0.4576579,1.08013,0.2594327,286.837,192.2075,31.85023,True
3,1.255558,-0.2032113,0.2828182,-0.1042829,-1.266553,-4.159869,3.112861,0.6277968,1.138168,0.4622777,-1.849995,-0.2583826,55.7,2.3,-0.01938967,-0.104779,0.1341125,-0.7563271,-4.444715,0.2506325,0.6947094,1.314539,0.3974521,0.02199712,-0.07762393,-0.1051577,-1.11011,0.2697729,0.05167385,0.8230622,1.368706,0.2370293,0.4573326,1.081753,0.2601197,286.6503,191.4558,32.84819,True
3,1.266669,-0.2042234,0.256149,-0.1083211,-1.26514,-4.161824,3.115767,0.6279302,1.138357,0.4624512,-1.853169,-0.2853147,55.7,2.3,-0.02695608,-0.09515744,0.1192714,-0.7557252,-4.446012,0.2522408,0.6952734,1.314471,0.3976696,0.02856766,-0.0702209,-0.09029381,-1.110528,0.2692316,0.05151645,0.8235121,1.368574,0.2372167,0.457206,1.083472,0.2606008,286.44,190.4776,33.98162,True
3,1.27778,-0.2020511,0.2326746,-0.1145211,-1.26361,-4.163901,3.118595,0.6281807,1.13865,0.462796,-1.857323,-0.3741803,55.7,2.3,-0.03243934,-0.1004381,0.09692302,-0.7558094,-4.44797,0.2541668,0.6958447,1.31439,0.3979697,0.03840053,-0.05750255,-0.07014,-1.110784,0.2691592,0.05103149,0.8241213,1.368429,0.2373116,0.4572744,1.085286,0.2608917,286.2421,189.3054,35.20774,True
3,1.288891,-0.2030936,0.2187515,-0.1229239,-1.261943,-4.165996,3.121488,0.6283152,1.138915,0.4629767,-1.861954,-0.4165827,55.7,2.3,-0.0357834,-0.1110554,0.07668912,-0.7559868,-4.450437,0.2564997,0.696434,1.314396,0.3981996,0.04607228,-0.04903778,-0.05316109,-1.110899,0.2689185,0.05040645,0.8246002,1.368426,0.2374341,0.4574785,1.087208,0.260999,286.0505,187.9843,36.52566,True
3,1.300002,-0.2051907,0.2006054,-0.1280913,-1.260384,-4.167838,3.124401,0.6284078,1.139221,0.4633038,-1.867397,-0.4901302,55.7,2.3,-0.04010586,-0.1291471,0.06922166,-0.7560251,-4.453397,0.259267,0.6969704,1.314429,0.3984556,0.05136408,-0.04370774,-0.05640199,-1.111613,0.2686084,0.04983493,0.8249533,1.36852,0.2376013,0.457765,1.089267,0.2609284,285.8767,186.5853,37.86417,True
3,1.311113,-0.2051626,0.1867315,-0.1301066,-1.258868,-4.169473,3.127214,0.6285323,1.139462,0.4635227,-1.873335,-0.5342508,35,1.4,-0.03903107,-0.1600449,0.07128055,-0.7559367,-4.457618,0.2626828,0.6974196,1.314419,0.3986936,0.0534466,-0.04263731,-0.06068666,-1.112491,0.2680369,0.04939738,0.8252437,1.368491,0.2377436,0.4581646,1.0915,0.2607856,285.7187,185.0398,39.30375,True
3,1.322224,-0.2040701,0.1750202,-0.1310756,-1.25731,-4.171277,3.129995,0.6285546,1.139708,0.4637794,-1.879786,-0.5804949,35,1.4,-0.03372993,-0.1824147,0.06906895,-0.7559708,-4.461733,0.2659076,0.6978993,1.314428,0.3989036,0.05649776,-0.04473367,-0.07244886,-1.113704,0.2674939,0.04890576,0.8255461,1.368469,0.2378793,0.4585801,1.09394,0.2605852,285.5475,183.2727,40.95155,True
3,1.333336,-0.2040492,0.1686383,-0.1288904,-1.255971,-4.172956,3.13275,0.6286304,1.139931,0.4640183,-1.88686,-0.6367522,35,1.4,-0.02733342,-0.1888087,0.07007593,-0.755795,-4.465188,0.2685108,0.6982968,1.314447,0.3991296,0.05642519,-0.03619551,-0.07986812,-1.1147,0.2672907,0.0482634,0.8256862,1.368499,0.2380216,0.4590206,1.096592,0.2604083,285.3442,181.3107,42.8018,True
3,1.344447,-0.2029769,0.1665275,-0.1278093,-1.254546,-4.174935,3.135593,0.6286286,1.140183,0.4642737,-1.894417,-0.6801952,35,1.4,-0.01771837,-0.1866888,0.07427313,-0.7553945,-4.468349,0.2707175,0.6986677,1.31437,0.3992927,0.05538726,-0.0340682,-0.07771781,-1.115489,0.267042,0.04781679,0.825902,1.368515,0.2382429,0.4594736,1.099435,0.260268,285.1094,179.1201,44.92262,True
3,1.355558,-0.1987026,0.1687068,-0.1225138,-1.253262,-4.176882,3.138156,0.6286221,1.140415,0.4644649,-1.902235,-0.703557,21.6,1,-0.009233221,-0.1717684,0.06785386,-0.7552054,-4.470604,0.2721421,0.698939,1.314477,0.3994732,0.05657427,-0.03412095,-0.06812747,-1.11573,0.2662738,0.04744102,0.8258871,1.36846,0.2384214,0.4599182,1.10243,0.2601766,284.8662,176.7202,47.27315,True
3,1.366669,-0.1987002,0.1676415,-0.122505,-1.251895,-4.178794,3.14097,0.6286222,1.14063,0.4646993,-1.910364,-0.7316518,21.6,1,-0.01246929,-0.1610965,0.06257097,-0.7550818,-4.472637,0.2739706,0.6992202,1.314464,0.3996277,0.05790765,-0.02569923,-0.0468053,-1.115525,0.2657833,0.0469952,0.8260841,1.368489,0.2385592,0.4603688,1.105528,0.260145,284.6272,174.202,49.76698,True
3,1.37778,-0.195513,0.1815636,-0.1141128,-1.250802,-4.181314,-3.139459,0.6286197,1.140887,0.4649191,-1.918895,-0.7681054,21.6,1,-0.00827039,-0.1323194,0.05301231,-0.7549433,-4.47346,0.2745706,0.6994845,1.314527,0.399771,0.05705054,-0.02042251,-0.02973153,-1.115322,0.2657552,0.0464948,0.8261093,1.368554,0.2386804,0.4607889,1.108694,0.2601552,284.4135,171.5722,52.38729,True
3,1.388891,-0.1944537,0.1837069,-0.1120102,-1.249538,-4.183444,-3.136595,0.6287202,1.141096,0.4651265,-1.92702,-0.7307552,21.6,1,-0.008316882,-0.1056677,0.04561025,-0.75471,-4.473796,0.2749466,0.6996592,1.314628,0.3999996,0.05713521,-0.02471967,-0.02333785,-1.115207,0.2650117,0.04602901,0.8262302,1.368798,0.2387841,0.4611931,1.111875,0.260205,284.2189,168.8561,55.11909,True
3,1.400002,-0.1891282,0.1912335,-0.105693,-1.248559,-4.185997,-3.133969,0.6286437,1.141334,0.4653816,-1.935561,-0.7691907,21.6,1,-0.004044026,-0.07158046,0.04564229,-0.7541801,-4.473436,0.2745557,0.6998235,1.314701,0.4002204,0.05614369,-0.03858721,-0.0159089,-1.115129,0.2640775,0.04586975,0.8262068,1.368824,0.2388995,0.4615985,1.115021,0.2602912,284.0631,166.136,57.85661,True
3,1.411114,-0.1912667,0.1965836,-0.1014721,-1.24763,-4.188388,-3.130999,0.628464,1.141555,0.4656057,-1.943637,-0.7263418,21.3,0.8,0.003458332,-0.04496063,0.05097003,-0.7532964,-4.473111,0.2740166,0.6998284,1.31477,0.4003975,0.05736914,-0.04292963,-0.003122819,-1.114413,0.2627307,0.04566815,0.8258944,1.368897,0.2390614,0.4620067,1.118109,0.2604199,283.94,163.4742,60.54993,True
3,1.422225,-0.1859423,0.2019855,-0.09512849,-1.246852,-4.191097,-3.128281,0.6283143,1.141802,0.4659221,-1.952091,-0.7615863,21.3,0.8,0.01625931,-0.03005403,0.05303668,-0.7526546,-4.473147,0.2734651,0.6998547,1.314848,0.4005997,0.05541724,-0.03124689,0.009721406,-1.113892,0.2627829,0.04497254,0.8257723,1.368924,0.2392468,0.462447,1.121109,0.2605824,283.8576,160.858,63.20267,True
3,1.433336,-0.1838191,0.2051795,-0.09409819,-1.245844,-4.19341,-3.125553,0.6281881,1.141981,0.4661615,-1.959691,-0.6832073,21.3,0.8,0.02267402,-0.02579901,0.05513038,-0.7520415,-4.473641,0.2732893,0.6998587,1.314885,0.4007764,0.05761946,-0.02700885,0.01503515,-1.113574,0.2625242,0.04434429,0.8259642,1.368978,0.2393744,0.4628299,1.124025,0.2607386,283.8079,158.2607,65.79774,True
3,1.444447,-0.181673,0.2031079,-0.08875726,-1.245111,-4.195884,-3.122848,0.6279646,1.142147,0.4664965,-1.967691,-0.7207448,21.3,0.8,0.0258178,-0.01832578,0.04766295,-0.7518151,-4.473601,0.272892,0.6998668,1.314904,0.4009812,0.05774194,-0.02170929,0.0246387,-1.112995,0.262473,0.04372724,0.8258446,1.36904,0.2395515,0.4631134,1.126854,0.2608834,283.7875,155.7667,68.27465,True
3,1.455558,-0.178457,0.1956656,-0.0865749,-1.244219,-4.197769,-3.120386,0.6278313,1.142284,0.4667425,-1.975048,-0.6616393,21.3,0.8,0.02892381,-0.02043931,0.03485478,-0.7519462,-4.474146,0.2728579,0.6999793,1.314912,0.4011588,0.06106913,-0.0206431,0.03522378,-1.112636,0.2628501,0.0427725,0.8263705,1.369461,0.2395976,0.463348,1.129583,0.2610845,283.7927,153.3779,70.66661,True
3,1.466669,-0.1762902,0.1807458,-0.08858953,-1.243133,-4.199442,-3.118035,0.6275567,1.142472,0.466949,-1.982221,-0.6457465,24.6,1.3,0.02675288,-0.02149337,0.02953963,-0.7518823,-4.474594,0.2730139,0.6999634,1.314915,0.4013715,0.05902585,-0.02172954,0.04270179,-1.111953,0.2625154,0.04236876,0.8263128,1.369493,0.2397096,0.4635626,1.132186,0.2613443,283.8232,151.0635,73.01288,True
3,1.47778,-0.1741231,0.1625992,-0.09270631,-1.24199,-4.200644,-3.115809,0.6273012,1.142657,0.4671602,-1.989099,-0.6190811,24.6,1.3,0.02453217,-0.02146951,0.01677224,-0.7521779,-4.474872,0.2730515,0.6998763,1.314878,0.4015403,0.06103433,-0.02272423,0.03412443,-1.112204,0.2629549,0.04166196,0.8263305,1.369379,0.2398229,0.4637592,1.134654,0.2616611,283.8611,148.8696,75.24903,True
3,1.488891,-0.1730387,0.1486945,-0.1000477,-1.240696,-4.20195,-3.113488,0.6270257,1.142824,0.4674182,-1.995697,-0.5938426,24.6,1.3,0.02343381,-0.02359103,0.01251474,-0.7522722,-4.475316,0.2731895,0.6998473,1.314924,0.4017408,0.05765303,-0.02796207,0.02132296,-1.112961,0.2631685,0.04137114,0.8260403,1.369288,0.2398796,0.4639646,1.136973,0.2619894,283.9136,146.8409,77.35265,True
3,1.500003,-0.1730238,0.1358382,-0.1095304,-1.239203,-4.203232,-3.111122,0.626585,1.14317,0.467607,-2.001877,-0.5561355,24.6,1.3,0.028777,-0.0267897,0.01459654,-0.7521667,-4.475898,0.2730742,0.6997149,1.314984,0.4018567,0.05855055,-0.03644037,0.008498212,-1.113355,0.2624748,0.04101162,0.8259189,1.36935,0.2399576,0.4641503,1.139154,0.2622511,283.9966,144.9747,79.27846,True
3,1.511114,-0.1751423,0.1272336,-0.1179769,-1.237708,-4.204403,-3.108804,0.626223,1.143402,0.467803,-2.007705,-0.5244466,31.4,1.7,0.02884086,-0.03426714,0.02416902,-0.7517832,-4.477061,0.2736265,0.6996535,1.314959,0.4019845,0.06059127,-0.03850404,0.003093939,-1.114094,0.2628055,0.04042972,0.8257501,1.369395,0.240025,0.464362,1.14119,0.2624378,284.1051,143.2544,81.01922,True
3,1.522225,-0.1740896,0.1260908,-0.128618,-1.236044,-4.206015,-3.106382,0.6258072,1.143768,0.4679952,-2.013275,-0.5013074,31.4,1.7,0.02461915,-0.04386609,0.03057209,-0.7514876,-4.478393,0.2744944,0.6996049,1.314981,0.402024,0.0712703,-0.02465944,0.003002904,-1.114091,0.2631489,0.03893994,0.8255819,1.369471,0.2400873,0.4645734,1.143106,0.2625374,284.2494,141.6981,82.53884,True
3,1.533336,-0.177304,0.1260173,-0.1360796,-1.234237,-4.207529,-3.103695,0.6254231,1.144131,0.4681427,-2.018688,-0.4872003,31.4,1.7,0.02571338,-0.04387722,0.03482711,-0.7510977,-4.479342,0.274876,0.6995769,1.315038,0.4021187,0.06703027,-0.02147003,0.004137333,-1.113924,0.2628764,0.03842356,0.8249546,1.369478,0.2401793,0.4647186,1.144967,0.262535,284.4212,140.3069,83.8602,True
3,1.544447,-0.1805137,0.1269891,-0.1467375,-1.232265,-4.209139,-3.101049,0.6248797,1.144567,0.4682937,-2.023936,-0.4723841,31.4,1.7,0.01411409,-0.04816922,0.0519443,-0.75018,-4.480774,0.2761498,0.6994866,1.315082,0.4021232,0.05967159,-0.0236114,0.0116735,-1.113609,0.262526,0.03804911,0.8247384,1.369556,0.240237,0.4648486,1.146784,0.2625008,284.6042,138.9783,85.11361,True
3,1.555558,-0.1901402,0.1353596,-0.1617122,-1.229979,-4.211084,-3.097955,0.6243704,1.144994,0.4684,-2.02869,-0.4273468,31.4,1.7,0.007796142,-0.05138563,0.0626366,-0.7493746,-4.482182,0.2773024,0.6994082,1.315153,0.4021182,0.0597627,-0.02684668,0.01912302,-1.113142,0.2618052,0.03761395,0.8243549,1.369579,0.2402337,0.4649385,1.148599,0.2624663,284.8064,137.7383,86.28437,True
3,1.566669,-0.2061657,0.1426362,-0.1809189,-1.227448,-4.213346,-3.094339,0.6237237,1.145528,0.4685781,-2.033638,-0.4457153,41,2.2,-0.0006224923,-0.05034368,0.07761339,-0.7481991,-4.483409,0.2784982,0.6992971,1.315196,0.4021814,0.06088046,-0.02686223,0.02336853,-1.112795,0.2614373,0.03704031,0.8241123,1.369691,0.2403224,0.4649822,1.150446,0.2624496,285.0223,136.528,87.44395,True
3,1.577781,-0.2306984,0.1402511,-0.2053716,-1.224428,-4.215072,-3.090373,0.6230657,1.145953,0.4687858,-2.038113,-0.4022287,41,2.2,-0.01217823,-0.03440481,0.1000979,-0.7463616,-4.483932,0.2794242,0.6991299,1.315253,0.4021573,0.06409054,-0.02797879,0.02336879,-1.111995,0.260244,0.03651993,0.8233722,1.369677,0.2403207,0.4649391,1.152361,0.2624491,285.2601,135.2736,88.65612,True
3,1.588892,-0.2562932,0.1335486,-0.2361729,-1.220848,-4.216622,-3.086165,0.6222784,1.146524,0.4690068,-2.042385,-0.3840498,41,2.2,-0.02275247,-0.03229274,0.1118944,-0.744875,-4.484941,0.2808285,0.699003,1.315305,0.4021323,0.07144253,-0.02795698,0.01475569,-1.112125,0.2599498,0.03559981,0.8231265,1.369675,0.2403553,0.4648055,1.154351,0.2624869,285.53,134.0058,89.89677,True
3,1.600003,-0.2776314,0.1355026,-0.253202,-1.21758,-4.218719,-3.081612,0.6215627,1.147071,0.4691806,-2.046489,-0.3689656,41,2.2,-0.02811757,-0.04825839,0.1076399,-0.7441586,-4.486866,0.2827449,0.6988659,1.31534,0.4020452,0.07005651,-0.02896082,-0.01184602,-1.112941,0.2591864,0.03513695,0.8229597,1.369616,0.2403269,0.4645745,1.156432,0.26259,285.8307,132.7093,91.17888,True
3,1.611114,-0.3032535,0.1448243,-0.2766824,-1.213778,-4.220861,-3.076588,0.62095,1.147709,0.4693894,-2.050781,-0.386257,50.6,1.8,-0.02817868,-0.06848577,0.1001446,-0.7437319,-4.48931,0.2848938,0.6987124,1.315398,0.401998,0.05908137,-0.0331412,-0.0383636,-1.114336,0.2584264,0.03509194,0.8231285,1.369703,0.2402194,0.4643103,1.158573,0.2627741,286.154,131.3667,92.53974,True
3,1.622225,-0.3214231,0.1541741,-0.3012316,-1.20977,-4.223395,-3.071506,0.620084,1.148357,0.4694645,-2.05533,-0.4093396,50.6,1.8,-0.02187006,-0.08870839,0.08940603,-0.7436238,-4.491996,0.2869048,0.6984531,1.315512,0.4018786,0.04193577,-0.0277655,-0.04666187,-1.115124,0.2583724,0.03525546,0.8229208,1.369618,0.2400932,0.464018,1.160792,0.2629892,286.4987,130.1073,93.82925,True
3,1.633336,-0.3438616,0.1699146,-0.3226345,-1.205652,-4.226154,-3.065912,0.6191304,1.149116,0.4696324,-2.059681,-0.3910823,50.6,1.8,-0.03365268,-0.0833609,0.07990982,-0.7432952,-4.493304,0.2886238,0.6981925,1.315623,0.401758,0.02285773,-0.02563464,-0.03896433,-1.115286,0.2581981,0.03565999,0.8228058,1.369587,0.2399657,0.4637501,1.163098,0.2632332,286.8429,128.914,95.08172,True
3,1.644447,-0.3577971,0.1974386,-0.340949,-1.201575,-4.229891,-3.060145,0.6181582,1.149933,0.4698293,-2.064594,-0.4426002,50.6,1.8,-0.04745764,-0.06951731,0.08642305,-0.7422965,-4.494152,0.2903125,0.6978822,1.315767,0.401582,0.01221988,-0.02136461,-0.03775275,-1.115638,0.2581098,0.0359066,0.8225451,1.369591,0.2397726,0.4635333,1.165516,0.263465,287.2303,127.7406,96.32845,True
3,1.655559,-0.369583,0.2186282,-0.3528243,-1.197646,-4.233607,-3.05437,0.6170911,1.15079,0.4700751,-2.069109,-0.4056704,50.6,1.8,-0.05678131,-0.03443101,0.1227773,-0.7396498,-4.494175,0.2912398,0.6974431,1.315976,0.4014204,0.006962899,-0.01817751,-0.03235425,-1.115867,0.258055,0.03599529,0.822338,1.369618,0.2396691,0.4632727,1.16809,0.2635952,287.6771,126.4538,97.64413,True
3,1.66667,-0.394194,0.2546257,-0.373328,-1.193177,-4.23848,-3.047357,0.6159282,1.151722,0.4702544,-2.074334,-0.4708152,46.4,1.2,-0.06297129,-0.01424454,0.1505554,-0.7371411,-4.494608,0.292438,0.6971774,1.316028,0.4012783,-0.005704407,-0.01285876,-0.02366015,-1.115854,0.258161,0.03633297,0.82208,1.369672,0.2395754,0.4629581,1.170823,0.2636583,288.1645,125.1748,98.89037,True
3,1.677781,-0.4198712,0.2916784,-0.395965,-1.18855,-4.243796,-3.039938,0.6147605,1.1526,0.4705067,-2.079574,-0.4714295,46.4,1.2,-0.08192611,0.01979199,0.1805845,-0.733793,-4.493898,0.2935011,0.6968234,1.316273,0.4010382,-0.01198297,-0.005413067,-0.0150405,-1.115795,0.2585021,0.03649037,0.8219315,1.36972,0.2394667,0.4625862,1.173714,0.263743,288.6834,123.9084,100.1042,True
3,1.688892,-0.4519133,0.3223779,-0.4100292,-1.18398,-4.249258,-3.031823,0.6136016,1.153661,0.4706199,-2.084122,-0.4081815,46.4,1.2,-0.1137078,0.05064873,0.2043057,-0.7304662,-4.493061,0.2951621,0.6964186,1.316604,0.4008546,-0.01507665,0.004154168,-0.007514385,-1.115583,0.2589278,0.03660116,0.8217508,1.369751,0.2393014,0.462135,1.176751,0.2639081,289.2264,122.6176,101.3679,True
3,1.700003,-0.4871732,0.3583606,-0.4305159,-1.179148,-4.255497,-3.022947,0.6122839,1.154862,0.4707766,-2.089313,-0.4673966,46.4,1.2,-0.1380351,0.05699786,0.2289894,-0.7270344,-4.493306,0.2977172,0.6960846,1.316954,0.4006634,-0.01619379,0.00417831,-0.01175409,-1.115752,0.2591177,0.03670315,0.8213941,1.369717,0.2391229,0.461545,1.179943,0.2641661,289.8292,121.3679,102.6475,True
3,1.711114,-0.5085193,0.3699332,-0.4422989,-1.17441,-4.261024,-3.014476,0.6111387,1.15614,0.4708202,-2.094434,-0.4601967,35.3,0.9,-0.1474831,0.05270248,0.249291,-0.7236139,-4.494274,0.3003372,0.6957603,1.317319,0.4004085,-0.02182065,-0.01596055,-0.03413429,-1.117075,0.2585691,0.03742886,0.8214052,1.369728,0.238929,0.4608584,1.183272,0.2645661,290.4398,120.1873,103.9302,True
3,1.722225,-0.5522852,0.3995278,-0.459527,-1.169484,-4.267753,-3.004214,0.6098709,1.15729,0.4709373,-2.099936,-0.494923,35.3,0.9,-0.1674712,0.0281372,0.286669,-0.7194977,-4.49691,0.3048915,0.6954787,1.31769,0.4001625,-0.02842217,-0.01909246,-0.05110714,-1.118201,0.2583057,0.03807761,0.8212562,1.369735,0.2387841,0.4600704,1.186798,0.2650372,291.038,119.1484,105.1409,True
3,1.733337,-0.6014103,0.4462203,-0.4673048,-1.164936,-4.275651,-2.992661,0.6087469,1.158561,0.471036,-2.106256,-0.5693427,35.3,0.9,-0.1737861,0.002546065,0.2983854,-0.7162114,-4.49973,0.3091283,0.6952907,1.318058,0.3999004,-0.03613315,-0.01791171,-0.07126372,-1.119855,0.2588732,0.03863634,0.8212906,1.369673,0.2386274,0.4592261,1.190571,0.2655444,291.6451,118.1886,106.3216,True
3,1.744448,-0.6495028,0.5240122,-0.4540153,-1.161755,-4.285638,-2.979953,0.6074492,1.159856,0.4712884,-2.111355,-0.4569588,35.3,0.9,-0.1705909,-0.01450121,0.2983266,-0.713357,-4.502182,0.3126743,0.6949891,1.318377,0.3996565,-0.03844018,-0.01253302,-0.08612487,-1.121129,0.2590245,0.03906032,0.8207364,1.369475,0.2384117,0.4584947,1.194545,0.2660832,292.2778,117.1404,107.6299,True
3,1.755559,-0.7008381,0.6252812,-0.433466,-1.159297,-4.297318,-2.965961,0.6061689,1.161151,0.4713218,-2.116984,-0.5063323,35.3,0.9,-0.1705965,-0.03261122,0.2982911,-0.7105026,-4.505164,0.3168437,0.6947283,1.318724,0.3994308,-0.04172549,-0.008246251,-0.09352525,-1.122358,0.2591104,0.03964781,0.8205411,1.369483,0.2382045,0.4578985,1.198711,0.2666172,292.9999,116.007,108.9903,True
3,1.76667,-0.7265375,0.6816397,-0.4392211,-1.156009,-4.308514,-2.952529,0.6048342,1.162411,0.4713631,-2.123355,-0.5734747,29.3,0.6,-0.1674548,-0.0592321,0.2918211,-0.7081095,-4.508707,0.3212768,0.694338,1.319058,0.3990798,-0.03749142,-0.005094307,-0.09569161,-1.123439,0.2585185,0.04023291,0.8200799,1.369219,0.2380047,0.4574148,1.203143,0.2671457,293.7893,114.9009,110.2539,True
3,1.777781,-0.7703238,0.7349006,-0.431049,-1.15355,-4.320139,-2.937896,0.6033999,1.163862,0.4714003,-2.129628,-0.5638183,29.3,0.6,-0.1717064,-0.06562596,0.293971,-0.7051981,-4.51168,0.3256258,0.6940393,1.319414,0.3988142,-0.03226741,-0.01572702,-0.1032428,-1.124779,0.2580313,0.04060096,0.819837,1.369291,0.2378268,0.4569068,1.207968,0.2677282,294.6344,113.7011,111.5722,True
3,1.788892,-0.8150931,0.7443372,-0.4374574,-1.150372,-4.330422,-2.923195,0.6018977,1.16535,0.4712977,-2.136911,-0.656429,29.3,0.6,-0.1918827,-0.06989823,0.3026266,-0.7020348,-4.514818,0.3307763,0.6938031,1.319782,0.39854,-0.03227418,-0.02109553,-0.1043148,-1.12588,0.2569375,0.04126648,0.8196415,1.369205,0.2376454,0.4563113,1.213219,0.2684311,295.5344,112.3738,113.144,True
3,1.800003,-0.8587844,0.7505748,-0.4459789,-1.147162,-4.340858,-2.90807,0.6003587,1.1668,0.4713058,-2.142948,-0.5417923,29.3,0.6,-0.2194797,-0.07204908,0.3177308,-0.6985024,-4.518157,0.3367615,0.6935019,1.3201,0.3982847,-0.04094798,-0.02424574,-0.1159347,-1.127532,0.2565881,0.0422625,0.8194706,1.369076,0.2375977,0.4557211,1.218734,0.2693159,296.4989,110.9836,114.8805,True
3,1.811115,-0.8907558,0.7504259,-0.4555196,-1.143941,-4.351163,-2.892855,0.5988805,1.168272,0.4711914,-2.149325,-0.5736639,29.3,0.6,-0.238631,-0.08590163,0.3220985,-0.6954536,-4.522221,0.3431536,0.6931689,1.320464,0.3980186,-0.04640391,-0.01250837,-0.1275558,-1.129429,0.256613,0.04295705,0.8195519,1.369089,0.2374971,0.455126,1.224455,0.2703193,297.4527,109.6263,116.6484,True
3,1.822226,-0.9526084,0.7725223,-0.4737274,-1.140624,-4.36281,-2.875386,0.5971959,1.169715,0.471024,-2.156079,-0.6077655,18,0.9,-0.2578093,-0.1125242,0.3232484,-0.6927638,-4.527328,0.3506592,0.6927972,1.32081,0.3978004,-0.05618469,0.007803235,-0.1454838,-1.13163,0.2576191,0.04341326,0.8194144,1.368963,0.2374585,0.4546377,1.230245,0.2713491,298.4245,108.3305,118.4053,True
3,1.833337,-0.978218,0.7873348,-0.4802026,-1.137803,-4.374384,-2.858821,0.5956484,1.171229,0.4708889,-2.163002,-0.6231102,18,0.9,-0.2727463,-0.128487,0.3211876,-0.690156,-4.531914,0.3577214,0.6923552,1.321138,0.3975556,-0.06271468,0.01956047,-0.1581469,-1.133732,0.2582535,0.0439885,0.8193597,1.368829,0.2373896,0.4543505,1.235972,0.2723441,299.4373,107.1364,120.0325,True
3,1.844448,-1.008109,0.8160177,-0.4835871,-1.135439,-4.38692,-2.841269,0.5938748,1.172711,0.4707491,-2.168328,-0.4770679,18,0.9,-0.2833607,-0.1252984,0.3265949,-0.6870375,-4.535964,0.3643724,0.6919051,1.321442,0.3973041,-0.06378863,0.02382201,-0.1591956,-1.13562,0.258672,0.04453924,0.8192939,1.368825,0.2372625,0.4542531,1.241582,0.2731956,300.5143,106.0505,121.498,True
3,1.855559,-1.028375,0.8351861,-0.4805237,-1.133485,-4.399103,-2.824155,0.5921755,1.174288,0.4705386,-2.176003,-0.6930953,18,0.9,-0.2918811,-0.1082581,0.3266861,-0.6839104,-4.539015,0.3702508,0.6913838,1.321705,0.3970652,-0.06682085,0.03444063,-0.1463384,-1.136764,0.2595354,0.04505669,0.8191302,1.368709,0.2372246,0.4542449,1.24713,0.2738199,301.65,105.1406,122.7029,True
3,1.86667,-1.045461,0.8661827,-0.4658267,-1.132541,-4.412088,-2.806483,0.5902894,1.175824,0.4703281,-2.182409,-0.5751053,7.8,0.4,-0.3090584,-0.1018237,0.3076449,-0.6816372,-4.542005,0.3765774,0.6907802,1.322101,0.3968141,-0.06675959,0.04187995,-0.1420591,-1.138264,0.2603172,0.04546735,0.8189726,1.368678,0.2371449,0.4543521,1.252602,0.2742887,302.8033,104.3437,123.71,True
3,1.877781,-1.04735,0.7618437,-0.4606893,-1.129737,-4.419309,-2.79167,0.5882114,1.177555,0.4700482,-2.189276,-0.6187503,7.8,0.4,-0.3187397,-0.09540325,0.293879,-0.679268,-4.545093,0.3827852,0.6901019,1.322429,0.3964865,-0.07424229,0.05788082,-0.1451086,-1.139869,0.2617379,0.04602795,0.818792,1.368515,0.2371142,0.454473,1.258049,0.2746515,303.9753,103.6154,124.6015,True
3,1.888893,-1.029352,0.8431796,-0.4209079,-1.130787,-4.433228,-2.775127,0.586484,1.179085,0.4697454,-2.195502,-0.5597957,7.8,0.4,-0.3336526,-0.09113187,0.2929316,-0.6765494,-4.548291,0.389384,0.689536,1.322882,0.3961854,-0.09343086,0.07494365,-0.1480138,-1.141555,0.2631247,0.04704874,0.8185064,1.368461,0.2371259,0.4545812,1.26348,0.2749847,305.1349,102.9393,125.44,True
3,1.900004,-1.05932,0.9210421,-0.4033753,-1.131998,-4.448375,-2.755883,0.5843657,1.180745,0.4695368,-2.202097,-0.5942763,7.8,0.4,-0.3655364,-0.06237771,0.3028038,-0.6729802,-4.550181,0.3959692,0.6887391,1.32327,0.3957684,-0.1040249,0.08665988,-0.1435811,-1.142848,0.2646639,0.04799869,0.8183109,1.368347,0.2370744,0.45464,1.268893,0.2753438,306.2439,102.2284,126.3588,True
3,1.911115,-1.087128,0.9979335,-0.3751973,-1.134247,-4.463524,-2.736738,0.5824884,1.182407,0.4691164,-2.209103,-0.6319699,7.8,0.4,-0.3951788,-0.0485736,0.3275431,-0.6690255,-4.553147,0.4034729,0.6880534,1.323706,0.3953555,-0.1092805,0.1026296,-0.1392123,-1.144262,0.266522,0.04858644,0.8180969,1.368387,0.2370937,0.4547484,1.274149,0.2756594,307.2694,101.5231,127.2575,True
3,1.922226,-1.096743,1.032195,-0.3531097,-1.136182,-4.477323,-2.718761,0.5804325,1.183976,0.468807,-2.212609,-0.3113485,3,0.3,-0.4440181,-0.01451004,0.3503227,-0.6645354,-4.554727,0.4111305,0.6871345,1.32421,0.3949347,-0.1080731,0.1196343,-0.1285207,-1.145235,0.2685039,0.04896967,0.8179008,1.36839,0.2371352,0.454724,1.279374,0.2760436,308.4119,101.0305,127.9192,True
3,1.933337,-1.102069,1.039706,-0.3467713,-1.13774,-4.490658,-2.700953,0.5786156,1.185779,0.4684517,-2.217848,-0.4731511,3,0.3,-0.4737205,0.01848824,0.3665751,-0.6599553,-4.555845,0.4181152,0.6863544,1.324648,0.3944964,-0.1155125,0.1345566,-0.1283823,-1.146522,0.2707308,0.04956942,0.8176491,1.368377,0.237175,0.4543632,1.284786,0.2766024,309.572,100.6594,128.536,True
3,1.944448,-1.119144,1.066404,-0.3373622,-1.140273,-4.505109,-2.681888,0.5762459,1.187657,0.4681423,-2.223219,-0.4840915,3,0.3,-0.5077086,0.03977787,0.3807054,-0.6552644,-4.557496,0.4261079,0.6853083,1.325069,0.3938832,-0.1261538,0.1430938,-0.1282257,-1.14787,0.2728755,0.05044746,0.8173931,1.368255,0.2372053,0.4537641,1.290371,0.2774633,310.6292,100.2664,129.3594,True
3,1.955559,-1.137278,1.072837,-0.329877,-1.142815,-4.518715,-2.663028,0.5741634,1.189567,0.4677351,-2.22734,-0.3704638,3,0.3,-0.5524787,0.08774437,0.3747193,-0.6507195,-4.5563,0.432712,0.6840847,1.32562,0.39346,-0.1441365,0.1579974,-0.119437,-1.148794,0.275341,0.05158436,0.8170872,1.368203,0.2373033,0.4530731,1.295936,0.2786537,311.5988,99.82588,130.3787,True
3,1.966671,-1.153256,1.081349,-0.3299264,-1.145347,-4.532609,-2.644025,0.5718822,1.191383,0.4673455,-2.230044,-0.2422327,0.3,0.1,-0.6003967,0.1314372,0.3751436,-0.6457958,-4.555065,0.4397726,0.6828824,1.326054,0.3929496,-0.1471118,0.1899071,-0.1043815,-1.149236,0.2787502,0.05183364,0.8167353,1.3682,0.2374048,0.4523232,1.301452,0.2800226,312.5602,99.45863,131.3846,True
3,1.977782,-1.174567,1.079167,-0.3319748,-1.147892,-4.546103,-2.624768,0.5694373,1.193406,0.4667304,-2.232859,-0.2535817,0.3,0.1,-0.6142186,0.1655195,0.3774416,-0.6407449,-4.553881,0.4460148,0.6816439,1.326607,0.3924432,-0.1373415,0.2282167,-0.09265485,-1.149608,0.2829984,0.05130313,0.8163873,1.368161,0.2375925,0.451408,1.307034,0.2814318,313.5543,99.11683,132.3467,True
3,1.988893,-1.181956,1.058943,-0.3307463,-1.150337,-4.558686,-2.606341,0.5669534,1.195391,0.4662502,-2.235481,-0.2360126,0.3,0.1,-0.6056501,0.1772107,0.3837982,-0.6357445,-4.553866,0.4523762,0.6804606,1.327089,0.3919785,-0.1330869,0.2537787,-0.0958244,-1.150608,0.2868738,0.05099075,0.8159664,1.368114,0.23771,0.4504403,1.312582,0.2828464,314.506,98.80724,133.3191,True
3,2.000004,-1.185046,1.014233,-0.3271761,-1.152529,-4.569915,-2.588515,0.5644224,1.197678,0.4657197,-2.237374,-0.1698225,0.3,0.1,-0.5895022,0.1835465,0.4071354,-0.6300315,-4.554464,0.4588342,0.6792414,1.327781,0.3914757,-0.1407487,0.2549121,-0.1127717,-1.152263,0.2901109,0.05149435,0.8155918,1.36809,0.2378008,0.4494396,1.318051,0.2841725,315.4816,98.52718,134.2673,True
3,2.011115,-1.190277,0.9801385,-0.3290255,-1.154625,-4.581158,-2.570658,0.5619907,1.199875,0.4651289,-2.23979,-0.2182887,0.3,0.1,-0.5722748,0.1760385,0.4315057,-0.6242721,-4.556084,0.4658098,0.6779717,1.328398,0.3909371,-0.1569533,0.2453946,-0.1307195,-1.154251,0.2927662,0.05264696,0.8151724,1.368064,0.2378983,0.4483985,1.323471,0.2852802,316.4438,98.28184,135.1398,True
3,2.022226,-1.196527,0.9194639,-0.3221422,-1.156432,-4.590769,-2.553329,0.5594636,1.202198,0.4645176,-2.241605,-0.1631242,0,0.9,-0.567631,0.1727264,0.4847342,-0.6171641,-4.559069,0.4741801,0.6767009,1.329209,0.3902054,-0.1751443,0.2390507,-0.1369084,-1.155782,0.2956423,0.05395165,0.8148147,1.368043,0.237993,0.4473999,1.328727,0.2861654,317.3599,98.06692,135.8795,True
3,2.033337,-1.199675,0.8960346,-0.3208761,-1.158745,-4.60125,-2.535717,0.5571561,1.204347,0.4638765,-2.243042,-0.1291735,0,0.9,-0.6087586,0.1779298,0.5425664,-0.6094122,-4.562074,0.4845275,0.6754631,1.329757,0.3895962,-0.1888701,0.2432966,-0.1271388,-1.156739,0.2988136,0.05524515,0.8143579,1.368073,0.238085,0.4464675,1.333841,0.2867734,318.2213,97.89744,136.4855,True
3,2.044448,-1.209178,0.8652394,-0.3067611,-1.161392,-4.610966,-2.517966,0.554656,1.206554,0.4631445,-2.24416,-0.1004993,0,0.9,-0.627749,0.1661642,0.5693103,-0.6023138,-4.565751,0.495186,0.6741635,1.330448,0.3889272,-0.1875642,0.2474856,-0.1079228,-1.156607,0.3018774,0.05591706,0.8140908,1.368169,0.2382951,0.4456619,1.338763,0.2871252,319.0764,97.77743,136.9807,True
3,2.055559,-1.211237,0.8515502,-0.2906514,-1.164742,-4.62095,-2.500448,0.5522422,1.208724,0.4625342,-2.245295,-0.1022578,0,0.9,-0.6596037,0.1768187,0.5770483,-0.5953422,-4.567804,0.5049484,0.6728442,1.331062,0.388334,-0.1851384,0.2548659,-0.08449063,-1.156543,0.3052969,0.05653731,0.8135884,1.368202,0.2383986,0.4450124,1.343508,0.2872275,319.9236,97.65926,137.3855,True
3,2.06667,-1.211209,0.8474008,-0.2767689,-1.168304,-4.630763,-2.483025,0.5497222,1.210911,0.4617674,-2.245798,-0.04461152,0,0.9,-0.669226,0.1864197,0.5718091,-0.5887402,-4.569498,0.5141661,0.6714407,1.331786,0.387692,-0.1988324,0.2612479,-0.07257201,-1.156664,0.3088991,0.05771017,0.8128583,1.368148,0.2384553,0.4445337,1.348083,0.2871591,320.8138,97.57692,137.7043,True
3,2.077781,-1.204815,0.8796854,-0.2418812,-1.173792,-4.641264,-2.465794,0.5473617,1.213044,0.4609535,-2.246907,-0.100554,0,5,-0.6693338,0.1907026,0.5569046,-0.5827476,-4.571054,0.5228627,0.6699862,1.332553,0.3869886,-0.2223847,0.2645089,-0.08185581,-1.157642,0.3124304,0.05956772,0.8123386,1.368177,0.2384973,0.4441606,1.35262,0.2869618,321.7348,97.4739,137.9709,True
3,2.088892,-1.201641,0.894657,-0.2356142,-1.178573,-4.651803,-2.448364,0.5449031,1.215208,0.4601986,-2.247669,-0.06835524,0,5,-0.6779596,0.1885914,0.5346458,-0.5772343,-4.573136,0.5320871,0.6683999,1.333383,0.3863409,-0.2439773,0.2560796,-0.1040578,-1.160148,0.3153757,0.06195551,0.8112081,1.368272,0.238605,0.4438594,1.357168,0.2867639,322.683,97.36125,138.2239,True
3,2.100003,-1.183564,0.9557422,-0.1999629,-1.185811,-4.663146,-2.431717,0.542573,1.217268,0.4593942,-2.248691,-0.09255694,0,5,-0.6981387,0.2088268,0.5422876,-0.5702052,-4.574241,0.541369,0.6667262,1.334272,0.385437,-0.25576,0.2529119,-0.1081779,-1.161188,0.3184516,0.0640136,0.8106658,1.36819,0.2387414,0.4435537,1.361816,0.2866339,323.6345,97.23634,138.5281,True
3,2.111114,-1.170791,0.9868525,-0.1789306,-1.192667,-4.673803,-2.415345,0.5402812,1.219404,0.458555,-2.249005,-0.02761818,0,5,-0.7000719,0.2194307,0.56896,-0.5626109,-4.576793,0.5512693,0.6652911,1.335226,0.3846774,-0.2727597,0.2667703,-0.10579,-1.161973,0.3222471,0.06598301,0.8104178,1.368547,0.2387884,0.443208,1.36659,0.2866984,324.5779,97.11492,138.9193,True
3,2.122225,-1.148416,1.012747,-0.1450894,-1.200335,-4.683772,-2.39985,0.5379751,1.221421,0.4577305,-2.250387,-0.1259926,0,7.2,-0.6893324,0.2385806,0.5806415,-0.5550054,-4.578306,0.5597517,0.663733,1.336083,0.3837941,-0.2886345,0.280625,-0.09916151,-1.162602,0.326279,0.0679905,0.8098766,1.368424,0.2388532,0.4427937,1.371457,0.2870262,325.5172,97.01408,139.3818,True
3,2.133336,-1.124975,1.0333,-0.1122617,-1.208489,-4.69343,-2.384725,0.535755,1.223381,0.4567969,-2.25073,-0.03002831,0,7.2,-0.6840592,0.2311232,0.5741965,-0.5486991,-4.580976,0.569419,0.6621999,1.336935,0.3829458,-0.296828,0.3029202,-0.07444577,-1.161797,0.3306722,0.06967868,0.8095628,1.368561,0.2389464,0.4422891,1.376422,0.2877006,326.4053,96.90347,139.9631,True
3,2.144447,-1.096171,1.045403,-0.07296658,-1.217076,-4.702425,-2.370367,0.5333669,1.225392,0.4557791,-2.251447,-0.06533203,0,7.2,-0.6873049,0.2194152,0.5678046,-0.5424731,-4.584076,0.5798194,0.6605548,1.33785,0.382051,-0.3050871,0.3156513,-0.05405829,-1.161372,0.3349808,0.07162651,0.8089181,1.368576,0.2389376,0.4416976,1.381437,0.2886992,327.2168,96.7598,140.6993,True
3,2.155558,-1.079113,1.049827,-0.05704483,-1.225299,-4.711445,-2.355926,0.5309639,1.227368,0.4548609,-2.251794,-0.0311248,0,7.2,-0.6979047,0.2013044,0.5752956,-0.5360363,-4.588397,0.5915517,0.658914,1.338716,0.3811841,-0.3069452,0.318782,-0.03264627,-1.159992,0.3388287,0.0733557,0.8082106,1.368541,0.2389178,0.4410489,1.386413,0.2899614,327.9617,96.57045,141.566,True
3,2.166669,-1.054542,1.043739,-0.0283041,-1.233811,1.563567,-2.342278,0.5285537,1.229342,0.4540241,-2.252305,-0.04641482,0,7.2,-0.7159444,0.2055488,0.5850228,-0.5290071,-4.592066,0.6033168,0.6572832,1.339563,0.3803163,-0.3034754,0.3261624,-0.01129245,-1.15844,0.3428932,0.07488303,0.8074712,1.368477,0.2389879,0.4403513,1.391336,0.2913522,328.6654,96.36704,142.5157,True
3,2.17778,-1.03205,1.020589,-0.003727973,-1.241872,1.556212,-2.329251,0.5262016,1.231215,0.4532535,-2.252196,0.01031843,0.3,9.5,-0.7265449,0.2332571,0.5904846,-0.5214341,-4.593735,0.6132205,0.6556517,1.340371,0.3795466,-0.2980505,0.3325242,-0.003880806,-1.157929,0.3471388,0.07629504,0.8067597,1.36854,0.2389941,0.439588,1.396206,0.2927301,329.3728,96.15585,143.4719,True
3,2.188891,-1.01068,1.001635,0.01877123,-1.250207,1.549388,-2.316587,0.5238529,1.233019,0.4522343,-2.252574,-0.03482264,0.3,9.5,-0.7169282,0.2439016,0.5936337,-0.5141819,-4.596486,0.6232074,0.6540641,1.341067,0.3785863,-0.2757521,0.3335923,-0.01048046,-1.157316,0.3513694,0.07677387,0.8058279,1.368484,0.2390206,0.4387724,1.40093,0.2940219,330.0704,95.99456,144.3223,True
3,2.200002,-1.004248,0.9868116,0.02847102,-1.258386,1.542484,-2.3035,0.5215602,1.234818,0.4512148,-2.252842,-0.02424469,0.3,9.5,-0.7084336,0.2481579,0.5903819,-0.5073428,-4.599613,0.6335719,0.6525314,1.341822,0.3777249,-0.271578,0.3261551,-0.01694993,-1.157484,0.3551329,0.07815499,0.8050368,1.368665,0.2391024,0.4379423,1.405443,0.2952061,330.7132,95.85132,145.0637,True
3,2.211113,-0.9903265,0.988035,0.03264505,-1.267016,1.53453,-2.290527,0.5194576,1.236473,0.4503374,-2.252906,-0.005686893,0.3,9.5,-0.6869581,0.2481026,0.6147203,-0.4996793,-4.604301,0.6446258,0.6510615,1.342464,0.3768115,-0.2738888,0.3166216,-0.03075795,-1.157551,0.3587638,0.07980082,0.8042225,1.368647,0.2391179,0.4371396,1.409691,0.2962575,331.3029,95.71036,145.7593,True
3,2.222224,-0.9849656,0.9774411,0.03805816,-1.275219,1.527851,-2.277924,0.5173051,1.238079,0.4492471,-2.252367,0.04926727,0,10.6,-0.6697928,0.2363324,0.632681,-0.4923391,-4.610275,0.6566508,0.649541,1.34312,0.3758297,-0.2760499,0.3209038,-0.03391246,-1.15771,0.3629369,0.08119552,0.8033416,1.368839,0.2391489,0.436376,1.413744,0.297101,331.8746,95.58179,146.4356,True
3,2.233335,-0.9806558,0.9572529,0.04355299,-1.283106,1.521773,-2.265626,0.5154817,1.239728,0.4481561,-2.25261,-0.02274844,0,10.6,-0.650736,0.218248,0.6165269,-0.4863944,-4.615469,0.667683,0.6480607,1.343628,0.3749137,-0.2707663,0.3241088,-0.03818835,-1.157535,0.3669836,0.08222936,0.8022884,1.368755,0.2391987,0.4356871,1.417635,0.2977272,332.4572,95.53973,146.991,True
3,2.244446,-0.9752474,0.9403414,0.05326584,-1.29132,1.515861,-2.253536,0.5133609,1.241358,0.4472322,-2.252507,0.009575355,0,10.6,-0.6361148,0.2044782,0.5759126,-0.4814164,-4.61901,0.6774038,0.6464927,1.344244,0.3740914,-0.2675333,0.3347591,-0.03605912,-1.157473,0.3715327,0.08324829,0.8012835,1.368951,0.2392194,0.4351254,1.421356,0.2982356,333.0643,95.56678,147.4371,True
3,2.255557,-0.9729627,0.8893784,0.06319803,-1.29832,1.511027,-2.241568,0.5112505,1.242917,0.4464364,-2.25251,-0.000394813,0,10.6,-0.6255747,0.1821159,0.5630088,-0.4760001,-4.624985,0.6894476,0.6449926,1.344851,0.3732574,-0.2568597,0.3368747,-0.03508874,-1.157203,0.3756668,0.08396094,0.8003432,1.369019,0.239177,0.4347218,1.424969,0.2986452,333.632,95.53422,147.9052,True
3,2.266668,-0.9675066,0.8201905,0.06799993,-1.304138,1.507487,-2.230131,0.5091438,1.244416,0.4454832,-2.25256,-0.004565105,0,10.6,-0.6044028,0.1672322,0.5447177,-0.4709816,-4.63032,0.7001605,0.6434644,1.345423,0.3724048,-0.2471646,0.3411036,-0.02666888,-1.156867,0.380016,0.08464884,0.7995562,1.369037,0.2391057,0.4345244,1.428514,0.2989682,334.205,95.48962,148.3452,True
3,2.277779,-0.9599137,0.7627875,0.07589617,-1.310084,1.504047,-2.218951,0.5070814,1.245916,0.4445493,-2.252292,0.0244799,0,9.5,-0.5897354,0.1598393,0.5105084,-0.4666492,-4.634136,0.7095423,0.6420147,1.34598,0.3715446,-0.2352689,0.3357149,-0.01191849,-1.156168,0.3838092,0.08526563,0.7985958,1.369106,0.2389796,0.4344976,1.431999,0.2992786,334.8864,95.40833,148.7432,True
3,2.28889,-0.9480643,0.6935451,0.07218495,-1.314843,1.501282,-2.20827,0.5050814,1.247491,0.4436133,-2.25237,-0.00737906,0,9.5,-0.5727028,0.137459,0.5092853,-0.4618944,-4.64122,0.7216349,0.6406226,1.346735,0.3706365,-0.2415927,0.3080103,-0.003386643,-1.15554,0.3866442,0.08709416,0.7977999,1.369151,0.2387145,0.4346105,1.435327,0.2996111,335.5917,95.24833,149.1814,True
3,2.300001,-0.9383938,0.6509525,0.06929772,-1.319981,1.498124,-2.197478,0.5030715,1.249045,0.4426889,-2.252543,-0.01576542,0,9.5,-0.5651481,0.136372,0.5230816,-0.4561175,-4.647996,0.7337805,0.6392558,1.347288,0.3697066,-0.2468458,0.3069327,0.003065899,-1.155022,0.3903512,0.0885589,0.796906,1.369129,0.238585,0.4348206,1.438466,0.2998852,336.2759,95.03838,149.668,True
3,2.311112,-0.9127234,0.5891911,0.06657207,-1.324036,1.495995,-2.187628,0.5010839,1.250642,0.441714,-2.2528,-0.02344375,0,9.5,-0.5693927,0.1374272,0.5252438,-0.4506803,-4.654566,0.7462382,0.6378939,1.347831,0.3687947,-0.2457603,0.3101254,0.004151251,-1.154384,0.3943104,0.08961697,0.7960298,1.369104,0.2384667,0.4350778,1.441461,0.3000352,336.9371,94.85257,150.1192,True
3,2.322223,-0.8859602,0.5210474,0.06066063,-1.327261,1.494074,-2.178264,0.4991562,1.252261,0.4407945,-2.252714,0.008054148,0,7.9,-0.5693591,0.1512789,0.5295333,-0.4447809,-4.660341,0.7578512,0.6365521,1.34838,0.3679273,-0.2407649,0.2974393,-0.02148174,-1.154792,0.3978455,0.0906564,0.7953116,1.369061,0.2384982,0.4353438,1.44434,0.3000048,337.5836,94.702,150.4902,True
3,2.333334,-0.8549708,0.4592854,0.05793263,-1.330093,1.492783,-2.16937,0.4972511,1.253846,0.439759,-2.253265,-0.05063975,0,7.9,-0.5555688,0.1502197,0.5209165,-0.4396208,-4.666609,0.7692407,0.6352918,1.349018,0.3670747,-0.2433657,0.2687968,-0.0567033,-1.156375,0.400294,0.09250144,0.7944635,1.369017,0.23841,0.4355786,1.447145,0.2998018,338.2214,94.58543,150.7773,True
3,2.344445,-0.825062,0.413532,0.05502652,-1.333115,1.491093,-2.160554,0.495487,1.2553,0.4388311,-2.253608,-0.03097495,0,7.9,-0.5480961,0.1288946,0.5177236,-0.434409,-4.676254,0.7838657,0.6339796,1.349844,0.3662956,-0.2382646,0.2581985,-0.07385258,-1.157541,0.4032931,0.09385645,0.7936084,1.368984,0.2383115,0.4357642,1.449837,0.2994265,338.8157,94.45099,151.0255,True
3,2.355556,-0.7941164,0.3783759,0.04782311,-1.33605,1.489471,-2.152092,0.4937205,1.256742,0.4378417,-2.253759,-0.01369326,0,7.9,-0.5288688,0.1022209,0.5186656,-0.4297889,-4.686796,0.7985081,0.6327572,1.350249,0.3655341,-0.2140986,0.23378,-0.09973767,-1.158821,0.4055372,0.09448789,0.7928489,1.368992,0.2382591,0.4358773,1.452369,0.2988763,339.3639,94.3259,151.2223,True
3,2.366668,-0.7759658,0.3539051,0.04800111,-1.339016,1.488168,-2.143658,0.4920006,1.25823,0.4368653,-2.253729,0.002660167,0,7.9,-0.5215042,0.1022502,0.5047666,-0.4253127,-4.693977,0.8106284,0.6315925,1.350715,0.3647313,-0.1991768,0.2294803,-0.09777369,-1.159018,0.4084232,0.09509455,0.7921509,1.369021,0.2381794,0.4359113,1.454716,0.2981582,339.8611,94.22224,151.3616,True
3,2.377779,-0.7418184,0.3209279,0.04504573,-1.341439,1.487103,-2.136407,0.490335,1.259637,0.4359877,-2.253837,-0.01005729,0,8.2,-0.5131477,0.09375504,0.4812904,-0.4213771,-4.701349,0.8227855,0.630389,1.351322,0.3639054,-0.1849911,0.2293736,-0.07024765,-1.158594,0.4112352,0.09567619,0.7912265,1.369008,0.2380042,0.43588,1.456871,0.2973401,340.3242,94.17921,151.4218,True
3,2.38889,-0.7087386,0.2858632,0.05062699,-1.343584,1.486702,-2.129404,0.4886709,1.261046,0.4350467,-2.253584,0.02304833,0,8.2,-0.4982926,0.06819904,0.4747264,-0.418063,-4.710802,0.8365111,0.6291689,1.351775,0.3631575,-0.1868176,0.2367624,-0.0467542,-1.157958,0.4145254,0.09652468,0.7899995,1.368972,0.237886,0.4357941,1.458935,0.2964726,340.7637,94.15221,151.4487,True
3,2.400001,-0.6916701,0.2731087,0.05070859,-1.346104,1.485693,-2.122014,0.4869878,1.262403,0.4340923,-2.254446,-0.07919694,0,8.2,-0.4771905,0.02881682,0.4489356,-0.4160561,1.562576,0.8501045,0.6279277,1.352222,0.362335,-0.1899767,0.2335616,-0.04353486,-1.158158,0.4172865,0.0976472,0.7889795,1.368985,0.2376268,0.4356824,1.460984,0.2956102,341.1659,94.1144,151.4703,True
3,2.411112,-0.6628879,0.2625029,0.05076605,-1.348603,1.484818,-2.115468,0.485349,1.263708,0.4332161,-2.254368,0.007666632,0,8.2,-0.4561478,0.03102073,0.4125655,-0.4135639,1.557137,0.8594372,0.6267568,1.352589,0.3615525,-0.1943025,0.2335866,-0.04779169,-1.159096,0.4203354,0.09895135,0.7878165,1.369202,0.2374461,0.4355642,1.462955,0.2948113,341.5511,94.049,151.5165,True
3,2.422223,-0.6394626,0.2539634,0.05404035,-1.350971,1.484579,-2.108868,0.4836684,1.265071,0.4321835,-2.253819,0.04988919,0,8.2,-0.4380586,0.04805587,0.4082218,-0.4097694,1.55021,0.8700843,0.6255144,1.353012,0.3608336,-0.1900032,0.2335702,-0.04465216,-1.159254,0.4232087,0.09977746,0.7868429,1.369131,0.2373333,0.4354274,1.464881,0.2940719,341.9345,93.9537,151.6098,True
3,2.433334,-0.6085398,0.2488095,0.06896619,-1.353857,1.484368,-2.103284,0.4820517,1.266031,0.4314098,-2.25431,-0.0455257,0,9.4,-0.4316865,0.06296816,0.4060732,-0.4060096,1.543295,0.88111,0.6242855,1.353399,0.3600528,-0.1728047,0.2367251,-0.03213459,-1.159589,0.4264917,0.09996548,0.7856604,1.369208,0.2372038,0.4352627,1.46679,0.2933989,342.3297,93.88509,151.7176,True
3,2.444445,-0.5872334,0.2500349,0.07736977,-1.35685,1.483353,-2.0971,0.4804321,1.26729,0.4307635,-2.253917,0.03612068,0,9.4,-0.4306821,0.07150771,0.3975605,-0.4025826,1.536984,0.8916503,0.623065,1.35385,0.3592854,-0.1705163,0.2409426,-0.01936614,-1.159098,0.4295644,0.1006417,0.7846625,1.369153,0.2372084,0.4350681,1.468673,0.2928087,342.7111,93.80085,151.8502,True
3,2.455556,-0.5605831,0.2555707,0.09646784,-1.360348,1.483251,-2.09183,0.4788851,1.268238,0.4299607,-2.254603,-0.06318506,0,9.4,-0.4148226,0.07899632,0.381474,-0.3994736,1.531546,0.9007005,0.6219697,1.354211,0.3584628,-0.1725263,0.2483722,-0.008722037,-1.159229,0.4329651,0.1016081,0.7841148,1.369177,0.2371063,0.4348414,1.470514,0.2922819,343.0546,93.68135,152.0147,True
3,2.466667,-0.5318223,0.2652985,0.108082,-1.363933,1.483008,-2.086971,0.4775223,1.269114,0.4290764,-2.253977,0.05762053,0,9.4,-0.3977962,0.09817953,0.379246,-0.3956477,1.526105,0.9095199,0.6209507,1.354565,0.3576224,-0.1713586,0.2440711,0.0008179694,-1.158869,0.4355645,0.1025373,0.7834687,1.369336,0.2369351,0.4345754,1.472161,0.2918813,343.3995,93.59071,152.1391,True
3,2.477778,-0.5115865,0.2717985,0.1176034,-1.367557,1.482843,-2.081934,0.4760908,1.270046,0.4281936,-2.254336,-0.03366178,0,9.9,-0.3848717,0.08535427,0.399366,-0.3921611,1.516419,0.9223555,0.619867,1.354914,0.3569045,-0.1604425,0.2397254,0.02303879,-1.157621,0.4381962,0.102989,0.7825532,1.369235,0.2367547,0.4342515,1.473815,0.2916074,343.7275,93.53509,152.2475,True
3,2.488889,-0.4892061,0.2740323,0.1260932,-1.371078,1.482823,-2.077332,0.4745476,1.27099,0.4272873,-2.254541,-0.01861146,0,9.9,-0.3955474,0.07152729,0.3962111,-0.3894431,1.508089,0.93473,0.6188534,1.355187,0.3561108,-0.1561489,0.2418489,0.02616452,-1.157272,0.441253,0.1035059,0.7818577,1.369284,0.2365971,0.4339033,1.475407,0.2914805,343.9814,93.42572,152.4615,True
3,2.5,-0.4785399,0.2730451,0.1314219,-1.374608,1.48271,-2.072435,0.4731029,1.271921,0.4264576,-2.25407,0.04299953,0,9.9,-0.4083727,0.06728354,0.3899044,-0.3866473,1.500503,0.9466891,0.6177678,1.355584,0.3554964,-0.1508879,0.2439926,0.0207801,-1.156935,0.4442683,0.1038199,0.7809489,1.369253,0.2363799,0.4335532,1.476957,0.2914403,344.2001,93.30821,152.7632,True
3,2.511111,-0.4625403,0.2667398,0.1389166,-1.37785,1.482978,-2.067981,0.4715682,1.272864,0.425528,-2.254145,-0.007407929,0,9.9,-0.4052285,0.07262687,0.3834848,-0.3836044,1.493594,0.9574501,0.6167077,1.355934,0.3547833,-0.1434775,0.2418689,0.01747923,-1.156632,0.4471413,0.1040585,0.7800837,1.369275,0.236217,0.4332039,1.478534,0.2914075,344.4484,93.18432,153.0822,True
3,2.522222,-0.449727,0.2476271,0.1432988,-1.38043,1.483395,-2.063472,0.4700797,1.273831,0.4246843,-2.253634,0.04663388,0,9.9,-0.3892983,0.06624098,0.3780259,-0.3808981,1.485489,0.9688104,0.6156262,1.356249,0.3540995,-0.133953,0.2376154,0.01308614,-1.156366,0.4499227,0.1041834,0.7791603,1.369308,0.2360866,0.4328362,1.480129,0.2913336,344.7273,93.05135,153.3726,True
3,2.533333,-0.4422255,0.2188879,0.1445882,-1.382491,1.484132,-2.058969,0.468604,1.274776,0.4237747,-2.253722,-0.008573701,0,12,-0.3820455,0.07267706,0.3523965,-0.3785034,1.480465,0.9775712,0.6145926,1.356535,0.3533998,-0.1253751,0.2301314,0.0182789,-1.155769,0.4523753,0.1043136,0.7781711,1.369338,0.2358956,0.4324463,1.481719,0.2912008,344.9924,92.92869,153.6245,True
3,2.544444,-0.4379427,0.2039588,0.1415033,-1.384748,1.484553,-2.054348,0.4671205,1.275802,0.4228909,-2.253453,0.02452323,0,12,-0.3768464,0.05885687,0.336348,-0.3766147,1.473567,0.9880685,0.6135202,1.356915,0.3527262,-0.1221158,0.2215856,0.02460275,-1.155045,0.4546979,0.1047067,0.7772695,1.369344,0.2356453,0.4320308,1.483272,0.2909795,345.2454,92.79296,153.8637,True
3,2.555555,-0.4346927,0.1688203,0.1428515,-1.386116,1.485736,-2.049831,0.4655562,1.276779,0.4219532,-2.253186,0.02401746,0,12,-0.3737178,0.030112,0.3288078,-0.3753747,1.464522,1.000579,0.6125804,1.357323,0.3520358,-0.1264299,0.2056174,0.02245299,-1.154881,0.4565671,0.1056433,0.7762364,1.369258,0.2354193,0.4315946,1.484738,0.2906382,345.4701,92.65915,154.0683,True
3,2.566666,-0.4325176,0.1389561,0.1377704,-1.387227,1.486724,-2.045342,0.4640806,1.277764,0.421066,-2.252954,0.02101444,0,12,-0.366425,0.008843422,0.3063301,-0.3745843,1.457836,1.010542,0.6114771,1.35761,0.3513246,-0.1298256,0.1918254,0.00753423,-1.15515,0.4584845,0.106454,0.7753294,1.369192,0.2352149,0.431156,1.48612,0.2901378,345.6842,92.53973,154.2238,True
3,2.577777,-0.4271073,0.08347744,0.1275681,-1.386773,1.488192,-2.041296,0.4626209,1.278844,0.420167,-2.252774,0.01614158,0,12,-0.3632102,0.006712019,0.3094995,-0.3727195,1.449701,1.022085,0.6104063,1.358008,0.3506422,-0.1429509,0.1802118,-0.0189827,-1.156236,0.4603738,0.1077523,0.7744627,1.369268,0.2349937,0.4307289,1.487468,0.2894802,345.9139,92.43766,154.3213,True
3,2.588888,-0.4238735,0.05569181,0.1160739,-1.38693,1.489141,-2.036972,0.4612592,1.279826,0.4191823,-2.252721,0.004739586,7.8,57.9,-0.3642555,0.02484353,0.3127366,-0.3700984,1.442584,1.032899,0.6095425,1.35844,0.3498211,-0.1547755,0.1728056,-0.02634667,-1.156848,0.4625013,0.1091398,0.7735555,1.369347,0.2349012,0.4303225,1.488733,0.2886688,346.143,92.30951,154.3848,True
3,2.599999,-0.4238554,0.038551,0.1044979,-1.387291,1.489964,-2.032495,0.4598299,1.280805,0.4183314,-2.252973,-0.02320049,7.8,57.9,-0.3802483,0.06427914,0.3097391,-0.3665937,1.437581,1.042478,0.6084335,1.358824,0.3490512,-0.1505034,0.1770566,-0.02531821,-1.156816,0.4648238,0.1097691,0.7725928,1.369379,0.2347884,0.4299502,1.48991,0.2877062,346.3613,92.19116,154.4042,True
3,2.61111,-0.4206546,0.03531542,0.09919744,-1.387962,1.490709,-2.02812,0.4584296,1.281786,0.4173772,-2.252713,0.02388022,7.8,57.9,-0.3812711,0.07598998,0.3171996,-0.3637766,1.430641,1.053331,0.6073437,1.359231,0.3482788,-0.1482901,0.1802166,-0.01791148,-1.15692,0.4670308,0.1106248,0.7716504,1.369434,0.2345901,0.4296173,1.490989,0.286568,346.5739,92.07684,154.3796,True
3,2.622221,-0.4164123,0.04486228,0.09272908,-1.389133,1.49107,-2.023734,0.4570099,1.282616,0.4163814,-2.252462,0.02263847,7.8,57.9,-0.3769112,0.07170834,0.3310139,-0.3611486,1.421245,1.066201,0.6061995,1.359697,0.3475409,-0.1514378,0.1802177,-0.01360967,-1.15668,0.4693807,0.1115377,0.7706241,1.369479,0.2342405,0.4293239,1.491991,0.2852915,346.8086,92.01486,154.2821,True
3,2.633332,-0.4068557,0.06723297,0.09148555,-1.390932,1.491393,-2.019688,0.4555473,1.283393,0.4153984,-2.252488,-0.002506215,5.4,52.5,-0.3675179,0.07068248,0.307479,-0.3594724,1.416146,1.074901,0.6051565,1.360186,0.3467515,-0.1534487,0.174858,-0.002968751,-1.156456,0.4712572,0.1126336,0.769701,1.369597,0.233952,0.4290649,1.492974,0.283971,347.0766,91.97231,154.1277,True
3,2.644443,-0.4004782,0.08329643,0.09987076,-1.392867,1.491979,-2.015603,0.4541156,1.284284,0.4144337,-2.252493,-0.0005260485,5.4,52.5,-0.3707864,0.06111698,0.2979059,-0.3576865,1.40914,1.085726,0.6040408,1.360595,0.3460371,-0.152279,0.1684472,0.005519543,-1.155939,0.4731411,0.1134363,0.7687125,1.369589,0.2336574,0.4288294,1.493981,0.2826918,347.3622,91.92282,154.002,True
3,2.655554,-0.388788,0.1132549,0.1134673,-1.395674,1.492568,-2.011867,0.4526564,1.285147,0.4134541,-2.2524,0.007959603,5.4,52.5,-0.3665972,0.04406434,0.2914326,-0.3565786,1.401307,1.097079,0.6029282,1.361078,0.3452559,-0.1500982,0.1652336,0.009729382,-1.155666,0.4749677,0.1142603,0.7678421,1.369664,0.2333002,0.4285735,1.494976,0.2815406,347.6732,91.8734,153.9297,True
3,2.666665,-0.3824266,0.1356741,0.1186076,-1.398272,1.493006,-2.007883,0.451208,1.286074,0.4124963,-2.251404,0.09001395,5.4,52.5,-0.3517708,0.02915916,0.2795768,-0.3554841,1.394184,1.107123,0.6014583,1.361137,0.3444583,-0.1544951,0.1663381,-0.0008635744,-1.155801,0.4770813,0.1153511,0.76689,1.369683,0.2330644,0.4282318,1.496002,0.2805806,347.9855,91.80342,153.9097,True
3,2.677776,-0.381379,0.1442087,0.1185248,-1.400519,1.493261,-2.003673,0.4498036,1.286901,0.4116554,-2.250342,0.09505507,5.4,52.5,-0.331616,0.04409166,0.2666856,-0.3534228,1.38886,1.115148,0.60028,1.361477,0.3436301,-0.1567468,0.1674276,-0.01043905,-1.156291,0.4790755,0.116447,0.7659265,1.369727,0.232744,0.4277504,1.497162,0.2798324,348.2551,91.70786,153.9508,True
3,2.688887,-0.3792546,0.1463062,0.1142447,-1.40251,1.493604,-1.999614,0.4483002,1.287792,0.4107218,-2.248253,0.1885266,4.8,62.8,-0.3261383,0.06109633,0.2858487,-0.3506488,1.380544,1.126303,0.5989343,1.361779,0.3427787,-0.1589497,0.1749171,-0.01678676,-1.156493,0.4817012,0.117264,0.7648919,1.369845,0.2324193,0.4270739,1.498474,0.2793196,348.4818,91.60262,154.0759,True
3,2.699998,-0.3771065,0.1270114,0.1005553,-1.403442,1.493957,-1.99558,0.4468358,1.288677,0.4097192,-2.245692,0.230588,4.8,62.8,-0.3335602,0.07600395,0.2901991,-0.3478951,1.373164,1.137249,0.5976866,1.362129,0.3418953,-0.1511803,0.1897569,0.006600814,-1.15537,0.4845209,0.1174763,0.7638209,1.369851,0.2321124,0.4261622,1.499885,0.2790205,348.641,91.50554,154.2765,True
3,2.711109,-0.3771013,0.1109025,0.08470777,-1.404273,1.494051,-1.991366,0.4453847,1.289548,0.4087799,-2.243104,0.2325869,4.8,62.8,-0.3357323,0.07494684,0.2848786,-0.346048,1.366319,1.147446,0.5963759,1.36244,0.3410623,-0.1466724,0.2014138,0.02574788,-1.154266,0.4873388,0.1178278,0.7628471,1.369931,0.2317965,0.4250135,1.501283,0.2788848,348.7293,91.42011,154.5282,True
3,2.72222,-0.3749482,0.08518217,0.06468381,-1.404557,1.494104,-1.987336,0.4439438,1.290433,0.4079196,-2.239994,0.2800156,4.8,62.8,-0.3294005,0.0589885,0.2773482,-0.3446786,1.358868,1.157931,0.5950799,1.362854,0.3402336,-0.1584251,0.2110283,0.02273242,-1.153803,0.4902595,0.1189043,0.7618053,1.369997,0.2315364,0.4236393,1.502659,0.2787949,348.7647,91.31702,154.8419,True
3,2.733331,-0.3664072,0.05840685,0.04571842,-1.404338,1.494111,-1.983437,0.4424748,1.291232,0.4069939,-2.236306,0.3320371,3.6,44.8,-0.3210284,0.07074377,0.2560001,-0.3427824,1.354367,1.16552,0.5938209,1.363105,0.3393424,-0.1756264,0.2068224,0.01014011,-1.153973,0.4926203,0.1204913,0.7608408,1.370122,0.2311332,0.4220601,1.50395,0.2785995,348.7423,91.22546,155.1546,True
3,2.744442,-0.3578698,0.04233779,0.0341124,-1.404209,1.494128,-1.979737,0.4410544,1.292091,0.4060688,-2.232459,0.3459354,3.6,44.8,-0.3125391,0.08886172,0.2506475,-0.3402599,1.349002,1.17383,0.5925154,1.36337,0.3384452,-0.1681529,0.1950966,0.01213572,-1.153567,0.4946674,0.1212263,0.7596419,1.370142,0.2308421,0.4203103,1.505143,0.2782016,348.6805,91.18541,155.3657,True
3,2.755553,-0.3482516,0.01669902,0.0236709,-1.403651,1.494415,-1.976185,0.4396749,1.292936,0.4050956,-2.228166,0.3863068,3.6,44.8,-0.296652,0.1006027,0.2367067,-0.3379978,1.344714,1.180614,0.5913831,1.363565,0.3375502,-0.1562463,0.1886408,0.02794932,-1.152479,0.496608,0.1217959,0.7585003,1.370176,0.2304597,0.4184246,1.506215,0.2775627,348.5959,91.17871,155.4658,True
3,2.766664,-0.3407652,-0.009998322,0.01429534,-1.402665,1.494661,-1.972614,0.4382977,1.293701,0.4042208,-2.223418,0.4271452,3.6,44.8,-0.281755,0.09633785,0.2344671,-0.3362555,1.33813,1.189548,0.5902303,1.363902,0.3366964,-0.1487844,0.1950198,0.02787943,-1.151884,0.499132,0.1222244,0.7573353,1.370239,0.2300384,0.4164199,1.507161,0.2766676,348.4979,91.1939,155.476,True
3,2.777775,-0.3386125,-0.02598605,0.01229256,-1.401986,1.495019,-1.968946,0.4369375,1.294374,0.4033203,-2.218129,0.4760042,3.6,44.8,-0.2670032,0.08464805,0.2130313,-0.3351695,1.333931,1.196052,0.5889502,1.364258,0.3358588,-0.1530881,0.1918388,0.02472601,-1.15146,0.5013307,0.1231944,0.7562156,1.370303,0.2296765,0.4143158,1.508061,0.2755386,348.3729,91.22697,155.4059,True
3,2.788886,-0.3311548,-0.02384426,0.01227017,-1.401893,1.495212,-1.965569,0.4355799,1.294925,0.4024727,-2.21233,0.5219687,3.6,37.8,-0.249061,0.09321214,0.1884188,-0.3334714,1.331586,1.200405,0.5877738,1.364609,0.3350599,-0.1659717,0.1918843,0.01742305,-1.15129,0.5038247,0.1246426,0.7551515,1.37035,0.2293689,0.4121261,1.508902,0.2742259,348.2191,91.26656,155.2808,True
3,2.799997,-0.325841,-0.01316385,0.01536703,-1.402132,1.495417,-1.96213,0.4342956,1.295542,0.4017589,-2.206099,0.5609371,3.6,37.8,-0.2374281,0.09321338,0.1776764,-0.3320727,1.32794,1.206213,0.5865105,1.364924,0.334408,-0.1638718,0.1759133,0.01628104,-1.150971,0.5054415,0.1257443,0.7540487,1.370498,0.2289484,0.409857,1.50963,0.2728074,348.0493,91.32507,155.0969,True
3,2.811108,-0.3162617,-0.00245557,0.02060069,-1.4026,1.495704,-1.958981,0.4329855,1.296041,0.4009154,-2.200022,0.5464478,3.6,37.8,-0.2194023,0.1060219,0.16478,-0.3300306,1.32596,1.209848,0.5852186,1.36505,0.3336155,-0.1519079,0.1641049,0.03740164,-1.149667,0.506725,0.1265188,0.7528734,1.370598,0.2284918,0.4075272,1.510261,0.2713801,347.8663,91.39832,154.8833,True
3,2.822219,-0.301378,0.01998569,0.02573363,-1.403765,1.495755,-1.956124,0.4317892,1.296537,0.4001458,-2.193366,0.5993538,3.6,37.8,-0.2024124,0.09001952,0.1592907,-0.3293489,1.321583,1.215762,0.584033,1.365275,0.3329077,-0.1410541,0.1565881,0.05429049,-1.148314,0.508342,0.1270868,0.7517757,1.370586,0.2279592,0.4051483,1.510838,0.270065,347.6771,91.4877,154.6581,True
3,2.83333,-0.2800966,0.03817967,0.0319553,-1.404904,1.495869,-1.953773,0.4305667,1.297048,0.3993647,-2.186795,0.5909186,3.6,40.5,-0.2002257,0.07721812,0.1677663,-0.3283145,1.316087,1.223091,0.5829463,1.365378,0.3321655,-0.1271699,0.1427076,0.05833136,-1.147495,0.5094401,0.1275947,0.7508044,1.370673,0.227505,0.4027393,1.511469,0.2689634,347.4698,91.56329,154.4824,True
3,2.844441,-0.2630773,0.06063724,0.03920158,-1.406336,1.495855,-1.951415,0.4294175,1.297525,0.398592,-2.180124,0.6000805,3.6,40.5,-0.1903405,0.0856459,0.2092652,-0.3258303,1.306255,1.234187,0.5819116,1.365514,0.3311234,-0.1155463,0.1363363,0.05071132,-1.147047,0.510958,0.1278158,0.7497725,1.370672,0.2271264,0.4003052,1.512164,0.2681236,347.249,91.60793,154.423,True
3,2.855552,-0.2535031,0.07240604,0.04335525,-1.407632,1.495972,-1.94895,0.428252,1.298005,0.3978205,-2.173561,0.5902556,3.6,40.5,-0.1838845,0.09841068,0.2177675,-0.3235011,1.299868,1.242042,0.5808973,1.365652,0.330379,-0.1007313,0.1193012,0.04407464,-1.146805,0.5117773,0.1281028,0.748731,1.370685,0.2267363,0.3978515,1.51295,0.2675667,347.0117,91.64191,154.4613,True
3,2.866663,-0.2407403,0.08736495,0.04641991,-1.409246,1.496016,-1.94672,0.4271535,1.298536,0.3971043,-2.166493,0.6364021,3.6,40.5,-0.1753966,0.08240112,0.2144634,-0.32296,1.293786,1.249419,0.5799384,1.366055,0.329793,-0.07943308,0.1192856,0.04379997,-1.146295,0.5133163,0.127747,0.7478082,1.37081,0.2262735,0.3953653,1.513809,0.2672678,346.7673,91.64755,154.5973,True
3,2.877774,-0.2396658,0.08309758,0.04539405,-1.410165,1.496231,-1.94417,0.4259928,1.299147,0.3964179,-2.159222,0.6546038,3.6,40.5,-0.1627076,0.05792408,0.2026111,-0.3224486,1.287895,1.256471,0.578993,1.366232,0.3291664,-0.06784401,0.1214375,0.03301084,-1.146116,0.5148676,0.1274533,0.7468099,1.370897,0.2258592,0.3928391,1.514709,0.2671716,346.504,91.63648,154.8088,True
3,2.888885,-0.2290141,0.0788238,0.04222652,-1.410995,1.496362,-1.941943,0.425058,1.299615,0.3957448,-2.152325,0.6202765,1.8,30.5,-0.1437859,0.03987711,0.1683485,-0.3224065,1.285408,1.259873,0.5780401,1.366379,0.328536,-0.06161258,0.1086888,0.02117164,-1.14621,0.5158579,0.1276088,0.7459272,1.371063,0.2253349,0.3902818,1.515639,0.2671919,346.2182,91.61474,155.0571,True
3,2.899997,-0.2247189,0.05749465,0.03814501,-1.411173,1.49672,-1.939704,0.4240788,1.300134,0.3951182,-2.144895,0.6693576,1.8,30.5,-0.1247483,0.04204588,0.1490425,-0.3215011,1.282931,1.263037,0.5770936,1.366602,0.3278859,-0.06048554,0.09695198,0.02751377,-1.145558,0.516587,0.1280043,0.7450237,1.37114,0.2248335,0.3877103,1.516607,0.267254,345.9233,91.59481,155.3057,True
3,2.911108,-0.2215029,0.0382449,0.02871642,-1.411028,1.496861,-1.937369,0.4230506,1.300618,0.3944962,-2.1381,0.6108778,1.8,30.5,-0.1119265,0.0580112,0.153241,-0.3198638,1.278435,1.268075,0.5761721,1.366631,0.3272352,-0.06029025,0.08623418,0.04452088,-1.144467,0.5169249,0.1285399,0.7440698,1.371233,0.2243354,0.3851439,1.517564,0.2672727,345.6033,91.57028,155.5423,True
3,2.922219,-0.2076159,0.009445727,0.02148171,-1.410261,1.497124,-1.935608,0.4221525,1.30109,0.3938248,-2.131126,0.6279554,1.8,30.5,-0.1065329,0.08996475,0.1628665,-0.3169433,1.273759,1.273656,0.5753094,1.367031,0.3262849,-0.05267715,0.08192541,0.05826412,-1.143257,0.5177214,0.1286573,0.7431812,1.371332,0.2238715,0.3826332,1.518393,0.2671894,345.2531,91.56617,155.7408,True
3,2.93333,-0.1958608,-0.02368337,0.006829014,-1.408845,1.49729,-1.933878,0.4212142,1.301662,0.3932633,-2.124223,0.6212792,1.8,30.5,-0.1051737,0.09956007,0.2012633,-0.3135201,1.263943,1.284243,0.5746585,1.366923,0.3254199,-0.03121556,0.08079806,0.07078378,-1.141924,0.5185081,0.1279508,0.7422264,1.371345,0.2235305,0.3802057,1.519084,0.2669392,344.9359,91.56847,155.878,True
3,2.944441,-0.1777292,-0.04181743,0.0005639512,-1.407807,1.497423,-1.93249,0.4203056,1.302294,0.3927174,-2.118037,0.555907,1.5,28.1,-0.1008251,0.09953596,0.2129494,-0.3116729,1.256349,1.292405,0.5739994,1.367039,0.3247986,-0.02173986,0.0786894,0.06213983,-1.141426,0.5194351,0.1275984,0.741399,1.371492,0.223104,0.3778676,1.51964,0.2664796,344.6572,91.58291,155.9482,True
3,2.955552,-0.169207,-0.04613513,-0.007927043,-1.407121,1.497347,-1.930876,0.4194167,1.302845,0.3921528,-2.111483,0.5902281,1.5,28.1,-0.1007768,0.072882,0.221419,-0.3110902,1.247604,1.301902,0.5733035,1.367189,0.3241704,-0.01133696,0.07767721,0.04176682,-1.141546,0.5203623,0.1269761,0.7406036,1.371538,0.2228017,0.3756162,1.520073,0.2657817,344.3998,91.61401,155.9376,True
3,2.966663,-0.1670899,-0.03654064,-0.008008828,-1.407092,1.497234,-1.929048,0.4186845,1.303442,0.3916047,-2.105227,0.5626013,1.5,28.1,-0.1050806,0.04413585,0.2160609,-0.3110082,1.240653,1.309879,0.5726472,1.367409,0.3239014,-0.004208326,0.08094908,0.01505636,-1.142088,0.5215483,0.1263976,0.7398753,1.37158,0.2225089,0.3734171,1.520461,0.2648546,344.172,91.67726,155.8046,True
3,2.977774,-0.1607318,-0.01417349,-0.009262828,-1.407515,1.496924,-1.927477,0.41796,1.303962,0.3911865,-2.098525,0.6036781,1.5,28.1,-0.1051072,0.03139412,0.2117989,-0.3100617,1.23306,1.318342,0.5721066,1.36747,0.3236217,0.0009989999,0.080979,0.005405145,-1.142177,0.5226566,0.1257949,0.7391746,1.371596,0.222163,0.3712336,1.520872,0.2637846,343.9583,91.76569,155.585,True
3,2.988885,-0.1628898,0.008262578,-0.0009204776,-1.408389,1.496904,-1.925562,0.417291,1.304446,0.3907716,-2.091827,0.6029432,1.2,29,-0.09558137,0.01861364,0.2042443,-0.3098439,1.226555,1.325303,0.5714524,1.367608,0.3231714,0.008367095,0.06287556,-7.630885E-05,-1.142406,0.5227923,0.1254434,0.7385026,1.37161,0.2218211,0.3690418,1.521321,0.2626958,343.7209,91.87574,155.3394,True
3,2.999996,-0.1661099,0.02856349,0.007432017,-1.409295,1.496849,-1.923584,0.4166585,1.304959,0.3904662,-2.085822,0.5399373,1.2,29,-0.08815292,0.01970676,0.2009998,-0.3088058,1.220012,1.332431,0.570926,1.36783,0.3226793,0.005094107,0.04584995,-0.004348972,-1.142532,0.5228015,0.1255843,0.7378433,1.371609,0.2214868,0.3668709,1.521851,0.26172,343.4373,92.0055,155.1007,True
3,3.011107,-0.176778,0.04353037,0.01584222,-1.410356,1.496927,-1.921283,0.4160911,1.305441,0.3901138,-2.079377,0.58077,1.2,29,-0.08390941,0.0229056,0.1988414,-0.3079562,1.213538,1.339435,0.5703923,1.36806,0.3222022,-0.003427766,0.03093597,-0.003225692,-1.142541,0.5225288,0.12598,0.737184,1.371652,0.2211604,0.3647515,1.522413,0.2609979,343.1458,92.12704,154.9111,True
3,3.022218,-0.183177,0.04885563,0.01687012,-1.411102,1.496886,-1.919038,0.4155253,1.305964,0.3897512,-2.073359,0.5414257,1.2,29,-0.07532148,0.02077713,0.2073146,-0.3068952,1.204846,1.348351,0.5699658,1.368359,0.321949,0.0008476581,0.02560977,-0.00223116,-1.142534,0.5228223,0.1255957,0.736551,1.371764,0.2209296,0.3627239,1.523025,0.2606027,342.8482,92.20386,154.8277,True
3,3.033329,-0.1906319,0.04989509,0.0158128,-1.411578,1.496951,-1.916825,0.4149902,1.306724,0.3893776,-2.067252,0.5501111,1.2,29,-0.07734402,0.002649121,0.2222204,-0.3066971,1.194478,1.359186,0.569576,1.36863,0.3217344,0.005057466,0.02455233,-0.006548127,-1.142729,0.5230985,0.1252501,0.7359269,1.371753,0.2206793,0.3608261,1.523702,0.260542,342.5655,92.23947,154.8666,True
3,3.04444,-0.1959664,0.04771194,0.01050968,-1.411993,1.496771,-1.914354,0.4144698,1.307409,0.3890662,-2.061666,0.5024102,0.3,30.8,-0.08058275,-0.0101238,0.2168936,-0.3067855,1.186829,1.367451,0.5692013,1.368856,0.3213737,0.006056377,0.02030827,-0.0119073,-1.143114,0.5232837,0.1250261,0.7353113,1.371801,0.2204006,0.3590924,1.524451,0.2607524,342.3083,92.23048,155.0415,True
3,3.055551,-0.1980889,0.04234826,0.006296866,-1.412274,1.496631,-1.912102,0.4138669,1.308014,0.3887508,-2.056169,0.4947788,0.3,30.8,-0.06983882,-0.01548143,0.229597,-0.3065064,1.176539,1.377691,0.5689042,1.369101,0.3210435,0.007032693,0.02246144,-0.01937007,-1.143549,0.5237117,0.1247454,0.7347888,1.371856,0.2201288,0.3575283,1.525298,0.2611072,342.1017,92.19324,155.3014,True
3,3.066662,-0.2076963,0.04756156,-0.005448862,-1.412807,1.496078,-1.909412,0.4134282,1.308817,0.388449,-2.050508,0.5097308,0.3,30.8,-0.05804132,-0.002723843,0.2391211,-0.3055546,1.166938,1.387024,0.5685787,1.369372,0.320709,0.009299016,0.01922866,-0.007690012,-1.143235,0.5238299,0.1245941,0.7342845,1.371885,0.2198813,0.3561129,1.526281,0.2614684,341.944,92.14373,155.5704,True
3,3.077773,-0.20983,0.04861118,-0.00652202,-1.413247,1.495787,-1.90696,0.4129813,1.309525,0.3880901,-2.045325,0.466036,0.3,30.8,-0.06776258,-0.01759338,0.2221247,-0.3058119,1.160395,1.394435,0.5683492,1.369689,0.3203428,0.005058251,0.01390005,-0.005524258,-1.143234,0.523795,0.1246988,0.7338077,1.371913,0.2195857,0.3548112,1.527259,0.2617629,341.8399,92.10477,155.7992,True
3,3.088884,-0.2141052,0.0485252,-0.01610428,-1.413582,1.495188,-1.90426,0.412671,1.310301,0.387804,-2.039665,0.5100818,0.9,34,-0.07625376,-0.02824938,0.2264277,-0.3060148,1.151281,1.404204,0.5681942,1.370063,0.3199146,-0.003581364,0.003280265,-0.01397707,-1.143764,0.5234417,0.1252075,0.7334491,1.371899,0.2192516,0.3535672,1.528169,0.2619331,341.7664,92.07957,155.9647,True
3,3.099995,-0.2183635,0.04312743,-0.02351021,-1.413677,1.494681,-1.901592,0.4124251,1.311158,0.3875546,-2.034563,0.4586787,0.9,34,-0.0857449,-0.01868166,0.2392988,-0.3053815,1.141148,1.415178,0.568081,1.370389,0.3195267,-0.01763583,-0.008369233,-0.0298236,-1.144707,0.523099,0.1259896,0.7331177,1.371818,0.2190025,0.3523511,1.529102,0.2619458,341.6667,92.09454,156.0557,True
3,3.111106,-0.221565,0.04415287,-0.027777,-1.414022,1.494074,-1.898904,0.4121628,1.311974,0.387255,-2.029175,0.4853763,0.9,34,-0.08131668,-0.0112645,0.2616487,-0.3046992,1.129288,1.427264,0.5679491,1.370744,0.3190806,-0.02743694,-0.02322431,-0.04573547,-1.145905,0.522374,0.1269452,0.7328811,1.371779,0.2187471,0.3511551,1.529999,0.2618114,341.542,92.12337,156.0975,True
3,3.122217,-0.2332883,0.03761247,-0.0436925,-1.413847,1.492996,-1.895698,0.411971,1.312854,0.3869991,-2.023995,0.4659733,0.9,34,-0.09311631,-0.01230986,0.2500244,-0.3046161,1.120944,1.436593,0.5678918,1.371124,0.3186979,-0.02536083,-0.01895246,-0.05107903,-1.146685,0.5223692,0.1270283,0.7324958,1.371717,0.2186065,0.3499857,1.530887,0.2615516,341.3871,92.19047,156.069,True
3,3.133328,-0.2460693,0.0300465,-0.05426802,-1.413627,1.492121,-1.892396,0.4118018,1.313783,0.3867493,-2.01885,0.4631132,0.9,34,-0.0898453,-0.01124613,0.2585265,-0.304321,1.110595,1.447448,0.5676838,1.371534,0.3183403,-0.04245404,-0.005068388,-0.05615257,-1.147421,0.5229234,0.1278352,0.7322397,1.371693,0.2183509,0.3488601,1.53179,0.2612075,341.2288,92.27191,155.9959,True
3,3.144439,-0.2599218,0.03100603,-0.06384183,-1.413683,1.491186,-1.889003,0.4114967,1.314568,0.3865526,-2.013299,0.5002508,0.9,31.8,-0.09196426,-0.01234215,0.2606677,-0.3042662,1.100439,1.458097,0.5676295,1.372064,0.3181112,-0.04770656,-0.006152462,-0.04969049,-1.14762,0.5227426,0.1286544,0.7319742,1.371677,0.2180443,0.3477781,1.5327,0.2608322,341.0956,92.35912,155.9198,True
3,3.15555,-0.2684505,0.03309689,-0.06704713,-1.413835,1.490219,-1.885541,0.4113648,1.315385,0.3863325,-2.008062,0.4711516,0.9,31.8,-0.08559747,0.0004369467,0.2563896,-0.303611,1.091225,1.467622,0.5675609,1.372409,0.3178349,-0.06052719,-0.02850643,-0.05066975,-1.148346,0.5216549,0.1302355,0.7317926,1.371674,0.2177236,0.3467438,1.533637,0.2604541,340.9718,92.4684,155.8356,True
3,3.166661,-0.2748646,0.04584735,-0.07033915,-1.414494,1.489056,-1.882108,0.4113393,1.316174,0.3861203,-2.002948,0.4602727,0.9,31.8,-0.07703352,0.01320598,0.2616744,-0.3027487,1.081069,1.477944,0.5676144,1.372764,0.317415,-0.06677744,-0.04451804,-0.03679399,-1.148413,0.5205808,0.1317596,0.7316949,1.371669,0.2173936,0.3457705,1.534594,0.2601087,340.8694,92.56753,155.7512,True
3,3.177772,-0.284469,0.05431864,-0.07465731,-1.415067,1.487851,-1.878435,0.4113545,1.316975,0.3859444,-1.99788,0.4561816,0.9,31.8,-0.08128868,0.01746225,0.2617186,-0.3021953,1.071093,1.488451,0.5676947,1.37316,0.3170397,-0.06772637,-0.04561261,-0.02719741,-1.148456,0.519996,0.1327903,0.7315316,1.37164,0.2171037,0.3448487,1.535513,0.2598476,340.7903,92.64699,155.6876,True
3,3.188883,-0.2866161,0.06174415,-0.07897935,-1.415703,1.486525,-1.874991,0.4114695,1.317775,0.3858054,-1.992942,0.4443063,1.2,34.2,-0.08660083,-0.0102414,0.2648993,-0.3031205,1.060877,1.499376,0.5678442,1.373439,0.3168309,-0.07190105,-0.04136783,-0.02073135,-1.148378,0.5197129,0.1337863,0.7314635,1.371664,0.2169042,0.3439918,1.536436,0.2596871,340.681,92.72881,155.6564,True
3,3.199994,-0.2866234,0.06274609,-0.08643953,-1.416029,1.485228,-1.871663,0.4115478,1.318623,0.385695,-1.987732,0.469259,1.2,34.2,-0.07256709,-0.02307723,0.2892809,-0.303594,1.046993,1.512919,0.5679703,1.373813,0.3165305,-0.07733794,-0.04132483,-0.03025609,-1.149145,0.5194553,0.1348255,0.7314398,1.371678,0.2166893,0.343221,1.537387,0.2596491,340.5611,92.81979,155.6562,True
3,3.211105,-0.289829,0.06478042,-0.09817406,-1.416397,1.483525,-1.868196,0.411677,1.319499,0.3855908,-1.982973,0.4277945,1.2,34.2,-0.06300241,-0.0220087,0.2849476,-0.3036318,1.037074,1.52264,0.5681775,1.3741,0.3162353,-0.07743697,-0.04449588,-0.03771668,-1.149829,0.5188978,0.1359866,0.7314409,1.371685,0.2163737,0.342554,1.538383,0.259733,340.4484,92.90478,155.6888,True
3,3.222216,-0.2908983,0.06149991,-0.1077365,-1.416446,1.481911,-1.864695,0.4117461,1.320349,0.3854918,-1.97812,0.4367535,1.2,34.2,-0.05356574,-0.02837782,0.2667539,-0.3041074,1.029423,1.530404,0.5682713,1.37442,0.3159654,-0.07636198,-0.04769456,-0.03667447,-1.150277,0.518274,0.1370324,0.7313976,1.37164,0.216037,0.3419954,1.539411,0.2599266,340.3655,92.97858,155.7527,True
3,3.233327,-0.2951638,0.05389113,-0.1257826,-1.416207,1.479845,-1.860969,0.4118853,1.32129,0.3854063,-1.973049,0.4566023,1.2,34.2,-0.05356312,-0.04329388,0.2677916,-0.3050246,1.019287,1.540653,0.5684198,1.37475,0.315577,-0.07840884,-0.05198045,-0.02920556,-1.150443,0.5174384,0.1383398,0.7314092,1.37163,0.2156243,0.3415098,1.54047,0.2601914,340.3268,93.03836,155.8437,True
3,3.244438,-0.2962245,0.04851505,-0.1310608,-1.416049,1.478216,-1.857398,0.4120403,1.32214,0.3853283,-1.967986,0.4556988,0.9,28.3,-0.05344352,-0.02413335,0.2827566,-0.3043466,1.006262,1.553694,0.5685965,1.374933,0.3150151,-0.08472645,-0.05518806,-0.02275056,-1.150651,0.5167128,0.1398279,0.7313982,1.371567,0.2152276,0.3410524,1.541551,0.2604885,340.3164,93.10635,155.9447,True
3,3.255549,-0.2972836,0.03562041,-0.1448022,-1.415467,1.476202,-1.853735,0.4121971,1.322996,0.3852692,-1.962827,0.4644006,0.9,28.3,-0.0480454,0.006735265,0.2923581,-0.3030427,0.9943384,1.565472,0.5687156,1.375398,0.3144581,-0.08773568,-0.06375773,-0.006760165,-1.150309,0.5155271,0.1413976,0.731388,1.371518,0.2148333,0.3405782,1.542624,0.2607714,340.3118,93.1768,156.0464,True
3,3.26666,-0.2994149,0.02700484,-0.1553739,-1.41492,1.474281,-1.850001,0.412447,1.323804,0.3851955,-1.957912,0.442143,0.9,28.3,-0.0320604,0.02163395,0.2933288,-0.3024206,0.9834847,1.575673,0.5689389,1.375738,0.3139985,-0.0940517,-0.06696551,-0.0002978034,-1.150193,0.5145883,0.142996,0.7313439,1.37154,0.2144396,0.3400638,1.543691,0.2609943,340.2761,93.27542,156.1144,True
3,3.277771,-0.2951527,0.02053605,-0.1649097,-1.414261,1.472241,-1.846591,0.4127415,1.324551,0.3851025,-1.952906,0.4506421,0.9,28.3,-0.02444935,0.03543866,0.3124797,-0.3016882,0.9694351,1.589037,0.569216,1.376083,0.3136578,-0.09509438,-0.05844541,0.0008074082,-1.150185,0.5142092,0.1442432,0.7313485,1.371496,0.214087,0.339514,1.54469,0.2611453,340.2087,93.37511,156.1554,True
3,3.288882,-0.2866187,0.01737598,-0.162764,-1.413945,1.470543,-1.843554,0.4130221,1.325279,0.3850613,-1.947833,0.4566633,0.9,28.3,-0.02125698,0.03755942,0.3135231,-0.3014272,0.9576862,1.600555,0.5695562,1.376266,0.3133459,-0.08651057,-0.04994599,0.004991688,-1.150046,0.5139285,0.1449665,0.731396,1.371345,0.2137582,0.3389297,1.545603,0.2612056,340.1227,93.5032,156.1593,True
3,3.299993,-0.2791608,0.0173733,-0.1638429,-1.413578,1.468661,-1.840394,0.4133717,1.326056,0.3850811,-1.943177,0.4185898,0.9,24.1,-0.01380813,0.04075268,0.3113422,-0.3010778,0.9462106,1.611395,0.5698708,1.376608,0.3131573,-0.0780929,-0.05631377,-0.003659226,-1.150534,0.5131759,0.1457186,0.731456,1.371282,0.2134559,0.338339,1.546427,0.2611754,340.0051,93.65019,156.127,True
3,3.311104,-0.2706527,0.02272478,-0.1628298,-1.413566,1.466801,-1.837311,0.413816,1.326738,0.3850546,-1.938515,0.4192931,0.9,24.1,0.0009784997,0.0205308,0.2952116,-0.3016579,0.9372818,1.619424,0.5702226,1.376767,0.3128812,-0.08571425,-0.06372534,-0.01637409,-1.151304,0.5121599,0.1473636,0.7317857,1.371206,0.2132044,0.337764,1.547159,0.261072,339.8837,93.80859,156.0539,True
3,3.322215,-0.2653316,0.02806956,-0.1607511,-1.413505,1.465028,-1.834286,0.4141674,1.327404,0.385036,-1.933407,0.4600993,0.9,24.1,-0.001248032,0.005633444,0.2824144,-0.3023268,0.9284037,1.627923,0.5705546,1.377026,0.3126526,-0.08895063,-0.07117613,-0.01848986,-1.151727,0.5110291,0.1490254,0.7320477,1.37114,0.2128909,0.3372043,1.54785,0.2609414,339.7689,93.95802,155.9415,True
3,3.333326,-0.2600095,0.03668346,-0.1512406,-1.413859,1.463471,-1.831361,0.4145341,1.327919,0.3850667,-1.92841,0.4495863,0.9,24.1,-0.0003492981,-0.01244117,0.2610634,-0.3032446,0.9215496,1.634497,0.570915,1.377211,0.3123646,-0.08576442,-0.07970189,-0.01855617,-1.152097,0.5098171,0.1503797,0.7322583,1.371053,0.2125492,0.3366618,1.548556,0.2608341,339.6444,94.11705,155.8159,True
3,3.344437,-0.2472394,0.0506344,-0.1428515,-1.414644,1.461813,-1.828767,0.4148357,1.328463,0.3851931,-1.923406,0.4503406,0,23.3,0.01465167,-0.001737013,0.2780257,-0.3033202,0.9097434,1.645413,0.5712982,1.377404,0.3120816,-0.07945584,-0.08607771,-0.02505226,-1.152802,0.5087162,0.1514289,0.7324701,1.370962,0.2122374,0.3361547,1.549268,0.2608035,339.5198,94.27028,155.7237,True
3,3.355548,-0.2429749,0.05498924,-0.1322379,-1.415099,1.460557,-1.826043,0.4152457,1.329002,0.3852265,-1.918419,0.4487194,0,23.3,0.03172085,0.01734456,0.2758033,-0.302533,0.8985777,1.654942,0.5717682,1.377604,0.3117633,-0.06882854,-0.09673859,-0.02628212,-1.153347,0.5072455,0.1524391,0.7326626,1.370896,0.2119205,0.3356763,1.549963,0.2608803,339.4189,94.39665,155.6744,True
3,3.366659,-0.2344572,0.06360984,-0.1237928,-1.416005,1.459182,-1.823537,0.4156647,1.329482,0.3853834,-1.913707,0.4236607,0,23.3,0.04426153,0.01206009,0.2437428,-0.3028861,0.8933346,1.659076,0.572358,1.377824,0.3115549,-0.05708208,-0.1063445,-0.02326411,-1.153748,0.5057216,0.1532993,0.7328959,1.370762,0.2116094,0.3352157,1.550606,0.2610999,339.3327,94.50098,155.6498,True
3,3.37777,-0.2280499,0.06266341,-0.1110065,-1.416469,1.458215,-1.821093,0.4161628,1.33004,0.385509,-1.908475,0.4713764,0,23.3,0.05488193,-0.0007241964,0.2393778,-0.3036803,0.8851455,1.665934,0.5728142,1.378131,0.3114119,-0.05276769,-0.1052974,-0.01905223,-1.153976,0.5045106,0.1542298,0.7331094,1.37071,0.2112825,0.3347399,1.55125,0.2614842,339.2437,94.58369,155.6674,True
3,3.388881,-0.2141824,0.04562391,-0.1130092,-1.416086,1.456943,-1.818883,0.4166653,1.330562,0.3855846,-1.903608,0.4375339,0,23.3,0.06012113,-0.001770213,0.2276165,-0.3039354,0.8779756,1.671938,0.5732479,1.378263,0.311202,-0.05382463,-0.09890886,-0.01901799,-1.1543,0.5035893,0.1552633,0.7333696,1.370673,0.2109394,0.3342478,1.551908,0.261999,339.1078,94.64673,155.7473,True
3,3.399992,-0.2067057,0.0285768,-0.1150138,-1.415467,1.455544,-1.816538,0.4171831,1.330994,0.3855553,-1.89868,0.4437398,0,26.6,0.0684713,0.01637758,0.2030872,-0.303308,0.8729452,1.675669,0.5737469,1.378551,0.3110168,-0.05276288,-0.1159568,-0.01802082,-1.154787,0.5016175,0.1566136,0.7336056,1.370701,0.2105854,0.3337543,1.552572,0.262624,338.9408,94.70876,155.8508,True
3,3.411103,-0.1896354,0.003003579,-0.1190795,-1.414312,1.454341,-1.814704,0.4177622,1.331528,0.3855581,-1.894121,0.409941,0,26.6,0.06518802,0.02278954,0.1913967,-0.3030992,0.8673643,1.680415,0.5742664,1.378626,0.3107369,-0.04519289,-0.1330496,-0.007511277,-1.154821,0.4992339,0.1578003,0.7338485,1.370723,0.2101843,0.3332876,1.553246,0.2632874,338.751,94.7522,156.0086,True
3,3.422215,-0.1704353,-0.02263512,-0.1306094,-1.412655,1.452783,-1.813187,0.4183966,1.331927,0.3855355,-1.8893,0.4341622,0,26.6,0.06847507,0.04513121,0.2020719,-0.3022389,0.8580145,1.688399,0.5748303,1.378787,0.3105075,-0.04080854,-0.1416072,0.003059417,-1.15474,0.4972286,0.1588687,0.7340894,1.370673,0.2097566,0.3328576,1.553838,0.2638829,338.5865,94.80618,156.1966,True
3,3.433326,-0.1501541,-0.05145191,-0.1399845,-1.410651,1.451339,-1.811972,0.4190183,1.33244,0.3855782,-1.885114,0.3760686,0,26.6,0.06855801,0.03977942,0.214845,-0.3023279,0.8484825,1.696872,0.5754246,1.37885,0.3103008,-0.02150009,-0.1363372,0.01349181,-1.154444,0.4957208,0.1590682,0.7343489,1.370601,0.2094069,0.3324647,1.554317,0.2643053,338.4317,94.877,156.3468,True
3,3.444437,-0.135215,-0.07385179,-0.1462064,-1.408703,1.449931,-1.810653,0.4196649,1.332899,0.385618,-1.880938,0.3755498,0,26.5,0.0707185,0.03550348,0.2180204,-0.3025585,0.8398742,1.704144,0.5760159,1.378935,0.3100767,-0.01624487,-0.129935,0.007055517,-1.154827,0.4943486,0.1596656,0.734592,1.370553,0.2091405,0.3321068,1.554679,0.2644848,338.28,94.96832,156.4069,True
3,3.455548,-0.1277483,-0.08456281,-0.1546468,-1.406992,1.448284,-1.809201,0.420212,1.333279,0.3857152,-1.876696,0.3817248,0,26.5,0.07708716,0.03975856,0.2158469,-0.3023854,0.8320719,1.7106,0.5765176,1.378968,0.3098896,-0.01094999,-0.1107519,0.002790058,-1.155038,0.493735,0.1598746,0.7348768,1.370516,0.2088597,0.3317629,1.554873,0.2644027,338.1451,95.10566,156.3488,True
3,3.466659,-0.1149678,-0.08247379,-0.1599993,-1.405558,1.446662,-1.808039,0.4207334,1.333682,0.3858418,-1.87209,0.4148652,0,26.5,0.08228329,0.03658846,0.1987459,-0.3023524,0.8270421,1.714325,0.5769738,1.379048,0.3098056,-0.001427904,-0.09476253,-0.003670784,-1.155387,0.4931948,0.1598698,0.7351917,1.370455,0.2085938,0.3313928,1.55498,0.2640815,338.0164,95.2712,156.1637,True
3,3.47777,-0.1096664,-0.06330505,-0.160161,-1.404857,1.444974,-1.806683,0.4213443,1.333982,0.3860171,-1.867522,0.4111272,0,26.5,0.08216979,0.04513697,0.1827816,-0.3019023,0.8217191,1.718465,0.5774808,1.379143,0.3096993,0.00914336,-0.09794939,-0.0102041,-1.155933,0.4919362,0.1599188,0.735493,1.370463,0.2082667,0.3309728,1.555024,0.2636018,337.8896,95.46,155.8924,True
3,3.488881,-0.1086112,-0.05366984,-0.1549136,-1.404243,1.443527,-1.80528,0.4220952,1.334283,0.3861227,-1.8634,0.3705695,0,26.5,0.08849537,0.04940999,0.1742229,-0.3015093,0.8156483,1.723148,0.5781599,1.379274,0.309541,0.003976837,-0.1161075,0.004714567,-1.155744,0.4896805,0.1610459,0.735898,1.370473,0.2079527,0.3304816,1.555037,0.263081,337.7708,95.67146,155.5692,True
3,3.499992,-0.103316,-0.02481621,-0.1434316,-1.404461,1.442298,-1.804155,0.4227484,1.334504,0.3862715,-1.858899,0.4054982,0,30,0.09690125,0.04516801,0.1581738,-0.3014773,0.8112534,1.725942,0.578811,1.379324,0.309474,-0.001206383,-0.1203973,0.01648352,-1.155426,0.4880989,0.161828,0.7363319,1.370424,0.2075975,0.3299126,1.55506,0.2626467,337.6251,95.88638,155.2395,True
3,3.511103,-0.1012011,-0.01625384,-0.1392395,-1.404227,1.4409,-1.802796,0.4234788,1.33472,0.3863811,-1.854494,0.3964354,0,30,0.1085905,0.04090585,0.15488,-0.3014656,0.8058512,1.729589,0.579389,1.379404,0.3093772,0.003192488,-0.1140441,0.02710351,-1.154936,0.4868321,0.1621415,0.7366624,1.370392,0.2073121,0.3293037,1.555102,0.2624246,337.405,96.09106,154.9703,True
3,3.522214,-0.09269259,0.0105743,-0.1160406,-1.404864,1.440071,-1.801979,0.424187,1.334853,0.3864748,-1.850472,0.3615934,0,30,0.1181491,0.0334297,0.1515909,-0.3018853,0.8009335,1.732687,0.5799522,1.379397,0.3094721,0.004145131,-0.1001636,0.01648157,-1.155241,0.4861567,0.1622771,0.7369839,1.370319,0.206985,0.3287267,1.555199,0.2624647,337.1345,96.26616,154.8153,True
3,3.533325,-0.08842584,0.02344842,-0.1033815,-1.405108,1.439335,-1.800981,0.4248533,1.335088,0.3866043,-1.846073,0.3963807,0,30,0.1212592,0.01214355,0.1408732,-0.3026816,0.7972517,1.734748,0.580573,1.379437,0.3093793,0.01255742,-0.1044067,0.007841638,-1.155641,0.4847901,0.1624193,0.737354,1.370281,0.2067106,0.3282253,1.555345,0.2627911,336.8865,96.38858,154.7893,True
3,3.544436,-0.08205905,0.03954137,-0.09179282,-1.405927,1.438337,-1.800138,0.4254351,1.335278,0.3866799,-1.842296,0.3391675,0,32.2,0.1200852,0.0110947,0.1270341,-0.3028483,0.7940953,1.736541,0.5811639,1.379703,0.3091562,0.01559187,-0.1086328,-0.004998498,-1.156358,0.4833787,0.1627048,0.7376636,1.370214,0.206465,0.3278252,1.555525,0.2633499,336.6588,96.47481,154.8738,True
3,3.555547,-0.07886665,0.04277006,-0.08862447,-1.406304,1.437335,-1.799207,0.4261053,1.335474,0.3867619,-1.837962,0.3906493,0,32.2,0.1232872,0.00576517,0.1280653,-0.3032137,0.7893532,1.73958,0.5818083,1.379786,0.3090775,0.01983494,-0.1128951,-0.00612954,-1.156692,0.481906,0.1629346,0.738036,1.370166,0.2061932,0.327529,1.555735,0.2640821,336.4646,96.49905,155.0382,True
