loc,t,aDotUA,bDotUA,gDotUA,aUA,bUA,gUA,xUA,yUA,zUA,qE,qDotE,emgA,emgB,aDotSH,bDotSH,gDotSH,aSH,bSH,gSH,xSH,ySH,zSH,aDotUB,bDotUB,gDotUB,aUB,bUB,gUB,xUB,yUB,zUB,xHand,yHand,zHand,aHand,bHand,gHand,enable
0,0,0.05846971,-0.5077918,-0.09134288,-1.429916,-4.218935,2.884779,0.6621187,1.117033,0.4667571,-1.768501,0.05020202,9.6,1.4,-0.08437712,0.2793097,-0.1115812,-0.81893,-4.32714,0.09351717,0.6775641,1.310095,0.3990827,-0.005656309,0.05119227,0.08082418,-0.9508913,0.2886289,0.0158522,0.800428,1.38595,0.2378776,0.4910569,1.000827,0.2906989,297.9132,238.9862,351.3729,True
0,0.01111111,0.04886305,-0.5025251,-0.09669885,-1.430129,-4.213356,2.883823,0.6615156,1.116753,0.4662735,-1.768901,-0.03692364,9.6,1.4,-0.05326206,0.2079158,-0.09177013,-0.8191942,-4.327024,0.09299386,0.6773118,1.310059,0.398782,0.002884842,0.03523804,0.0806604,-0.9498947,0.2887612,0.01541118,0.8001405,1.386023,0.2377245,0.4914773,1.000532,0.2895346,298.0547,237.9378,352.101,True
0,0.02222222,0.02964552,-0.4823388,-0.09895989,-1.430212,-4.208501,2.883474,0.6611792,1.116717,0.4660611,-1.76813,0.07087392,9.6,1.4,-0.03176659,0.1365165,-0.07615155,-0.8196475,-4.328042,0.09339466,0.677296,1.310041,0.3986952,0.01334604,0.006551443,0.06337305,-0.9497669,0.2876575,0.01558668,0.8000232,1.386038,0.2375865,0.4921278,1.00007,0.2879881,298.1486,237.4389,352.1743,True
0,0.03333334,0.01146815,-0.4504285,-0.09916303,-1.430222,-4.204249,2.883366,0.6609976,1.116693,0.4658539,-1.768351,-0.02075801,3.3,1.2,-0.006039143,0.07471812,-0.06372751,-0.8199915,-4.32953,0.09356724,0.6773956,1.310024,0.3986025,0.02590449,-0.01570929,0.04394972,-0.9499277,0.2869958,0.01526843,0.7999099,1.385975,0.2373705,0.4930292,0.9995213,0.2862213,298.2868,237.0317,352.0224,True
0,0.04444445,-0.001378246,-0.4195197,-0.09297374,-1.43031,-4.200573,2.883333,0.6607642,1.116655,0.465704,-1.76798,0.0341842,3.3,1.2,0.01005736,0.03848788,-0.05329791,-0.8203191,-4.330301,0.09345059,0.677429,1.309992,0.3985217,0.03318692,-0.03265983,0.02887816,-0.9500497,0.2864584,0.01497575,0.7997293,1.385933,0.2372437,0.4940192,0.9989191,0.2843421,298.4267,236.5932,351.8328,True
0,0.05555556,-0.02283716,-0.3417751,-0.09028213,-1.429863,-4.199254,2.883992,0.660784,1.116721,0.465714,-1.767896,0.007491559,3.3,1.2,0.02928909,-0.004114418,-0.0514289,-0.8209226,-4.332357,0.09382396,0.6775345,1.309844,0.3985755,0.03934994,-0.05175569,0.009549209,-0.9506478,0.2849373,0.01520665,0.7997044,1.385901,0.2370946,0.4951246,0.9983882,0.282607,298.5975,236.1528,351.6342,True
0,0.06666667,-0.03461983,-0.307735,-0.09369946,-1.429382,-4.196642,2.88429,0.660604,1.116905,0.4656632,-1.768028,-0.01199832,3.3,1.2,0.05180426,-0.01798514,-0.03459424,-0.8207942,-4.333012,0.09301995,0.6777918,1.30988,0.3986089,0.03712498,-0.06770454,0.0009956153,-0.9509083,0.2833689,0.01580959,0.7996827,1.385848,0.2369332,0.496204,0.9980044,0.2811372,298.7487,235.7534,351.4693,True
0,0.07777778,-0.04751555,-0.2534459,-0.09512675,-1.428497,-4.195297,2.885052,0.6606203,1.1169,0.4657781,-1.767813,0.01984716,3.3,1.2,0.06898753,-0.03505771,-0.01879383,-0.8205593,-4.334359,0.09258719,0.6780924,1.309947,0.3986862,0.04023781,-0.09216265,-0.007661495,-0.9513461,0.2811663,0.01647618,0.7997764,1.385751,0.2368155,0.4970884,0.9978037,0.2800076,298.8476,235.4124,351.3353,True
0,0.08888889,-0.05506838,-0.2043733,-0.08161113,-1.428204,-4.19426,2.885677,0.6607072,1.117012,0.465924,-1.768098,-0.02611907,0.9,1.4,0.08092424,-0.05535828,0.006622816,-0.8198808,-4.336111,0.09254058,0.678423,1.31005,0.398783,0.04550201,-0.1070454,-0.01311352,-0.9517381,0.2792042,0.01701467,0.7997037,1.385776,0.2366631,0.4976596,0.9978254,0.2793257,298.902,235.1516,351.2767,True
0,0.1,-0.05626591,-0.1393021,-0.06819317,-1.427749,-4.194805,2.88641,0.6609858,1.117137,0.4661028,-1.767971,0.01195913,0.9,1.4,0.08748533,-0.07884093,0.0256842,-0.8191196,-4.338483,0.09297415,0.6787785,1.310139,0.3988748,0.05174185,-0.1293418,-0.02605678,-0.9524199,0.2768943,0.01769031,0.7998239,1.385691,0.2364781,0.4978843,0.9980636,0.2790539,298.8729,234.9284,351.3728,True
0,0.1111111,-0.06168599,-0.09132192,-0.05892036,-1.427323,-4.195055,2.88726,0.6611836,1.117224,0.4662263,-1.768248,-0.02538521,0.9,1.4,0.1005971,-0.1300622,0.06166438,-0.8175744,-4.342983,0.09447964,0.6793344,1.310248,0.3990359,0.06009872,-0.1558963,-0.04118545,-0.9534681,0.2739433,0.01842535,0.8001014,1.385743,0.2363546,0.4978482,0.9984735,0.2791888,298.7464,234.8005,351.5238,True
0,0.1222222,-0.06398026,-0.01021022,-0.03602111,-1.427036,-4.197869,2.888422,0.661666,1.117325,0.4664834,-1.768492,-0.02205388,0.9,1.4,0.1006559,-0.1684214,0.06475583,-0.8170674,-4.347497,0.09646555,0.6797811,1.310351,0.3991954,0.06212841,-0.1707766,-0.04978989,-0.9543406,0.2710133,0.01943894,0.8002005,1.385725,0.2361462,0.4976587,0.9990168,0.2796714,298.5934,234.8399,351.651,True
0,0.1333333,-0.06948111,0.07835165,-0.01210217,-1.426805,-4.201545,2.889807,0.6622547,1.117447,0.4668462,-1.768431,0.005799069,0,0.8,0.1145715,-0.209969,0.06879333,-0.8166621,-4.352623,0.09824961,0.6804782,1.310444,0.3994467,0.07154453,-0.1877413,-0.06382836,-0.9556072,0.2681734,0.02006878,0.8004688,1.38565,0.2359016,0.4973683,0.9996256,0.2804074,298.4251,234.9589,351.8106,True
0,0.1444445,-0.06533902,0.1370494,0.002422169,-1.426432,-4.205215,2.890899,0.6627945,1.117535,0.4671037,-1.768541,-0.01010163,0,0.8,0.1262881,-0.2365838,0.06543394,-0.8164373,-4.357471,0.09978119,0.6810482,1.310497,0.3996391,0.07465314,-0.1983627,-0.0713652,-0.9566932,0.2651437,0.02091753,0.8005601,1.385659,0.2356911,0.4970061,1.000225,0.2812548,298.2628,235.0956,351.9841,True
0,0.1555556,-0.07408377,0.2458619,0.02940193,-1.42609,-4.211471,2.892946,0.6636354,1.117669,0.467427,-1.768517,0.002329104,0,0.8,0.1401092,-0.2504042,0.05996083,-0.8163233,-4.361851,0.1007351,0.6815478,1.310526,0.3998303,0.0767599,-0.2058008,-0.07355236,-0.9576392,0.2622384,0.02173645,0.8007364,1.385498,0.2355342,0.4966424,1.0008,0.2822245,298.1206,235.2915,352.0717,True
0,0.1666667,-0.07524348,0.2927448,0.03122179,-1.425321,-4.21612,2.894464,0.6642569,1.117792,0.4677033,-1.768856,-0.0309103,0,0.8,0.148659,-0.2397582,0.06418869,-0.8156053,-4.365059,0.1009783,0.6821238,1.310634,0.400039,0.07574905,-0.2175277,-0.07039446,-0.95847,0.2589723,0.0227908,0.8008206,1.385364,0.2354064,0.4962758,1.001335,0.2833058,298.0015,235.5234,352.1369,True
0,0.1777778,-0.07856683,0.3546435,0.04998667,-1.425061,-4.222088,2.896317,0.6650807,1.1179,0.467993,-1.768358,0.04578184,0,0.8,0.1540593,-0.2206101,0.07591762,-0.814579,-4.367704,0.1009101,0.6826692,1.310742,0.4002194,0.07576681,-0.221793,-0.06934553,-0.9592482,0.2558592,0.02374714,0.8009906,1.385282,0.2352295,0.4958849,1.001805,0.2844458,297.902,235.753,352.2188,True
0,0.1888889,-0.07542658,0.3834449,0.05512089,-1.424587,-4.227287,2.897746,0.6657438,1.118047,0.4682758,-1.768651,-0.02715146,0,1.5,0.1530927,-0.2099955,0.08980508,-0.813314,-4.370612,0.1012702,0.6833024,1.310844,0.4004016,0.07573377,-0.2271082,-0.07255542,-0.9601346,0.25261,0.0247421,0.8012353,1.385189,0.2350607,0.4954455,1.002236,0.2856713,297.835,236.0223,352.2885,True
0,0.2,-0.07445859,0.4304051,0.06865276,-1.424195,-4.233677,2.899489,0.6666157,1.118079,0.4685769,-1.768603,0.004620615,0,1.5,0.1584749,-0.2078804,0.0972264,-0.8121927,-4.373832,0.1015628,0.6839565,1.310952,0.4005802,0.07140338,-0.226017,-0.07782638,-0.9613069,0.2498507,0.02568273,0.8014458,1.38513,0.2349005,0.4949618,1.00264,0.2869299,297.7728,236.2523,352.4219,True
0,0.2111111,-0.07127875,0.4400152,0.07178792,-1.423912,-4.238803,2.900851,0.6674214,1.118103,0.4688971,-1.768947,-0.03141254,0,1.5,0.1606206,-0.2249237,0.09716862,-0.8114018,-4.37827,0.1027543,0.684653,1.311035,0.4007516,0.0724272,-0.2313263,-0.08105518,-0.9623647,0.246599,0.02679353,0.8015673,1.385063,0.2346513,0.4944733,1.003052,0.2882189,297.7162,236.551,352.5002,True
0,0.2222222,-0.07022672,0.4464161,0.07281061,-1.423481,-4.24412,2.902379,0.6682085,1.118212,0.4691758,-1.768867,0.007576903,0,1.5,0.16803,-0.2461996,0.08853054,-0.8110774,-4.383143,0.1039733,0.6853238,1.311125,0.4009404,0.08410181,-0.2440819,-0.08551541,-0.9635423,0.2427883,0.02766438,0.8018061,1.384969,0.2343602,0.4939934,1.003475,0.2895039,297.6404,236.825,352.5956,True
0,0.2333333,-0.06279553,0.4570601,0.07060844,-1.422938,-4.249477,2.903681,0.6690009,1.118289,0.469497,-1.769061,-0.01780787,0,1.5,0.1711364,-0.2695954,0.07352823,-0.8111919,-4.38846,0.1055312,0.6860752,1.311216,0.4010603,0.09578465,-0.2579083,-0.08891189,-0.9647024,0.2387251,0.02860395,0.8020616,1.384871,0.2341015,0.4935657,1.003907,0.2908109,297.529,237.1183,352.6732,True
0,0.2444444,-0.06172492,0.4549601,0.07488339,-1.422733,-4.25465,2.905106,0.6697675,1.118419,0.4697771,-1.768951,0.01024101,4.2,1.3,0.1636351,-0.2855665,0.06608501,-0.8111126,-4.393722,0.107593,0.6868433,1.311314,0.4012444,0.1095465,-0.2685191,-0.09658702,-0.9661447,0.2346439,0.02921514,0.8023225,1.384798,0.2338481,0.4932265,1.004328,0.2921021,297.4171,237.4004,352.7599,True
0,0.2555556,-0.05853334,0.4602336,0.06632186,-1.421856,-4.259918,2.906295,0.6705686,1.118593,0.4700508,-1.769165,-0.01965856,4.2,1.3,0.1551911,-0.2877344,0.07679923,-0.8102204,-4.398402,0.10947,0.6876204,1.3114,0.4013226,0.1189955,-0.2684757,-0.107366,-0.967838,0.2309853,0.02968173,0.8026209,1.384491,0.2335274,0.4929443,1.004726,0.2933334,297.3364,237.6364,352.8552,True
0,0.2666667,-0.06065799,0.4548587,0.05996452,-1.421149,-4.264824,2.907828,0.6713914,1.118681,0.4703245,-1.769034,0.01216659,4.2,1.3,0.1521025,-0.2771244,0.09176626,-0.8089736,-4.402335,0.1105521,0.6883754,1.311487,0.4014306,0.1190203,-0.2610293,-0.1052053,-0.9689859,0.2277695,0.03014192,0.8029212,1.384397,0.2332716,0.4927054,1.005105,0.294511,297.2695,237.8545,352.928,True
0,0.2777778,-0.05531865,0.4484378,0.05361135,-1.420345,-4.269609,2.90894,0.6722142,1.118916,0.4706004,-1.769253,-0.020268,4.2,1.3,0.1521626,-0.2782134,0.09921962,-0.8079951,-4.406896,0.1119891,0.6891153,1.31157,0.4015868,0.1191301,-0.2653247,-0.09670354,-0.969935,0.2239946,0.03102023,0.8031985,1.384356,0.233088,0.4924873,1.005478,0.2956309,297.2226,238.0799,352.9825,True
0,0.2888889,-0.05423858,0.4366896,0.0483675,-1.419733,-4.2742,2.910315,0.6731207,1.119059,0.4709094,-1.768874,0.03490113,1.5,1.4,0.1468734,-0.2771636,0.1045892,-0.8070481,-4.411263,0.1135873,0.6898381,1.311739,0.4017606,0.1159376,-0.265334,-0.09667295,-0.9712671,0.2203109,0.03189908,0.8035753,1.384273,0.2328889,0.4923054,1.005851,0.2967229,297.1604,238.2247,353.1035,True
0,0.3,-0.05209649,0.4313819,0.05053302,-1.419262,-4.278929,2.911533,0.6738738,1.119176,0.4711592,-1.769226,-0.03260559,1.5,1.4,0.1458247,-0.2867551,0.1056366,-0.8062502,-4.41634,0.1155274,0.6905617,1.311868,0.4019284,0.114846,-0.2663923,-0.09879374,-0.9725294,0.2167,0.03268551,0.8039163,1.384149,0.2326868,0.4921639,1.006227,0.297798,297.0984,238.3733,353.2144,True
0,0.3111111,-0.04035822,0.4197472,0.05912806,-1.41913,-4.283439,2.912349,0.6747652,1.11929,0.4714139,-1.768974,0.02335156,1.5,1.4,0.1351427,-0.2920766,0.1003786,-0.8057277,-4.42119,0.1176158,0.6912944,1.312031,0.4021432,0.1029515,-0.2642235,-0.1124795,-0.9743292,0.2132662,0.033832,0.8042771,1.384083,0.2325437,0.492096,1.006625,0.2988785,297.0421,238.521,353.3209,True
0,0.3222222,-0.03179807,0.4048878,0.06455399,-1.419068,-4.287706,2.913036,0.6754586,1.11946,0.4716647,-1.769111,-0.01273669,1.5,1.4,0.1211975,-0.2835384,0.08879137,-0.8054358,-4.425303,0.1195259,0.6919391,1.312143,0.4023359,0.08163057,-0.261045,-0.1132586,-0.9757209,0.2099404,0.03549568,0.804656,1.383964,0.2324607,0.4920751,1.007035,0.2999533,296.9734,238.6907,353.4022,True
0,0.3333333,-0.0285887,0.3985047,0.0645983,-1.418823,-4.292091,2.913953,0.6761352,1.119534,0.4719367,-1.76948,-0.03361414,1.5,1.4,0.1039881,-0.2739109,0.06870963,-0.8056536,-4.429151,0.12158,0.6925764,1.312262,0.4025676,0.06342301,-0.2546445,-0.1204578,-0.9773897,0.2068056,0.03707413,0.8049732,1.383874,0.2324626,0.4920217,1.007438,0.3009923,296.8979,238.8977,353.4503,True
0,0.3444445,-0.02643454,0.387871,0.06680007,-1.41873,-4.296184,2.914799,0.676888,1.119665,0.472271,-1.769562,-0.007228383,0,1.5,0.09540606,-0.2664435,0.06240429,-0.8054869,-4.432988,0.1234665,0.6932177,1.312392,0.4027326,0.05380163,-0.2471891,-0.1224365,-0.9789109,0.2038843,0.03843075,0.8053621,1.383773,0.2324023,0.4919989,1.007831,0.3020118,296.8254,239.1422,353.468,True
0,0.3555556,-0.02960218,0.3739645,0.05943946,-1.418358,-4.2999,2.915809,0.6774904,1.119762,0.4726727,-1.769298,0.02414825,0,1.5,0.09111986,-0.243007,0.0625034,-0.8049628,-4.435648,0.1245172,0.6938031,1.312496,0.4029629,0.0430965,-0.2376121,-0.1254573,-0.9804673,0.2010181,0.03989149,0.8057578,1.383698,0.2323186,0.4919404,1.008184,0.3029791,296.7625,239.3552,353.4885,True
0,0.3666667,-0.03171468,0.3643385,0.05417738,-1.417937,-4.303685,2.916823,0.6781569,1.119902,0.473048,-1.76925,0.004138332,0,1.5,0.08473004,-0.2291747,0.0657869,-0.8043849,-4.438784,0.126061,0.6944606,1.312609,0.4031944,0.04097292,-0.2301624,-0.124336,-0.9818878,0.1982662,0.0410204,0.8061497,1.383553,0.232311,0.4918584,1.008489,0.3039253,296.7011,239.5337,353.5154,True
0,0.3777778,-0.03591857,0.337624,0.04370599,-1.417503,-4.30654,2.917751,0.6787231,1.120016,0.4735112,-1.769003,0.02258215,0,1.5,0.08158091,-0.2068296,0.07439494,-0.8034778,-4.441108,0.1268799,0.6950774,1.312686,0.4034109,0.04090582,-0.2248203,-0.128575,-0.9835358,0.1955692,0.04214159,0.8065222,1.383451,0.2322822,0.4918167,1.008762,0.3048963,296.653,239.6974,353.5408,True
0,0.3888889,-0.04015037,0.3237247,0.03739374,-1.416854,-4.309716,2.918796,0.6793586,1.120073,0.4738271,-1.768976,0.002241855,0,3.3,0.07305896,-0.1940583,0.07662928,-0.8027465,-4.443697,0.1282211,0.6957482,1.312792,0.4036441,0.0440076,-0.2205409,-0.1360432,-0.985229,0.1926726,0.0430777,0.8069403,1.3832,0.2322004,0.4917718,1.009005,0.3058895,296.6214,239.8213,353.5912,True
0,0.4,-0.03903025,0.2959167,0.020533,-1.416001,-4.31198,2.919551,0.6799303,1.120205,0.4742682,-1.768924,0.004704885,0,3.3,0.06456891,-0.1930121,0.08095917,-0.8019817,-4.446749,0.1299244,0.6964608,1.312861,0.4039116,0.05143259,-0.2162642,-0.1382533,-0.9869217,0.1900978,0.0436588,0.8073139,1.383071,0.2322009,0.4917403,1.009242,0.3069192,296.6007,239.938,353.6608,True
0,0.4111111,-0.04538164,0.2745253,0.008948953,-1.415104,-4.314269,2.920635,0.6805169,1.120404,0.4746146,-1.768862,0.00563052,0,3.3,0.07103817,-0.2164658,0.08829885,-0.8012738,-4.451402,0.1321346,0.6972504,1.312955,0.4041853,0.05994384,-0.2173232,-0.1404848,-0.9884695,0.1871105,0.04419569,0.8076386,1.382911,0.2321603,0.4917217,1.009479,0.307957,296.5679,240.0427,353.7587,True
0,0.4222222,-0.04744611,0.2413914,-0.006810518,-1.414178,-4.315608,2.92145,0.681074,1.120527,0.4749961,-1.769019,-0.01433166,0,3.3,0.08283702,-0.261212,0.09341137,-0.800681,-4.45761,0.1351283,0.6980615,1.313003,0.4045126,0.06206363,-0.2205129,-0.1415894,-0.9901835,0.184168,0.04506228,0.8080074,1.382777,0.232125,0.4917154,1.009712,0.3089684,296.5246,240.1257,353.8938,True
0,0.4333333,-0.04847197,0.2211201,-0.01200374,-1.413506,-4.317472,2.922315,0.6816379,1.120678,0.4753242,-1.768726,0.02689517,0,3.3,0.09031259,-0.2857067,0.09328657,-0.8002186,-4.463267,0.1378548,0.6988189,1.31306,0.4047945,0.06734681,-0.2247589,-0.1459279,-0.9919929,0.1810248,0.04577894,0.8083534,1.382644,0.2320361,0.4917714,1.00995,0.309938,296.4949,240.1592,354.0504,True
0,0.4444444,-0.0495436,0.2221762,-0.01307287,-1.412844,-4.320004,2.923248,0.6822466,1.120779,0.4756682,-1.768835,-0.01017301,18.9,4.2,0.1009247,-0.31337,0.08460608,-0.8002154,-4.469417,0.1406383,0.6996136,1.313107,0.4051156,0.0790848,-0.2279513,-0.1450361,-0.9938321,0.1778876,0.04616616,0.8086948,1.382409,0.2319322,0.4918761,1.010208,0.3108276,296.4772,240.1718,354.2118,True
0,0.4555556,-0.05167298,0.2253842,-0.01096314,-1.412226,-4.322597,2.924299,0.6828641,1.120783,0.4759946,-1.768905,-0.006326324,18.9,4.2,0.1072298,-0.326114,0.07280943,-0.8003316,-4.475092,0.1432743,0.7003703,1.31307,0.4053874,0.09079248,-0.2321966,-0.146268,-0.9956238,0.174707,0.04647483,0.8090341,1.382252,0.231864,0.492049,1.010485,0.3116048,296.442,240.1602,354.3608,True
0,0.4666667,-0.05381974,0.2328663,-0.006750882,-1.411675,-4.325455,2.925439,0.6835516,1.120832,0.4763377,-1.768963,-0.005221188,18.9,4.2,0.105036,-0.3228874,0.06431223,-0.8003497,-4.479753,0.1454067,0.7011105,1.31315,0.4057214,0.1024932,-0.2396332,-0.1485818,-0.9975706,0.1713278,0.04678801,0.8092904,1.382192,0.2319283,0.4922498,1.01078,0.3122679,296.3981,240.1656,354.4443,True
0,0.4777778,-0.05917914,0.2467585,0.001681934,-1.411294,-4.328702,2.926858,0.6842239,1.120983,0.4768565,-1.768871,0.008441932,18.9,4.2,0.1092842,-0.3175542,0.06322852,-0.8001851,-4.484538,0.1473809,0.7018633,1.313157,0.4059939,0.1142998,-0.2471024,-0.1423694,-0.9991227,0.1678328,0.04703249,0.8095783,1.38205,0.2318635,0.492444,1.011079,0.3128715,296.325,240.1677,354.5005,True
0,0.4888889,-0.06133863,0.2585081,0.00693019,-1.410811,-4.331984,2.928191,0.6849624,1.121011,0.4771531,-1.768829,0.003808502,100,6.9,0.1113923,-0.310092,0.06323039,-0.7999704,-4.489037,0.1494065,0.7026695,1.313196,0.4062474,0.1217285,-0.2449501,-0.1445912,-1.000953,0.1648903,0.04703622,0.8099399,1.381954,0.2318347,0.4926209,1.011365,0.3134718,296.235,240.1755,354.5518,True
0,0.5,-0.06988628,0.2713231,0.01430389,-1.41047,-4.335504,2.929816,0.6856561,1.121045,0.4774983,-1.768635,0.01773128,100,6.9,0.1220083,-0.3058097,0.0588984,-0.7999625,-4.493655,0.1509048,0.7034102,1.313183,0.4065053,0.1218206,-0.2407173,-0.1371181,-1.002357,0.1619081,0.04729801,0.8102051,1.381799,0.2317576,0.4928073,1.011648,0.3141411,296.1741,240.1981,354.5799,True
0,0.5111111,-0.06883044,0.278806,0.01744977,-1.410026,-4.338895,2.931013,0.6862319,1.121118,0.4778728,-1.768743,-0.01004113,100,6.9,0.1294093,-0.3036558,0.05139757,-0.800078,-4.498429,0.1524894,0.7041653,1.313183,0.4067361,0.1208114,-0.2428658,-0.1328566,-1.003897,0.1586598,0.04774169,0.8105239,1.381636,0.231684,0.4929692,1.011959,0.3149389,296.1353,240.2614,354.5973,True
0,0.5222223,-0.07736076,0.2830846,0.02274954,-1.409759,-4.342268,2.932722,0.6868969,1.12112,0.4781744,-1.768545,0.01823601,100,6.9,0.1388775,-0.30574,0.03640551,-0.800738,-4.503236,0.1540218,0.7048963,1.313149,0.4069979,0.1208816,-0.2439543,-0.1285717,-1.004975,0.1553227,0.04804609,0.8108605,1.381437,0.231616,0.4930583,1.01229,0.315845,296.0695,240.3633,354.6691,True
0,0.5333334,-0.0731096,0.2873605,0.02378013,-1.409262,-4.345604,2.933933,0.6875188,1.121099,0.4786539,-1.768968,-0.03877585,100,6.9,0.1378051,-0.3036087,0.03534993,-0.8009303,-4.507878,0.1557302,0.7055988,1.313174,0.4073751,0.1252873,-0.2482494,-0.1179967,-1.006132,0.1519147,0.04825461,0.8110745,1.381376,0.231652,0.4930375,1.012643,0.316831,295.9995,240.4957,354.7481,True
0,0.5444446,-0.07314004,0.2959204,0.0290414,-1.408919,-4.349275,2.935549,0.6882404,1.121121,0.4788766,-1.768906,0.006542025,100,7.1,0.1324731,-0.306805,0.03431767,-0.8011124,-4.512792,0.1578788,0.7062739,1.313165,0.4076335,0.1285404,-0.2440099,-0.1147955,-1.007106,0.148713,0.04822958,0.8113523,1.381123,0.2316511,0.4929207,1.013026,0.3178757,295.9222,240.6362,354.846,True
0,0.5555557,-0.07528116,0.3012635,0.03220233,-1.40866,-4.352847,2.937043,0.6888673,1.121136,0.4791598,-1.770234,-0.1205011,100,7.1,0.1271422,-0.3089451,0.03434841,-0.8013452,-4.517732,0.1601574,0.7069301,1.313163,0.4079249,0.1231796,-0.2365504,-0.1168295,-1.008579,0.1460166,0.04849723,0.8115858,1.380993,0.2316446,0.4927689,1.013466,0.3189493,295.8336,240.782,354.9569,True
0,0.5666668,-0.07422337,0.3055752,0.0385652,-1.408558,-4.356541,2.938422,0.6894629,1.12114,0.479409,-1.771391,-0.1033388,100,7.1,0.1250066,-0.3057489,0.03437557,-0.8014719,-4.522251,0.1620384,0.7075467,1.31319,0.4081976,0.1230912,-0.2322648,-0.1231987,-1.010219,0.143288,0.04862426,0.8117151,1.380908,0.231616,0.4926367,1.013998,0.3200425,295.7261,240.9108,355.0811,True
0,0.577778,-0.06889792,0.305551,0.03323784,-1.40808,-4.359928,2.939562,0.6900294,1.121158,0.4797096,-1.773535,-0.1933466,100,7.1,0.1239135,-0.2929663,0.03335234,-0.8016083,-4.526175,0.1635509,0.7081355,1.313183,0.4084911,0.1252428,-0.2290747,-0.1210958,-1.011748,0.1405148,0.04865302,0.8118106,1.380863,0.2316031,0.4925021,1.014661,0.321087,295.6209,241.0771,355.2023,True
0,0.5888891,-0.06888226,0.3034315,0.03431338,-1.407738,-4.363299,2.940747,0.6905727,1.121191,0.4801095,-1.776437,-0.2613054,100,7.1,0.1196256,-0.2855105,0.03021641,-0.801815,-4.530423,0.1652483,0.7087693,1.313189,0.4087112,0.1253165,-0.2290945,-0.115774,-1.013029,0.1376065,0.04874038,0.8119519,1.380783,0.2316267,0.4923368,1.015505,0.322025,295.4888,241.2256,355.3164,True
0,0.6000003,-0.06034112,0.2938194,0.02798373,-1.40724,-4.366221,2.941604,0.6910765,1.121241,0.4804571,-1.780104,-0.3302611,98.8,4,0.1142651,-0.2674018,0.02817725,-0.8019678,-4.533741,0.1665067,0.7092632,1.313235,0.4089644,0.1275339,-0.2259211,-0.1083367,-1.014148,0.1349043,0.04876567,0.8121245,1.380676,0.231607,0.4921415,1.016571,0.3228316,295.2998,241.3263,355.436,True
0,0.6111114,-0.06032179,0.2852885,0.02697243,-1.406921,-4.369104,2.942732,0.6916744,1.121274,0.4807343,-1.784285,-0.3760605,98.8,4,0.1068158,-0.2482444,0.03148014,-0.8019385,-4.536827,0.1677251,0.7097487,1.313139,0.4091477,0.1318706,-0.2269998,-0.1030793,-1.015356,0.1319783,0.04860429,0.8123209,1.380572,0.2315962,0.4919587,1.017881,0.3235262,295.0428,241.3107,355.6002,True
0,0.6222225,-0.0613658,0.2745982,0.02171691,-1.406442,-4.371806,2.943882,0.6922054,1.121326,0.4810727,-1.789529,-0.4723166,98.8,4,0.1047033,-0.2290814,0.03580999,-0.8017542,-4.539677,0.1685749,0.7102889,1.313157,0.4093843,0.1351503,-0.2270219,-0.09672973,-1.016367,0.1290218,0.04851694,0.8124387,1.380466,0.2315807,0.4917946,1.019448,0.324145,294.7264,241.2483,355.7616,True
0,0.6333337,-0.06133065,0.2575191,0.01543616,-1.405901,-4.374177,2.94496,0.692689,1.121318,0.4813139,-1.795095,-0.5004212,98.8,4,0.1078877,-0.2269538,0.03578502,-0.8018816,-4.543269,0.1698684,0.7108688,1.313144,0.4097276,0.1384191,-0.2249039,-0.09144308,-1.017405,0.1262769,0.04825115,0.8126293,1.380362,0.2315953,0.4916582,1.02127,0.3246968,294.3478,241.1573,355.9608,True
0,0.6444448,-0.06450602,0.2478734,0.006975019,-1.405163,-4.376651,2.946145,0.6932185,1.121398,0.4817619,-1.801692,-0.5938443,86.8,3.6,0.1100384,-0.2227004,0.03897616,-0.801735,-4.546632,0.1709116,0.7113702,1.313165,0.4100099,0.1352866,-0.2238536,-0.08609414,-1.018567,0.1235889,0.04830815,0.8127443,1.380332,0.2315929,0.491564,1.023342,0.3251729,293.9186,241.0504,356.1864,True
0,0.655556,-0.05915146,0.2340076,0.002804767,-1.404652,-4.378738,2.946998,0.693668,1.121461,0.4821217,-1.809271,-0.6821802,86.8,3.6,0.1142854,-0.2280128,0.03572894,-0.8019545,-4.550402,0.1720594,0.711756,1.313159,0.4102743,0.1397148,-0.2270935,-0.07337854,-1.019053,0.1205403,0.04819043,0.8128357,1.380253,0.231606,0.4914729,1.02566,0.3255538,293.4373,240.8697,356.4673,True
0,0.6666671,-0.06232423,0.2233268,-0.0003195219,-1.404155,-4.380847,2.948132,0.6940898,1.12156,0.4824917,-1.81765,-0.7539577,86.8,3.6,0.1131923,-0.2354593,0.03145033,-0.8023103,-4.554348,0.1735768,0.7122984,1.31326,0.4105766,0.1376075,-0.2239075,-0.07123385,-1.020227,0.1177951,0.0481598,0.8129828,1.380176,0.2315676,0.4913842,1.028214,0.3258328,292.9047,240.5949,356.8028,True
0,0.6777782,-0.05910413,0.2105277,-0.004504726,-1.403477,-4.382757,2.949021,0.6945951,1.121777,0.4828577,-1.827154,-0.8557467,86.8,3.6,0.117401,-0.241827,0.02394302,-0.8027455,-4.558338,0.1748946,0.71276,1.313308,0.410877,0.1354991,-0.2185915,-0.06905576,-1.021049,0.1151735,0.0480855,0.8130547,1.38009,0.2315955,0.4913377,1.031016,0.326068,292.3381,240.2364,357.165,True
0,0.6888894,-0.05801441,0.2009393,-0.005509578,-1.402969,-4.384694,2.949895,0.6949657,1.121776,0.4831784,-1.836822,-0.8696039,86.8,3.6,0.1206074,-0.2439583,0.02604513,-0.8028461,-4.562109,0.1761836,0.7132939,1.313242,0.4110875,0.1312402,-0.2196647,-0.06900974,-1.02201,0.1122886,0.04827273,0.8131784,1.37996,0.231611,0.4912965,1.034053,0.3262637,291.7219,239.8646,357.5423,True
0,0.7000005,-0.05052923,0.187085,-0.008614875,-1.402456,-4.386232,2.950453,0.6953238,1.121873,0.4835253,-1.847619,-0.9722039,87.1,3.2,0.1216736,-0.2450227,0.02603401,-0.8030448,-4.565919,0.1774544,0.7137329,1.313298,0.4113715,0.1280572,-0.2186069,-0.06789944,-1.022838,0.1095373,0.04842186,0.8132417,1.37989,0.2316406,0.4912662,1.03732,0.3264302,291.0789,239.4597,357.9658,True
0,0.7111117,-0.04945698,0.1806912,-0.01070749,-1.401837,-4.38812,2.951376,0.6957163,1.121946,0.4840064,-1.858896,-1.014785,87.1,3.2,0.1185127,-0.2429041,0.0313997,-0.8028376,-4.569561,0.17888,0.7140669,1.313338,0.4116969,0.1249598,-0.218631,-0.06041022,-1.023446,0.1068615,0.04849883,0.8133141,1.379855,0.231683,0.4912854,1.040812,0.3265758,290.3839,238.9565,358.4966,True
0,0.7222228,-0.04092198,0.174296,-0.0138625,-1.401251,-4.389785,2.951803,0.6960597,1.122051,0.4843857,-1.870896,-1.080354,87.1,3.2,0.1207524,-0.2354861,0.04631733,-0.8022102,-4.57306,0.1799082,0.71443,1.313399,0.4119976,0.1239285,-0.2122517,-0.05717438,-1.024053,0.104398,0.04844476,0.813303,1.379795,0.2317274,0.4912938,1.044472,0.3266762,289.6113,238.3986,359.0774,True
0,0.7333339,-0.03878052,0.1689678,-0.01596891,-1.400519,-4.391514,2.952486,0.6964146,1.122172,0.4847331,-1.882819,-1.072465,87.1,3.2,0.1282325,-0.2131207,0.05164699,-0.8017537,-4.575355,0.179806,0.7148355,1.313474,0.41236,0.1187353,-0.2058917,-0.04643427,-1.024305,0.1022509,0.04840908,0.8132989,1.379733,0.2318125,0.4913563,1.048251,0.3267514,288.8129,237.7434,359.7231,True
0,0.7444451,-0.03450284,0.1604121,-0.02230475,-1.399795,-4.392867,2.952924,0.6967255,1.122286,0.4851182,-1.895833,-1.172154,69.5,3.1,0.1282164,-0.2024633,0.05061093,-0.8015556,-4.577991,0.1802188,0.7151297,1.313568,0.4126384,0.1082126,-0.1974222,-0.0356115,-1.02441,0.1000408,0.04872413,0.813296,1.379657,0.2318778,0.4914807,1.05211,0.3268426,288.017,236.9885,0.4401534,True
0,0.7555562,-0.03129232,0.1529344,-0.02651971,-1.399078,-4.394249,2.953394,0.6970301,1.122505,0.4855337,-1.908562,-1.14494,69.5,3.1,0.1100472,-0.1960669,0.04437498,-0.8016701,-4.580732,0.1815863,0.7154965,1.313697,0.4128869,0.100809,-0.192105,-0.03123961,-1.024742,0.09800925,0.04885915,0.8132875,1.379562,0.2319233,0.4916475,1.056022,0.3269505,287.2272,236.1735,1.243102,True
0,0.7666674,-0.03022883,0.1518773,-0.02545026,-1.398518,-4.395836,2.954031,0.6973664,1.122658,0.4859354,-1.921801,-1.191935,69.5,3.1,0.103665,-0.1896868,0.04657295,-0.8014341,-4.583473,0.1825757,0.7158141,1.313761,0.4131601,0.09967369,-0.1899554,-0.03653908,-1.025382,0.09564463,0.04900137,0.8132728,1.379501,0.232007,0.4918528,1.059958,0.3270666,286.4478,235.2654,2.158299,True
0,0.7777785,-0.028085,0.1454901,-0.02540816,-1.397967,-4.397172,2.954476,0.6976697,1.122803,0.4863412,-1.935006,-1.188316,69.5,3.1,0.1057823,-0.1715733,0.04766758,-0.8011487,-4.585294,0.1826654,0.7161045,1.313863,0.4133494,0.0932249,-0.1792838,-0.03960712,-1.025885,0.09395992,0.04911136,0.8132699,1.379429,0.2320373,0.4921161,1.063898,0.3271836,285.6849,234.2668,3.152695,True
0,0.7888896,-0.02808939,0.1486465,-0.0307566,-1.39714,-4.398799,2.955016,0.6979211,1.122986,0.4867327,-1.948197,-1.186953,69.5,3.1,0.1046783,-0.1704955,0.04341844,-0.8011529,-4.587929,0.1834135,0.7164737,1.313843,0.4136186,0.0932133,-0.1675485,-0.03955505,-1.026267,0.09250983,0.04883065,0.8132855,1.379344,0.2321146,0.4924427,1.067842,0.3273058,284.9475,233.1813,4.215652,True
0,0.8000008,-0.02596025,0.1497445,-0.02650298,-1.396676,-4.400471,2.955498,0.6981812,1.12316,0.4871171,-1.961755,-1.22052,63.2,2.7,0.1015219,-0.1683823,0.04877525,-0.8007705,-4.590572,0.1842263,0.7167603,1.313951,0.4139028,0.08998926,-0.1664785,-0.04164033,-1.026888,0.09038875,0.0490533,0.8132533,1.379286,0.2322252,0.4928243,1.071788,0.3274394,284.2093,232.0089,5.367806,True
0,0.8111119,-0.01956923,0.1497294,-0.03076948,-1.395839,-4.402035,2.955774,0.6983871,1.123291,0.487452,-1.975105,-1.201375,63.2,2.7,0.09841365,-0.167351,0.06158673,-0.7999928,-4.593294,0.1852838,0.7169861,1.31403,0.4142544,0.08150284,-0.1718286,-0.03940804,-1.027184,0.08781827,0.04972069,0.8130889,1.379151,0.2323451,0.4932454,1.075728,0.3275754,283.4705,230.6763,6.680923,True
0,0.8222231,-0.01531342,0.1518334,-0.03611084,-1.39493,-4.403675,2.956087,0.6985997,1.123463,0.4878232,-1.988491,-1.204805,63.2,2.7,0.1006561,-0.1631324,0.07649519,-0.7990112,-4.595994,0.1859757,0.7173616,1.314041,0.4145608,0.07619629,-0.1611916,-0.03716414,-1.027542,0.08608948,0.04991803,0.8130187,1.379078,0.2325048,0.4936669,1.079654,0.3277148,282.7498,229.1476,8.181426,True
0,0.8333342,-0.003585724,0.1475535,-0.0424783,-1.393997,-4.405023,2.955962,0.6987976,1.123613,0.4881859,-2.001954,-1.211878,63.2,2.7,0.09960529,-0.1663284,0.07756482,-0.7984551,-4.598837,0.1868426,0.7175943,1.314108,0.4148674,0.07299243,-0.1505309,-0.03709442,-1.028141,0.08476322,0.04985464,0.8130919,1.379115,0.232564,0.4940929,1.083561,0.3278708,282.0346,227.4969,9.817577,True
0,0.8444453,0.0006704666,0.1496716,-0.04568909,-1.39307,-4.406641,2.956092,0.698989,1.123767,0.4885762,-2.015168,-1.189119,61.7,3,0.09744312,-0.1812235,0.0722153,-0.7983075,-4.602325,0.1882911,0.7178509,1.314151,0.4151542,0.07191789,-0.141996,-0.03705487,-1.028682,0.08345042,0.04975504,0.8130645,1.379071,0.2326753,0.4945313,1.087422,0.3280402,281.331,225.5628,11.74906,True
0,0.8555565,0.008095842,0.1613582,-0.05322061,-1.391905,-4.408716,2.956214,0.6991584,1.123991,0.4891436,-2.028594,-1.208905,61.7,3,0.09642136,-0.1940195,0.07644953,-0.7978324,-4.60617,0.1899478,0.7179967,1.314231,0.4154789,0.06875336,-0.1324241,-0.0337812,-1.029025,0.08212709,0.04978061,0.8129933,1.379017,0.2328007,0.495011,1.091217,0.3282364,280.6601,223.3769,13.92958,True
0,0.8666676,0.01021193,0.1688235,-0.0532677,-1.390974,-4.410776,2.956409,0.6992838,1.12418,0.489676,-2.041308,-1.143659,61.7,3,0.0975224,-0.1919055,0.08177413,-0.7971432,-4.609342,0.1910954,0.7180952,1.314341,0.4157965,0.06879161,-0.1175258,-0.02946043,-1.029209,0.08121283,0.04950896,0.8129267,1.378988,0.23294,0.4955536,1.094918,0.3284622,280.0179,220.9445,16.35183,True
0,0.8777788,0.006975763,0.1879705,-0.05659026,-1.389731,-4.413341,2.956893,0.6993596,1.124415,0.4901726,-2.054117,-1.153121,61.7,3,0.08693133,-0.1599828,0.09366763,-0.7957962,-4.610663,0.191428,0.7181082,1.314388,0.4161353,0.05819695,-0.1015617,-0.02394653,-1.029402,0.08079804,0.04936409,0.812911,1.378991,0.2330728,0.4961291,1.098516,0.32873,279.4345,218.2185,19.03567,True
0,0.8888899,0.009094454,0.1911664,-0.05767722,-1.388662,-4.41546,2.957172,0.699463,1.124662,0.4906673,-2.066696,-1.131896,61.7,3,0.07528225,-0.1344604,0.1055474,-0.7944124,-4.612132,0.1919971,0.7180893,1.314571,0.4163847,0.0486498,-0.09303712,-0.02059688,-1.029568,0.08023598,0.04929911,0.8127564,1.379016,0.2332332,0.4966972,1.10203,0.3290935,278.9154,215.167,22.02018,True
0,0.900001,-0.007978655,0.2038437,-0.06841156,-1.387055,-4.41797,2.958307,0.6994399,1.124914,0.4911284,-2.078924,-1.100273,65.9,3,0.05830875,-0.1004203,0.1185555,-0.7926611,-4.612561,0.192244,0.718063,1.314713,0.4166567,0.03586631,-0.07920662,-0.01931372,-1.029752,0.0797646,0.04957315,0.8126813,1.378982,0.2334664,0.4971908,1.105488,0.3295659,278.4295,211.9012,25.25957,True
0,0.9111122,-0.01862274,0.1995256,-0.0737125,-1.385652,-4.419857,2.959208,0.6994594,1.125084,0.4913948,-2.091274,-1.11183,65.9,3,0.04345185,-0.08234847,0.1283103,-0.7910233,-4.613607,0.1929492,0.7180957,1.31487,0.4168496,0.02721613,-0.06744955,-0.0287449,-1.03037,0.07951014,0.0495561,0.8125405,1.378983,0.2336214,0.4975815,1.108915,0.3301458,277.9856,208.3616,28.83993,True
0,0.9222233,-0.03459545,0.19196,-0.08537908,-1.383944,-4.42153,2.960546,0.6994394,1.125244,0.4917986,-2.102602,-1.018365,65.9,3,0.03817403,-0.0813051,0.1347459,-0.7895069,-4.615282,0.1938867,0.7180687,1.314992,0.4171197,0.02496398,-0.0631585,-0.03828206,-1.031058,0.078802,0.04962881,0.8124837,1.378903,0.233861,0.4979276,1.112321,0.330812,277.57,204.481,32.81671,True
0,0.9333345,-0.0548219,0.1854858,-0.09172802,-1.382337,-4.42321,2.962129,0.6993142,1.125448,0.4921196,-2.114619,-1.082252,65.9,3,0.02859296,-0.06960373,0.1369807,-0.7880677,-4.616366,0.1946387,0.7179689,1.315108,0.4174373,0.0217526,-0.0556812,-0.03928001,-1.031525,0.07866831,0.04946023,0.8123651,1.378876,0.2339702,0.4981977,1.115729,0.3314975,277.193,200.0755,37.36754,True
0,0.9444456,-0.07294954,0.1939446,-0.0960397,-1.380726,-4.425529,2.963913,0.6990898,1.125548,0.492522,-2.126048,-1.027815,65.9,3,0.02634409,-0.05039112,0.1232012,-0.7871377,-4.61647,0.1944102,0.7178649,1.315179,0.4177451,0.01752931,-0.04824514,-0.03599406,-1.031726,0.07827137,0.04955317,0.812178,1.378845,0.2342203,0.4985081,1.11913,0.3321351,276.838,195.131,42.48569,True
0,0.9555568,-0.09002227,0.2066358,-0.1046436,-1.37885,-4.427956,2.965932,0.6988271,1.125709,0.4929078,-2.137432,-1.024538,59.6,2.6,0.01981258,-0.050347,0.1051411,-0.7867015,-4.617376,0.195055,0.7177533,1.315201,0.4180255,0.01552475,-0.03867647,-0.02633573,-1.031554,0.0784454,0.04915689,0.8120244,1.378771,0.2345285,0.4989049,1.122514,0.3326689,276.5533,189.5402,48.1899,True
0,0.9666679,-0.1028105,0.2108623,-0.1067969,-1.377218,-4.430276,2.967834,0.6985676,1.125888,0.4934151,-2.14881,-1.024115,59.6,2.6,0.01436783,-0.04924814,0.09027185,-0.7863329,-4.618287,0.1957634,0.7177094,1.315187,0.4182966,0.01556553,-0.03443195,-0.02311718,-1.031625,0.07811558,0.04909937,0.8118216,1.378754,0.2347836,0.4993239,1.125906,0.3330545,276.3542,183.3013,54.45943,True
0,0.977779,-0.1241477,0.2257179,-0.1090224,-1.37543,-4.433088,2.970505,0.6981419,1.126061,0.4938285,-2.159894,-0.9973413,59.6,2.6,-0.0007576048,-0.06516696,0.06157779,-0.786897,-4.620098,0.1975805,0.7175173,1.315163,0.4186382,0.009041298,-0.02799152,-0.03260277,-1.032369,0.07832903,0.049175,0.8116771,1.378713,0.2350881,0.4997211,1.129301,0.3333388,276.2535,176.3922,61.32639,True
0,0.9888902,-0.1401288,0.2267238,-0.1132936,-1.373558,-4.435393,2.972979,0.6976888,1.126362,0.4942472,-2.171107,-1.009393,59.6,2.6,-0.01038754,-0.0694223,0.05631164,-0.7866024,-4.62148,0.19901,0.71731,1.315244,0.4189308,0.005685553,-0.02048941,-0.04425074,-1.033239,0.07840133,0.04918193,0.8113414,1.378544,0.2353725,0.5001019,1.132691,0.3335942,276.2653,169.3959,68.25199,True
0,1.000001,-0.163533,0.2117617,-0.1131897,-1.372005,-4.437035,2.975848,0.6971158,1.126542,0.4946136,-2.181448,-0.9297321,60.5,2.6,-0.02321446,-0.06622256,0.05109283,-0.7863766,-4.622469,0.2004031,0.7170526,1.315303,0.4192135,0.001331765,-0.01621004,-0.05163025,-1.033966,0.07830639,0.04926236,0.8111831,1.378484,0.2356644,0.5004768,1.136069,0.333895,276.3653,162.5706,75.00166,True
0,1.011112,-0.1826695,0.1925001,-0.1205184,-1.370179,-4.438337,2.978719,0.6964556,1.126635,0.4949226,-2.192372,-0.9837311,60.5,2.6,-0.03922816,-0.04492842,0.05021541,-0.7857087,-4.622386,0.2014199,0.7168252,1.315383,0.419477,-0.008226197,-0.005551963,-0.04827821,-1.034451,0.07912824,0.04924531,0.8111413,1.378578,0.2359612,0.5007409,1.139468,0.3342502,276.5489,156.1542,81.38833,True
0,1.022224,-0.1953954,0.1679663,-0.1214138,-1.368701,-4.439228,2.981354,0.695738,1.126769,0.495266,-2.202674,-0.9263303,60.5,2.6,-0.05624027,-0.02472115,0.05679443,-0.7848154,-4.622159,0.2024429,0.7165242,1.315449,0.4197652,-0.01254985,0.00405189,-0.05138865,-1.035213,0.07973797,0.04934678,0.8111628,1.378405,0.2362814,0.5009457,1.142896,0.3346662,276.7888,150.1964,87.37275,True
0,1.033335,-0.2134207,0.1263338,-0.1285914,-1.367066,-4.438933,2.984296,0.6948345,1.126965,0.4955204,-2.213281,-0.9549402,60.5,2.6,-0.06580655,-0.007695004,0.06117904,-0.7838743,-4.621782,0.203167,0.7162493,1.315433,0.4200404,-0.0188864,0.007240323,-0.04704124,-1.035702,0.0802224,0.04943946,0.8110579,1.378389,0.2365777,0.501128,1.146338,0.3350903,277.0715,144.3356,93.30262,True
0,1.044446,-0.2346444,0.08891952,-0.141122,-1.36514,-4.438434,2.987389,0.6938195,1.127144,0.4957342,-2.224086,-0.9727204,60.5,2.6,-0.078578,0.008265059,0.06451724,-0.7829166,-4.621138,0.204025,0.7158214,1.315489,0.4202685,-0.0231309,0.01042877,-0.04484337,-1.036098,0.08058739,0.04977821,0.8109109,1.378356,0.2368886,0.5013385,1.149758,0.3354596,277.4277,138.7656,98.93842,True
0,1.055557,-0.2558901,0.05896069,-0.1536931,-1.363224,-4.437821,2.990781,0.692728,1.127348,0.4961765,-2.234136,-0.9036108,55.7,2.4,-0.1032079,0.02426606,0.04983776,-0.7826785,-4.62008,0.2052213,0.7154257,1.315511,0.4205053,-0.02312883,0.01896029,-0.04374853,-1.036569,0.08139606,0.04962934,0.8106437,1.378365,0.2372854,0.5016018,1.153136,0.3357192,277.8257,133.7816,103.9517,True
0,1.066668,-0.2728753,0.03115848,-0.164162,-1.361153,-4.437044,2.99407,0.6916606,1.127581,0.4964361,-2.244413,-0.9249862,55.7,2.4,-0.1160976,0.03281399,0.03823747,-0.7825363,-4.619174,0.2063702,0.7149562,1.315564,0.4207661,-0.02212994,0.01899616,-0.04909524,-1.037369,0.08188754,0.04956089,0.8105965,1.378325,0.2375019,0.5018861,1.156482,0.3357662,278.2742,129.4218,108.2963,True
0,1.077779,-0.2845794,0.02362801,-0.1715674,-1.359039,-4.436718,2.997527,0.6905866,1.127752,0.4966626,-2.254571,-0.9139373,55.7,2.4,-0.1289215,0.04240264,0.03410136,-0.7821587,-4.618209,0.2075324,0.7145413,1.315564,0.4209819,-0.02443675,0.01798288,-0.06291975,-1.038498,0.08214494,0.04978007,0.8104422,1.378249,0.2378249,0.5022128,1.159795,0.3355746,278.8059,125.6876,111.9073,True
0,1.08889,-0.30377,0.02889051,-0.1758521,-1.357004,-4.437068,3.001662,0.6894612,1.127959,0.4968898,-2.265069,-0.9451591,55.7,2.4,-0.1331883,0.03920729,0.03412076,-0.781732,-4.617775,0.2089205,0.7141504,1.315573,0.4212911,-0.02777039,0.02337421,-0.07351738,-1.039701,0.08312858,0.04964106,0.8102449,1.378127,0.2380102,0.5026204,1.163081,0.3352172,279.3861,122.5168,114.8481,True
0,1.100002,-0.313371,0.0352553,-0.176958,-1.354929,-4.437417,3.005564,0.6883163,1.128129,0.4970899,-2.275418,-0.9312325,44.3,2.1,-0.1373736,0.03704695,0.04373517,-0.7808665,-4.617532,0.2104342,0.7137051,1.315584,0.4215512,-0.02462533,0.0319129,-0.07672019,-1.040634,0.08391634,0.04941415,0.810059,1.378054,0.2383568,0.5031159,1.166356,0.3347436,280.0038,119.716,117.4059,True
0,1.111113,-0.3379415,0.06826321,-0.1729097,-1.352932,-4.439176,3.010493,0.6870978,1.128298,0.4972279,-2.285254,-0.8844961,44.3,2.1,-0.1405834,0.03598688,0.04162493,-0.7804218,-4.617133,0.2117565,0.713127,1.315633,0.4218004,-0.03206211,0.04045059,-0.07447001,-1.041454,0.0853394,0.04925916,0.8099017,1.378101,0.2386947,0.5036675,1.169629,0.3342162,280.6736,117.2002,119.6663,True
0,1.122224,-0.3571687,0.09705641,-0.1624422,-1.351239,-4.440958,3.015333,0.685841,1.128445,0.4973688,-2.29566,-0.9373044,44.3,2.1,-0.1491645,0.03067912,0.03315401,-0.7802966,-4.616872,0.2134947,0.7126552,1.315583,0.4220135,-0.03526925,0.04790611,-0.07440233,-1.042271,0.08632104,0.04931748,0.809691,1.378046,0.2390418,0.5041996,1.172935,0.3337052,281.3784,114.9428,121.6706,True
0,1.133335,-0.3710546,0.1151646,-0.1582962,-1.349419,-4.442616,3.020249,0.6845887,1.128565,0.4975142,-2.305059,-0.8447037,44.3,2.1,-0.1577201,0.03068184,0.02895826,-0.7800404,-4.616506,0.2152729,0.7121869,1.315534,0.422106,-0.035255,0.05324829,-0.07226454,-1.043158,0.08763438,0.04911854,0.8095745,1.377958,0.239305,0.5046791,1.176271,0.3332781,282.1214,112.8497,123.5378,True
0,1.144446,-0.3934861,0.1503529,-0.1468033,-1.347855,-4.445336,3.025743,0.6832891,1.128676,0.497529,-2.315055,-0.9001975,44.3,2.1,-0.1567714,0.04563193,0.01514012,-0.7801698,-4.615021,0.2158559,0.7116792,1.315438,0.4221563,-0.02888498,0.05862463,-0.07339754,-1.044031,0.0892131,0.04844769,0.8092659,1.37788,0.2395532,0.5050051,1.179667,0.3329923,282.8896,110.9659,125.2487,True
0,1.155557,-0.4159609,0.2015103,-0.1364851,-1.346242,-4.449205,3.031955,0.682045,1.128749,0.4976408,-2.324835,-0.8800595,26,2.2,-0.1632836,0.06270923,0.001387843,-0.7803264,-4.613094,0.2165126,0.7111021,1.315354,0.4223022,-0.02248128,0.0596933,-0.07241002,-1.044767,0.09005386,0.04806127,0.8090255,1.377826,0.2398942,0.5052205,1.183096,0.3329086,283.6479,109.1652,126.9603,True
0,1.166668,-0.4277604,0.244171,-0.1250526,-1.344713,-4.453145,3.037858,0.6808794,1.128839,0.4977279,-2.33425,-0.846891,26,2.2,-0.1633555,0.06912498,-0.007115904,-0.7804383,-4.611719,0.2173717,0.7105855,1.315255,0.4224091,-0.0203564,0.06506501,-0.07033139,-1.046088,0.09199091,0.04764076,0.8090281,1.377777,0.2401955,0.5053725,1.186516,0.3330226,284.4044,107.4891,128.6338,True
0,1.17778,-0.4502673,0.3113429,-0.1095142,-1.343429,-4.459003,3.044962,0.6796668,1.128899,0.497839,-2.343452,-0.8278109,26,2.2,-0.1719252,0.0670048,-0.01344758,-0.7806609,-4.610672,0.2188245,0.709964,1.315175,0.4225543,-0.01717809,0.06826895,-0.07142472,-1.046881,0.09304965,0.0472024,0.8087823,1.37774,0.2405422,0.5054289,1.189938,0.3333005,285.1798,106.019,130.1667,True
0,1.188891,-0.4642359,0.3710696,-0.09500049,-1.342173,-4.465086,3.051881,0.6785085,1.128954,0.497849,-2.353246,-0.8822394,26,2.2,-0.1666142,0.06701379,-0.01562199,-0.7807568,-4.609604,0.2197039,0.7093071,1.315132,0.4227059,-0.01392064,0.0778506,-0.06609263,-1.047263,0.09460481,0.04640718,0.8081075,1.377632,0.2408526,0.5054389,1.193347,0.3337643,285.965,104.7719,131.5288,True
0,1.200002,-0.4835564,0.4436403,-0.06990966,-1.341584,-4.472439,3.059457,0.6773629,1.128942,0.4978724,-2.361849,-0.7728894,21,1.8,-0.1527765,0.070224,-0.01678531,-0.7807952,-4.608319,0.2200197,0.7086323,1.315003,0.4228191,-0.03081216,0.08948065,-0.05514217,-1.046986,0.09573878,0.04632276,0.8074259,1.377725,0.2412453,0.5054391,1.196733,0.3344004,286.758,103.6669,132.7888,True
0,1.211113,-0.4975926,0.5333003,-0.03961093,-1.341321,-4.48148,3.067598,0.6762592,1.128938,0.4978266,-2.371181,-0.8407693,21,1.8,-0.1294942,0.07562615,-0.03719314,-0.7816356,-4.606555,0.2193265,0.7078253,1.314805,0.4229014,-0.04344186,0.1000399,-0.0421326,-1.046728,0.09694891,0.04661304,0.8067795,1.377389,0.2416086,0.5053527,1.20015,0.3351946,287.575,102.7053,133.9571,True
0,1.222224,-0.5127403,0.6507593,0.006487183,-1.341988,-4.492805,3.076366,0.6751632,1.128883,0.4977739,-2.379757,-0.7711204,21,1.8,-0.1287628,0.1087586,-0.07759168,-0.7832655,-4.602808,0.2180961,0.7069561,1.314558,0.4230452,-0.06764317,0.1180195,-0.01724039,-1.045929,0.09907439,0.04704447,0.8064865,1.377236,0.241993,0.5052076,1.203588,0.3361306,288.4041,101.7967,135.1395,True
0,1.233335,-0.5267701,0.7435566,0.02718432,-1.342233,-4.504405,3.085237,0.6740421,1.12881,0.497767,-2.38821,-0.760729,21,1.8,-0.1332142,0.1407721,-0.09877631,-0.7844868,-4.598568,0.2167241,0.7061422,1.314413,0.4231431,-0.08014252,0.1253381,0.006396689,-1.044888,0.100412,0.04782451,0.8060331,1.377185,0.2423322,0.5049828,1.207053,0.3372062,289.2482,100.9656,136.2863,True
0,1.244446,-0.5366052,0.8651564,0.05301356,-1.342921,-4.518577,3.094818,0.6729993,1.128779,0.4977138,-2.39642,-0.7387889,21,1.8,-0.1482972,0.190867,-0.1155666,-0.7854674,-4.593024,0.2148987,0.7053331,1.314353,0.4232821,-0.08439164,0.1391205,0.007591462,-1.044468,0.1017644,0.04799895,0.8058625,1.377199,0.242594,0.5046265,1.21057,0.3384445,290.125,100.2934,137.3245,True
0,1.255558,-0.5537905,0.9366664,0.07703867,-1.343876,-4.531592,3.104394,0.6719224,1.128834,0.4976411,-2.404398,-0.7179298,10.8,2.1,-0.163207,0.1961781,-0.1143716,-0.7861561,-4.589432,0.2146407,0.7045624,1.314287,0.4233658,-0.07936078,0.1466725,-0.01481631,-1.045234,0.1039312,0.04762584,0.8055382,1.377129,0.2429359,0.5041007,1.214144,0.3399236,291.0317,99.72289,138.3405,True
0,1.266669,-0.5676745,0.9569485,0.08650304,-1.344749,-4.542914,3.113579,0.6706662,1.128979,0.4976156,-2.412015,-0.6853811,10.8,2.1,-0.1673427,0.1939964,-0.09836742,-0.7862573,-4.586606,0.2145895,0.7037622,1.314225,0.4234221,-0.0849659,0.1520772,-0.03603089,-1.04623,0.1061236,0.04765487,0.8052136,1.377054,0.2432616,0.5034373,1.217719,0.3416814,291.9555,99.284,139.3195,True
0,1.27778,-0.5815048,0.9462823,0.08981203,-1.345627,-4.553275,3.122711,0.6694355,1.129044,0.4975703,-2.419141,-0.6410137,10.8,2.1,-0.1734544,0.1630071,-0.06537972,-0.7856943,-4.585654,0.2160276,0.7030015,1.314192,0.4234176,-0.08845273,0.1585266,-0.0583541,-1.047776,0.1080234,0.04774169,0.8055398,1.377331,0.2435174,0.5026173,1.221298,0.3437443,292.8513,98.978,140.2824,True
0,1.288891,-0.5910311,0.9132301,0.08680016,-1.34634,-4.562547,3.131844,0.668219,1.129045,0.497571,-2.426206,-0.6359059,10.8,2.1,-0.1754655,0.1448495,-0.05156744,-0.7857087,-4.584306,0.2171033,0.702094,1.314062,0.4235249,-0.09183569,0.1628353,-0.07214345,-1.048891,0.1102538,0.04784129,0.8052415,1.377264,0.2437935,0.5017168,1.224863,0.3460343,293.653,98.58675,141.4342,True
0,1.300002,-0.6026239,0.8513502,0.07655644,-1.34682,-4.569801,3.140532,0.6668169,1.129119,0.4974632,-2.432725,-0.5864762,10.8,2.1,-0.1775606,0.1214055,-0.04948477,-0.7860368,-4.583466,0.2185339,0.7012773,1.313981,0.4235468,-0.09828519,0.1660404,-0.07630967,-1.049804,0.1125702,0.04800801,0.8048967,1.377258,0.2441146,0.5008417,1.228364,0.3483782,294.4009,98.09509,142.7163,True
0,1.311113,-0.6110092,0.7777159,0.0589352,-1.346852,-4.57602,-3.134183,0.6655884,1.129175,0.4973025,-2.438791,-0.5456681,5.1,2.1,-0.1743436,0.113943,-0.04740229,-0.7863521,-4.581837,0.2191957,0.7003223,1.313835,0.4235866,-0.09924601,0.1755712,-0.06771522,-1.049782,0.1148241,0.04790521,0.803753,1.376913,0.2445371,0.5001357,1.231693,0.350609,295.1425,97.59831,143.9712,True
0,1.322224,-0.6130286,0.7254095,0.04224166,-1.346888,-4.582607,-3.125958,0.6643071,1.129167,0.4971387,-2.444783,-0.5394341,5.1,2.1,-0.1701245,0.1150265,-0.05275857,-0.786841,-4.579815,0.2194852,0.6993895,1.313669,0.4235802,-0.09906571,0.1850998,-0.05276433,-1.049716,0.1175766,0.04759282,0.8032892,1.376912,0.2448697,0.4996568,1.234806,0.352553,295.8827,97.12502,145.1105,True
0,1.333336,-0.6098008,0.7094018,0.03702139,-1.347255,-4.589944,-3.117786,0.6629795,1.129176,0.4969592,-2.450403,-0.5057666,5.1,2.1,-0.1671496,0.1225545,-0.07939354,-0.7882403,-4.577112,0.2194328,0.6984335,1.313631,0.4235258,-0.098959,0.2020999,-0.04310723,-1.049715,0.1206767,0.04707643,0.8029578,1.376971,0.2451165,0.499388,1.237717,0.3540156,296.602,96.66579,146.1015,True
0,1.344447,-0.6055401,0.7062026,0.03491129,-1.347798,-4.597913,-3.109414,0.6616838,1.129165,0.4967582,-2.455615,-0.4695172,5.1,2.1,-0.1790572,0.1588214,-0.1005048,-0.7892858,-4.572529,0.2185254,0.6975847,1.313532,0.4234576,-0.09126657,0.2137369,-0.02397057,-1.049054,0.1235764,0.04630518,0.8026375,1.3769,0.2453232,0.4993623,1.240372,0.3549083,297.3342,96.35739,146.7637,True
0,1.355558,-0.5938689,0.7296468,0.03155258,-1.348292,-4.607084,-3.101206,0.6604536,1.12924,0.4965913,-2.460044,-0.3986903,1.5,5.1,-0.1951271,0.189725,-0.1088188,-0.7900944,-4.567699,0.2178335,0.6965704,1.313438,0.4234319,-0.09017646,0.2158603,-0.02184536,-1.049092,0.1264321,0.04583753,0.8022203,1.37688,0.245672,0.4994463,1.2428,0.3552696,298.1235,96.24355,147.0238,True
0,1.366669,-0.5864182,0.7360874,0.0357817,-1.349309,-4.615644,-3.09309,0.6591959,1.129292,0.4966254,-2.46356,-0.3162186,1.5,5.1,-0.2014022,0.2258931,-0.0905613,-0.7896752,-4.562619,0.2165592,0.69557,1.313429,0.4233816,-0.09461243,0.2255395,-0.03448711,-1.049141,0.1304157,0.04504098,0.8014542,1.376643,0.2460046,0.4994595,1.245051,0.3552703,298.9326,96.28078,146.9878,True
0,1.37778,-0.5736269,0.73296,0.04219281,-1.350432,-4.623855,-3.085364,0.6578397,1.129335,0.4964788,-2.467006,-0.3108014,1.5,5.1,-0.202319,0.2354243,-0.07028678,-0.7891777,-4.558497,0.2159448,0.6946266,1.313306,0.4232697,-0.09489036,0.2298853,-0.05577415,-1.050321,0.1335976,0.04453658,0.8009719,1.376522,0.2463148,0.4992821,1.247144,0.3551483,299.7035,96.45967,146.7733,True
0,1.388891,-0.5586604,0.7138807,0.05189249,-1.351677,-4.631219,-3.078122,0.6564112,1.129337,0.4963884,-2.469576,-0.230879,1.5,5.1,-0.197937,0.2119546,-0.05760122,-0.7891389,-4.556396,0.2164503,0.6937087,1.313137,0.4232054,-0.09619604,0.2321157,-0.07384376,-1.051363,0.1371547,0.04393603,0.8005461,1.376469,0.2466707,0.498853,1.249095,0.3551649,300.3975,96.76089,146.4687,True
0,1.400002,-0.5500689,0.6819941,0.05956122,-1.353044,-4.637892,-3.070836,0.6549933,1.129339,0.4962521,-2.472059,-0.2238823,1.5,5.1,-0.1936011,0.1735908,-0.0513459,-0.7893301,-4.555405,0.2178444,0.692724,1.313056,0.4231176,-0.09527015,0.222576,-0.08561291,-1.052635,0.1396713,0.04372218,0.8000079,1.376386,0.2468956,0.4981677,1.250921,0.3555252,300.9807,96.98163,146.3359,True
0,1.411114,-0.540419,0.6564324,0.05652723,-1.353981,-4.644519,-3.063773,0.653643,1.129427,0.4960403,-2.474221,-0.1948265,0,21.1,-0.1851113,0.152316,-0.05785749,-0.7899202,-4.553642,0.2183909,0.6916612,1.312808,0.4229615,-0.08771294,0.2215021,-0.07717933,-1.052855,0.1427629,0.0430191,0.799729,1.376448,0.2469807,0.4972164,1.252657,0.3562754,301.4771,97.08099,146.5017,True
0,1.422225,-0.5243487,0.6117195,0.05575636,-1.355015,-4.649819,-3.057421,0.6522288,1.129496,0.4958386,-2.475602,-0.1238315,0,21.1,-0.1829965,0.1310236,-0.06219341,-0.7906009,-4.552496,0.2195116,0.6906792,1.312712,0.4228721,-0.07561839,0.2139444,-0.04859891,-1.052228,0.1451583,0.04221989,0.7991345,1.376455,0.2471876,0.4960616,1.254275,0.3573751,301.8885,97.07653,146.9125,True
0,1.433336,-0.4997614,0.5680475,0.04751731,-1.355655,-4.654972,-3.051455,0.650864,1.129648,0.4955783,-2.477108,-0.1358551,0,21.1,-0.1851236,0.1363534,-0.06216542,-0.7909162,-4.549675,0.2196067,0.6896406,1.312605,0.4227629,-0.07421451,0.2063968,-0.021982,-1.051092,0.1477363,0.04186569,0.798654,1.376464,0.2473598,0.4947756,1.255785,0.3586985,302.2095,97.03884,147.469,True
0,1.444447,-0.4751838,0.5232673,0.03502452,-1.356041,-4.659454,-3.045859,0.6494516,1.12979,0.4953589,-2.478663,-0.1404473,0,21.1,-0.1765809,0.1555257,-0.05791788,-0.7908715,-4.546156,0.2187537,0.6886839,1.312503,0.422667,-0.07949267,0.2106361,-0.01654739,-1.050738,0.1507277,0.04164279,0.7981678,1.376532,0.2475841,0.4934455,1.257215,0.3600806,302.4742,97.03136,148.0512,True
0,1.455558,-0.4516513,0.4796296,0.02889825,-1.356391,-4.663816,-3.040634,0.64809,1.129961,0.4951422,-2.479969,-0.1177728,0,19.8,-0.1733721,0.1587146,-0.05580524,-0.7910297,-4.543481,0.2186674,0.6875951,1.312512,0.422641,-0.08169775,0.2042673,-0.02293695,-1.051098,0.153075,0.04144518,0.797612,1.376514,0.2477925,0.4921581,1.258577,0.3613546,302.7108,96.97434,148.6434,True
0,1.466669,-0.4334842,0.4530115,0.02481281,-1.356993,-4.668057,-3.035578,0.6467405,1.130086,0.4949174,-2.480961,-0.08935023,0,19.8,-0.1722619,0.1544406,-0.05049889,-0.7910547,-4.541264,0.2189806,0.6865816,1.31249,0.4225283,-0.0796873,0.198984,-0.03255893,-1.05156,0.1554598,0.04108592,0.7970997,1.376421,0.247967,0.4909587,1.259879,0.3623802,302.9661,96.9491,149.1278,True
0,1.47778,-0.4056857,0.4158331,0.02289826,-1.357245,-4.67224,-3.031142,0.6453176,1.130148,0.4947324,-2.481908,-0.08552279,0,19.8,-0.1710505,0.1437335,-0.03242628,-0.7905551,-4.539741,0.2198154,0.6856489,1.312502,0.4225018,-0.06923926,0.1788091,-0.04982121,-1.052692,0.1567594,0.04095089,0.7966138,1.376482,0.2480145,0.4898729,1.261107,0.3630826,303.2557,96.95488,149.4532,True
0,1.488891,-0.3885876,0.3881373,0.01881688,-1.357679,-4.675621,-3.026684,0.6439679,1.130262,0.4945073,-2.48254,-0.05683013,0,19.8,-0.1645877,0.1437153,-0.02288624,-0.7901317,-4.53747,0.2198788,0.6846851,1.312459,0.4223464,-0.06602236,0.1660183,-0.04883957,-1.052966,0.1583569,0.04089444,0.7959987,1.376378,0.2480402,0.488897,1.262257,0.3634627,303.5702,97.00165,149.6087,True
0,1.500003,-0.3607944,0.3434719,0.02123935,-1.358262,-4.678071,-3.023134,0.6427109,1.130294,0.4942038,-2.483504,-0.08749913,0,19.8,-0.1623987,0.1426313,-0.01544879,-0.7897109,-4.535335,0.2201065,0.6837349,1.312404,0.422188,-0.06383848,0.1553553,-0.04571417,-1.053295,0.1599264,0.04075329,0.7953579,1.376354,0.2480991,0.4879992,1.263323,0.3635818,303.9176,97.0709,149.6444,True
0,1.511114,-0.3437121,0.3232638,0.02243962,-1.358938,-4.680943,-3.019264,0.6414664,1.130314,0.4938872,-2.483626,-0.01037658,0,17.9,-0.1485393,0.1405077,-0.01449471,-0.7895324,-4.533291,0.2198418,0.6827933,1.312315,0.4218743,-0.05300685,0.1425224,-0.03312369,-1.053255,0.161076,0.04041507,0.7948066,1.376259,0.2481339,0.487127,1.264278,0.3635244,304.2784,97.15135,149.6052,True
0,1.522225,-0.3234264,0.3052018,0.02362192,-1.359565,-4.683734,-3.015852,0.6403321,1.130259,0.4936008,-2.484486,-0.07847955,0,17.9,-0.1442708,0.1415735,-0.0134594,-0.7892853,-4.531026,0.2197092,0.6818333,1.312236,0.4217126,-0.04976773,0.140383,-0.02997768,-1.053417,0.162809,0.03999349,0.7941455,1.376235,0.248208,0.4862598,1.265119,0.3633592,304.563,97.1887,149.5837,True
0,1.533336,-0.3063541,0.2967097,0.02368927,-1.360344,-4.686708,-3.012546,0.6392499,1.130169,0.4933257,-2.484444,0.004631366,0,17.9,-0.1272128,0.1405146,-0.012528,-0.7890685,-4.528985,0.2190383,0.6808405,1.3122,0.4215968,-0.03897372,0.1307626,-0.01950991,-1.053391,0.1640759,0.0395562,0.7935686,1.376247,0.2481811,0.4854171,1.265818,0.3631334,304.7924,97.19548,149.5955,True
0,1.544447,-0.2871802,0.2946261,0.02582854,-1.361119,-4.689876,-3.009247,0.6382223,1.130083,0.4930265,-2.484921,-0.04368812,0,17.9,-0.1133935,0.1330774,-0.01691577,-0.7891186,-4.527266,0.2186362,0.6800116,1.312033,0.4214211,-0.03358114,0.1275427,-0.01427635,-1.053503,0.1654697,0.03916018,0.792922,1.376279,0.248219,0.4845626,1.266411,0.3628984,305.0026,97.25597,149.5651,True
0,1.555558,-0.2658691,0.2968444,0.0343393,-1.362278,-4.693045,-3.006425,0.6372126,1.130029,0.4928071,-2.485137,-0.01937242,0,24.1,-0.09433943,0.1065107,-0.03524508,-0.7900246,-4.526526,0.2185912,0.6790571,1.311896,0.4213521,-0.03043397,0.1222373,-0.01859955,-1.053809,0.1668343,0.03871943,0.7922223,1.376274,0.2482464,0.4837157,1.266892,0.362723,305.1961,97.34554,149.5139,True
0,1.566669,-0.2488204,0.2958905,0.04606222,-1.363614,-4.696163,-3.003609,0.6361882,1.129981,0.4925351,-2.485189,-0.00467964,0,24.1,-0.09020038,0.08951128,-0.05236807,-0.7910824,-4.525712,0.2189409,0.6781675,1.311805,0.4212096,-0.03039409,0.1232877,-0.01540967,-1.053957,0.1684079,0.03831037,0.7914634,1.376277,0.2481697,0.4828508,1.267303,0.3626583,305.3686,97.43854,149.4846,True
0,1.577781,-0.2253653,0.2917217,0.05462082,-1.365028,-4.698997,-3.001448,0.6351577,1.130045,0.4923034,-2.48563,-0.0403011,0,24.1,-0.08389287,0.07144481,-0.06524317,-0.7921056,-4.525109,0.2192445,0.677217,1.311797,0.4209807,-0.03142816,0.1083681,-0.01439063,-1.054059,0.1692185,0.03825924,0.7906604,1.376285,0.2481279,0.4819433,1.267706,0.3627305,305.5131,97.53362,149.49,True
0,1.588892,-0.2008347,0.2822345,0.06428523,-1.366588,-4.701524,-2.999674,0.634147,1.129969,0.4920883,-2.48561,0.002146939,0,24.1,-0.0700151,0.06932041,-0.06216083,-0.7924465,-4.523865,0.2186578,0.6761657,1.311781,0.4208031,-0.0313011,0.1072557,-0.003752861,-1.05383,0.1704518,0.038133,0.7899094,1.376295,0.2480595,0.4809794,1.268154,0.3629631,305.6347,97.59023,149.5672,True
0,1.600003,-0.1762824,0.258849,0.06443715,-1.3676,-4.703578,-2.998163,0.6331705,1.129947,0.4918308,-2.486102,-0.04508375,0,24.1,-0.06462428,0.08101682,-0.05258243,-0.7924289,-4.522026,0.2178884,0.6752098,1.31177,0.4205928,-0.04284188,0.1082513,0.01024939,-1.053204,0.1718281,0.03832315,0.7891275,1.376321,0.2480481,0.4799472,1.268682,0.3633398,305.7346,97.59782,149.7457,True
0,1.611114,-0.1591878,0.2365129,0.06564453,-1.368599,-4.705276,-2.996679,0.6321473,1.129858,0.4916799,-2.48635,-0.02237802,0,25.2,-0.0538494,0.08630823,-0.0366669,-0.7920396,-4.520535,0.2170386,0.6741742,1.311689,0.4204502,-0.05126945,0.1177878,0.01891246,-1.052768,0.1735971,0.03833008,0.7883561,1.376275,0.2481778,0.4788775,1.269269,0.363831,305.8247,97.56007,150.0018,True
0,1.622225,-0.1399265,0.1981778,0.06269849,-1.369278,-4.706026,-2.995781,0.6311122,1.1298,0.4914279,-2.486375,-0.002248728,0,25.2,-0.04955326,0.09375426,-0.03135303,-0.7919213,-4.518731,0.2161733,0.6731704,1.311679,0.4202266,-0.0566079,0.1167202,0.01791136,-1.052564,0.1750265,0.03842515,0.7875851,1.376277,0.2481678,0.4778325,1.269805,0.3643975,305.916,97.46646,150.343,True
0,1.633336,-0.1249552,0.1704821,0.05968762,-1.370018,-4.706827,-2.994798,0.6302667,1.129801,0.491226,-2.486165,0.01904175,0,25.2,-0.05375553,0.1171546,-0.02166982,-0.7914627,-4.516055,0.2150013,0.6722683,1.311678,0.4200087,-0.06408071,0.1092534,0.01690916,-1.052465,0.1759827,0.03905925,0.7869101,1.376327,0.24808,0.4768238,1.270237,0.3649477,306.0041,97.37459,150.6831,True
0,1.644447,-0.1078473,0.1374352,0.05138077,-1.370386,-4.707157,-2.994129,0.6293763,1.129688,0.4909506,-2.486008,0.0135303,0,25.2,-0.0559253,0.1523069,-0.0226212,-0.7911325,-4.512077,0.2129477,0.67128,1.311626,0.4197934,-0.06177957,0.1049431,0.02964658,-1.051673,0.1771075,0.03906937,0.7861876,1.376323,0.248049,0.475831,1.270538,0.3654113,306.0862,97.26526,150.9935,True
0,1.655559,-0.09396212,0.1193253,0.04831205,-1.371051,-4.707821,-2.993415,0.6284852,1.12963,0.4906445,-2.485064,0.08536829,0,25.2,-0.05914747,0.1693554,-0.02468037,-0.7909844,-4.508573,0.2112004,0.6702557,1.311595,0.4195585,-0.05512247,0.1059366,0.05085899,-1.05056,0.1785671,0.03883874,0.7855351,1.376473,0.2479384,0.4748254,1.270696,0.3657046,306.1181,97.15161,151.2565,True
0,1.66667,-0.07688403,0.09911284,0.04737849,-1.371649,-4.708226,-2.992964,0.6276737,1.129511,0.4903569,-2.483925,0.1021598,0,27.3,-0.0581447,0.1874782,-0.03102721,-0.7909428,-4.504866,0.209146,0.6692502,1.311452,0.4193749,-0.05618088,0.1038077,0.05192389,-1.050017,0.1799277,0.03897243,0.7846946,1.376418,0.247798,0.4738095,1.270698,0.3658039,306.1026,97.1009,151.4055,True
0,1.677781,-0.0629939,0.07994095,0.04430841,-1.372109,-4.708427,-2.992754,0.626803,1.129477,0.4900923,-2.482231,0.1525346,0,27.3,-0.04970011,0.1917728,-0.04066862,-0.791263,-4.501433,0.2069817,0.6683108,1.311374,0.4191754,-0.05830143,0.1069967,0.05302921,-1.049317,0.181457,0.03896258,0.7839282,1.376462,0.2477605,0.4727545,1.27054,0.3656948,306.0816,97.08688,151.4644,True
0,1.688892,-0.04805061,0.06507606,0.04760019,-1.372765,-4.708537,-2.992707,0.625825,1.129462,0.48982,-2.480366,0.167642,0,27.3,-0.04013413,0.1790039,-0.04504447,-0.791679,-4.499278,0.2055843,0.6673706,1.311355,0.4189138,-0.05080928,0.1037858,0.05610861,-1.048689,0.1824642,0.03893355,0.7830609,1.376455,0.2476654,0.4716045,1.270268,0.3654131,306.0336,97.11693,151.4211,True
0,1.700003,-0.02776525,0.04807755,0.05090756,-1.373496,-4.708199,-2.993303,0.6249911,1.129348,0.4895148,-2.478215,0.1933772,0,27.3,-0.03476696,0.1576993,-0.0430155,-0.7918824,-4.497607,0.204543,0.6665449,1.311239,0.4186871,-0.04552045,0.1006093,0.05283188,-1.048159,0.1836444,0.03868614,0.7822915,1.376473,0.2475975,0.470367,1.269869,0.3650268,305.9433,97.17411,151.3093,True
0,1.711114,-0.0192253,0.04063845,0.05202353,-1.374167,-4.708273,-2.99337,0.6241499,1.129269,0.489248,-2.47575,0.2218575,0,30,-0.03257891,0.1321184,-0.03883514,-0.7919618,-4.496717,0.2041651,0.665689,1.311117,0.4184389,-0.03702246,0.09425034,0.05055828,-1.047758,0.1848386,0.03827735,0.7816297,1.376604,0.2474711,0.4689916,1.269409,0.3645915,305.8192,97.25094,151.1497,True
0,1.722225,-0.008568972,0.03956735,0.04776777,-1.374592,-4.7087,-2.993576,0.6233686,1.129102,0.4889526,-2.473454,0.2059169,0,30,-0.02404357,0.1065618,-0.04003672,-0.7923464,-4.496073,0.2037198,0.6648388,1.311037,0.4182439,-0.029628,0.08895433,0.04511534,-1.047415,0.1857677,0.03787947,0.7808809,1.376626,0.2473989,0.4674743,1.2689,0.3641766,305.6542,97.3067,151.0152,True
0,1.733337,-0.003249836,0.042755,0.04562071,-1.375182,-4.709171,-2.993617,0.6225879,1.129009,0.4886234,-2.47001,0.3110068,0,30,-0.01982567,0.09699555,-0.04648434,-0.792863,-4.494757,0.2028927,0.6639738,1.31093,0.4179826,-0.02545035,0.0932494,0.03973643,-1.047331,0.1872775,0.03742301,0.7803065,1.376678,0.2472947,0.4658967,1.268266,0.3638403,305.442,97.34767,150.9297,True
0,1.744448,0.01165945,0.04808132,0.04132132,-1.375595,-4.709832,-2.994231,0.6217895,1.128926,0.4882922,-2.466969,0.2730275,0,30,-0.01561718,0.0853021,-0.0550733,-0.7936955,-4.49377,0.2021917,0.6630696,1.310866,0.4177945,-0.02531961,0.09428947,0.04932481,-1.046421,0.1886575,0.03691594,0.7796822,1.376744,0.2471869,0.4642605,1.267535,0.3636103,305.2085,97.43847,150.8419,True
0,1.755559,0.02125837,0.04489856,0.04241127,-1.376223,-4.70995,-2.99484,0.6210512,1.128896,0.4878685,-2.46353,0.3099123,0,30,-0.01137716,0.08638023,-0.05830052,-0.7942595,-4.492143,0.2010069,0.6621912,1.310883,0.4177103,-0.0379902,0.09210914,0.05800188,-1.045453,0.1897219,0.03722087,0.7789509,1.376814,0.2471187,0.4625928,1.266727,0.3634981,304.963,97.56065,150.7728,True
0,1.76667,0.0404119,0.05558018,0.04233936,-1.376844,-4.710705,-2.995724,0.6203412,1.128883,0.4875126,-2.460704,0.2533814,0,41.2,-0.01979054,0.09165636,-0.04437234,-0.7940412,-4.490566,0.2003182,0.6612409,1.311061,0.417454,-0.04307016,0.09950224,0.07833592,-1.043905,0.1916166,0.03695935,0.7781388,1.376914,0.2470524,0.4608732,1.26593,0.3634832,304.6941,97.67303,150.7499,True
0,1.777781,0.05211572,0.06306706,0.04335346,-1.377505,-4.711593,-2.99653,0.6195892,1.128906,0.4871523,-2.45713,0.3221913,0,41.2,-0.0398515,0.106487,-0.01967485,-0.7931623,-4.488451,0.1999166,0.6603081,1.311187,0.4172103,-0.0439491,0.1037028,0.09327937,-1.042318,0.1930788,0.03672099,0.7774509,1.377004,0.247014,0.4591167,1.265164,0.3635377,304.4134,97.75709,150.7894,True
0,1.788892,0.0691105,0.09292413,0.04208839,-1.378222,1.569514,-2.997577,0.6188669,1.128989,0.4868102,-2.453761,0.3026182,0,41.2,-0.06521115,0.1298197,0.009353213,-0.7917002,-4.485794,0.1995144,0.6593825,1.311255,0.4169104,-0.0439419,0.1101038,0.09542172,-1.04135,0.1949566,0.03642325,0.776839,1.377038,0.2469447,0.4573506,1.264433,0.3636122,304.1124,97.80696,150.877,True
0,1.800003,0.08183591,0.1238395,0.04188106,-1.379011,1.567155,-2.998484,0.6181378,1.129089,0.4864874,-2.449798,0.3569615,0,41.2,-0.08425491,0.1670269,0.03090952,-0.7901306,-4.482021,0.1984292,0.6584791,1.311343,0.41662,-0.04628415,0.1112347,0.07947186,-1.040953,0.1965032,0.03629196,0.7762324,1.377083,0.2469018,0.4555809,1.263726,0.363694,303.8402,97.8966,150.917,True
0,1.811115,0.08713607,0.1376795,0.03859027,-1.379565,1.565198,-2.999247,0.6173965,1.129112,0.4861786,-2.446128,0.3296359,0,40.2,-0.08840427,0.1893528,0.04804413,-0.7886302,-4.478361,0.1969546,0.6574894,1.311365,0.4164546,-0.04436193,0.1059695,0.06237783,-1.040822,0.197496,0.03616945,0.7754562,1.376994,0.2468288,0.45377,1.263054,0.3637864,303.5953,98.02634,150.9033,True
0,1.822226,0.08924718,0.1472637,0.03746146,-1.380233,1.563305,-2.999954,0.616621,1.129241,0.4859896,-2.441808,0.3892327,0,40.2,-0.08622624,0.2148971,0.05661973,-0.7871218,-4.47418,0.1948475,0.6567385,1.311353,0.4161587,-0.04571596,0.1124512,0.04111001,-1.041058,0.1993042,0.03591832,0.774912,1.377008,0.2467599,0.451879,1.262411,0.3639379,303.3708,98.22681,150.8249,True
0,1.833337,0.08076931,0.1226328,0.02057803,-1.38002,1.562672,-3.000443,0.6158283,1.129351,0.4857943,-2.437179,0.416915,0,40.2,-0.08737784,0.2181165,0.04598401,-0.7865577,-4.470868,0.1935077,0.6559139,1.311443,0.4159429,-0.04677945,0.1092695,0.04109976,-1.040653,0.2008215,0.03574814,0.7744079,1.377171,0.2466905,0.4499061,1.26175,0.3641948,303.1363,98.41808,150.7829,True
0,1.844448,0.07443618,0.09164324,0.00799871,-1.379713,1.562652,-3.001045,0.6150218,1.129478,0.4856162,-2.432618,0.4104147,0,40.2,-0.08419491,0.1946957,0.04056534,-0.7861305,-4.469146,0.1929881,0.655202,1.311442,0.4156735,-0.04875023,0.111337,0.05390411,-1.039769,0.2020707,0.03573776,0.7738947,1.377128,0.2464938,0.4478766,1.261014,0.3645542,302.8671,98.57857,150.79,True
0,1.855559,0.06282178,0.02750263,-0.02246771,-1.378302,1.564271,-3.001438,0.6142384,1.129646,0.4854498,-2.427642,0.4484302,0,40.2,-0.07783087,0.1627636,0.03403721,-0.7858168,-4.468223,0.1930296,0.654458,1.311396,0.41535,-0.04654419,0.1166409,0.06028915,-1.038844,0.2037178,0.03533376,0.7733368,1.377157,0.2463806,0.4457946,1.260218,0.3649921,302.549,98.72161,150.8296,True
0,1.86667,0.05124815,-0.04840885,-0.06031502,-1.376146,1.566905,-3.0022,0.6133387,1.129868,0.4852841,-2.422917,0.4249181,0,34,-0.06726085,0.1329909,0.02002691,-0.7858877,-4.467228,0.1927071,0.6537306,1.311479,0.4150655,-0.04751811,0.11448,0.06775142,-1.037819,0.205049,0.03529434,0.772753,1.3773,0.2462618,0.4437259,1.259325,0.3654177,302.1914,98.838,150.9095,True
0,1.877781,0.04174652,-0.0943957,-0.08451259,-1.374085,1.569254,-3.002796,0.6124988,1.130076,0.4850922,-2.41758,0.4810388,0,34,-0.0651503,0.1170249,0.01570558,-0.7857337,-4.466203,0.1926318,0.6530284,1.311526,0.4148192,-0.05709382,0.1070093,0.06784934,-1.036971,0.2060606,0.03568689,0.772223,1.377354,0.2461812,0.4417201,1.258332,0.3657264,301.8068,98.92822,150.995,True
0,1.888893,0.02694509,-0.1521676,-0.1171546,-1.371328,-4.710766,-3.003325,0.6116623,1.130335,0.4849215,-2.412744,0.4347335,0,34,-0.06620619,0.1074394,0.01568733,-0.7853987,-4.465037,0.1925607,0.6523573,1.311558,0.4145613,-0.05928599,0.1027514,0.06253404,-1.036426,0.2069417,0.03593776,0.7716076,1.377316,0.2461259,0.4398328,1.257235,0.3657719,301.4135,99.01791,151.0253,True
0,1.900004,0.01528361,-0.1811222,-0.1425302,-1.368583,-4.708216,-3.003703,0.6109115,1.13054,0.4847314,-2.407568,0.4660718,0,34,-0.06929976,0.1372182,0.03177335,-0.7839441,-4.461706,0.1910453,0.6516703,1.311645,0.4143565,-0.05506827,0.1038353,0.05928458,-1.035878,0.2083025,0.03571379,0.7711852,1.377332,0.2460535,0.4380526,1.25607,0.3654389,301.054,99.16413,150.8782,True
0,1.911115,0.0067847,-0.1929193,-0.152034,-1.366396,-4.706033,-3.003998,0.6102074,1.130685,0.4846532,-2.402123,0.4902769,0,34,-0.06289572,0.1563873,0.03603583,-0.7829859,-4.458555,0.1893505,0.6510721,1.311624,0.4141691,-0.04660115,0.102791,0.05491006,-1.035359,0.2094616,0.03533136,0.77079,1.377341,0.246052,0.4363718,1.254855,0.3647285,300.7274,99.39288,150.524,True
0,1.922226,-0.002813054,-0.185511,-0.1563433,-1.364283,-4.704479,-3.004022,0.609448,1.130903,0.4845285,-2.396769,0.481724,0,29.5,-0.05656035,0.1500173,0.02851341,-0.78262,-4.456622,0.1884391,0.650481,1.311617,0.4139161,-0.04134508,0.1049488,0.04952517,-1.034908,0.2108726,0.03489939,0.7703168,1.377389,0.2459488,0.4347976,1.253592,0.3636816,300.4279,99.69977,149.9825,True
0,1.933337,-0.01671051,-0.1599241,-0.1501155,-1.36278,-4.703968,-3.003433,0.6088839,1.131021,0.4845016,-2.391375,0.485488,0,29.5,-0.04597863,0.1404659,0.01881853,-0.782498,-4.454901,0.1874447,0.6498023,1.311663,0.4137127,-0.04237105,0.1049334,0.05273437,-1.034166,0.2121735,0.03478062,0.7699153,1.377509,0.2458122,0.4333298,1.252282,0.3624232,300.1653,100.1036,149.2457,True
0,1.944448,-0.03919668,-0.09480228,-0.1228432,-1.362556,-4.705279,-3.002052,0.6084633,1.131061,0.4844542,-2.385771,0.5045083,0,29.5,-0.02585477,0.1298801,0.002653409,-0.7827867,-4.453152,0.1858322,0.6491913,1.31166,0.4134171,-0.04226796,0.1038339,0.06018909,-1.033181,0.2133444,0.03458381,0.769439,1.377614,0.2456818,0.4319148,1.250974,0.3611372,299.9295,100.5287,148.4328,True
0,1.955559,-0.05422499,-0.03497294,-0.09234037,-1.362683,-4.706793,-3.000631,0.6080681,1.131011,0.4843321,-2.379845,0.5338518,0,29.5,-0.01955453,0.1288511,-0.009113595,-0.7829635,-4.451058,0.1843967,0.6487105,1.31172,0.4131532,-0.04319298,0.09845944,0.07083683,-1.031929,0.2142729,0.0346685,0.7689899,1.377637,0.2455459,0.4304689,1.249735,0.3599934,299.7093,100.9794,147.6237,True
0,1.966671,-0.06175487,0.003487642,-0.07341745,-1.362664,-4.708096,-2.999439,0.607718,1.13101,0.4842255,-2.373853,0.5395901,0,32.2,-0.01955523,0.1331089,-0.009103023,-0.7827824,-4.448796,0.1830039,0.6482995,1.311683,0.4129362,-0.04620825,0.08453926,0.08253166,-1.030744,0.2143806,0.03505759,0.7686481,1.377694,0.2453747,0.4290158,1.248561,0.3591959,299.4824,101.4555,146.8626,True
0,1.977782,-0.06825164,0.06015689,-0.03970313,-1.363662,-4.710552,-2.997989,0.6075035,1.130968,0.484051,-2.368259,0.5031673,0,32.2,-0.02161611,0.1330821,-0.0005627759,-0.7821587,-4.446833,0.1819173,0.6479402,1.31169,0.4127009,-0.04096418,0.08457115,0.07607218,-1.030099,0.2154236,0.03478621,0.768279,1.377729,0.2452819,0.4275396,1.247521,0.3589152,299.246,101.8668,146.3311,True
0,1.988893,-0.07793711,0.1125159,-0.01235028,-1.364718,1.569924,-2.996283,0.6072762,1.130951,0.4839566,-2.36285,0.4865258,0,32.2,-0.006614514,0.117083,0.008861627,-0.7816612,-4.44604,0.180884,0.6476524,1.311769,0.4125977,-0.03372515,0.0793138,0.05890747,-1.030097,0.216146,0.03460538,0.7680676,1.377819,0.245214,0.4260586,1.24662,0.3591801,298.9995,102.1155,146.1776,True
0,2.000004,-0.08014256,0.1542622,0.01826922,-1.366294,1.567058,-2.994793,0.6070918,1.130924,0.4838219,-2.357191,0.5094317,0,32.2,0.003065482,0.09363131,0.01831112,-0.7810721,-4.445801,0.1803602,0.6473907,1.311837,0.4124596,-0.02334139,0.06875768,0.03636231,-1.030443,0.216535,0.03423068,0.7678075,1.377824,0.2451084,0.4245945,1.245834,0.3599011,298.7382,102.2589,146.2892,True
0,2.011115,-0.08124799,0.174591,0.03198143,-1.367408,1.564572,-2.99329,0.6069394,1.130951,0.4837101,-2.351275,0.532733,0,32.2,0.009484738,0.07339658,0.01927551,-0.7807515,-4.445559,0.1798462,0.6470814,1.311882,0.4122548,-0.01906719,0.05169876,0.03623887,-1.03001,0.216222,0.03458488,0.767596,1.377847,0.2448676,0.4231414,1.24516,0.3609835,298.477,102.3496,146.56,True
0,2.022226,-0.08661005,0.1981377,0.04993721,-1.368992,1.561664,-2.991642,0.6066901,1.130966,0.4835339,-2.345752,0.4965881,0,35.3,0.01057331,0.04569893,0.01919081,-0.7806444,-4.446304,0.1802023,0.6468922,1.311928,0.4121175,-0.0170106,0.03575018,0.02869661,-1.029865,0.2160541,0.03475612,0.7673103,1.377901,0.2447126,0.4216874,1.244594,0.3623115,298.2249,102.3917,146.9395,True
0,2.033337,-0.08981723,0.2045536,0.05521613,-1.370029,1.559316,-2.990051,0.606519,1.130935,0.4832938,-2.339903,0.5267399,0,35.3,0.01481086,0.02441796,0.01377632,-0.7806939,-4.446764,0.1802185,0.6466639,1.311809,0.4118915,-0.0116611,0.02827997,0.02965707,-1.029587,0.2159014,0.03477076,0.767097,1.377883,0.2444177,0.4202531,1.244091,0.3637568,297.9713,102.3648,147.4255,True
0,2.044448,-0.0930112,0.2088417,0.05944981,-1.371152,1.556895,-2.988556,0.6063421,1.130902,0.4830868,-2.334013,0.5301288,0,35.3,0.02434394,0.01699336,0.005157522,-0.7809603,-4.446761,0.1795471,0.6464937,1.31179,0.4117367,-0.007390659,0.02402081,0.0295928,-1.029163,0.2159657,0.03458621,0.7668958,1.37791,0.2442894,0.4188451,1.243603,0.3651659,297.729,102.338,147.9074,True
0,2.055559,-0.09619617,0.1971102,0.05844418,-1.372038,1.555358,-2.987059,0.6061538,1.130868,0.4828801,-2.328237,0.5198654,0,35.3,0.02214457,0.01701603,-0.003351418,-0.7812905,-4.44631,0.1791045,0.6463594,1.311724,0.4115887,-0.00949201,0.02293191,0.03174632,-1.028726,0.2160167,0.03473748,0.7667264,1.37793,0.244226,0.4174386,1.243113,0.3664237,297.502,102.3105,148.3601,True
0,2.06667,-0.09935512,0.1843082,0.05641006,-1.372829,1.55372,-2.985625,0.6059697,1.130817,0.4827054,-2.322731,0.4953378,0.6,32.8,0.02634891,0.02768618,-0.009748409,-0.7814716,-4.445385,0.1780241,0.6461892,1.311626,0.4114459,-0.006255712,0.02291029,0.03489662,-1.028299,0.2160962,0.0346701,0.7665957,1.377874,0.2440975,0.4160994,1.242533,0.367432,297.2761,102.3291,148.7083,True
0,2.077781,-0.09930915,0.1597507,0.04804863,-1.373214,1.552888,-2.984385,0.6057659,1.130797,0.4825289,-2.317045,0.5120575,0.6,32.8,0.02100442,0.02981816,-0.011832,-0.7816085,-4.444787,0.1775577,0.6460325,1.311574,0.4112878,-0.007283937,0.02182881,0.03704598,-1.027668,0.2162174,0.03460512,0.766421,1.377915,0.2439806,0.4148327,1.241845,0.3681481,297.0458,102.4048,148.8927,True
0,2.088892,-0.09498238,0.1245617,0.04082408,-1.373429,1.55258,-2.983398,0.6056587,1.130814,0.4823487,-2.311665,0.4839828,0.6,32.8,0.01459059,0.03408051,-0.0149667,-0.7817821,-4.444042,0.177015,0.6459125,1.311598,0.4111371,-0.004073452,0.01861699,0.03804693,-1.027385,0.2160415,0.03467436,0.7662812,1.37793,0.2437732,0.4136418,1.241053,0.3685583,296.807,102.5201,148.9257,True
0,2.100003,-0.09387696,0.1032652,0.04202715,-1.373986,1.552302,-2.982348,0.6054687,1.130819,0.482168,-2.306331,0.4800296,0.6,32.8,0.01136584,0.03302473,-0.01920745,-0.7821086,-4.443476,0.1765652,0.6457756,1.311591,0.4109681,0.002168644,0.01334251,0.0251663,-1.027466,0.2159447,0.03437582,0.7661463,1.377953,0.2436492,0.4125113,1.240183,0.3687027,296.5749,102.7007,148.8007,True
0,2.111114,-0.08850095,0.07870595,0.03153761,-1.373997,1.552181,-2.981573,0.6053469,1.130712,0.4819658,-2.301152,0.4659992,0.6,32.8,0.01355095,0.02554931,-0.01285237,-0.7820133,-4.443491,0.1763439,0.6456679,1.311536,0.4108331,-2.754852E-05,0.005890179,0.01982635,-1.027581,0.2155315,0.03475505,0.7661304,1.377948,0.2434323,0.411445,1.23925,0.3686261,296.3275,102.9084,148.5837,True
0,2.122225,-0.08206896,0.0552251,0.02210074,-1.373869,1.552255,-2.980837,0.6052361,1.130799,0.4817414,-2.295805,0.4813675,1.2,36.4,0.01462341,0.02447894,-0.01179753,-0.7820799,-4.443215,0.1759921,0.6456286,1.311496,0.4106977,-0.002169112,0.01014611,0.01880976,-1.02733,0.215716,0.03465012,0.7659135,1.377996,0.2432845,0.410452,1.238279,0.3683855,296.0685,103.1355,148.292,True
0,2.133336,-0.07778388,0.04240785,0.01579277,-1.373826,1.552237,-2.980113,0.6051069,1.130817,0.4815547,-2.290776,0.4522822,1.2,36.4,0.01249382,0.02234343,-0.01178658,-0.782196,-4.442965,0.1757601,0.6455784,1.311568,0.4105864,-0.001063753,0.009063872,0.02198286,-1.02701,0.2157179,0.03464,0.7659034,1.37801,0.2431958,0.4094979,1.237314,0.3680607,295.835,103.3417,147.9989,True
0,2.144447,-0.07137892,0.03494706,0.01264306,-1.373882,1.55195,-2.979448,0.605082,1.130865,0.4813643,-2.28544,0.4803658,1.2,36.4,0.01785045,0.02340696,-0.008631844,-0.7821784,-4.442523,0.1749825,0.6455493,1.311555,0.4104383,8.121319E-05,0.007969487,0.02729728,-1.026451,0.215603,0.03450232,0.7657504,1.378036,0.2430501,0.4085983,1.236317,0.3677171,295.6226,103.5584,147.7092,True
0,2.155558,-0.06178732,0.032821,0.01052574,-1.373982,1.551646,-2.979012,0.6050079,1.130897,0.4811683,-2.280004,0.4891502,1.2,36.4,0.01678279,0.02340231,-0.007556628,-0.7821416,-4.442164,0.1747212,0.6455551,1.311585,0.4102759,-0.001939222,0.006866145,0.03584061,-1.025784,0.2155898,0.03459766,0.7656916,1.378057,0.2428739,0.4076898,1.235336,0.3673935,295.3964,103.8025,147.3968,True
0,2.166669,-0.05964712,0.02856655,0.01161749,-1.374178,1.551562,-2.978403,0.6050112,1.13076,0.4810243,-2.274571,0.4888855,1.2,34,0.01041747,0.02765042,-0.004302292,-0.782034,-4.441504,0.1742885,0.6455973,1.311537,0.4101126,-0.001882102,-0.002753378,0.03899908,-1.025264,0.2148416,0.03495213,0.7657613,1.378122,0.2426438,0.406767,1.234362,0.3671504,295.165,104.0421,147.0977,True
0,2.17778,-0.05432869,0.03283797,0.01158938,-1.374399,1.551042,-2.977903,0.6049925,1.130792,0.4808481,-2.269187,0.4842539,1.2,34,0.01253659,0.02659113,-0.005382222,-0.7820452,-4.441087,0.1738245,0.6455709,1.311567,0.4098897,0.001261206,-0.01019175,0.03360726,-1.024997,0.2143297,0.03499207,0.7656606,1.378139,0.2424798,0.4058336,1.233387,0.3670384,294.9202,104.2767,146.8428,True
0,2.188891,-0.04686258,0.0349969,0.01477283,-1.374768,1.550728,-2.977754,0.6049246,1.130721,0.4806969,-2.2633,0.5303398,1.2,34,0.01468454,0.028716,-0.002194623,-0.7818274,-4.440556,0.1732927,0.6456327,1.311536,0.4096982,0.002207176,-0.01229549,0.02399608,-1.025096,0.2139211,0.03513988,0.7656957,1.378115,0.2423091,0.4048935,1.23238,0.3670797,294.6808,104.4594,146.6878,True
0,2.200002,-0.0415279,0.03180604,0.01372529,-1.374878,1.550464,-2.977424,0.6049599,1.130729,0.4805043,-2.257728,0.5010689,1.2,34,0.01577923,0.01805959,-0.0001056213,-0.7818652,-4.440738,0.1731412,0.6456687,1.311493,0.4095423,0.002143856,-0.01334318,0.01866814,-1.025029,0.2136682,0.03521524,0.7656265,1.378135,0.2421598,0.4039653,1.231293,0.3672673,294.4228,104.6008,146.6137,True
0,2.211113,-0.03406702,0.02968948,0.01374395,-1.375157,1.550242,-2.977233,0.6049659,1.130723,0.4803271,-2.252266,0.4912432,1.2,34,0.01470702,0.006346313,-0.002260044,-0.7820213,-4.441142,0.1733095,0.6457007,1.311497,0.409405,0.00425889,-0.01654731,0.01756564,-1.024808,0.2130707,0.03549275,0.7656204,1.37812,0.2419806,0.402971,1.230192,0.3675657,294.1375,104.7747,146.5459,True
0,2.222224,-0.03192824,0.02755236,0.01162606,-1.375237,1.549958,-2.976936,0.6049223,1.130743,0.4801486,-2.246264,0.5406904,1.2,33.2,0.01364832,0.003146172,-0.001196511,-0.7820202,-4.441228,0.1733177,0.6457274,1.311499,0.4092674,0.0117335,-0.01655535,0.01854181,-1.02449,0.2126272,0.03528848,0.7655007,1.378111,0.241817,0.4019271,1.229047,0.3679429,293.829,104.924,146.5323,True
0,2.233335,-0.02338469,0.01690867,0.01063439,-1.375371,1.55017,-2.97702,0.6049165,1.130755,0.4799764,-2.240498,0.5186651,1.2,33.2,0.01683427,-0.003235414,-0.003364121,-0.782098,-4.441488,0.1731875,0.6457742,1.311461,0.4089527,0.01383305,-0.01867582,0.0163753,-1.024394,0.2122859,0.03533668,0.7654862,1.378111,0.2416017,0.4008613,1.227853,0.3683404,293.4829,105.1156,146.4972,True
0,2.244446,-0.02018598,0.01476813,0.007450371,-1.375346,1.549991,-2.976845,0.6049867,1.130785,0.4798028,-2.234526,0.5377086,1.2,33.2,0.0221699,-0.01282301,-0.003430599,-0.7822173,-4.44219,0.1732368,0.6458737,1.31146,0.4087849,0.01919753,-0.02402637,0.01842598,-1.023985,0.2113722,0.03536918,0.7655404,1.378134,0.2414067,0.3997777,1.22663,0.3687103,293.1305,105.3292,146.4288,True
0,2.255557,-0.01484343,0.005171672,0.004318203,-1.375267,1.550252,-2.976888,0.6050334,1.130741,0.4796379,-2.228883,0.5073641,1.2,33.2,0.02112058,-0.02241324,-0.002381516,-0.7822706,-4.442984,0.173604,0.6459032,1.311487,0.4085445,0.01608773,-0.02512207,0.02485034,-1.023562,0.2110076,0.03543922,0.7655221,1.37811,0.2410879,0.3986808,1.225393,0.3690159,292.7787,105.5648,146.3169,True
0,2.266668,-0.01590052,-0.001247951,0.001175137,-1.375283,1.550534,-2.97667,0.605036,1.130711,0.4794791,-2.222795,0.5483747,1.2,33.2,0.02326593,-0.02668165,-0.000279787,-0.7822961,-4.443621,0.1738128,0.6459642,1.311366,0.4083469,0.01514467,-0.02198878,0.03447719,-1.022683,0.2104342,0.03556252,0.7655205,1.378038,0.2408965,0.39763,1.224115,0.3692345,292.4214,105.8073,146.166,True
0,2.277779,-0.0158986,-0.002320241,0.0001170448,-1.37523,1.550554,-2.976535,0.6050963,1.130661,0.4793208,-2.216956,0.5252655,1.5,30.5,0.02214967,-0.02667094,-0.00666886,-0.7827563,-4.444052,0.1739334,0.6459562,1.311443,0.4082801,0.01728054,-0.02413523,0.03444944,-1.022205,0.2097061,0.03562537,0.7655442,1.378093,0.240675,0.3966501,1.222794,0.3693659,292.0765,106.1114,145.9267,True
0,2.28889,-0.0127061,-0.0001621435,0.00330227,-1.375451,1.550516,-2.9765,0.6051466,1.130554,0.4791429,-2.210751,0.5588599,1.5,30.5,0.01469924,-0.02135393,-0.00445961,-0.7826418,-4.444085,0.1741489,0.6459152,1.311463,0.4081271,0.01836195,-0.02520386,0.0354932,-1.021829,0.2093246,0.03556385,0.7655355,1.378057,0.2404444,0.3957385,1.221434,0.3694114,291.7542,106.3968,145.6705,True
0,2.300001,-0.01484491,0.004094833,0.003274536,-1.37552,1.550313,-2.976228,0.6052113,1.130495,0.4790039,-2.204906,0.5257373,1.5,30.5,0.006195879,-0.01284672,-0.001175184,-0.7825379,-4.44387,0.1741822,0.6459042,1.311456,0.407964,0.01835335,-0.02416076,0.03443999,-1.021394,0.2085781,0.03566186,0.7655443,1.37807,0.2402341,0.394848,1.220068,0.3693831,291.4421,106.6887,145.377,True
0,2.311112,-0.01062037,0.02438788,0.009538818,-1.376121,1.549321,-2.976098,0.6051946,1.130484,0.4789562,-2.199196,0.5138147,1.5,30.5,0.004093294,-0.01073134,0.003099978,-0.7824863,-4.444009,0.1743377,0.645893,1.311522,0.4078932,0.0205399,-0.02630674,0.03866329,-1.020861,0.2081045,0.03562058,0.7655426,1.378114,0.240046,0.393984,1.218701,0.3693201,291.14,107.0195,145.0316,True
0,2.322223,-0.01066089,0.04361543,0.01686681,-1.376712,1.548212,-2.975716,0.6052636,1.130505,0.4788101,-2.193281,0.5327039,0.9,33.2,-0.006496862,-0.01715704,0.01062175,-0.7822269,-4.444745,0.1752618,0.6459739,1.311542,0.407753,0.02384459,-0.02529214,0.04714717,-1.020084,0.207444,0.03558409,0.7656074,1.378177,0.2398298,0.3931366,1.21734,0.3692657,290.8417,107.3433,144.6914,True
0,2.333334,-0.004297794,0.05752495,0.02423362,-1.377431,1.547193,-2.975655,0.6052651,1.130523,0.4786847,-2.187927,0.4812443,0.9,33.2,-0.009706008,-0.02034814,0.008508472,-0.7822343,-4.445206,0.1757934,0.6459678,1.311625,0.4075263,0.02821541,-0.02425049,0.05561476,-1.019252,0.2072194,0.03521578,0.7655846,1.378217,0.2396691,0.3922652,1.21603,0.369264,290.546,107.7271,144.2798,True
0,2.344445,-0.004323971,0.06819943,0.02735885,-1.377998,1.546165,-2.975307,0.6052907,1.130532,0.4785078,-2.182192,0.5166914,0.9,33.2,-0.01604738,-0.02463314,0.01387103,-0.7820021,-4.445976,0.1766198,0.6460427,1.311649,0.4073615,0.03034888,-0.02425418,0.0555884,-1.018651,0.206748,0.03501604,0.7655563,1.378291,0.2394502,0.3913242,1.214824,0.3693977,290.2496,108.1075,143.8859,True
0,2.355556,-0.006456514,0.06926762,0.02841742,-1.378469,1.545391,-2.975025,0.6052479,1.130602,0.4783344,-2.176999,0.4667645,0.9,33.2,-0.01713088,-0.01184976,0.01284654,-0.7818918,-4.445617,0.176566,0.646066,1.311704,0.4070926,0.02709141,-0.02957249,0.05028326,-1.018313,0.2059626,0.03524587,0.7654856,1.378248,0.2392118,0.3903548,1.213716,0.369702,289.9411,108.4345,143.6252,True
0,2.366668,-0.008578727,0.06069411,0.0210199,-1.378551,1.545025,-2.9747,0.6052263,1.130677,0.478219,-2.171344,0.5096463,0.9,33.2,-0.01815352,-0.00122202,0.01927701,-0.7814045,-4.445357,0.1765724,0.6460723,1.311647,0.4068918,0.03023623,-0.03274725,0.04596861,-1.017973,0.2053709,0.03511032,0.7654785,1.378277,0.2389662,0.3893874,1.212683,0.3701625,289.6451,108.6618,143.5366,True
0,2.377779,-0.02452549,0.04139262,0.006236101,-1.378156,1.545072,-2.97391,0.605132,1.130788,0.4780371,-2.165986,0.4820318,1.5,37.1,-0.01704563,0.005151077,0.02567217,-0.7809315,-4.44512,0.1765812,0.6461139,1.311643,0.4065971,0.03337301,-0.04230701,0.04056487,-1.017706,0.2044322,0.03516092,0.7654551,1.378231,0.2387426,0.388442,1.211695,0.3707212,289.3581,108.8394,143.5539,True
0,2.38889,-0.0308886,0.02427117,-0.00323395,-1.377859,1.545307,-2.973384,0.6050385,1.13085,0.4778671,-2.160585,0.4861843,1.5,37.1,-0.009550861,-0.002312358,0.02985293,-0.7805629,-4.445674,0.1768086,0.6460584,1.311649,0.4063833,0.02916401,-0.03807795,0.04489916,-1.017042,0.2039747,0.03518435,0.765377,1.378246,0.2385535,0.3875169,1.21074,0.3712996,289.0782,109.0038,143.5961,True
0,2.400001,-0.03725038,0.008237582,-0.009519397,-1.377457,1.545735,-2.97283,0.6049247,1.130939,0.477685,-2.154815,0.5200442,1.5,37.1,-0.007447021,-0.003372543,0.02663951,-0.7803818,-4.445939,0.1770677,0.6460623,1.311725,0.4061646,0.0207234,-0.0466432,0.05030011,-1.016344,0.2028301,0.03582111,0.7653733,1.378287,0.2382617,0.3866397,1.209781,0.3718171,288.8113,109.1913,143.603,True
0,2.411112,-0.04572933,-0.01532595,-0.02534203,-1.376498,1.546629,-2.972235,0.6046892,1.131092,0.4775152,-2.149833,0.4476585,1.5,37.1,-0.01169524,-0.00657261,0.02772963,-0.7800612,-4.446234,0.1775301,0.6460725,1.311791,0.4060278,0.01540994,-0.04771521,0.05143083,-1.015736,0.2022065,0.03616812,0.7653506,1.378328,0.2379458,0.3857885,1.208826,0.372181,288.5566,109.4281,143.528,True
0,2.422223,-0.04995472,-0.03561331,-0.03160088,-1.37578,1.547566,-2.971671,0.6045237,1.13124,0.477335,-2.14468,0.4639988,0.9,34.4,-0.006373307,0.01472827,0.02881063,-0.7795893,-4.445237,0.1766592,0.6460993,1.311779,0.4058177,0.01121971,-0.03710203,0.05792172,-1.014865,0.2019393,0.03630448,0.7654005,1.378348,0.2376909,0.3849846,1.207858,0.372348,288.3165,109.6785,143.3733,True
0,2.433334,-0.05949718,-0.05918016,-0.04742109,-1.374565,1.548961,-2.971008,0.6043125,1.131404,0.4772,-2.139449,0.4709087,0.9,34.4,-0.002101877,0.02111775,0.03092439,-0.779112,-4.444696,0.1761804,0.6461478,1.311815,0.4056187,0.01766948,-0.02859042,0.06319784,-1.014012,0.2019185,0.03588636,0.7653711,1.378345,0.237469,0.3841991,1.206882,0.3722987,288.0926,109.9768,143.1089,True
0,2.444445,-0.06266357,-0.07198738,-0.05053198,-1.373774,1.54994,-2.97052,0.6041619,1.131561,0.4769802,-2.134386,0.4556138,0.9,34.4,-0.001014802,0.01578993,0.03196539,-0.7787605,-4.444845,0.1761396,0.6460764,1.31186,0.4054213,0.01755976,-0.02856387,0.05467711,-1.013717,0.2013643,0.03598303,0.7653728,1.378356,0.2371888,0.3834005,1.205904,0.3720297,287.8824,110.3707,142.6791,True
0,2.455556,-0.06372004,-0.07734374,-0.05475695,-1.372849,1.55082,-2.969966,0.6040041,1.131679,0.4768155,-2.129149,0.4715963,0.9,34.4,0.001071304,-0.006561212,0.0233647,-0.779013,-4.446152,0.1769471,0.6460767,1.311975,0.4051268,0.01208744,-0.03597915,0.04299931,-1.013672,0.2005948,0.03652339,0.7653446,1.378447,0.2368326,0.3826295,1.204906,0.3715875,287.6725,110.8186,142.1332,True
0,2.466667,-0.06691844,-0.07203446,-0.05585963,-1.372098,1.551355,-2.969346,0.6038849,1.131781,0.4766269,-2.124346,0.43176,0.9,34.4,0.01062402,-0.02145487,0.01686225,-0.7791355,-4.447297,0.1772994,0.6460625,1.31205,0.4048965,0.00783688,-0.03811966,0.04411006,-1.013143,0.2000011,0.03695988,0.7652607,1.378452,0.2364652,0.3818926,1.203886,0.3710203,287.4678,111.3326,141.4798,True
0,2.477778,-0.06905526,-0.06778492,-0.05695482,-1.371335,1.551889,-2.968627,0.603783,1.131937,0.4764702,-2.119288,0.4554428,0.3,31,0.01492846,-0.004427737,0.02433436,-0.7785038,-4.446671,0.1765809,0.6459553,1.312198,0.4046624,-0.0006088484,-0.03603376,0.05062109,-1.012375,0.1994552,0.03755856,0.7651455,1.378491,0.2361312,0.3811933,1.202854,0.3704065,287.2703,111.8663,140.7905,True
0,2.488889,-0.06696264,-0.04962179,-0.04962128,-1.370963,1.551744,-2.967899,0.6037213,1.132032,0.4762461,-2.114244,0.4539379,0.3,31,0.009658335,0.01684996,0.03402377,-0.7776308,-4.445585,0.1758765,0.6459239,1.312262,0.404407,-0.004805231,-0.03498754,0.05600531,-1.01159,0.1991332,0.03794792,0.7650802,1.378565,0.2359633,0.3805191,1.20181,0.3698299,287.0897,112.4107,140.0921,True
0,2.5,-0.06381458,-0.0271869,-0.04125014,-1.370805,1.551263,-2.967129,0.6037142,1.132241,0.4760449,-2.10899,0.4730562,0.3,31,0.009735441,0.04876835,0.04796236,-0.7763434,-4.443658,0.1744304,0.6459453,1.312407,0.4041555,-0.01223458,-0.03394846,0.05824269,-1.010812,0.1985357,0.03863235,0.7650182,1.378607,0.2356851,0.3798452,1.200763,0.3693642,286.9052,112.9495,139.4261,True
0,2.511111,-0.06598971,-0.002628099,-0.03182605,-1.370824,1.550537,-2.966193,0.6036782,1.132362,0.4757946,-2.103834,0.4637499,0.3,31,0.006557614,0.06260664,0.05228558,-0.7754363,-4.442173,0.1734184,0.6459517,1.312523,0.4039099,-0.01130762,-0.03390352,0.04757682,-1.010669,0.1981022,0.03896924,0.7649858,1.378639,0.2354174,0.3791469,1.199731,0.3690576,286.7036,113.4836,138.8114,True
0,2.522222,-0.06495004,0.01552837,-0.02555688,-1.370818,1.54974,-2.965469,0.6036546,1.132475,0.4755936,-2.098496,0.4805022,0,27.5,0.01619038,0.05195007,0.05644286,-0.7746917,-4.44207,0.1728045,0.6459984,1.312631,0.4036765,-0.008216403,-0.03813049,0.03899841,-1.010498,0.1973859,0.03934101,0.7650043,1.378636,0.23507,0.3784103,1.198725,0.3689487,286.4798,113.9967,138.2814,True
0,2.533333,-0.06393073,0.040102,-0.01400059,-1.371265,1.548625,-2.964572,0.6036162,1.132603,0.475419,-2.092913,0.5026412,0,27.5,0.01298163,0.0338465,0.0532205,-0.7742608,-4.442469,0.1730892,0.6460532,1.312712,0.4034507,-0.002901176,-0.04557014,0.03676586,-1.01024,0.1965056,0.03955833,0.7649984,1.378579,0.2347457,0.3776271,1.197766,0.3690527,286.2339,114.4892,137.8429,True
0,2.544444,-0.06715109,0.05184434,-0.009818381,-1.371415,1.547652,-2.963484,0.6035697,1.132729,0.4752362,-2.087704,0.4684621,0,27.5,0.01408592,0.01893184,0.05637164,-0.7735103,-4.442852,0.1731499,0.6461009,1.312756,0.40311,0.001389612,-0.05835494,0.03772403,-1.009834,0.1951495,0.04010854,0.7649001,1.378605,0.2344072,0.376809,1.196844,0.3693476,285.9916,114.9025,137.5544,True
0,2.555555,-0.06716847,0.06038135,-0.00667926,-1.371587,1.546771,-2.962539,0.6035599,1.13281,0.4749987,-2.082249,0.4912094,0,27.5,0.01725934,0.006162632,0.05205108,-0.7731316,-4.443461,0.1732927,0.6461706,1.312841,0.402874,-0.0006675292,-0.05624795,0.04415209,-1.009114,0.1945592,0.04059696,0.7648675,1.378608,0.2341046,0.3759794,1.195937,0.3697947,285.75,115.2749,137.3383,True
0,2.566666,-0.06609928,0.05718124,-0.006659246,-1.371565,1.546357,-2.961733,0.6035007,1.132941,0.4748583,-2.076701,0.4995237,0,27.5,0.02362207,-0.006588787,0.04664052,-0.772827,-4.443896,0.173094,0.646193,1.312859,0.4026656,-0.00379741,-0.05307277,0.04953011,-1.008441,0.194078,0.04098658,0.7648413,1.378584,0.233839,0.3751262,1.195051,0.3703549,285.4957,115.6089,137.1854,True
0,2.577777,-0.06714527,0.04648629,-0.01298194,-1.371246,1.546095,-2.960859,0.6034565,1.133031,0.4746644,-2.071546,0.4636473,0,28.1,0.0299389,-0.005491991,0.03700684,-0.772745,-4.443929,0.1725614,0.6462274,1.312945,0.4024403,-0.003819257,-0.04455102,0.04850398,-1.007891,0.1937182,0.04118712,0.764757,1.378617,0.2335358,0.3742783,1.194175,0.3709596,285.2402,115.9492,137.0618,True
0,2.588888,-0.06606394,0.03797555,-0.01079617,-1.371218,1.545991,-2.960134,0.6034194,1.133142,0.474494,-2.066388,0.4642783,0,28.1,0.03093035,-0.003324181,0.02741652,-0.7727066,-4.443629,0.1719686,0.6461761,1.313016,0.4022262,-0.005976036,-0.04454442,0.04639939,-1.007493,0.193113,0.04162334,0.7647242,1.378632,0.2332122,0.3734778,1.193286,0.3715296,284.9882,116.2916,136.9371,True
0,2.599999,-0.06604281,0.02836269,-0.0149958,-1.370902,1.545866,-2.959413,0.6033776,1.133239,0.4743063,-2.061105,0.4755275,0,28.1,0.02984327,-0.0001167916,0.02423689,-0.7725127,-4.443461,0.1714801,0.6461841,1.313125,0.4019742,-0.008202771,-0.04345325,0.0389764,-1.007322,0.1925444,0.04208434,0.7646871,1.378674,0.2329044,0.3727267,1.192376,0.3719938,284.7489,116.6594,136.7485,True
0,2.61111,-0.06497472,0.02621222,-0.01711094,-1.370687,1.545689,-2.958675,0.6033503,1.133371,0.4741151,-2.056047,0.4550816,0,28.1,0.02664184,0.008404627,0.024288,-0.7721249,-4.442961,0.1708972,0.6461651,1.313253,0.4016736,-0.01144525,-0.03811428,0.03584279,-1.007036,0.1922873,0.0424388,0.7646562,1.378682,0.2325385,0.3720293,1.191432,0.3722997,284.5235,117.0877,136.4487,True
0,2.622221,-0.05644322,0.02303254,-0.01709341,-1.370508,1.545504,-2.958348,0.6033133,1.13348,0.473937,-2.050924,0.4610719,0,26.5,0.02346758,0.01585489,0.02752724,-0.7716743,-4.442381,0.1702719,0.6461169,1.313341,0.4014263,-0.0125434,-0.03384835,0.03374567,-1.006695,0.1919417,0.04280233,0.764622,1.378766,0.2322035,0.3713725,1.190464,0.3724357,284.3021,117.5512,136.051,True
0,2.633332,-0.05325123,0.02302685,-0.01816083,-1.370304,1.545266,-2.957743,0.6032624,1.133616,0.4737358,-2.04579,0.4621458,0,26.5,0.01822964,0.02007915,0.0393003,-0.7707796,-4.442111,0.1700317,0.6461064,1.313458,0.4011264,-0.01363508,-0.03810301,0.03161202,-1.006447,0.1912303,0.04342151,0.7646408,1.378732,0.2318258,0.370738,1.189474,0.3724161,284.0971,118.1099,135.5086,True
0,2.644443,-0.04471976,0.01988086,-0.01280796,-1.37045,1.545225,-2.957551,0.6032318,1.133722,0.4734974,-2.041076,0.4236262,0,26.5,0.0150189,0.02221788,0.03826477,-0.7703417,-4.441628,0.1696708,0.6460977,1.31356,0.4008911,-0.01261182,-0.03809316,0.0283973,-1.006329,0.1906249,0.04386093,0.7645725,1.378835,0.2314956,0.3701098,1.188478,0.372285,283.8961,118.743,134.8466,True
0,2.655554,-0.04152222,0.01881034,-0.0149345,-1.370216,1.544973,-2.957131,0.6032116,1.133819,0.4733255,-2.03573,0.4817826,0,26.5,0.01182429,0.03073462,0.03937791,-0.7697659,-4.440858,0.1690862,0.646108,1.313663,0.400645,-0.01479367,-0.03487855,0.02417402,-1.006228,0.1903838,0.04413843,0.7645907,1.378855,0.2313323,0.3694842,1.187468,0.3721043,283.705,119.3818,134.1558,True
0,2.666665,-0.03938839,0.01776485,-0.01172753,-1.370265,1.544907,-2.956774,0.6032021,1.133948,0.4730964,-2.030951,0.4294942,0,26.5,0.01184871,0.03179317,0.04257769,-0.7691103,-4.440426,0.1686308,0.6462009,1.313707,0.400419,-0.01480774,-0.0327447,0.02311851,-1.006005,0.1900004,0.04447905,0.7646313,1.378939,0.2310233,0.3688392,1.186454,0.3719256,283.5012,120.0295,133.4634,True
0,2.677776,-0.03193446,0.02097612,-0.01175269,-1.370159,1.54451,-2.956626,0.603247,1.134035,0.4729147,-2.025693,0.4736916,0,32.2,0.01188649,0.02752051,0.04682868,-0.768436,-4.440318,0.1683698,0.6462989,1.313759,0.4001892,-0.02017089,-0.03273389,0.01998898,-1.005899,0.1896622,0.04500023,0.7646176,1.378939,0.2307544,0.3682027,1.185417,0.3717874,283.2895,120.6394,132.8292,True
0,2.688887,-0.03407798,0.02629575,-0.011779,-1.37021,1.544047,-2.95607,0.6032575,1.134148,0.4727511,-2.020595,0.4586896,0,32.2,0.008686261,0.02219699,0.04577209,-0.7679662,-4.440253,0.1683408,0.6463444,1.313843,0.399967,-0.01910185,-0.03805673,0.01995594,-1.005666,0.1889562,0.04559199,0.7646111,1.378947,0.2304854,0.367572,1.184349,0.3717201,283.0768,121.3256,132.138,True
0,2.699998,-0.02768804,0.0316493,-0.009687009,-1.370252,1.543516,-2.955956,0.603238,1.134249,0.4726048,-2.015779,0.4330273,0,32.2,0.01296302,0.01367882,0.04677932,-0.7674639,-4.440472,0.1681994,0.6463255,1.313851,0.3997612,-0.02017659,-0.04018922,0.01889164,-1.005594,0.1882618,0.04619306,0.7645581,1.378978,0.2302167,0.3669486,1.183267,0.371733,282.8431,122.0349,131.4503,True
0,2.711109,-0.03086736,0.02312839,-0.007488885,-1.370348,1.543643,-2.955538,0.6032636,1.134347,0.4725358,-2.010329,0.49123,0,32.2,0.01716454,0.003057677,0.03819477,-0.7673606,-4.44083,0.1681554,0.6463671,1.313968,0.3995941,-0.0201738,-0.03911686,0.01889428,-1.005416,0.1879082,0.04655126,0.7645909,1.378948,0.2300198,0.3663463,1.182161,0.3718421,282.6161,122.7835,130.7401,True
0,2.72222,-0.0255422,0.02205818,-0.009610767,-1.370244,1.543399,-2.955344,0.6032735,1.134431,0.4723141,-2.005664,0.4189171,0,32.2,0.01715392,0.0009303689,0.03712392,-0.7669984,-4.440985,0.1681427,0.6464083,1.31402,0.3993938,-0.01597377,-0.03695877,0.01458208,-1.005493,0.1875991,0.04681944,0.7646105,1.378941,0.2297347,0.3657123,1.181072,0.3720486,282.38,123.5424,130.0388,True
0,2.733331,-0.0234017,0.01671489,-0.01277205,-1.370014,1.543368,-2.955147,0.603283,1.134559,0.4721909,-2.000217,0.4912135,0,32.9,0.0160761,-0.005458158,0.0349796,-0.7668205,-4.44149,0.168376,0.6464676,1.314095,0.3992016,-0.0117664,-0.04013967,0.01025245,-1.005562,0.1868218,0.04726551,0.7646973,1.378996,0.2294104,0.3650671,1.179993,0.372345,282.1421,124.2545,129.4063,True
0,2.744442,-0.01911744,0.001776958,-0.01800328,-1.369528,1.543689,-2.955057,0.6033905,1.13467,0.4719713,-1.995411,0.4318351,0,32.9,0.01076454,-0.009733479,0.0371414,-0.7663422,-4.442005,0.1688676,0.6465643,1.314184,0.398967,-0.01280167,-0.04228014,0.01238794,-1.005376,0.1861695,0.04778723,0.7647229,1.379004,0.2291465,0.3644461,1.178908,0.3726882,281.8861,124.9344,128.8378,True
0,2.755553,-0.01485182,-0.002506273,-0.02330138,-1.369117,1.543697,-2.954976,0.6034342,1.13469,0.4718573,-1.990351,0.4556558,0,32.9,0.008684123,-0.01081795,0.04354648,-0.7656849,-4.442391,0.1691161,0.6466234,1.314253,0.3987842,-0.00966469,-0.04225528,0.008087822,-1.005422,0.1856924,0.04809376,0.7647682,1.379011,0.2288723,0.3638397,1.177822,0.3730184,281.6466,125.6802,128.2287,True
0,2.766664,-0.01270779,-0.009992455,-0.02750937,-1.368651,1.544051,-2.954953,0.6034393,1.134775,0.4717064,-1.985333,0.4514952,0,32.9,0.001210818,-0.01934515,0.04038861,-0.7653893,-4.443343,0.1700154,0.6466974,1.314369,0.3986192,-0.00861942,-0.04117616,0.007013076,-1.005408,0.1853415,0.04840242,0.7647824,1.379035,0.2287376,0.3632768,1.176719,0.3732966,281.4115,126.5095,127.5211,True
0,2.777775,-0.01057003,-0.01426968,-0.03067895,-1.368156,1.54421,-2.954915,0.603408,1.134846,0.4716051,-1.98036,0.447548,0,31.8,0.001190903,-0.02360045,0.03718301,-0.7651235,-4.444028,0.1704665,0.646735,1.314402,0.3984544,-0.007538335,-0.04224775,0.00805972,-1.005316,0.1846993,0.0487734,0.7647234,1.378997,0.2285299,0.3627981,1.175574,0.3734782,281.1977,127.3935,126.7293,True
0,2.788886,-0.008443995,-0.01107456,-0.03069905,-1.367818,1.544225,-2.954898,0.6033808,1.134982,0.4715614,-1.97531,0.4545431,0,31.8,-0.004139462,-0.02146853,0.03722844,-0.764731,-4.444218,0.1708551,0.6467522,1.314535,0.3983474,-0.002165812,-0.03692704,0.01227432,-1.005035,0.1844754,0.04877686,0.7647198,1.379127,0.2284694,0.3623424,1.174392,0.3735672,281.0112,128.2816,125.8737,True
0,2.799997,-0.005255457,-0.007863798,-0.02965931,-1.367482,1.544108,-2.9549,0.6033381,1.135062,0.4713964,-1.970289,0.451862,0,31.8,-0.007329667,-0.01295955,0.03940733,-0.7642063,-4.444221,0.1711092,0.6467713,1.314561,0.3982117,-0.003212842,-0.03161485,0.01443287,-1.004896,0.1841722,0.04904291,0.7647053,1.379119,0.2282889,0.3618522,1.17319,0.3735698,280.8249,129.2471,124.9057,True
0,2.811108,-0.0009977462,-0.005696925,-0.02541297,-1.367334,1.54407,-2.955012,0.6032938,1.135151,0.4713168,-1.965299,0.4490208,0,31.8,-0.01158724,-0.003372986,0.04053587,-0.7636045,-4.443835,0.1710455,0.646799,1.314612,0.3980033,-0.001065612,-0.03267935,0.01546342,-1.004755,0.1837174,0.04922187,0.7647562,1.379088,0.2280781,0.3613025,1.171974,0.3735254,280.6407,130.3708,123.7403,True
0,2.822219,0.004326023,-0.005688394,-0.02541355,-1.367045,1.544103,-2.955171,0.6031874,1.135328,0.4712131,-1.96031,0.4490177,0,31.8,-0.01582281,-0.004450559,0.04376157,-0.7630367,-4.444077,0.1715329,0.6468402,1.314672,0.3978601,0.00103387,-0.03160306,0.01330674,-1.004735,0.1833417,0.04938513,0.7648226,1.379082,0.227896,0.3607003,1.170759,0.3734925,280.4457,131.6019,122.4647,True
0,2.83333,0.002203901,-0.009946613,-0.02431986,-1.366783,1.544299,-2.955146,0.6031306,1.13544,0.4710994,-1.955364,0.4449595,0,41.6,-0.01794425,-0.006582528,0.04484539,-0.7624204,-4.444408,0.1720487,0.6468861,1.314703,0.39765,-0.00110073,-0.02734131,0.01335068,-1.004599,0.1832225,0.0495324,0.7648879,1.379068,0.2276514,0.3600716,1.169541,0.3735041,280.2481,132.8372,121.2184,True
0,2.844441,0.004347974,-0.01845485,-0.02320013,-1.36648,1.54469,-2.955302,0.6031862,1.135567,0.4709198,-1.950361,0.4503408,0,41.6,-0.02005918,-0.01084696,0.04591619,-0.7619203,-4.444931,0.172666,0.6469686,1.314753,0.3975098,0.001028794,-0.03052796,0.01330884,-1.004474,0.1828187,0.04973986,0.7649137,1.379071,0.2275081,0.3594318,1.168322,0.3735826,280.0389,134.0975,119.9644,True
0,2.855552,0.00649847,-0.0259259,-0.02634908,-1.365978,1.545069,-2.955603,0.6031036,1.135649,0.4708192,-1.945105,0.473318,0,41.6,-0.02108412,-0.01192962,0.05124835,-0.7612044,-4.445365,0.1732466,0.6469605,1.314812,0.3973877,-0.0001157979,-0.0326343,0.006922725,-1.004645,0.1823301,0.05003547,0.7649665,1.379088,0.227313,0.3587758,1.167112,0.3737238,279.8265,135.4256,118.6728,True
0,2.866663,0.007575075,-0.03341886,-0.03162238,-1.365413,1.545634,-2.955803,0.6030428,1.135866,0.4707646,-1.940192,0.4417982,0,41.6,-0.0210517,-0.01193861,0.0555162,-0.7603804,-4.445709,0.1737276,0.6470225,1.314889,0.3972867,-0.0001384206,-0.03475418,0.004773865,-1.004799,0.1818264,0.05027915,0.7649945,1.379007,0.2271519,0.3581751,1.165893,0.3739073,279.606,136.7782,117.3905,True
0,2.877774,0.007587689,-0.03877468,-0.03585052,-1.36475,1.546161,-2.956022,0.602923,1.136018,0.4706464,-1.935204,0.4488117,0,44.8,-0.01995939,-0.01408193,0.0586976,-0.7596955,-4.446346,0.1743558,0.6470547,1.314924,0.3971596,-0.00023406,-0.03472432,-0.002682542,-1.005108,0.1813886,0.05052789,0.7650567,1.378994,0.2269859,0.3576634,1.164656,0.3740901,279.4003,138.137,116.1164,True
0,2.888885,0.004407521,-0.04837222,-0.03684136,-1.364341,1.546932,-2.956083,0.6028835,1.136086,0.470515,-1.929804,0.4863915,0,44.8,-0.01570532,-0.01514006,0.05759662,-0.7591378,-4.446759,0.1746831,0.6470953,1.314985,0.3970275,-0.006662507,-0.03471634,-0.005799858,-1.005332,0.1810258,0.05098223,0.7650177,1.37901,0.226769,0.3571561,1.163405,0.3742473,279.2249,139.5181,114.7849,True
0,2.899997,0.000151515,-0.05160865,-0.0421487,-1.363535,1.547426,-2.956066,0.6029081,1.136141,0.4703994,-1.924432,0.4832877,0,44.8,-0.009403406,-0.02469451,0.04473846,-0.7592033,-4.447765,0.1752906,0.6471733,1.315008,0.3969169,-0.001343887,-0.02938337,-0.005848436,-1.005419,0.1808728,0.05089327,0.7651432,1.379083,0.2266006,0.3566127,1.162148,0.3743719,279.0531,141.0565,113.2701,True
0,2.911108,0.0001414949,-0.04734266,-0.04110922,-1.363094,1.547743,-2.956093,0.6029224,1.136201,0.4703715,-1.918768,0.5101242,0,44.8,-0.0009932909,-0.02677298,0.02975876,-0.75937,-4.448173,0.1752882,0.6472058,1.314987,0.3967078,-0.003436068,-0.01874659,-0.001514223,-1.005219,0.1811317,0.05090206,0.7651769,1.379079,0.2263436,0.3560373,1.160864,0.3744586,278.8899,142.5997,111.7523,True
0,2.922219,-0.007334915,-0.03559248,-0.0347954,-1.362946,1.547585,-2.955735,0.6030154,1.136246,0.4703157,-1.913201,0.5008897,0,44.8,0.003088618,-0.0299032,0.006283436,-0.7601866,-4.448633,0.175457,0.6472777,1.315082,0.3965812,-0.003340006,-0.01877862,0.005943722,-1.004892,0.1808306,0.05109727,0.765282,1.379133,0.2261624,0.3555039,1.159511,0.374502,278.7252,144.1844,110.1929,True
0,2.93333,-0.005243868,-0.01634973,-0.02533535,-1.363083,1.547083,-2.955586,0.6031007,1.136243,0.4702787,-1.907697,0.4952406,0,52.5,0.001986038,-0.02562813,0.002043728,-0.7602888,-4.448718,0.1755622,0.6472683,1.315103,0.3963768,-0.006422788,-0.01881309,0.01450572,-1.004477,0.1806025,0.05134015,0.7653401,1.379139,0.2260368,0.3550284,1.158076,0.3745135,278.5866,146.0154,108.3555,True
0,2.944441,-0.004200894,0.001838143,-0.01373469,-1.363462,1.546537,-2.955621,0.6031432,1.136131,0.4701905,-1.901787,0.5323542,0,52.5,-0.001166138,0.000985472,0.01066024,-0.7597029,-4.447341,0.1746978,0.6472878,1.315176,0.3963103,-0.009639503,-0.01242208,0.0135099,-1.004333,0.1806719,0.05152657,0.7652874,1.379102,0.2259121,0.3545786,1.156589,0.3745444,278.443,148.0361,106.2879,True
0,2.955552,-0.006354912,0.01468037,-0.004230925,-1.36387,1.545958,-2.955356,0.6032283,1.136143,0.4701288,-1.896355,0.4882506,0,52.5,-0.002136567,0.004141302,0.02346169,-0.7589929,-4.44739,0.174799,0.6472874,1.315243,0.3961697,-0.007545879,-0.003884125,0.01138659,-1.004269,0.181082,0.05132604,0.7653679,1.379057,0.2258821,0.3541294,1.155092,0.374653,278.2879,150.1918,104.0948,True
0,2.966663,-0.00320333,0.03820788,0.009460527,-1.36459,1.544948,-2.955205,0.6033324,1.136188,0.4700742,-1.890722,0.5069188,0,52.5,-0.006383393,-0.0150353,0.02344026,-0.7589231,-4.448566,0.1758863,0.6473408,1.31533,0.3961158,-0.006680997,-0.005945256,-0.004616748,-1.004905,0.1810003,0.05136519,0.7652344,1.379033,0.2258289,0.3536563,1.153607,0.3748862,278.133,152.1989,102.0946,True
0,2.977774,-0.001074531,0.04037207,0.01370272,-1.364874,1.544478,-2.955193,0.6034514,1.136277,0.4699392,-1.884418,0.567952,0.3,57.9,-0.006368745,-0.02994796,0.02340173,-0.7587964,-4.449776,0.1768022,0.6474113,1.315466,0.3960032,-0.008942623,-0.01122945,-0.01527434,-1.005616,0.1807451,0.05169728,0.765377,1.379039,0.2256565,0.3531477,1.15211,0.3752523,277.9634,154.0859,100.2738,True
0,2.988885,-0.001089814,0.04780932,0.01152295,-1.365027,1.543782,-2.955038,0.6035272,1.13633,0.4698102,-1.878418,0.5394662,0.3,57.9,5.841255E-06,-0.05016866,0.01903473,-0.7589652,-4.451495,0.1778235,0.6474637,1.315522,0.3959041,-0.01005343,-0.01121805,-0.01845465,-1.005891,0.1806245,0.05196413,0.7654462,1.379012,0.2254546,0.352601,1.150607,0.3757381,277.7776,156.3298,98.13017,True
0,2.999996,0.002104252,0.04459363,0.007278785,-1.364986,1.543352,-2.954963,0.6037041,1.136395,0.4696598,-1.872179,0.5615708,0.3,57.9,0.00848292,-0.03524259,0.01580876,-0.7589412,-4.45134,0.177451,0.6475812,1.315535,0.3957725,-0.007847627,-0.005918526,-0.01207533,-1.005874,0.1807321,0.05187811,0.7655625,1.379018,0.2253227,0.3520388,1.149109,0.3763311,277.584,158.8541,95.74979,True
0,3.011107,0.00531673,0.0360612,0.005204835,-1.364996,1.543303,-2.955129,0.6037445,1.136448,0.4694607,-1.865568,0.5951348,0.3,57.9,-0.001157697,-0.02032208,0.01059686,-0.758953,-4.450905,0.1774856,0.6476157,1.315608,0.3956699,-0.01096599,-0.001681527,-0.005622613,-1.005636,0.1809698,0.05198091,0.7656115,1.379091,0.2252002,0.3514976,1.147601,0.3769666,277.4138,161.4684,93.3252,True
0,3.022218,0.009607958,0.0254147,0.005270632,-1.364998,1.543403,-2.955512,0.60369,1.136414,0.4693773,-1.858859,0.6037873,0.3,57.9,-0.008648243,-0.002218317,0.008575579,-0.7588006,-4.450172,0.1773524,0.6476882,1.315655,0.3955705,-0.01618243,-0.0006589619,0.002965946,-1.00538,0.1809425,0.05237506,0.7656628,1.379031,0.2250898,0.3509794,1.146056,0.3775913,277.2743,164.0843,90.89803,True
0,3.033329,0.009630532,0.0136897,0.004282503,-1.364958,1.543666,-2.955663,0.6036972,1.136483,0.4692671,-1.852118,0.6064816,0.9,58,-0.01180241,-0.001175859,0.0149888,-0.7585109,-4.450272,0.1777476,0.6477716,1.315684,0.3955145,-0.01733361,0.0004335847,-0.003404048,-1.00557,0.1810515,0.05256201,0.7657419,1.37904,0.2250106,0.3505133,1.144445,0.3781528,277.1501,166.8005,88.35847,True
0,3.04444,0.009641254,0.005152598,0.002208952,-1.364892,1.543891,-2.955748,0.6037902,1.136625,0.4693296,-1.845243,0.6186076,0.9,58,-0.009622388,-0.01503693,0.02025705,-0.7583021,-4.451293,0.1785239,0.6478266,1.315695,0.3954039,-0.01428612,-0.0005801618,-0.01516284,-1.006096,0.181035,0.05261101,0.76586,1.379051,0.2248757,0.3500184,1.142755,0.3785961,277.0437,169.5244,85.7715,True
0,3.055551,0.01178803,-0.003379478,0.0001341756,-1.364766,1.544233,-2.956028,0.6038061,1.136686,0.469244,-1.837779,0.6722442,0.9,58,-0.01491976,-0.02037654,0.02347931,-0.7580054,-4.451989,0.1793849,0.647904,1.315749,0.3953066,-0.01434055,-0.006950229,-0.02051878,-1.006582,0.1807032,0.05288718,0.7659951,1.378999,0.2247586,0.3494735,1.140944,0.3789148,276.9616,172.4218,82.94347,True
0,3.066662,0.01713804,-0.01509437,-0.0008586445,-1.364606,1.544749,-2.95651,0.6037277,1.13679,0.4691753,-1.830364,0.6671858,0.9,58,-0.02017948,-0.02040505,0.03097016,-0.757566,-4.452466,0.1799881,0.6479343,1.315807,0.3952346,-0.01321391,-0.01122731,-0.01628379,-1.006528,0.1803659,0.05316442,0.7660234,1.379015,0.2246394,0.3489226,1.139006,0.3791285,276.9181,176.0277,79.34377,True
0,3.077773,0.01716281,-0.02468072,-0.000797376,-1.364476,1.545327,-2.956889,0.6036429,1.13681,0.4691155,-1.822997,0.6627883,0.9,58,-0.02016385,-0.009760329,0.03419442,-0.7570397,-4.452185,0.1799889,0.6479579,1.315904,0.3951311,-0.01212866,-0.01335854,-0.01523509,-1.006567,0.1801487,0.05331915,0.7661527,1.379001,0.2245283,0.3484073,1.136976,0.3792965,276.9245,180.0544,75.28136,True
0,3.088884,0.01932326,-0.04069514,-0.006019228,-1.364031,1.546361,-2.95738,0.6036345,1.13692,0.4691057,-1.815431,0.6807926,1.2,71.8,-0.01803934,-0.002298065,0.03419853,-0.7566179,-4.45189,0.1799106,0.6480192,1.315965,0.3949726,-0.01428921,-0.0133563,-0.01734612,-1.006965,0.179961,0.05369412,0.7661608,1.378855,0.224375,0.3478805,1.134885,0.3794448,276.9576,184.0208,71.3023,True
0,3.099995,0.0172089,-0.05140906,-0.01554057,-1.363339,1.547043,-2.957591,0.6036938,1.137097,0.4690657,-1.807392,0.7238013,1.2,71.8,-0.01276755,-0.008664442,0.02561435,-0.7567452,-4.452394,0.1801748,0.6481574,1.316007,0.3949146,-0.01543051,-0.01759428,-0.02373986,-1.007459,0.1795821,0.05408454,0.7662388,1.378854,0.2242446,0.3473068,1.13274,0.3795895,277.0152,187.8458,67.47517,True
0,3.111106,0.01722626,-0.0610108,-0.0176068,-1.362914,1.548007,-2.957968,0.6037133,1.137155,0.4690263,-1.799304,0.7278839,1.2,71.8,-0.01281813,-0.01716643,0.01813443,-0.7568874,-4.453096,0.1808547,0.6482452,1.316041,0.3948636,-0.01323046,-0.02612777,-0.01954197,-1.007582,0.1789412,0.05442356,0.7663238,1.37891,0.224227,0.3467275,1.130522,0.3797471,277.1006,191.6449,63.67779,True
0,3.122217,0.01617047,-0.06747803,-0.02928434,-1.362007,1.548766,-2.958247,0.603785,1.137248,0.4689443,-1.790883,0.758181,1.2,71.8,-0.009643169,-0.02141633,0.01490116,-0.7568853,-4.453626,0.1812473,0.6482635,1.31602,0.3948052,-0.003642667,-0.02824851,-0.0196768,-1.007887,0.1784751,0.05439533,0.7663778,1.378922,0.2241049,0.3462166,1.128225,0.3799218,277.2469,195.6194,59.70397,True
0,3.133328,0.01619469,-0.08026857,-0.03026696,-1.361381,1.55004,-2.958663,0.6038148,1.137325,0.4688475,-1.782528,0.7516056,0.9,63.1,-0.007528163,-0.02247404,0.01275135,-0.7568597,-4.454047,0.1815618,0.6483542,1.316067,0.3947399,0.0006483383,-0.02079802,-0.01650467,-1.007949,0.1785333,0.054239,0.7664537,1.378952,0.2240541,0.3457743,1.125883,0.3801281,277.4501,199.5299,55.797,True
0,3.144439,0.01725331,-0.0770802,-0.03241919,-1.360828,1.550646,-2.958974,0.6038353,1.137358,0.4687977,-1.77383,0.7829967,0.9,63.1,-0.0107755,-0.0224602,0.006385125,-0.7570403,-4.454352,0.1820524,0.6483992,1.316122,0.3946841,0.00284729,-0.01336076,-0.01011013,-1.007832,0.1786869,0.05413834,0.7664742,1.378979,0.2239194,0.3453814,1.123507,0.3803669,277.6607,203.1262,52.22356,True
0,3.15555,0.01406669,-0.08239684,-0.03025749,-1.360393,1.551493,-2.959281,0.603846,1.137399,0.46878,-1.765011,0.7936026,0.9,63.1,-0.01072331,-0.01289459,0.01387036,-0.7565497,-4.454231,0.1820428,0.6484485,1.316224,0.3946083,0.006015599,-0.01334818,-0.01228148,-1.008055,0.1785174,0.05405737,0.7665715,1.378981,0.2238178,0.3452847,1.122133,0.3806446,277.4113,204.7979,50.535,True
0,3.166661,0.01724305,-0.07171173,-0.02606747,-1.360142,1.551939,-2.959677,0.6039008,1.137473,0.4687867,-1.756037,0.807652,0.9,63.1,-0.0159842,-0.007593004,0.02351217,-0.7559271,-4.454115,0.1823885,0.6485381,1.31627,0.3945265,0.01340144,-0.01650501,-0.01771743,-1.008458,0.1783177,0.05387655,0.7668238,1.37899,0.2237449,0.3454441,1.121534,0.380893,277.0764,204.3849,50.93131,True
0,3.177772,0.01723458,-0.0631606,-0.02186155,-1.359959,1.552386,-2.960025,0.6039562,1.137431,0.4687929,-1.746836,0.8281634,0.9,63.1,-0.01704037,-0.0001419988,0.02460416,-0.7556437,-4.453863,0.1823059,0.6486422,1.316267,0.3944802,0.01971813,-0.01327172,-0.02311916,-1.008964,0.1784478,0.05340437,0.7669841,1.37903,0.2236397,0.3456616,1.121118,0.3810929,276.7871,203.1697,52.10176,True
0,3.188883,0.01508758,-0.0556693,-0.01551593,-1.359971,1.552806,-2.960177,0.6040605,1.137442,0.4687591,-1.737728,0.8195173,0.3,52,-0.01600252,-0.008651709,0.02030994,-0.7556522,-4.454428,0.1828952,0.6487898,1.31626,0.3944223,0.02606937,-0.01537968,-0.02640409,-1.009365,0.1781957,0.0530744,0.7671634,1.378944,0.2235618,0.3458765,1.120735,0.3812931,276.5063,201.8292,53.38247,True
0,3.199994,0.01401864,-0.05031631,-0.01128885,-1.359895,1.553243,-2.960443,0.6041433,1.137456,0.4687395,-1.728313,0.8475016,0.3,52,-0.01496113,-0.01503694,0.01708948,-0.7556443,-4.455089,0.1835464,0.6489762,1.316265,0.3943758,0.02709533,-0.02174569,-0.02964678,-1.009904,0.1778804,0.05298412,0.7673266,1.378966,0.22346,0.346083,1.120335,0.381543,276.1818,200.5972,54.54418,True
0,3.211105,0.009736242,-0.04072548,-0.009218647,-1.359886,1.553394,-2.960407,0.6042976,1.13749,0.4687257,-1.718646,0.8702525,0.3,52,-0.006414928,-0.0278195,0.01911559,-0.7555431,-4.456242,0.184184,0.6491686,1.316304,0.3944104,0.03029649,-0.02919601,-0.02971563,-1.010236,0.1772431,0.05293565,0.7674592,1.378965,0.2234182,0.3462953,1.119897,0.3818537,275.7843,199.4137,55.66693,True
0,3.222216,0.007602461,-0.03643901,-0.004986927,-1.359884,1.553673,-2.960547,0.6044855,1.137518,0.4686949,-1.709199,0.849994,0.3,52,-0.005333088,-0.04380202,0.01906369,-0.7555324,-4.457827,0.1853427,0.6493885,1.316326,0.3944035,0.02925609,-0.03877906,-0.02867924,-1.010587,0.1765159,0.05301075,0.7675889,1.378977,0.2233641,0.3465011,1.119455,0.3821992,275.3443,198.3033,56.73261,True
0,3.233327,0.00120309,-0.03325769,-0.005006303,-1.359767,1.553955,-2.960383,0.604625,1.137568,0.468653,-1.699376,0.884433,0.3,47.9,0.002091352,-0.06295463,0.01256193,-0.7558627,-4.459771,0.1864532,0.6496215,1.316319,0.3943777,0.02710012,-0.03343136,-0.02969273,-1.010901,0.1766732,0.05277293,0.7676775,1.378914,0.2233377,0.346703,1.119015,0.3825499,274.9042,197.0477,57.9375,True
0,3.244438,-0.003073805,-0.02367992,-0.005063965,-1.359769,1.553955,-2.96026,0.6047265,1.137593,0.4687045,-1.689856,0.8564211,0.3,47.9,0.01053217,-0.06930235,0.0007625315,-0.7563601,-4.460877,0.186813,0.6498024,1.316341,0.394388,0.02390449,-0.0334354,-0.02965176,-1.011249,0.1762453,0.05285869,0.7678301,1.378897,0.2232938,0.3468552,1.11859,0.382842,274.3876,195.5102,59.37218,True
0,3.255549,-0.004148745,-0.01833456,-0.001903051,-1.359848,1.554003,-2.96018,0.6048863,1.137587,0.4686778,-1.679885,0.8979253,0.3,47.9,0.01051666,-0.07036186,-0.001370884,-0.7565992,-4.462021,0.1875241,0.6500107,1.316338,0.3943853,0.02392824,-0.034494,-0.02752131,-1.011418,0.1760254,0.05276201,0.7680107,1.378895,0.2231963,0.3470604,1.118174,0.3831285,274.0285,193.2943,61.52029,True
0,3.26666,-0.01058258,0.001943444,0.005425905,-1.360318,1.553388,-2.959666,0.6051708,1.137605,0.4687238,-1.670236,0.8681355,0.3,47.9,0.01471268,-0.06181463,-0.008835828,-0.7569769,-4.462486,0.1875441,0.6502463,1.316348,0.3944256,0.0271251,-0.03342666,-0.02756055,-1.01178,0.1755937,0.05255162,0.7681679,1.378857,0.2231638,0.3472093,1.117768,0.3833345,273.4442,189.4696,65.17216,True
0,3.277771,-0.008471774,0.01263002,0.009616132,-1.360621,1.552937,-2.95955,0.6053984,1.137544,0.4687331,-1.66053,0.8734974,0.3,47.9,0.0136355,-0.06500357,-0.01096795,-0.7573215,-4.463607,0.1882248,0.6504995,1.316333,0.3944511,0.03140456,-0.0387397,-0.02657634,-1.01215,0.1750996,0.05235668,0.7683203,1.378772,0.22314,0.3473898,1.117471,0.3835164,273.0939,184.732,69.75116,True
0,3.288882,-0.009566313,0.02759013,0.0169781,-1.36122,1.552216,-2.959228,0.6056368,1.137486,0.4687092,-1.650459,0.9068434,0.3,49.4,0.009411983,-0.06502236,-0.005609876,-0.7573481,-4.464718,0.1891087,0.6507412,1.316241,0.3944414,0.03350663,-0.0365974,-0.02872631,-1.012581,0.1747241,0.0520861,0.7684689,1.378773,0.22312,0.3475774,1.117205,0.3836448,272.8702,178.6939,75.63817,True
0,3.299993,-0.01173087,0.0457453,0.02431224,-1.361884,1.551339,-2.958857,0.6058914,1.137454,0.4687304,-1.641106,0.8410444,0.3,49.4,0.008352954,-0.06715409,-0.005611844,-0.757648,-4.465866,0.1898046,0.6509985,1.316183,0.3944247,0.03771767,-0.03124118,-0.03196343,-1.013183,0.1747401,0.05156013,0.7686325,1.378749,0.2231228,0.3477615,1.116957,0.3837642,272.7004,171.9371,82.24679,True
0,3.311104,-0.01282879,0.0617743,0.03166538,-1.362689,1.550176,-2.958406,0.6061471,1.137365,0.4685998,-1.631405,0.8735778,0.3,49.4,0.01365261,-0.0745951,-0.009934179,-0.7581114,-4.467354,0.1905457,0.6512271,1.316159,0.394454,0.03235865,-0.02697643,-0.03400603,-1.013624,0.1745886,0.05147544,0.7687895,1.378739,0.223074,0.3478534,1.116739,0.3839621,272.3031,160.5412,93.64801,True
0,3.322215,-0.01284163,0.07244343,0.03372566,-1.363306,1.549056,-2.958127,0.6064118,1.13733,0.4686615,-1.621857,0.8591742,0.3,49.4,0.01787965,-0.07777795,-0.01423512,-0.7585844,-4.468711,0.1912491,0.6514403,1.316097,0.3944721,0.03019911,-0.02482461,-0.03610217,-1.014127,0.1746213,0.05117637,0.7689056,1.378657,0.2230558,0.3480474,1.116505,0.3841752,272.0813,150.0038,104.0765,True
0,3.333326,-0.00965901,0.08097761,0.03473414,-1.363919,1.547959,-2.957961,0.6067092,1.137248,0.4686706,-1.612399,0.8512214,0.3,49.4,0.01995373,-0.08307945,-0.02171871,-0.759183,-4.47009,0.1920211,0.6517301,1.3161,0.3944333,0.02068917,-0.02058931,-0.02958524,-1.014441,0.1747027,0.05120939,0.7691748,1.378629,0.222899,0.3482445,1.116265,0.3843546,271.9929,138.6724,115.299,True
0,3.344437,-0.009664736,0.08308177,0.03045787,-1.364282,1.546977,-2.957629,0.6069343,1.137267,0.4686282,-1.603184,0.829186,0.3,49,0.024182,-0.07667463,-0.0249325,-0.7597178,-4.47087,0.1922278,0.6519567,1.316073,0.3944619,0.01224817,-0.01956043,-0.02308051,-1.014485,0.1744702,0.05148955,0.7693523,1.378602,0.2228489,0.3484386,1.116022,0.3845177,272.0043,127.4927,126.3736,True
0,3.355548,-0.008590703,0.07876294,0.02089794,-1.364337,1.546139,-2.957408,0.6072022,1.137287,0.4686029,-1.593975,0.8287009,0.3,49,0.01678246,-0.06605874,-0.0163224,-0.7596672,-4.471625,0.1928395,0.6522052,1.3161,0.3944216,0.004813854,-0.01957635,-0.02086235,-1.014773,0.1742719,0.05186,0.7694777,1.378491,0.2228036,0.348644,1.115777,0.3846917,272.09,116.5092,137.2355,True
0,3.366659,-0.004303433,0.06380564,0.01353781,-1.364293,1.545949,-2.957438,0.6074283,1.137323,0.4687805,-1.584625,0.8418663,0.3,49,0.01051701,-0.04267031,0.002964242,-0.7589396,-4.471169,0.1926411,0.6524054,1.31617,0.394413,-0.002696756,-0.03021809,-0.02613665,-1.015311,0.1734541,0.05255535,0.7696591,1.378416,0.2227311,0.3488473,1.115531,0.3848751,272.2401,106.2943,147.3344,True
0,3.37777,-0.005350931,0.05416726,0.00614144,-1.364133,1.545605,-2.957261,0.6075808,1.137323,0.4687994,-1.57568,0.8048565,0.3,49,0.01058438,-0.03098281,0.01258172,-0.7585657,-4.471378,0.1926062,0.6525518,1.316196,0.3943801,-0.003749892,-0.04298772,-0.02617887,-1.015701,0.1726625,0.0531013,0.769839,1.378385,0.2225721,0.3487321,1.115268,0.384942,272.3141,101.2646,151.6707,True
0,3.388881,-0.004260143,0.03919205,-0.003347027,-1.363784,1.545603,-2.957222,0.6077409,1.137437,0.4687603,-1.566943,0.78616,0,44.8,0.008528725,-0.01609917,0.02435763,-0.7578254,-4.471013,0.1923583,0.6527878,1.316274,0.3943093,-0.001503635,-0.06325437,-0.01882874,-1.01571,0.1711227,0.05390904,0.769961,1.37837,0.2223721,0.3488277,1.114997,0.3850846,272.4552,98.31847,154.3622,True
0,3.399992,-0.001042816,0.02420837,-0.01496831,-1.36319,1.545708,-2.957276,0.6078689,1.137542,0.4687684,-1.558033,0.8021746,0,44.8,0.01390375,-0.008651426,0.03072594,-0.7573029,-4.470884,0.1918326,0.6529018,1.316367,0.3942578,0.002832286,-0.07177497,-0.01359706,-1.015805,0.1701763,0.05427735,0.7700804,1.37836,0.2221835,0.3489769,1.114741,0.3853289,272.6376,92.85448,159.6494,True
0,3.411103,-0.004209842,0.008135305,-0.02764879,-1.362376,1.546048,-2.957181,0.6080128,1.137715,0.4687355,-1.549444,0.7728081,0,44.8,0.02576149,-0.01507601,0.04872807,-0.7562094,-4.471572,0.1916911,0.6531903,1.316409,0.39414,0.01364943,-0.08246174,-0.0009847218,-1.015341,0.1687294,0.05468375,0.7700999,1.378415,0.2219677,0.3491292,1.114496,0.3855996,272.8452,86.96812,165.4001,True
0,3.422215,-0.002069199,0.001720155,-0.03186894,-1.361863,1.546124,-2.957224,0.6081649,1.137849,0.4687357,-1.540978,0.7618841,0,44.8,0.0321996,-0.02999313,0.05289748,-0.7556975,-4.472905,0.1920736,0.6533196,1.316471,0.3940785,0.01588486,-0.07821466,0.007523448,-1.015048,0.1681415,0.05472956,0.770211,1.378433,0.2217848,0.3492751,1.114265,0.385832,273.0656,82.52201,169.725,True
0,3.433326,-0.003127758,-0.002602565,-0.04036534,-1.361068,1.546189,-2.957167,0.6083494,1.137948,0.4687812,-1.532318,0.7797239,0,44.8,0.04283725,-0.05340189,0.04849245,-0.75555,-4.474806,0.1926302,0.6535114,1.316484,0.3940229,0.01586891,-0.06860133,0.007558905,-1.015044,0.1680764,0.0546739,0.7702972,1.378445,0.2217011,0.3494149,1.114035,0.3860246,273.2879,79.51,172.6059,True
0,3.444437,-0.003143038,0.00163217,-0.04359085,-1.360526,1.545957,-2.95699,0.6085746,1.137938,0.4688079,-1.524089,0.7402232,0,35.9,0.03643095,-0.06511328,0.04531345,-0.755379,-4.476429,0.193647,0.6536466,1.31656,0.3939724,-0.004391467,-0.06223091,0.006778948,-1.01501,0.1675397,0.05573144,0.770424,1.378451,0.2216668,0.3495447,1.11381,0.3861951,273.5013,77.24406,174.7404,True
0,3.455548,-0.001014274,0.004832199,-0.04361361,-1.360047,1.545723,-2.957072,0.6087797,1.138008,0.4688649,-1.515669,0.7580601,0,35.9,0.02786072,-0.02889835,0.04334933,-0.7547569,-4.475358,0.192864,0.6538959,1.316569,0.3939214,-0.01724145,-0.02279437,0.006037169,-1.014889,0.1692547,0.05550693,0.7707196,1.378491,0.2217598,0.3496799,1.113581,0.3863804,273.7293,75.13103,176.7102,True
0,3.466659,3.161095E-05,0.0144404,-0.04047902,-1.359828,1.54522,-2.95696,0.6089529,1.138033,0.4689226,-1.507307,0.7526166,0,35.9,0.01496565,0.008406408,0.03289697,-0.7544644,-4.473454,0.1916895,0.6539955,1.316548,0.3938291,-0.02054264,-0.009989302,-0.001330806,-1.015187,0.1695127,0.05560627,0.7709162,1.378476,0.2217267,0.3498271,1.113339,0.3865971,273.9861,72.94703,178.7327,True
0,3.47777,3.406359E-05,0.01441552,-0.04474278,-1.35918,1.544912,-2.95694,0.6091464,1.138081,0.4689786,-1.499305,0.7197454,0,35.9,0.002074186,0.01695005,0.02023719,-0.7545593,-4.472906,0.1917226,0.6542315,1.316475,0.3937581,-0.02813879,0.006048337,-0.01075623,-1.015558,0.1707226,0.05550241,0.7711547,1.378497,0.2217481,0.3499814,1.11309,0.3868475,274.2708,70.56789,180.9459,True
0,3.488881,0.002151537,0.02081975,-0.04265705,-1.358805,1.544498,-2.956906,0.6092746,1.137987,0.4689558,-1.490972,0.7503742,0,32.8,-0.012917,0.0116445,0.009685059,-0.7548006,-4.472855,0.1923194,0.6542671,1.31648,0.3937795,-0.03794565,0.02100252,-0.02655121,-1.016351,0.1713457,0.05585608,0.7711699,1.378425,0.2217934,0.3500818,1.112974,0.3869658,275.4329,60.79778,190.7635,True
0,3.499992,2.976181E-05,0.01655304,-0.04369697,-1.358279,1.544255,-2.95679,0.6094093,1.138066,0.4689875,-1.482807,0.7346472,0,32.8,-0.01932654,0.01377772,0.007608335,-0.7547191,-4.472517,0.1924544,0.6543036,1.316463,0.3937752,-0.04005186,0.03483569,-0.02327239,-1.016455,0.1723477,0.05585075,0.771376,1.378409,0.2218635,0.350231,1.112825,0.3872961,275.8655,59.35535,191.9298,True
0,3.511103,0.004301142,0.01124018,-0.0425952,-1.357866,1.544227,-2.956975,0.6094707,1.138143,0.4690914,-1.474773,0.7230319,0,32.8,-0.02682647,0.02763214,0.003443626,-0.7546583,-4.471406,0.192158,0.6543587,1.316453,0.393826,-0.0474242,0.0518351,-0.01565655,-1.016367,0.1735987,0.05583903,0.771605,1.378398,0.2219775,0.3503462,1.112607,0.3875552,276.2341,58.05917,193.0351,True
