loc,t,aDotUA,bDotUA,gDotUA,aUA,bUA,gUA,xUA,yUA,zUA,qE,qDotE,emgA,emgB,aDotSH,bDotSH,gDotSH,aSH,bSH,gSH,xSH,ySH,zSH,aDotUB,bDotUB,gDotUB,aUB,bUB,gUB,xUB,yUB,zUB,xHand,yHand,zHand,aHand,bHand,gHand,enable
2,0,-0.2434026,-0.5284575,0.1601489,-1.146327,-3.824027,-3.082235,0.591084,1.271168,0.4585598,-1.16097,-0.002432557,0,4.9,-0.07681636,0.1504989,-0.02083938,-0.6026323,1.546008,0.1390974,0.6998428,1.452428,0.3902335,0.006916571,0.02521506,0.02634999,-0.9355301,0.09393196,-0.06009769,0.7576318,1.491013,0.2042773,0.4319695,1.04886,0.2721952,315.2848,205.9466,12.29255,True
2,0.01111111,-0.2626371,-0.5190107,0.145229,-1.147205,-3.817967,-3.081275,0.5905421,1.270954,0.4576843,-1.160859,0.01040053,0,4.9,-0.102431,0.1677316,-0.03106864,-0.6029572,1.550136,0.137768,0.699863,1.452244,0.3902466,0.01344801,0.02097035,0.04014689,-0.9345672,0.09371384,-0.06027719,0.7577614,1.490959,0.2044561,0.4334354,1.048301,0.2696479,316.3891,203.0246,13.87643,True
2,0.02222222,-0.2733823,-0.4956894,0.1301875,-1.147779,-3.812733,-3.080209,0.5900133,1.27063,0.4568696,-1.160964,-0.009538564,0,4.9,-0.1142642,0.1593245,-0.0384722,-0.6034616,1.552987,0.1370742,0.6998836,1.452093,0.3903327,0.02305682,0.02525105,0.04322742,-0.9341091,0.0943514,-0.06112647,0.7579285,1.490686,0.2040069,0.4352013,1.047345,0.2669074,316.8524,202.1865,13.67412,True
2,0.03333334,-0.2851964,-0.4712846,0.1204965,-1.148646,-3.807615,-3.078736,0.5894662,1.270407,0.4560258,-1.161144,-0.01615194,0,4.2,-0.1154545,0.139108,-0.04182429,-0.6038771,1.554379,0.1372535,0.6999489,1.451955,0.3903875,0.03046571,0.02842362,0.03888746,-0.9338071,0.09457458,-0.06181037,0.7580131,1.490703,0.2041452,0.4370924,1.046248,0.2641915,317.1039,201.8911,12.97619,True
2,0.04444445,-0.3045045,-0.4319895,0.1085839,-1.149085,-3.803796,-3.076416,0.5889311,1.270066,0.4551253,-1.16162,-0.04327384,0,4.2,-0.10289,0.09434132,-0.04554113,-0.6046068,1.553854,0.1382993,0.6999474,1.451747,0.3905077,0.02922279,0.03371775,0.02076775,-0.934368,0.09543238,-0.06274461,0.7581606,1.490492,0.2040024,0.4388918,1.045207,0.2615916,317.3308,201.578,12.38775,True
2,0.05555556,-0.3152329,-0.4107568,0.1020967,-1.149746,-3.799443,-3.074397,0.5884686,1.26984,0.4542878,-1.161507,0.01084557,0,4.2,-0.0988054,0.08591129,-0.05844676,-0.6056092,1.555485,0.1379597,0.6998544,1.451611,0.3906291,0.03026499,0.04648807,0.01859136,-0.9343094,0.09643506,-0.06380055,0.7583002,1.490656,0.2043066,0.4404024,1.044379,0.2591924,317.498,201.2329,11.94929,True
2,0.06666667,-0.3440593,-0.3938619,0.09141216,-1.150137,-3.795221,-3.071584,0.587788,1.269665,0.4535737,-1.161363,0.01318803,0,4.2,-0.1033053,0.07863514,-0.07763704,-0.607025,1.556899,0.1380854,0.6997813,1.451426,0.390728,0.02925809,0.05395991,0.02497537,-0.9338832,0.09752309,-0.06473213,0.7584082,1.490665,0.2044885,0.4414755,1.043868,0.2569948,317.6027,200.9413,11.64287,True
2,0.07777778,-0.3526021,-0.3907231,0.08501799,-1.150516,-3.790585,-3.069402,0.58716,1.269409,0.4527082,-1.161625,-0.02392775,0.1,3.2,-0.129449,0.08026466,-0.130615,-0.6101952,1.559592,0.1383797,0.6995753,1.451127,0.3908312,0.02509242,0.06354331,0.03458248,-0.933193,0.09839821,-0.06550018,0.7585744,1.490654,0.2047961,0.4420092,1.043724,0.2549596,317.6172,200.6924,11.50642,True
2,0.08888889,-0.3590122,-0.3939902,0.07545816,-1.150674,-3.785608,-3.067184,0.586363,1.269274,0.4518704,-1.161113,0.04712486,0.1,3.2,-0.1619279,0.07867381,-0.1782159,-0.6135188,1.561792,0.1393752,0.6992983,1.450933,0.3909445,0.0239742,0.07098022,0.03032314,-0.9329405,0.0995439,-0.0663745,0.7584753,1.490666,0.2050073,0.442127,1.043998,0.2531098,317.528,200.4361,11.55408,True
2,0.1,-0.3622003,-0.4004329,0.06803548,-1.150761,-3.780488,-3.065244,0.5856805,1.26911,0.4510262,-1.161713,-0.05512983,0.1,3.2,-0.171663,0.08417958,-0.1940444,-0.6159359,1.564415,0.1393888,0.6991055,1.45082,0.3909559,0.01966403,0.06990754,0.02503876,-0.9329703,0.1006204,-0.06713536,0.7585326,1.490829,0.2049687,0.4418684,1.044621,0.2513492,317.3569,200.1681,11.73602,True
2,0.1111111,-0.3611867,-0.3908683,0.0626443,-1.150911,-3.776058,-3.062926,0.5849496,1.268964,0.4502306,-1.161791,-0.006509301,0.1,3.2,-0.1769398,0.09485099,-0.1938936,-0.617799,1.567251,0.1391273,0.6989209,1.450675,0.3910034,0.01104483,0.06879884,0.0155455,-0.9331003,0.1012314,-0.06732205,0.7585343,1.490851,0.2051883,0.4413764,1.045483,0.2495876,317.0987,199.8674,12.05202,True
2,0.1222222,-0.3590909,-0.3834354,0.05727062,-1.151036,-3.771662,-3.060815,0.5842913,1.268845,0.4494712,-1.162153,-0.03293524,0.1,3.2,-0.1789068,0.1043518,-0.1820671,-0.6190822,1.570244,0.138764,0.698676,1.45053,0.3910763,-0.0006373078,0.07199986,0.01884659,-0.9329208,0.1025179,-0.06778384,0.7586071,1.49098,0.2052128,0.4408169,1.046468,0.2477786,316.8055,199.5281,12.41223,True
2,0.1333333,-0.3560058,-0.3525785,0.04963822,-1.151174,-3.768444,-3.058238,0.5837379,1.268725,0.4487686,-1.162214,-0.005230055,0.1,3.5,-0.1902894,0.1212324,-0.1572952,-0.6196585,-4.709561,0.1385374,0.6983018,1.450387,0.3911169,-0.01560335,0.08048955,0.01684292,-0.9329042,0.1037305,-0.06754868,0.7586795,1.491183,0.2051775,0.4403645,1.047467,0.2459149,316.4905,199.1597,12.75433,True
2,0.1444445,-0.3455032,-0.304645,0.04293314,-1.151121,-3.766508,-3.05565,0.5832325,1.268473,0.4481378,-1.162527,-0.02853439,0.1,3.5,-0.2090927,0.1456078,-0.1323839,-0.6199823,-4.705178,0.1379179,0.697893,1.450377,0.3911512,-0.02089664,0.09858944,0.02217471,-0.9326305,0.105491,-0.06815881,0.7587935,1.491238,0.2054112,0.4400877,1.048387,0.2439939,316.1946,198.7998,12.99119,True
2,0.1555556,-0.3381239,-0.279079,0.03957139,-1.151246,-3.763916,-3.053265,0.5827463,1.268336,0.4475572,-1.162642,-0.01020649,0.1,3.5,-0.2121487,0.1743782,-0.1310441,-0.6210902,-4.699861,0.1359573,0.6976426,1.450307,0.3912156,-0.02517155,0.1039193,0.02113537,-0.9326012,0.107327,-0.06883765,0.7588905,1.491246,0.2056742,0.4400429,1.049179,0.2420616,315.9388,198.4424,13.13098,True
2,0.1666667,-0.3148817,-0.2119056,0.03913906,-1.151682,-3.763613,-3.050705,0.5823407,1.268114,0.4471526,-1.163192,-0.05025477,0.1,3.5,-0.2069022,0.1808249,-0.1406342,-0.6226907,-4.695806,0.1348361,0.6973412,1.450249,0.3912632,-0.04121961,0.1166584,0.01594748,-0.9325655,0.1091074,-0.0688507,0.7589557,1.491258,0.2059476,0.4401688,1.049816,0.2401533,315.7234,198.1091,13.15671,True
2,0.1777778,-0.3000503,-0.1809577,0.03998546,-1.151984,-3.762502,-3.048387,0.5818628,1.267973,0.4467573,-1.163186,0.001015169,0.1,3.2,-0.1963489,0.1733781,-0.1472119,-0.624417,-4.692482,0.1339935,0.6970102,1.450116,0.3913405,-0.04558174,0.1219638,0.0085155,-0.9329096,0.1110022,-0.06904005,0.7590061,1.491311,0.2060268,0.4403611,1.05029,0.2383457,315.5296,197.7972,13.11303,True
2,0.1888889,-0.273547,-0.153341,0.02057236,-1.151238,-3.760899,-3.046857,0.5814841,1.267772,0.4464445,-1.163889,-0.06432864,0.1,3.2,-0.1730449,0.1562925,-0.1539975,-0.6260873,-4.689965,0.1330113,0.6966679,1.449837,0.391439,-0.0456474,0.13153,0.00316065,-0.9332217,0.1130397,-0.06970984,0.7590902,1.491315,0.2062917,0.4405807,1.050641,0.2367192,315.3948,197.5349,13.02345,True
2,0.2,-0.2427903,-0.1256783,-0.003094219,-1.150416,-3.760437,-3.045292,0.5810292,1.267765,0.4463332,-1.163799,0.008705801,0.1,3.2,-0.1625564,0.1446176,-0.1648665,-0.6281353,-4.687431,0.1324315,0.6963515,1.449718,0.3915124,-0.04882562,0.1400675,0.003161478,-0.9334838,0.1156298,-0.07093516,0.7591531,1.491324,0.2065942,0.4407159,1.05091,0.2353466,315.2712,197.3605,12.88,True
2,0.2111111,-0.2321808,-0.1129524,-0.007466771,-1.149953,-3.758552,-3.043877,0.580673,1.267504,0.4460287,-1.164249,-0.04140766,0.1,3.2,-0.1381852,0.1125556,-0.1653991,-0.6298871,-4.686705,0.1324997,0.6959726,1.449654,0.391655,-0.05516079,0.1507179,0.009603195,-0.9331269,0.1179509,-0.07148457,0.7591075,1.491248,0.2068653,0.4407113,1.051115,0.234248,315.188,197.19,12.82838,True
2,0.2222222,-0.194073,-0.04364169,-0.01858895,-1.149677,-3.760689,-3.041937,0.5803862,1.267526,0.4461691,-1.164582,-0.03016236,0.1,3.2,-0.1159877,0.08588116,-0.1711888,-0.6318914,-4.68609,0.1325461,0.6955913,1.449564,0.3916876,-0.05621208,0.1560425,0.01065352,-0.933284,0.1202317,-0.07232293,0.7591573,1.491109,0.207093,0.4405766,1.051277,0.2334719,315.1434,196.952,12.88258,True
2,0.2333333,-0.1654848,0.01504059,-0.01791659,-1.149777,-3.762911,-3.040067,0.5799276,1.267624,0.4460886,-1.164015,0.05193122,0,4.1,-0.1127509,0.08368661,-0.1659174,-0.6334478,-4.684377,0.1324204,0.6951654,1.449471,0.3918021,-0.06796572,0.1602863,0.007566219,-0.933439,0.1226344,-0.07257354,0.7591903,1.491095,0.2073324,0.4402571,1.051423,0.23303,315.114,196.787,12.94768,True
2,0.2444444,-0.05709857,0.09952015,-0.02183186,-1.149977,-3.767454,-3.040928,0.5796938,1.267557,0.446367,-1.164891,-0.08065393,0,4.1,-0.1222636,0.1093243,-0.1687933,-0.6351245,-4.680246,0.1308137,0.6947431,1.449463,0.3918297,-0.07552738,0.1591913,-0.003014688,-0.9341027,0.124772,-0.07275649,0.7592431,1.491067,0.2073636,0.4397653,1.051524,0.2328022,315.1159,196.7423,13.02344,True
2,0.2555556,-0.01260659,0.1699281,-0.03190611,-1.149921,-3.772251,-3.039963,0.579468,1.267587,0.4467077,-1.164898,-2.624721E-05,0,4.1,-0.1219145,0.1186784,-0.141014,-0.6354366,-4.67737,0.1296941,0.6943516,1.449423,0.3918774,-0.07137053,0.153822,-0.01263613,-0.9347109,0.1261847,-0.07285237,0.7592788,1.49114,0.2075536,0.4390752,1.051707,0.2328393,315.1378,196.8522,12.94644,True
2,0.2666667,-0.06524533,0.3124897,-0.03790934,-1.15017,-3.78172,-3.033533,0.5794893,1.267646,0.4472113,-1.168221,-0.3042073,0,4.1,-0.1138494,0.1235171,-0.0867288,-0.6342036,-4.67493,0.1286847,0.6940061,1.449376,0.3919115,-0.07896915,0.1505683,-0.02639209,-0.9354396,0.1277335,-0.07255889,0.7592782,1.491076,0.2077851,0.4380835,1.051996,0.2330534,315.153,197.049,12.86325,True
2,0.2777778,-0.08044451,0.4008497,-0.04369207,-1.150529,-3.789909,-3.02837,0.5794096,1.267816,0.4477882,-1.166395,0.1691824,0.2,4.9,-0.1135817,0.09338935,-0.05075854,-0.6335138,-4.675016,0.1299386,0.6938224,1.449347,0.3918526,-0.08331394,0.1484165,-0.0348705,-0.9363243,0.1296737,-0.07264917,0.7593501,1.491008,0.2078352,0.4369033,1.052391,0.2336927,314.973,197.1983,12.8868,True
2,0.2888889,-0.07418625,0.4241545,-0.07047142,-1.149417,-3.796183,-3.0252,0.5792447,1.267846,0.4482009,-1.162243,0.3776782,0.2,4.9,-0.1082806,0.04956681,-0.03627313,-0.6335868,-4.67663,0.1322616,0.693459,1.449198,0.3918796,-0.09609279,0.1388076,-0.03471675,-0.9368553,0.1309881,-0.07190721,0.7592998,1.490982,0.2080579,0.4354452,1.052769,0.2347396,314.8249,197.4808,12.87881,True
2,0.3,-0.04561603,0.4420308,-0.1218039,-1.146678,-3.801997,-3.023149,0.5793017,1.267782,0.4484127,-1.162492,-0.02593216,0.2,4.9,-0.08933724,0.01653872,-0.04528477,-0.6345567,-4.677898,0.1335919,0.6932164,1.449059,0.3918746,-0.1023549,0.1356396,-0.0229342,-0.9369235,0.1328268,-0.07171547,0.7593099,1.490944,0.2081215,0.4334905,1.053247,0.2359795,314.861,198.0579,12.74635,True
2,0.3111111,-0.0318405,0.4451196,-0.1474195,-1.144892,-3.807751,-3.020796,0.579015,1.268092,0.4488554,-1.163809,-0.119837,0.2,4.9,-0.06102351,-0.006756142,-0.07774416,-0.6365067,-4.679037,0.134291,0.6929584,1.449013,0.3920314,-0.1073738,0.1516783,0.009039844,-0.9358215,0.1355171,-0.07189896,0.7592103,1.490849,0.2083039,0.4311506,1.054014,0.2372943,314.905,198.5813,12.85871,True
2,0.3222222,-7.370114E-05,0.4737231,-0.1924167,-1.142041,-3.815079,-3.018721,0.5787888,1.268457,0.4491017,-1.164801,-0.08979252,0.2,4.9,-0.03783539,-0.01093155,-0.09934182,-0.6384044,-4.678954,0.1338326,0.6926998,1.448992,0.3922236,-0.1061741,0.1463852,0.02075152,-0.9354044,0.13746,-0.072067,0.7592186,1.49079,0.2084286,0.4286291,1.055019,0.2385801,314.7988,198.8183,13.3667,True
2,0.3333333,0.01684642,0.5013674,-0.205415,-1.139792,-3.821974,-3.016505,0.5789124,1.268609,0.4495218,-1.164403,0.03695633,0.1,3,-0.01470968,-0.02896052,-0.1210523,-0.640559,-4.680081,0.1341234,0.6923476,1.449089,0.3924034,-0.1093866,0.1367798,0.01867799,-0.9353879,0.1387159,-0.07147045,0.7592236,1.490685,0.2086129,0.4261568,1.056148,0.2398508,314.5807,198.8648,13.99158,True
2,0.3444445,0.04112732,0.5599214,-0.2249815,-1.137668,-3.83138,-3.01388,0.5787699,1.269043,0.4500325,-1.165084,-0.06282021,0.1,3,-0.02115528,-0.03637428,-0.1231738,-0.6420061,-4.680891,0.1352974,0.6921259,1.449112,0.3924148,-0.1171436,0.1111343,-0.009938771,-0.9364809,0.1389612,-0.06962009,0.7592719,1.490588,0.2084439,0.4238003,1.057332,0.2411021,314.3884,198.9793,14.3892,True
2,0.3555556,0.05578193,0.6354774,-0.2403732,-1.135435,-3.841458,-3.010808,0.5787767,1.269342,0.4504392,-1.16464,0.041015,0.1,3,-0.03162334,-0.04181876,-0.1039298,-0.642559,-4.681881,0.1368242,0.6918454,1.449207,0.3923907,-0.1197537,0.09290659,-0.05995092,-0.9389864,0.1394197,-0.06864884,0.7593552,1.490448,0.2086368,0.4215266,1.058506,0.2423564,314.1926,199.0923,14.72998,True
2,0.3666667,0.06091401,0.6833098,-0.2619632,-1.133044,-3.852122,-3.007154,0.5786967,1.269681,0.4509847,-1.165006,-0.03401133,0.1,3,-0.05653674,-0.0518394,-0.03982371,-0.6407598,-4.683843,0.1399068,0.6915444,1.449307,0.3922062,-0.1146134,0.08540413,-0.0780854,-0.9402679,0.1401389,-0.06786613,0.7593194,1.490412,0.2087283,0.4194144,1.059625,0.2437027,314.0042,199.2471,15.00961,True
2,0.3777778,0.05428445,0.7502859,-0.2836285,-1.130609,-3.864152,-3.002485,0.5784166,1.270121,0.4515972,-1.164682,0.02977993,0.1,3,-0.09802664,-0.03330174,0.05666427,-0.6369978,-4.68433,0.1427116,0.6912168,1.449451,0.3919601,-0.1137308,0.08110455,-0.09405607,-0.9417598,0.1409835,-0.06684375,0.7593073,1.4904,0.2085252,0.417281,1.060665,0.2451461,313.8683,199.4882,15.13207,True
2,0.3888889,0.04881799,0.7885595,-0.2944854,-1.128426,-3.875813,-2.997853,0.5783058,1.270471,0.4521863,-1.164126,0.05045639,0.1,4.6,-0.107215,-0.02609645,0.09091851,-0.6350057,-4.684958,0.1446778,0.6909392,1.449521,0.3918533,-0.1169553,0.08533643,-0.09617245,-0.9430141,0.1418623,-0.0658914,0.7594044,1.490377,0.2085514,0.4149956,1.061618,0.2467125,313.7678,199.7732,15.24514,True
2,0.4,0.04643866,0.8598217,-0.3076548,-1.126069,-3.888676,-2.992906,0.57845,1.270648,0.4529073,-1.163516,0.05517668,0.1,4.6,-0.1005916,-0.009201787,0.1059082,-0.6332885,-4.684488,0.1451876,0.6906074,1.449617,0.3918438,-0.1200821,0.08855058,-0.08655367,-0.9436166,0.1431512,-0.06486821,0.7593896,1.490347,0.2083991,0.412452,1.062541,0.2484426,313.721,200.0858,15.33909,True
2,0.4111111,0.04310125,0.9002615,-0.3142749,-1.12407,-3.901725,-2.987545,0.5783131,1.271073,0.4534883,-1.163283,0.02091773,0.1,4.6,-0.07394803,-0.01360414,0.1087793,-0.6320768,-4.685403,0.1458632,0.6903189,1.449713,0.391794,-0.1305682,0.09496674,-0.0694171,-0.9438658,0.1445765,-0.06387246,0.7594391,1.490314,0.2084038,0.4095396,1.063541,0.2503586,313.6992,200.4807,15.43741,True
2,0.4222222,0.04174942,0.9950641,-0.3169249,-1.122727,-3.917858,-2.981057,0.5781813,1.271534,0.4541876,-1.163438,-0.01441176,0.1,4.6,-0.06145682,-0.02518052,0.08617143,-0.6320299,-4.686501,0.1470033,0.6900069,1.449837,0.3917279,-0.1337171,0.1066936,-0.05554705,-0.9438717,0.1462415,-0.06215605,0.7593727,1.490413,0.2079904,0.4063799,1.064723,0.2525069,313.6095,200.919,15.69768,True
2,0.4333333,0.03630459,1.043023,-0.3107843,-1.121808,-3.932619,-2.975021,0.57802,1.272031,0.4547334,-1.163112,0.02996129,0.1,5.4,-0.05471871,-0.06420646,0.03569598,-0.6336885,-4.689777,0.150148,0.6895498,1.449897,0.3916616,-0.1336375,0.1045675,-0.04808341,-0.9442051,0.1473009,-0.06136429,0.7594159,1.4903,0.2079566,0.4030794,1.066109,0.2548916,313.4467,201.3891,16.05591,True
2,0.4444444,0.02440643,1.104788,-0.3110826,-1.120775,-3.949164,-2.967786,0.5779778,1.272381,0.4554696,-1.163269,-0.01465046,0.1,5.4,-0.08404738,-0.08607872,-0.007853677,-0.6354739,-4.692057,0.1539464,0.689154,1.44999,0.3915784,-0.1390185,0.09498069,-0.04584923,-0.9443148,0.1482774,-0.05903429,0.7594556,1.490118,0.2076693,0.3995749,1.067692,0.2573744,313.306,201.9526,16.33856,True
2,0.4555556,0.004997671,1.184644,-0.3050607,-1.120518,-3.966475,-2.959728,0.5780751,1.272695,0.4561496,-1.163143,0.01171188,0.1,5.4,-0.1201844,-0.06889227,-0.006251846,-0.6354308,-4.692299,0.1567832,0.6887553,1.449984,0.3914332,-0.1424799,0.09064661,-0.06816137,-0.9456794,0.1490011,-0.05721935,0.7593851,1.489878,0.2074907,0.3958193,1.069533,0.2599259,313.1147,202.6236,16.54806,True
2,0.4666667,-0.01011556,1.250647,-0.306453,-1.120139,-3.984783,-2.95118,0.5781394,1.272927,0.456672,-1.162707,0.03974988,0.1,5.4,-0.1163656,-0.01168281,0.02935242,-0.633598,-4.689823,0.1559236,0.6883539,1.450002,0.3912308,-0.1426353,0.09911583,-0.08309285,-0.9471011,0.1503281,-0.05651654,0.7594235,1.489656,0.2073944,0.3919168,1.071624,0.2625019,312.8339,203.2641,16.87961,True
2,0.4777778,-0.03601199,1.349581,-0.3207617,-1.119952,-4.005629,-2.940901,0.5782183,1.273182,0.4572537,-1.162215,0.04464742,0.1,5.4,-0.09775226,0.03915069,0.05621984,-0.6317726,-4.686729,0.153944,0.6879302,1.450006,0.3910384,-0.1427857,0.09803326,-0.09373178,-0.9483911,0.1517445,-0.05513649,0.7594922,1.48964,0.207701,0.3879533,1.073934,0.2651137,312.4447,203.8654,17.2677,True
2,0.4888889,-0.07886887,1.412158,-0.347637,-1.119016,-4.026317,-2.929662,0.5782359,1.273459,0.4576714,-1.162198,0.001285481,0.1,6.9,-0.09978438,0.06046063,0.05642942,-0.6309476,-4.684829,0.1535227,0.6876515,1.450077,0.3908436,-0.1407118,0.1044041,-0.09909904,-0.9497546,0.1531432,-0.05451464,0.7596315,1.489537,0.207628,0.3839646,1.076418,0.2677147,311.9891,204.518,17.64444,True
2,0.5,-0.2315048,1.487231,-0.3689664,-1.118785,-4.048275,-2.912381,0.5783309,1.273606,0.4585478,-1.161694,0.04618129,0.1,6.9,-0.1136494,0.04877731,0.05967774,-0.6301231,-4.684722,0.1552389,0.6873648,1.450103,0.390713,-0.1321826,0.1086899,-0.09492423,-0.9505876,0.1549124,-0.05389679,0.7596923,1.48954,0.2075226,0.3798893,1.079008,0.2702464,311.5139,205.161,17.99103,True
2,0.5111111,-0.3081553,1.472077,-0.3708155,-1.118731,-4.066713,-2.898349,0.5778819,1.273947,0.4587729,-1.160795,0.08191121,0.1,6.9,-0.1184655,0.003266826,0.02631625,-0.631166,-4.687175,0.1587292,0.6872358,1.450075,0.3905668,-0.1170878,0.09487833,-0.07906502,-0.9509285,0.1553205,-0.05342967,0.7597891,1.489372,0.2074249,0.375633,1.081726,0.2727519,311.0416,205.812,18.26987,True
2,0.5222223,-0.2612133,1.429597,-0.3802207,-1.118394,-4.083928,-2.889455,0.5774413,1.274522,0.4593842,-1.155629,0.4717404,0.1,6.9,-0.1115831,-0.06471133,9.062234E-05,-0.6325333,-4.691527,0.1633391,0.6870711,1.450077,0.3903599,-0.1084908,0.07679592,-0.07164641,-0.9514068,0.155601,-0.05238411,0.7598508,1.489228,0.2074275,0.3711624,1.08462,0.2752881,310.5645,206.3699,18.6103,True
2,0.5333334,-0.2270386,1.390181,-0.3992564,-1.116952,-4.100466,-2.881203,0.5769417,1.275203,0.4595251,-1.157462,-0.1710199,0.2,7.3,-0.09058113,-0.1137292,-0.009075766,-0.6333391,-4.696187,0.1673933,0.6867716,1.449974,0.3902693,-0.1148546,0.07678923,-0.06731082,-0.9519672,0.1565365,-0.05118542,0.7597785,1.489002,0.2075009,0.3663468,1.087873,0.2777309,310.1674,207.0934,18.89102,True
2,0.5444446,-0.2451798,1.397627,-0.3960441,-1.117367,-4.119366,-2.869387,0.5766239,1.275733,0.4598043,-1.162909,-0.495611,0.2,7.3,-0.06841759,-0.1435833,-0.01702743,-0.6342142,-4.700341,0.1706492,0.6864806,1.449975,0.3900301,-0.1202059,0.07997462,-0.06939447,-0.9528503,0.1577213,-0.05035478,0.7598745,1.488881,0.2074263,0.3613516,1.091635,0.2798794,309.7174,207.6774,19.42414,True
2,0.5555557,-0.295361,1.420828,-0.4130971,-1.117096,-4.138704,-2.855988,0.5761741,1.276221,0.4601016,-1.164009,-0.09638743,0.2,7.3,-0.08450847,-0.1092267,-0.04000178,-0.6353599,-4.699676,0.1717241,0.6860723,1.449965,0.3899736,-0.1265613,0.08422926,-0.0640008,-0.9532434,0.1588361,-0.04919391,0.7598659,1.488749,0.2073658,0.3567248,1.095837,0.2819783,308.9915,207.8494,20.25535,True
2,0.5666668,-0.3572186,1.431228,-0.4257953,-1.116928,-4.157947,-2.841542,0.5757486,1.276758,0.4604397,-1.161534,0.2265656,0.2,7.3,-0.1378361,-0.0736808,-0.05936736,-0.6366313,-4.69868,0.1742136,0.6857384,1.450072,0.3898327,-0.1159244,0.08955343,-0.06518665,-0.9540114,0.1600107,-0.04895476,0.7600907,1.488685,0.2073524,0.352454,1.100112,0.284066,308.1347,207.8368,21.14387,True
2,0.577778,-0.4424964,1.439456,-0.4352112,-1.117168,-4.17709,-2.825448,0.5753719,1.277285,0.4609261,-1.160021,0.1365757,0.2,7.3,-0.1895375,-0.06209498,-0.01716362,-0.6355863,-4.699666,0.178803,0.6854402,1.450242,0.3896358,-0.108557,0.08740841,-0.07377814,-0.9551379,0.1610577,-0.04851694,0.7602091,1.48852,0.2072644,0.3483073,1.10425,0.2861352,307.3136,208.0089,21.75446,True
2,0.5888891,-0.6162602,1.465483,-0.4509332,-1.117621,-4.1974,-2.803608,0.5748731,1.277969,0.4612713,-1.159133,0.08032144,0.1,6.1,-0.2088059,-0.0381929,0.06315792,-0.6322643,-4.70028,0.1821437,0.6852367,1.450454,0.3894453,-0.1023098,0.09056497,-0.0876975,-0.9565989,0.1620998,-0.04818005,0.7605225,1.488432,0.2072196,0.344061,1.108216,0.288176,306.654,208.2439,22.24603,True
2,0.6000003,-0.650259,1.422729,-0.4612415,-1.117602,-4.214735,-2.787616,0.5739433,1.278729,0.4614599,-1.157851,0.1170223,0.1,6.1,-0.2016614,-0.02598202,0.1281736,-0.6287894,-4.70102,0.1847272,0.6850289,1.450629,0.3893046,-0.1013389,0.08734296,-0.0972876,-0.9580163,0.1630211,-0.04761226,0.7607228,1.488208,0.2070935,0.3397223,1.11214,0.29025,306.1285,208.5168,22.69508,True
2,0.6111114,-0.5274566,1.314353,-0.4790363,-1.115799,-4.228523,-2.78016,0.572779,1.279693,0.4614637,-1.153222,0.422725,0.1,6.1,-0.1933708,-0.05554147,0.2173276,-0.6238093,-4.705619,0.1904179,0.6848857,1.450844,0.3890982,-0.101482,0.07771306,-0.1121789,-0.9598251,0.1634535,-0.04670945,0.7609646,1.488203,0.207006,0.3352758,1.116207,0.2923549,305.6695,208.8768,23.08293,True
2,0.6222225,-0.5177895,1.274895,-0.4937414,-1.114904,-4.244442,-2.767745,0.5718064,1.28073,0.4615886,-1.15816,-0.4543444,0.1,6.1,-0.2015725,-0.09209131,0.2607909,-0.6199663,-4.710773,0.197071,0.6847009,1.451057,0.3888152,-0.1121658,0.06277527,-0.1162923,-0.9612147,0.1635703,-0.04512141,0.7611785,1.488086,0.2068245,0.3304461,1.120749,0.2942449,305.3359,209.4104,23.39844,True
2,0.6333337,-0.5282522,1.2045,-0.5039806,-1.11362,-4.258508,-2.755082,0.5708921,1.281901,0.4614975,-1.166266,-0.736436,0.1,5.1,-0.21562,-0.1132414,0.2501064,-0.618223,1.568613,0.2029395,0.6844931,1.451248,0.3884823,-0.1238006,0.05210155,-0.1086908,-0.9621873,0.1633688,-0.04316904,0.7614805,1.487941,0.2066393,0.3255324,1.125934,0.2958851,304.7942,209.4695,24.23354,True
2,0.6444448,-0.5728238,1.12862,-0.5300689,-1.111477,-4.272189,-2.741062,0.5700559,1.282935,0.4615762,-1.163069,0.2980896,0.1,5.1,-0.2609269,-0.1275747,0.2035996,-0.6179647,1.565035,0.2102614,0.6842893,1.451478,0.3883374,-0.1332751,0.05850017,-0.09688734,-0.9628786,0.1642213,-0.04187901,0.7616469,1.48785,0.2065611,0.3210855,1.131395,0.2975295,303.8795,208.7757,25.6776,True
2,0.655556,-0.6216658,1.065581,-0.5402448,-1.109722,-4.285362,-2.726573,0.5689542,1.284102,0.4615748,-1.161516,0.1388624,0.1,5.1,-0.3336394,-0.1249094,0.1777722,-0.617162,1.56252,0.2184743,0.6840329,1.451738,0.3881402,-0.1406986,0.06701535,-0.09257318,-0.963831,0.1652417,-0.04062652,0.7618673,1.487641,0.2064507,0.3169901,1.13676,0.2992517,302.9514,208.1824,26.93485,True
2,0.6666671,-0.6481683,1.026076,-0.5452797,-1.108368,-4.298716,-2.712645,0.567809,1.285161,0.4615483,-1.16006,0.1322795,0.1,5.1,-0.387732,-0.1195213,0.1975811,-0.6145569,1.559404,0.2270718,0.6838185,1.452023,0.3879652,-0.1418053,0.06485637,-0.09682175,-0.9651525,0.1656931,-0.03927444,0.7619655,1.487593,0.2064011,0.3131412,1.141868,0.3009585,302.2182,207.6952,28.10726,True
2,0.6777782,-0.6767225,0.9599803,-0.539511,-1.106756,-4.310088,-2.699079,0.5665944,1.286424,0.4614646,-1.159569,0.04402856,0.1,5.1,-0.4098197,-0.123916,0.2254781,-0.611564,1.555709,0.2353467,0.6837152,1.452293,0.3878586,-0.1365522,0.05950885,-0.1043201,-0.9665597,0.1660828,-0.03812315,0.7621698,1.487495,0.206425,0.3094206,1.146686,0.3025566,301.717,207.2651,29.16397,True
2,0.6888894,-0.6946888,0.9291245,-0.5243734,-1.106115,-4.322171,-2.685566,0.5654314,1.287583,0.4613547,-1.160571,-0.09154331,0.1,9,-0.401235,-0.1517987,0.2421943,-0.60909,1.549813,0.2442753,0.6835296,1.452573,0.3876507,-0.1270232,0.06056172,-0.1097474,-0.9679738,0.1667092,-0.03738386,0.7622795,1.487425,0.206387,0.3056452,1.151318,0.3039273,301.3545,206.9742,30.00856,True
2,0.7000005,-0.7084368,0.9046654,-0.512466,-1.105691,-4.334038,-2.672107,0.5643341,1.288705,0.4613545,-1.16052,0.005714655,0.1,9,-0.3996616,-0.2336665,0.2223037,-0.6086212,1.540212,0.256366,0.6834714,1.452835,0.3874581,-0.1249982,0.0562692,-0.1204106,-0.9696138,0.1671236,-0.03632632,0.7624487,1.487352,0.2064328,0.3018678,1.155879,0.3050918,300.9876,206.6811,30.80735,True
2,0.7111117,-0.7168705,0.8866387,-0.4942225,-1.105709,-4.3459,-2.658642,0.5632057,1.289826,0.4611676,-1.161167,-0.05909441,0.1,9,-0.3776532,-0.2591099,0.197346,-0.608209,1.533826,0.2649033,0.6832628,1.453111,0.3872595,-0.1292962,0.06263612,-0.1235788,-0.9711046,0.1679368,-0.03523336,0.7626706,1.487297,0.2063718,0.298209,1.160454,0.3060459,300.6259,206.3421,31.62603,True
2,0.7222228,-0.7199966,0.8857123,-0.4686387,-1.106483,-4.357946,-2.645244,0.5620937,1.290814,0.46099,-1.161448,-0.0249744,0.1,9,-0.320969,-0.2413554,0.2107347,-0.6061195,1.52894,0.2705897,0.6829883,1.453374,0.3870862,-0.1325177,0.06368618,-0.1256777,-0.9725704,0.1686858,-0.0340344,0.7628059,1.487257,0.2062938,0.2947446,1.165107,0.3068353,300.1933,205.9158,32.46217,True
2,0.7333339,-0.7167591,0.891168,-0.4473636,-1.107685,-4.370039,-2.632128,0.5609536,1.291785,0.4608238,-1.161661,-0.01915642,0.1,9,-0.2972415,-0.1989294,0.2204273,-0.603565,1.526433,0.2750657,0.6826266,1.45365,0.3869197,-0.1388667,0.05515324,-0.1223909,-0.9737225,0.1688046,-0.03237339,0.7628244,1.487036,0.2062497,0.2914891,1.169855,0.307531,299.7033,205.391,33.33998,True
2,0.7444451,-0.714557,0.8988595,-0.4090367,-1.109962,-4.38192,-2.619107,0.5598683,1.292727,0.460664,-1.161989,-0.02975096,0.1,11.1,-0.295913,-0.1542434,0.227177,-0.6010259,1.52505,0.2794513,0.6821554,1.453993,0.3868196,-0.1482113,0.05093618,-0.09884691,-0.9740682,0.1692613,-0.03068601,0.7629017,1.486977,0.2061853,0.2883294,1.174691,0.3081435,299.178,204.8154,34.26381,True
2,0.7555562,-0.7282879,0.8873047,-0.3727029,-1.112277,-4.39255,-2.605993,0.5587656,1.293656,0.4605927,-1.16244,-0.04085362,0.1,11.1,-0.3222854,-0.09234019,0.2269247,-0.5984112,1.525483,0.2835494,0.6817229,1.454359,0.3867452,-0.1511459,0.05418666,-0.07325697,-0.9740927,0.1700147,-0.02935815,0.7629552,1.486938,0.2062204,0.2852125,1.179587,0.3087207,298.6053,204.1918,35.23118,True
2,0.7666674,-0.7377611,0.877871,-0.3396064,-1.114778,-4.403118,-2.59291,0.5577163,1.294465,0.4603806,-1.162549,-0.009558916,0.1,11.1,-0.3402355,-0.04536827,0.2232606,-0.5958679,1.525755,0.2876337,0.6813458,1.454642,0.3865659,-0.159528,0.05634207,-0.05932987,-0.9744032,0.1708467,-0.02781725,0.7631456,1.486889,0.2061751,0.2821248,1.184504,0.3093288,298.0025,203.5549,36.21487,True
2,0.7777785,-0.7365959,0.8641585,-0.317153,-1.117305,-4.413599,-2.580202,0.5566163,1.295347,0.4602058,-1.161963,0.0536618,0.1,11.1,-0.3529297,-0.01117624,0.218357,-0.5934588,1.526382,0.2914383,0.6808344,1.454968,0.3863699,-0.1518537,0.06066206,-0.03811316,-0.9741864,0.1717832,-0.02694746,0.7631822,1.486862,0.206192,0.2791119,1.189399,0.3100126,297.3767,202.9702,37.18692,True
2,0.7888896,-0.7375898,0.8696846,-0.2809709,-1.120988,-4.42419,-2.567357,0.5555383,1.296056,0.4599462,-1.161986,-0.002452057,0.4,10,-0.3770614,0.04954669,0.2297877,-0.5899509,1.529059,0.2943217,0.6802672,1.455223,0.3861856,-0.1604449,0.0755461,-0.04338705,-0.9748917,0.1732501,-0.02574132,0.7631999,1.486776,0.2061913,0.2761971,1.194225,0.3107312,296.7762,202.4108,38.1903,True
2,0.8000008,-0.7300749,0.8805734,-0.2426793,-1.125475,-4.43463,-2.555029,0.5544452,1.296813,0.4596303,-1.16242,-0.03959117,0.4,10,-0.3756727,0.0653263,0.2533408,-0.5862513,1.529337,0.2981904,0.6797763,1.455525,0.3860278,-0.1583306,0.08939171,-0.04344518,-0.9754781,0.1749156,-0.02495169,0.7632954,1.486628,0.2061458,0.2733722,1.198962,0.3114152,296.2128,201.8523,39.20586,True
2,0.8111119,-0.7182992,0.8946592,-0.2076249,-1.130331,-4.445144,-2.542985,0.5534277,1.297457,0.459305,-1.162435,-0.0009512555,0.4,10,-0.3648081,0.06832381,0.2713701,-0.5824967,1.528702,0.3024001,0.6793972,1.455852,0.3857517,-0.1551242,0.09791239,-0.04136604,-0.9758334,0.1764286,-0.02417831,0.7633279,1.486613,0.2061763,0.2706189,1.203612,0.3120455,295.6686,201.2896,40.17452,True
2,0.8222231,-0.7033712,0.8991138,-0.173588,-1.135463,-4.45503,-2.531322,0.5522865,1.298107,0.4590127,-1.162902,-0.0426869,0.4,10,-0.3444676,0.06495254,0.2817758,-0.5789552,1.52784,0.3062976,0.6789615,1.456084,0.385601,-0.157334,0.09149325,-0.04985349,-0.9767335,0.1772573,-0.02283554,0.7633642,1.486475,0.206187,0.2679071,1.208187,0.3126039,295.0889,200.8378,41.01606,True
2,0.8333342,-0.7032754,0.90355,-0.1480418,-1.140707,-4.464802,-2.519379,0.5512151,1.29878,0.4586253,-1.163244,-0.03078178,0.4,10,-0.3285686,0.0660086,0.2741558,-0.5760908,1.527507,0.309761,0.6784656,1.456259,0.3854613,-0.1574017,0.09679267,-0.05625706,-0.9775698,0.1785784,-0.02187281,0.7633522,1.486481,0.2062497,0.2652621,1.212701,0.3130886,294.4841,200.4285,41.80622,True
2,0.8444453,-0.6936249,0.9016015,-0.1224752,-1.146192,-4.474266,-2.50799,0.5502329,1.299444,0.4582732,-1.163321,-0.006928783,0.1,10.3,-0.3086168,0.0554681,0.2514726,-0.5741493,1.526991,0.3129528,0.6780131,1.456448,0.3852446,-0.1605562,0.1063879,-0.05092735,-0.9780656,0.1803443,-0.02092765,0.7633841,1.486469,0.2062681,0.2627172,1.217137,0.3135257,293.8708,199.9404,42.64491,True
2,0.8555565,-0.6903602,0.8942554,-0.1043279,-1.151484,-4.48302,-2.497024,0.5490875,1.300153,0.4578807,-1.162927,0.03607069,0.1,10.3,-0.3112717,0.03131343,0.2118706,-0.5734484,1.52562,0.3175505,0.6775821,1.4567,0.3851287,-0.151895,0.1128199,-0.03718638,-0.9780736,0.1820043,-0.02055002,0.7633365,1.486493,0.2063196,0.2602336,1.221486,0.3139197,293.2692,199.4241,43.48282,True
2,0.8666676,-0.6955425,0.8687946,-0.08500689,-1.15654,-4.490958,-2.486165,0.5479298,1.300749,0.457515,-1.163246,-0.02948579,0.1,10.3,-0.3233755,0.01349683,0.1830847,-0.57257,1.524194,0.3226859,0.6769708,1.456771,0.3850467,-0.1464317,0.1149938,-0.02339718,-0.9778851,0.1836381,-0.02001472,0.7632128,1.486359,0.2063506,0.2578289,1.22577,0.3142779,292.7027,198.9648,44.25875,True
2,0.8777788,-0.7060801,0.8389789,-0.07736868,-1.161108,-4.498411,-2.475139,0.5467299,1.301534,0.4572582,-1.16335,-0.009229602,0.1,10.3,-0.3300659,0.008425146,0.1575422,-0.5717136,1.523793,0.3268569,0.676449,1.456958,0.384913,-0.1409246,0.1129085,-0.006403646,-0.9774355,0.1850046,-0.01945945,0.7631854,1.486354,0.2065611,0.2555361,1.230016,0.3146186,292.1493,198.4829,45.04417,True
2,0.8888899,-0.6856213,0.7805303,-0.06539136,-1.164949,-4.504354,-2.466105,0.5454714,1.302323,0.4567678,-1.163062,0.02636592,0.1,15,-0.3429401,0.0384693,0.1376979,-0.5705391,1.525691,0.3294991,0.675958,1.457134,0.3847897,-0.1441469,0.1150258,-0.00850853,-0.9776384,0.186499,-0.01857582,0.7630862,1.486358,0.2065921,0.2532803,1.234221,0.3149144,291.6013,197.8884,45.93598,True
2,0.900001,-0.6716171,0.7273235,-0.06085446,-1.168672,-4.50998,-2.456923,0.544108,1.303206,0.45628,-1.162629,0.03941441,0.1,15,-0.3373126,0.06066063,0.1570031,-0.5677679,1.526794,0.3321401,0.6754386,1.457316,0.3846092,-0.138785,0.1171635,-0.005375957,-0.9777061,0.1880668,-0.01816702,0.7630464,1.486341,0.2066822,0.2510728,1.238364,0.3151503,291.0753,197.1876,46.90836,True
2,0.9111122,-0.6671929,0.6751477,-0.05950886,-1.172053,-4.51538,-2.447573,0.5427523,1.304114,0.4558022,-1.163937,-0.1199751,0.1,15,-0.3380107,0.08388947,0.181715,-0.5644634,1.527948,0.3349154,0.6747999,1.457618,0.3844926,-0.1302768,0.1203605,-0.006533735,-0.9777966,0.1897151,-0.01794598,0.763011,1.4863,0.206737,0.2489087,1.242476,0.3153036,290.608,196.494,47.86157,True
2,0.9222233,-0.6660014,0.6346928,-0.05717248,-1.175389,-4.520702,-2.438118,0.5414506,1.304966,0.4552681,-1.16373,0.01995681,0.1,15,-0.3475063,0.08386594,0.19034,-0.5618897,1.528269,0.3388505,0.6742877,1.457842,0.3843219,-0.1271086,0.1160858,-0.009754855,-0.9780667,0.1909335,-0.01732333,0.7629656,1.486249,0.2068033,0.2468349,1.246506,0.3153175,290.1604,195.6418,48.98615,True
2,0.9333345,-0.6711675,0.5878412,-0.0537222,-1.178427,-4.525458,-2.428658,0.5400943,1.305776,0.4548037,-1.163332,0.03601621,0.1,15,-0.360342,0.0732837,0.1882643,-0.5598002,1.527708,0.3436218,0.6739781,1.458102,0.3841503,-0.1228829,0.1064846,-0.01403193,-0.9783154,0.1918593,-0.01654196,0.7628874,1.486221,0.2068746,0.2448048,1.250424,0.3151544,289.746,194.7576,50.08271,True
2,0.9444456,-0.6912622,0.5451944,-0.05131483,-1.181272,-4.529761,-2.41873,0.5386721,1.306738,0.4542673,-1.163091,0.02169879,0.5,16,-0.3707124,0.06670371,0.2160237,-0.5564936,1.526687,0.3488672,0.6734916,1.458295,0.3839612,-0.1143743,0.09903167,-0.01623129,-0.9785833,0.1928762,-0.01611505,0.7628096,1.4862,0.2068915,0.2428258,1.254236,0.3148296,289.3775,193.8586,51.12198,True
2,0.9555568,-0.6880014,0.5239131,-0.05441204,-1.184269,-4.534763,-2.409271,0.5373188,1.307657,0.4538605,-1.162821,0.02454123,0.5,16,-0.3674206,0.06555703,0.2255694,-0.553505,1.526342,0.3531985,0.6730164,1.458553,0.3838024,-0.1123445,0.08621505,-0.02793777,-0.9793306,0.193423,-0.0152663,0.7626886,1.486172,0.2068915,0.2409176,1.257968,0.3143821,289.0381,192.908,52.1615,True
2,0.9666679,-0.6889366,0.4823725,-0.05419034,-1.186527,-4.538376,-2.400283,0.536067,1.30864,0.453351,-1.162174,0.05905442,0.5,16,-0.3651025,0.05471852,0.2467608,-0.5501276,1.524546,0.3586628,0.6725851,1.458738,0.3836031,-0.1090994,0.08197047,-0.02369736,-0.9794211,0.1944143,-0.01471104,0.7625644,1.486136,0.2068906,0.2390551,1.261654,0.3138366,288.7276,191.9311,53.19482,True
2,0.977779,-0.6972923,0.4248284,-0.05707043,-1.187972,-4.541357,-2.3911,0.5346758,1.309804,0.4529076,-1.162883,-0.06537497,0.5,16,-0.3608164,0.04186679,0.2540638,-0.5472066,1.522824,0.3640376,0.6721583,1.458918,0.3834341,-0.1027238,0.08196862,-0.02589564,-0.9798052,0.1954459,-0.01442554,0.7624562,1.486095,0.206949,0.2371943,1.265378,0.3131962,288.4619,191.0169,54.13807,True
2,0.9888902,-0.7036031,0.3906816,-0.06433119,-1.189458,-4.544526,-2.381954,0.5333403,1.310821,0.4524281,-1.162942,-0.004745856,0.5,16,-0.3704136,0.03549621,0.2551885,-0.5444114,1.520886,0.370046,0.6717337,1.459273,0.383244,-0.09846287,0.07984681,-0.02593102,-0.980072,0.1964937,-0.01404312,0.7621247,1.48604,0.2069664,0.2354303,1.269183,0.3125674,288.1952,189.9288,55.23396,True
2,1.000001,-0.7140997,0.3352564,-0.06934834,-1.190227,-4.547056,-2.372753,0.5319782,1.311945,0.4519563,-1.162526,0.03801966,0.7,15.5,-0.3663685,0.02282716,0.2401126,-0.5425759,1.519261,0.3753582,0.6712586,1.459581,0.383014,-0.09308165,0.07879333,-0.02065659,-0.9800981,0.1973657,-0.01366282,0.7619766,1.486037,0.2069609,0.2338183,1.273048,0.3119557,287.9407,188.6904,56.53154,True
2,1.011112,-0.7150831,0.3075618,-0.06813326,-1.191477,-4.54949,-2.363902,0.5306595,1.31302,0.4514861,-1.162624,-0.009206783,0.7,15.5,-0.3494062,0.0206674,0.2335274,-0.5402659,1.517558,0.3801074,0.6708618,1.459835,0.3828244,-0.09305093,0.07773353,-0.0174581,-0.9802191,0.198314,-0.01311847,0.761866,1.486045,0.2069147,0.2322676,1.276981,0.3113053,287.7284,187.3139,57.97523,True
2,1.022224,-0.7192578,0.2788061,-0.06797352,-1.192505,-4.551861,-2.354995,0.5293872,1.314101,0.4509313,-1.162402,0.02043989,0.7,15.5,-0.3313707,0.01958264,0.2269199,-0.5381956,1.516379,0.3840779,0.6704079,1.460073,0.3825543,-0.09723076,0.07561472,-0.009952331,-0.9801008,0.1992397,-0.01245427,0.761694,1.486067,0.2069776,0.2307732,1.280961,0.31061,287.5203,185.7577,59.58908,True
2,1.033335,-0.7224508,0.2820298,-0.06584777,-1.194562,-4.55508,-2.345806,0.5281485,1.315017,0.4504933,-1.162742,-0.03123198,0.7,15.5,-0.3345661,0.02814098,0.2238291,-0.5358046,1.515694,0.3885219,0.6697809,1.460351,0.3823206,-0.1057212,0.07028987,-0.006660889,-0.9801429,0.2000144,-0.01131417,0.7615513,1.486068,0.2069197,0.2293278,1.284965,0.3098505,287.3375,184.1442,61.24598,True
2,1.044446,-0.7246026,0.2969682,-0.06058994,-1.196989,-4.558282,-2.336618,0.5269019,1.316034,0.4499876,-1.162745,2.822632E-05,1.3,23.5,-0.3474931,0.0304476,0.2101357,-0.5339196,1.515111,0.393407,0.669353,1.460526,0.3820329,-0.1088812,0.06603591,-0.003425035,-0.9801285,0.2008129,-0.01039485,0.7613829,1.485996,0.206965,0.227962,1.288962,0.3090287,287.1464,182.4824,62.94084,True
2,1.055557,-0.7352921,0.3193697,-0.05110118,-1.199924,-4.561761,-2.32681,0.5257539,1.316997,0.4494967,-1.162799,-0.00493637,1.3,23.5,-0.3731707,0.03171921,0.1997672,-0.5320485,1.514578,0.398941,0.6689025,1.460711,0.381712,-0.1035517,0.06604008,-0.003482588,-0.980226,0.2016687,-0.009934656,0.7612629,1.485988,0.2069328,0.2266711,1.292922,0.3081501,286.9698,180.7635,64.6641,True
2,1.066668,-0.7363778,0.3343108,-0.04691602,-1.202711,-4.565113,-2.317658,0.524509,1.317945,0.4490275,-1.162819,-0.001744043,1.3,23.5,-0.3879112,0.04339352,0.2117464,-0.5292159,1.513834,0.4043597,0.6685449,1.460933,0.3814516,-0.09399468,0.06284334,-0.006772447,-0.9804609,0.2022757,-0.009553292,0.7612352,1.485991,0.2068663,0.2254119,1.296845,0.3072849,286.7769,179.0533,66.32332,True
2,1.077779,-0.7459492,0.3418282,-0.03202587,-1.205731,-4.567986,-2.308116,0.5234059,1.318854,0.448518,-1.162333,0.04449898,1.3,23.5,-0.3908878,0.05713896,0.2268123,-0.5259764,1.513713,0.408844,0.6681712,1.461117,0.3812995,-0.09293609,0.06390408,-0.007852991,-0.9805914,0.2031217,-0.009117599,0.7612077,1.485936,0.2069254,0.2241402,1.300764,0.3064797,286.5765,177.469,67.86765,True
2,1.08889,-0.7533886,0.3386276,-0.02986261,-1.208185,-4.570768,-2.298731,0.5223609,1.319805,0.4480245,-1.162926,-0.05456821,1.3,23.5,-0.3724104,0.0685313,0.2554781,-0.5220424,1.512657,0.4130528,0.6679385,1.461283,0.3810811,-0.09832405,0.05962287,-0.01417888,-0.980962,0.2037485,-0.008176703,0.7611033,1.485924,0.2069085,0.2228559,1.304722,0.3057675,286.3799,175.9625,69.3756,True
2,1.100002,-0.7576072,0.3269304,-0.02445534,-1.210592,-4.573101,-2.289496,0.5212629,1.320771,0.4475031,-1.162471,0.04215703,2.2,31.8,-0.3393776,0.05770072,0.2603471,-0.5193004,1.510903,0.417132,0.6676735,1.461515,0.381063,-0.09751216,0.05955958,-0.03868933,-0.9821983,0.2044266,-0.007426491,0.7611164,1.485824,0.2069867,0.221584,1.308715,0.305163,286.1879,174.3071,71.082,True
2,1.111113,-0.7597077,0.3194885,-0.02227685,-1.21301,-4.575566,-2.280291,0.5202636,1.321747,0.4470189,-1.162578,-0.01021525,2.2,31.8,-0.3047253,0.01091048,0.2318747,-0.5184551,1.506839,0.4228559,0.6674249,1.461545,0.3809185,-0.08805656,0.06806286,-0.05053202,-0.9832039,0.2056529,-0.007446731,0.761076,1.485714,0.2069912,0.2204093,1.312722,0.3046364,285.9883,172.6464,72.85764,True
2,1.122224,-0.759738,0.3258519,-0.02763715,-1.215566,-4.578584,-2.270889,0.5192268,1.322659,0.4464116,-1.162634,-0.004920973,2.2,31.8,-0.2799652,-0.04093087,0.1768343,-0.5190938,1.502891,0.4285458,0.66704,1.461734,0.3807464,-0.07323875,0.07231805,-0.05921483,-0.9840758,0.206771,-0.007727428,0.7610333,1.485722,0.2069702,0.2193523,1.316734,0.3041275,285.8282,170.9203,74.71916,True
2,1.133335,-0.7555204,0.3440001,-0.02454557,-1.21893,-4.581776,-2.261672,0.518154,1.323532,0.4458983,-1.162753,-0.01087146,2.2,31.8,-0.2782328,-0.05559109,0.1457946,-0.5190607,1.500382,0.4336961,0.6667042,1.461862,0.3805985,-0.07434037,0.07656578,-0.06240822,-0.9848199,0.2078455,-0.007460846,0.7609098,1.485647,0.2069345,0.2183851,1.32075,0.3035673,285.6909,169.134,76.62058,True
2,1.144446,-0.7534202,0.3600017,-0.02250108,-1.222305,-4.584964,-2.252428,0.5171126,1.324501,0.4453475,-1.16279,-0.003219454,3.2,35.5,-0.2976589,-0.03499156,0.1142202,-0.5185121,1.50108,0.437012,0.6662915,1.462088,0.3803728,-0.08388445,0.07336774,-0.05803864,-0.9852796,0.2086866,-0.006586263,0.7608485,1.485662,0.2068644,0.2174984,1.324764,0.3029349,285.5771,167.2619,78.56511,True
2,1.155557,-0.7555405,0.3653666,-0.0150746,-1.225595,-4.587735,-2.243175,0.5160806,1.325497,0.4448092,-1.163048,-0.02353296,3.2,35.5,-0.3072094,-0.01574053,0.1102251,-0.5173371,1.501077,0.4407396,0.665965,1.462263,0.3802183,-0.0805409,0.04570059,-0.0462807,-0.9853196,0.2081042,-0.005426989,0.7606499,1.485584,0.2068326,0.2166046,1.328793,0.3022342,285.4829,165.2893,80.55914,True
2,1.166668,-0.7565632,0.3557981,-0.01075265,-1.228469,-4.589991,-2.234106,0.5150706,1.326478,0.4443245,-1.162672,0.03405477,3.2,35.5,-0.3154771,-0.005212486,0.1295772,-0.5152663,1.499714,0.4456441,0.6657485,1.462393,0.3800321,-0.07514389,0.03187306,-0.0409737,-0.9855992,0.2080673,-0.004763596,0.7605919,1.485565,0.2067697,0.2156788,1.332826,0.3015336,285.3784,163.2296,82.59429,True
2,1.17778,-0.7564633,0.3270642,-0.007412225,-1.230682,-4.591799,-2.225235,0.514081,1.32757,0.4439261,-1.161648,0.09235257,3.2,35.5,-0.3056797,-0.002208948,0.1476089,-0.5131778,1.497853,0.4502697,0.6655027,1.462502,0.3797631,-0.07298627,0.03827272,-0.0378166,-0.9859384,0.2088274,-0.004471714,0.7605373,1.485528,0.2068117,0.2147227,1.336827,0.300887,285.282,161.2059,84.61218,True
2,1.188891,-0.7585341,0.3046897,-0.008360818,-1.232721,-4.593712,-2.216104,0.5132303,1.32862,0.4434426,-1.160339,0.1176435,3.2,35.5,-0.3010774,0.00497514,0.1763892,-0.5104561,1.495591,0.4554258,0.665377,1.462603,0.3795404,-0.06338315,0.03402392,-0.03683755,-0.9862698,0.2091095,-0.004297011,0.7604862,1.485502,0.206795,0.2137718,1.340743,0.3003145,285.2067,159.2404,86.61566,True
2,1.200002,-0.759541,0.274804,-0.01885453,-1.234051,-4.595514,-2.20708,0.5122252,1.329816,0.4429429,-1.158714,0.1462081,3.4,41.7,-0.2965306,0.01008424,0.2008853,-0.5076166,1.493602,0.4603205,0.6651911,1.462778,0.3792832,-0.06335083,0.03936061,-0.03258595,-0.9864583,0.2098205,-0.003881025,0.7604322,1.485479,0.2068174,0.2128729,1.344505,0.2998067,285.1658,157.3624,88.55703,True
2,1.211113,-0.7530801,0.2492312,-0.02512503,-1.235383,-4.597195,-2.198509,0.511229,1.330977,0.4424839,-1.156497,0.1999139,3.4,41.7,-0.2997335,-0.006938517,0.2050615,-0.5059175,1.490594,0.466299,0.6650375,1.46292,0.3791237,-0.05481792,0.03937522,-0.03160989,-0.9867854,0.2104048,-0.003897536,0.7604433,1.485454,0.2067835,0.2120432,1.348071,0.2993385,285.16,155.6794,90.30938,True
2,1.222224,-0.7487157,0.2044508,-0.03662133,-1.235538,-4.598411,-2.19002,0.5102329,1.332295,0.4420233,-1.15427,0.2001344,3.4,41.7,-0.3008947,-0.02080154,0.2027983,-0.5042318,1.487203,0.4726469,0.6649212,1.463103,0.3789525,-0.03895658,0.03829677,-0.0434879,-0.9876434,0.210807,-0.004245079,0.760469,1.485348,0.2067857,0.2112431,1.35145,0.2988679,285.1734,154.2528,91.81151,True
2,1.233335,-0.7496892,0.1724867,-0.03858227,-1.235949,-4.59936,-2.18143,0.5093328,1.333507,0.4415631,-1.152046,0.1996597,3.4,41.7,-0.2943491,-0.02522502,0.2186711,-0.5017907,1.483582,0.4788526,0.6648647,1.463276,0.3787806,-0.03910786,0.03719617,-0.05840003,-0.9888088,0.2112885,-0.004062386,0.760445,1.485345,0.2067294,0.2103572,1.354695,0.2983472,285.2238,153.0257,93.08932,True
2,1.244446,-0.7442348,0.1127632,-0.05532882,-1.234742,-4.600052,-2.173113,0.5083917,1.334999,0.4412374,-1.14902,0.2727341,4.4,58.1,-0.2844052,-0.02981075,0.2526122,-0.4985523,1.479105,0.4855273,0.6647831,1.463451,0.3786058,-0.04237697,0.02225584,-0.06684809,-0.9897676,0.210962,-0.003221626,0.7604669,1.485306,0.2067645,0.2094104,1.357794,0.2977889,285.2915,151.8792,94.2618,True
2,1.255558,-0.7484248,0.06896871,-0.07639712,-1.233428,-4.601084,-2.164117,0.5074334,1.336451,0.4409637,-1.145531,0.3141857,4.4,58.1,-0.2765225,-0.01627502,0.2867311,-0.4945895,1.475564,0.4915306,0.6647268,1.46361,0.3784595,-0.03491659,0.0180018,-0.06691125,-0.9904216,0.2110202,-0.003101251,0.7604011,1.485248,0.2067549,0.2084466,1.360726,0.2971853,285.3877,150.9148,95.25156,True
2,1.266669,-0.7536581,0.0294947,-0.08576328,-1.232004,-4.601673,-2.155286,0.506473,1.337995,0.4406493,-1.142166,0.3024738,4.4,58.1,-0.2805161,-0.01325774,0.3102386,-0.4908387,1.471232,0.4986825,0.6646398,1.463768,0.3782849,-0.0188103,0.02870979,-0.05325422,-0.9905872,0.2118847,-0.003862383,0.7603765,1.485177,0.2067232,0.2075284,1.363491,0.2965317,285.488,150.153,96.02415,True
2,1.27778,-0.7555691,-0.06863104,-0.105473,-1.227702,-4.60084,-2.14699,0.5054435,1.339735,0.4404418,-1.137775,0.3960973,4.4,58.1,-0.280294,-0.02839013,0.3367408,-0.4871683,1.46511,0.5072576,0.664651,1.463935,0.3781478,-0.003750006,0.03409053,-0.03850479,-0.9904621,0.2125358,-0.004690892,0.7603511,1.485168,0.2067297,0.2066314,1.366125,0.2958256,285.6676,149.6181,96.51599,True
2,1.288891,-0.7597295,-0.1091508,-0.1105729,-1.224964,-4.60066,-2.138512,0.5045025,1.341311,0.4401021,-1.133611,0.3743083,4.4,58.1,-0.2568874,-0.05518814,0.3437189,-0.4843912,1.458229,0.5153978,0.6646712,1.464175,0.3780565,0.012321,0.0362667,-0.02909602,-0.9905521,0.2131429,-0.005630988,0.7603515,1.485146,0.2066655,0.2057029,1.368705,0.2951003,285.8602,149.2337,96.81449,True
2,1.300002,-0.7511531,-0.1379544,-0.1210843,-1.22203,-4.600673,-2.130543,0.5035558,1.34292,0.4396274,-1.12931,0.3870459,5.6,69.6,-0.2410006,-0.07334859,0.3423371,-0.4817275,1.451753,0.5233178,0.6646519,1.464342,0.3778465,0.004820048,0.03518092,-0.03327478,-0.9910634,0.2135301,-0.005577991,0.7603596,1.485064,0.2066813,0.2047579,1.371281,0.2943576,286.0601,148.8901,97.10946,True
2,1.311113,-0.7490141,-0.141145,-0.1221405,-1.220014,-4.601084,-2.122279,0.5026817,1.344565,0.4392416,-1.124755,0.4099058,5.6,69.6,-0.2337345,-0.09140667,0.3314534,-0.4796753,1.445077,0.53156,0.6646488,1.46448,0.3776748,-0.01004488,0.01066959,-0.03093094,-0.9913303,0.2127483,-0.004458664,0.7603844,1.485,0.2065783,0.2038638,1.373808,0.2935352,286.3423,148.5584,97.42908,True
2,1.322224,-0.7437266,-0.1337194,-0.1296461,-1.218131,-4.601908,-2.113985,0.5017915,1.346175,0.4389117,-1.120393,0.3918675,5.6,69.6,-0.2412614,-0.1041398,0.3293012,-0.4773285,1.438231,0.5405069,0.6645731,1.464616,0.3774045,-0.00686471,0.01173358,-0.03202969,-0.9916856,0.2129032,-0.004551076,0.7603985,1.484914,0.2065766,0.203014,1.376291,0.2926162,286.5787,148.1299,97.82565,True
2,1.333336,-0.7618211,-0.1433991,-0.1359512,-1.215558,-4.602413,-2.104831,0.5008656,1.347944,0.4387119,-1.115034,0.482951,5.6,69.6,-0.2655106,-0.09140661,0.347783,-0.4738115,1.432088,0.5497465,0.664485,1.464789,0.3771868,0.009106494,0.01813971,-0.03220919,-0.9920526,0.2133851,-0.005506884,0.7603542,1.484834,0.2064931,0.202178,1.378712,0.2916191,286.8002,147.662,98.21744,True
2,1.344447,-0.7713904,-0.1551805,-0.143328,-1.212814,-4.602976,-2.09584,0.4999695,1.349656,0.4383743,-1.109595,0.4892522,5.6,69.6,-0.2854608,-0.08193217,0.3715119,-0.4699739,1.425447,0.5595022,0.6644167,1.465051,0.3769624,0.01870527,0.0266823,-0.03020195,-0.9923604,0.2141728,-0.006468286,0.760433,1.484769,0.2064369,0.2013259,1.381078,0.2906271,287.0023,147.2772,98.45679,True
2,1.355558,-0.7831168,-0.1541606,-0.1454365,-1.210519,-4.603637,-2.086616,0.4990302,1.351351,0.4379554,-1.102798,0.613143,6.7,85.8,-0.2873157,-0.05541272,0.3866692,-0.4658833,1.420503,0.5671287,0.6642897,1.465319,0.3767843,0.01552689,0.02454817,-0.02909926,-0.9926581,0.2143512,-0.006647783,0.7604506,1.484711,0.2064035,0.20041,1.383401,0.2897379,287.2193,146.9523,98.61127,True
2,1.366669,-0.7885182,-0.1254119,-0.1466448,-1.209369,-4.605007,-2.077362,0.4982166,1.353048,0.4374907,-1.096782,0.5404921,6.7,85.8,-0.2913465,-0.05237222,0.4069812,-0.4618017,1.413238,0.5770141,0.6642196,1.465532,0.3765969,0.002712386,0.01280475,-0.03320675,-0.9932712,0.2140834,-0.006033658,0.7605463,1.484688,0.2063572,0.1993888,1.38573,0.2889893,287.4366,146.8412,98.61048,True
2,1.37778,-0.7918595,-0.06569523,-0.1437801,-1.210018,-4.607572,-2.067786,0.4973146,1.354655,0.4371755,-1.090284,0.5852107,6.7,85.8,-0.3108785,-0.0541407,0.3752114,-0.4594688,1.408303,0.5855469,0.6640357,1.465795,0.3763936,0.001599323,0.01278737,-0.03852494,-0.9939082,0.2142347,-0.006207828,0.7604941,1.484673,0.2064588,0.1982871,1.38808,0.2883695,287.6353,146.7513,98.69372,True
2,1.388891,-0.7951989,-0.01135816,-0.140865,-1.21074,-4.609806,-2.058129,0.4964805,1.356319,0.4366853,-1.083809,0.5823371,6.7,85.8,-0.3186294,-0.06564069,0.3517634,-0.4575518,1.402022,0.5948293,0.6640345,1.465987,0.3762078,0.000502117,0.02130308,-0.04066595,-0.9944291,0.2148581,-0.006506103,0.7605014,1.484654,0.2064483,0.1971104,1.39047,0.2878451,287.7722,146.6544,98.84371,True
2,1.400002,-0.8048899,0.02481855,-0.1431603,-1.211166,-4.612012,-2.048068,0.4954936,1.358102,0.4362068,-1.076923,0.6197045,8.3,100,-0.3305565,-0.09534946,0.344181,-0.4557233,1.393697,0.6063411,0.6637827,1.466213,0.3760407,-0.001665052,0.02661675,-0.04385293,-0.9950203,0.215375,-0.006711699,0.7604846,1.484656,0.2065492,0.1958869,1.39292,0.2874426,287.8535,146.5092,99.01604,True
2,1.411114,-0.8177165,0.03648274,-0.1463863,-1.210955,-4.613963,-2.037841,0.4944041,1.360002,0.4357069,-1.069309,0.6856686,8.3,100,-0.3539684,-0.104889,0.3496863,-0.4531667,1.385438,0.6183679,0.6634761,1.466344,0.3758602,-0.002737924,0.04153053,-0.04281571,-0.9955099,0.2164375,-0.007227819,0.7603298,1.484577,0.2065744,0.1945612,1.39547,0.2872498,287.8729,146.2243,99.30746,True
2,1.422225,-0.8336782,0.02896456,-0.1505762,-1.210182,-4.615749,-2.027459,0.4932647,1.361874,0.4352841,-1.061102,0.7390928,8.3,100,-0.3623832,-0.1027918,0.3593818,-0.4501919,1.377961,0.6294978,0.6631858,1.466634,0.3756669,-0.002554294,0.07140918,-0.02159184,-0.9951391,0.2184783,-0.008332232,0.760282,1.484568,0.206593,0.1931248,1.398119,0.2872564,287.8582,145.927,99.72052,True
2,1.433336,-0.8453469,0.006529853,-0.155763,-1.208659,-4.61729,-2.017045,0.4920188,1.363892,0.4348207,-1.052633,0.7623153,8.3,100,-0.3754812,-0.1153149,0.3359788,-0.4486952,1.370779,0.6406391,0.6627293,1.466935,0.3755405,-0.005629439,0.08315666,-0.008807823,-0.9948654,0.2200404,-0.009096825,0.7602021,1.484579,0.2066903,0.1915211,1.40087,0.2873767,287.861,145.6878,100.1686,True
2,1.444447,-0.8517216,0.002265632,-0.1535891,-1.207905,-4.618809,-2.006829,0.490806,1.365893,0.4342046,-1.043872,0.7885402,8.3,100,-0.3875,-0.1385396,0.316739,-0.4477115,1.362437,0.6527791,0.6623768,1.467162,0.3753815,-0.01849133,0.09377905,-0.01509221,-0.9952456,0.2216119,-0.009340771,0.7601193,1.48456,0.2067437,0.1897858,1.40368,0.2875213,287.9019,145.4733,100.6331,True
2,1.455558,-0.8464308,0.01291399,-0.1568549,-1.207672,-4.620871,-1.996853,0.4895471,1.367963,0.4336159,-1.034772,0.8189671,8.9,100,-0.3930093,-0.1351607,0.2987114,-0.4464257,1.356194,0.6629548,0.6619428,1.467552,0.3752086,-0.02710832,0.1022679,-0.02354928,-0.9958124,0.2232441,-0.009702428,0.7600712,1.484559,0.2068396,0.1879874,1.406468,0.2876255,287.9799,145.2464,101.0962,True
2,1.466669,-0.8497378,0.05124007,-0.1602446,-1.208585,-4.623585,-1.986267,0.4883527,1.369919,0.4330602,-1.025578,0.8271367,8.9,100,-0.3950877,-0.1351935,0.3029969,-0.4445194,1.348212,0.6745632,0.661526,1.468001,0.3749664,-0.0325275,0.09904122,-0.0330741,-0.9965085,0.224364,-0.009773002,0.7598988,1.484568,0.2068806,0.186132,1.409188,0.2876112,288.0595,145.1096,101.4457,True
2,1.47778,-0.860512,0.09274124,-0.1636304,-1.210144,-4.626565,-1.97515,0.4870451,1.372111,0.4325151,-1.01627,0.8372878,8.9,100,-0.4226846,-0.1415645,0.3149591,-0.4426286,1.339188,0.6883992,0.6609708,1.468476,0.3746417,-0.04101225,0.09797509,-0.02978675,-0.9966944,0.2256583,-0.009788449,0.7598324,1.484578,0.2069514,0.1842484,1.411808,0.2874422,288.0938,145.0493,101.6686,True
2,1.488891,-0.8636878,0.08850028,-0.1582795,-1.210205,-4.628464,-1.964702,0.4857982,1.374142,0.4319894,-1.005713,0.9509646,8.9,100,-0.4852265,-0.1629279,0.3527423,-0.4403169,1.326796,0.7071145,0.6601738,1.469103,0.3743627,-0.05794039,0.1171637,-0.01581235,-0.9964036,0.2279192,-0.009750365,0.759621,1.484611,0.2069683,0.1823251,1.414311,0.2871717,288.1155,145.021,101.7577,True
2,1.500003,-0.8647349,0.07782913,-0.1614129,-1.209967,-4.630512,-1.95436,0.4844929,1.376361,0.4315093,-0.9946273,0.9980763,9.2,100,-0.5063504,-0.1843519,0.3783592,-0.4382966,1.314478,0.7245026,0.6596178,1.469696,0.3741553,-0.06534562,0.1246225,-0.01042574,-0.9963445,0.2297749,-0.009927998,0.7595357,1.484628,0.2070744,0.1803182,1.416733,0.2869124,288.0891,145.1163,101.6415,True
2,1.511114,-0.8625861,0.07466165,-0.1571398,-1.210042,-4.632369,-1.944201,0.483058,1.378639,0.4310153,-0.9839528,0.9600306,9.2,100,-0.533546,-0.2744108,0.459925,-0.4365102,1.291932,0.7515994,0.6587473,1.47073,0.3739829,-0.0791039,0.1224973,-0.001756586,-0.9960648,0.2313017,-0.009405486,0.759452,1.484675,0.2072117,0.1781741,1.41917,0.2867473,288.0318,145.365,101.4016,True
2,1.522225,-0.8508716,0.07576413,-0.1550313,-1.210255,-4.634295,-1.934449,0.4815779,1.381105,0.4303563,-0.9728155,1.002253,9.2,100,-0.5921556,-0.3489605,0.4876266,-0.4363765,1.270693,0.7793214,0.6579182,1.4714,0.3736699,-0.09804302,0.1427805,0.02395743,-0.9948893,0.2340052,-0.009116533,0.7593957,1.484618,0.2074027,0.1760358,1.421537,0.2866997,288.0242,145.5808,101.2969,True
2,1.533336,-0.8444603,0.07904099,-0.142279,-1.210741,-4.635793,-1.924775,0.4797587,1.383545,0.4297996,-0.9612216,1.043387,9.2,100,-0.6630447,-0.3180382,0.521675,-0.433275,1.255758,0.8027132,0.6570874,1.472095,0.3733623,-0.11701,0.190764,0.04959816,-0.9934224,0.2386712,-0.009731723,0.7592992,1.484623,0.2076764,0.173842,1.423835,0.2867379,288.0251,145.8552,101.1602,True
2,1.544447,-0.8487296,0.09187479,-0.1306187,-1.211784,-4.637391,-1.91465,0.4779254,1.38587,0.429188,-0.9495858,1.046748,9.2,100,-0.6629127,-0.2796571,0.5188003,-0.4306875,1.243358,0.821162,0.6561375,1.47274,0.3730018,-0.1493476,0.2545688,0.01992745,-0.9945426,0.2445585,-0.01022228,0.7592142,1.484838,0.2080595,0.1714985,1.426096,0.2868253,287.9681,146.2229,100.945,True
2,1.555558,-0.8637044,0.1174118,-0.1285928,-1.213331,-4.639611,-1.903864,0.476016,1.388074,0.4283149,-0.9370514,1.128453,7.8,100,-0.6611203,-0.1874758,0.451381,-0.4281031,1.240977,0.830564,0.6547431,1.473519,0.3726282,-0.2070502,0.2832257,0.006599683,-0.9948771,0.2492957,-0.008550878,0.7590935,1.484978,0.2083559,0.1689323,1.428341,0.2869227,287.881,146.6538,100.681,True
2,1.566669,-0.8732927,0.1366647,-0.1094977,-1.21522,-4.640972,-1.893333,0.4740085,1.390327,0.4274979,-0.9237611,1.196701,7.8,100,-0.6592583,-0.0686219,0.3799204,-0.4244173,1.243579,0.8355812,0.6534124,1.474403,0.3722692,-0.2562946,0.2948274,-0.01529788,-0.9957762,0.2536051,-0.006373744,0.7589643,1.485144,0.2086024,0.1660924,1.430545,0.2870128,287.7725,147.0165,100.4734,True
2,1.577781,-0.88073,0.150613,-0.08505592,-1.217156,-4.641783,-1.883046,0.4720213,1.392565,0.4267089,-0.9101422,1.226039,7.8,100,-0.6709946,0.0169529,0.3445444,-0.4203672,1.243914,0.84312,0.6519713,1.475318,0.3718457,-0.2766138,0.2787969,-0.0246379,-0.9963754,0.2565555,-0.004321245,0.7588493,1.48519,0.2088296,0.1630486,1.432658,0.2870954,287.6158,147.4045,100.2697,True
2,1.588892,-0.8859795,0.1497123,-0.05201855,-1.218886,-4.641664,-1.872886,0.4703619,1.39482,0.4258268,-0.8967007,1.209493,7.8,100,-0.7071291,0.06086484,0.3346605,-0.4166201,1.2406,0.8553205,0.6507958,1.476126,0.3713903,-0.3096488,0.2531758,-0.02849711,-0.9967999,0.2587639,-0.0008910937,0.7585384,1.485307,0.2090623,0.1598451,1.434688,0.287145,287.4147,147.9513,99.94382,True
2,1.600003,-0.8838688,0.1625678,-0.04142487,-1.221208,-4.642433,-1.862764,0.4688078,1.396879,0.4251099,-0.8831969,1.215232,9,100,-0.7108771,0.1043063,0.3649018,-0.4113023,1.235343,0.8681836,0.6496694,1.476749,0.370971,-0.3289079,0.2552637,-0.03683227,-0.9975493,0.262317,0.001374191,0.7582852,1.485439,0.2094038,0.1566072,1.436633,0.2871287,287.1721,148.6381,99.47611,True
2,1.611114,-0.8881236,0.1636355,-0.0382358,-1.222805,-4.643395,-1.852433,0.4671159,1.399162,0.4242485,-0.8692622,1.254397,9,100,-0.6771954,0.1218241,0.4179541,-0.4057288,1.226103,0.8829591,0.6485437,1.477234,0.3705256,-0.325514,0.2542503,-0.0176909,-0.9970992,0.2656703,0.003018693,0.7578887,1.485507,0.2096927,0.1535258,1.438454,0.2870067,286.9032,149.421,98.9156,True
2,1.622225,-0.891338,0.16144,-0.04887003,-1.224201,-4.644806,-1.842059,0.4657021,1.401322,0.4232759,-0.8556625,1.223376,9,100,-0.666393,0.1216649,0.4316767,-0.4015189,1.218135,0.8972067,0.6475738,1.477704,0.370049,-0.2880067,0.2906205,0.001698431,-0.9966539,0.2701006,0.003169694,0.757599,1.485615,0.2100186,0.1508004,1.44012,0.2867199,286.6465,150.2805,98.24812,True
2,1.633336,-0.8955616,0.1368322,-0.06578206,-1.224438,-4.646329,-1.831715,0.464312,1.403761,0.422178,-0.8414726,1.277518,9,100,-0.6658319,0.08357888,0.3993867,-0.3999221,1.211129,0.9109016,0.6467943,1.478042,0.3696592,-0.2516752,0.3034339,0.01977979,-0.9956377,0.2753357,0.001145426,0.7572854,1.48566,0.2102726,0.1483389,1.44169,0.2862843,286.4517,151.0256,97.56423,True
2,1.644447,-0.8869506,0.08560396,-0.08790242,-1.22326,-4.647844,-1.821544,0.4630267,1.406029,0.4211915,-0.8273419,1.271489,9,100,-0.6428957,-0.008050054,0.3877214,-0.3999088,1.19782,0.9294707,0.6459488,1.478484,0.3692541,-0.2068194,0.2768866,0.02791617,-0.9949831,0.2780733,0.0005334312,0.756924,1.485725,0.2106264,0.1459162,1.44328,0.2857186,286.3145,151.7933,96.79893,True
2,1.655559,-0.892239,0.04814817,-0.116464,-1.222045,-4.649967,-1.810742,0.4617518,1.408296,0.420306,-0.8130833,1.283252,8.5,100,-0.6159225,-0.1080754,0.3599471,-0.4019477,1.184237,0.9478253,0.6451851,1.478853,0.3689563,-0.2100441,0.2736789,0.02476128,-0.9948131,0.2815696,0.001078048,0.7566489,1.485803,0.2108676,0.143549,1.444901,0.2851003,286.214,152.6115,95.99792,True
2,1.66667,-0.8964666,0.0224766,-0.1333603,-1.22103,-4.651837,-1.800134,0.4604168,1.410483,0.4194863,-0.7988167,1.283825,8.5,100,-0.5507286,-0.2295327,0.3273078,-0.4059148,1.169292,0.9652849,0.6443897,1.479177,0.3686309,-0.2208511,0.2853579,0.01099203,-0.9951839,0.286026,0.001561944,0.7562739,1.485897,0.2110617,0.1412077,1.446566,0.284466,286.1913,153.4748,95.19086,True
2,1.677781,-0.9102494,-0.01183857,-0.1437726,-1.2185,-4.652752,-1.789258,0.4591647,1.41291,0.4183805,-0.7838866,1.344421,8.5,100,-0.5159097,-0.2401058,0.3002051,-0.4068255,1.160261,0.9781352,0.6434876,1.479631,0.368295,-0.2176824,0.2896174,0.00881491,-0.9951919,0.2900023,0.00166847,0.755998,1.485938,0.2114129,0.1389596,1.448184,0.2838895,286.2629,154.167,94.54649,True
2,1.688892,-0.9208468,-0.02996118,-0.14046,-1.217311,-4.65403,-1.77828,0.4579609,1.414921,0.4175954,-0.7693713,1.305927,8.5,100,-0.4951247,-0.2291084,0.2478614,-0.4081049,1.155279,0.9874846,0.6425712,1.480009,0.3680193,-0.2014916,0.2769072,0.02785556,-0.9942145,0.2931814,0.001561678,0.7558199,1.485991,0.211545,0.1367198,1.449757,0.2834466,286.3332,154.8411,93.88758,True
2,1.700003,-0.9261414,-0.03100826,-0.128725,-1.216607,-4.654883,-1.767595,0.456728,1.417019,0.4168813,-0.7541806,1.368084,8.5,100,-0.5009024,-0.2212476,0.2032412,-0.4095393,1.150914,0.9972967,0.6416169,1.480518,0.3677309,-0.1929309,0.2524172,0.02889754,-0.9938331,0.295495,0.002144377,0.7555575,1.486082,0.2117326,0.134433,1.451283,0.2831622,286.343,155.6028,93.22272,True
2,1.711114,-0.9186954,-0.01924574,-0.1224158,-1.21654,-4.656097,-1.757177,0.4555956,1.419015,0.4162908,-0.739513,1.31965,10.8,100,-0.5129281,-0.1878229,0.1621041,-0.4101726,1.148964,1.005376,0.6407095,1.481131,0.3674242,-0.2004531,0.2182964,0.01840682,-0.9940196,0.2971422,0.003734817,0.7553039,1.486187,0.2118502,0.1321406,1.452749,0.2829283,286.3501,156.6237,92.42926,True
2,1.722225,-0.9133629,-0.003133327,-0.1001416,-1.216994,-4.656557,-1.747023,0.4544971,1.420968,0.4156144,-0.7250051,1.305522,10.8,100,-0.5015447,-0.1349972,0.2092999,-0.4077001,1.140759,1.018143,0.6399225,1.481631,0.3670869,-0.2324938,0.2054477,0.00918428,-0.994174,0.2993409,0.006179066,0.7549688,1.486356,0.2119825,0.1299316,1.454128,0.2827343,286.3268,157.5576,91.67067,True
2,1.733337,-0.9006484,0.03961352,-0.07908657,-1.21874,-4.65704,-1.737265,0.4534404,1.422864,0.4150512,-0.7106901,1.287878,10.8,100,-0.4727809,-0.1081551,0.2965876,-0.404671,1.126637,1.035367,0.6391115,1.482147,0.3666348,-0.2526902,0.2065013,0.01365078,-0.9938188,0.3022382,0.008093347,0.7546268,1.486381,0.2121024,0.1277893,1.455444,0.2825715,286.2616,158.4795,90.85422,True
2,1.744448,-0.8964692,0.08125339,-0.06440686,-1.220957,-4.657773,-1.727134,0.4524491,1.424794,0.4144604,-0.6959415,1.327634,10.8,100,-0.4810835,-0.06850234,0.3992955,-0.4001778,1.109902,1.056468,0.6384334,1.482413,0.3660884,-0.2566794,0.2118912,0.04031413,-0.9923732,0.3052762,0.00931121,0.7543058,1.486408,0.2121613,0.125734,1.456694,0.282478,286.1702,159.3582,90.0532,True
2,1.755559,-0.9029076,0.100441,-0.05487564,-1.222587,-4.658115,-1.71648,0.4514256,1.426742,0.4139144,-0.6814891,1.30019,13.6,100,-0.4871174,-0.05272199,0.4261294,-0.3974076,1.096873,1.074163,0.6377132,1.482709,0.3656027,-0.2137918,0.2290602,0.06859516,-0.9906778,0.3090576,0.008123972,0.7539922,1.48644,0.2124131,0.1237467,1.457884,0.2824239,286.0187,160.2801,89.23967,True
2,1.76667,-0.9071589,0.09723097,-0.05591746,-1.223408,-4.658988,-1.705944,0.450372,1.428875,0.4132376,-0.6663453,1.363581,13.6,100,-0.4869991,-0.07658961,0.349189,-0.3986326,1.092842,1.083307,0.6371417,1.483019,0.3652382,-0.1616542,0.2440267,0.06377271,-0.9899854,0.3129799,0.005999569,0.7537352,1.48649,0.2125361,0.1218065,1.45903,0.2824007,285.8098,161.243,88.37653,True
2,1.777781,-0.9123315,0.02891974,-0.07256924,-1.221197,-4.659854,-1.695255,0.4494488,1.431197,0.4123824,-0.6507615,1.403278,13.6,100,-0.4792787,-0.1262335,0.294353,-0.4007141,1.08563,1.095016,0.6365424,1.483505,0.3649049,-0.1576018,0.2237327,0.04141134,-0.9903215,0.3150731,0.006597981,0.7535311,1.486609,0.2127051,0.1198733,1.460173,0.282399,285.5963,162.3431,87.37938,True
2,1.788892,-0.9036896,-0.02548151,-0.09040849,-1.218978,-4.661201,-1.68505,0.4486091,1.433429,0.4116616,-0.6361189,1.316975,13.6,100,-0.4484626,-0.190668,0.2135625,-0.404825,1.081479,1.102722,0.6359993,1.483923,0.3646328,-0.1975929,0.1660041,-0.02191933,-0.9922699,0.3150518,0.01009098,0.7534896,1.486822,0.2127299,0.1179062,1.46138,0.2823724,285.434,163.6215,86.23169,True
2,1.800003,-0.8843386,-0.1150907,-0.1240696,-1.214389,-4.663336,-1.675009,0.4479836,1.435677,0.4109724,-0.6211328,1.349124,13.6,100,-0.4069844,-0.1993456,0.20985,-0.4060058,1.073475,1.113179,0.6354027,1.484514,0.3644063,-0.2276672,0.1456633,-0.04814338,-0.9929841,0.3163999,0.01276639,0.7534568,1.486983,0.2127635,0.1159083,1.462699,0.2822798,285.3845,164.9303,85.09938,True
2,1.811115,-0.8597015,-0.1865582,-0.1546434,-1.209829,-4.665696,-1.665385,0.447486,1.437924,0.4103167,-0.6068636,1.283212,14,100,-0.3896672,-0.1844306,0.3259267,-0.4040591,1.054082,1.134699,0.634665,1.485017,0.3640614,-0.2542481,0.1403164,-0.04359522,-0.9933511,0.3180453,0.01566791,0.7532586,1.487074,0.2127953,0.1140094,1.464085,0.2820883,285.5026,166.1267,84.09815,True
2,1.822226,-0.8490192,-0.2036406,-0.1641656,-1.206761,-4.667644,-1.655489,0.4468856,1.440022,0.4095297,-0.5924132,1.300347,14,100,-0.3970798,-0.1564068,0.4157441,-0.4016744,1.035254,1.156687,0.6340417,1.485452,0.3636029,-0.2474385,0.1468177,-0.002134617,-0.9918171,0.320309,0.01692252,0.7529976,1.487108,0.2128792,0.1123181,1.465456,0.2818631,285.7028,166.9264,83.40685,True
2,1.833337,-0.8457841,-0.2206903,-0.1672883,-1.203666,-4.669518,-1.645453,0.4463557,1.441894,0.4089518,-0.5779219,1.303812,14,100,-0.4060944,-0.08520254,0.4409499,-0.3978246,1.022941,1.172902,0.6335727,1.485667,0.3631351,-0.209595,0.1715055,0.05495211,-0.9889052,0.3236421,0.01601226,0.7523253,1.486986,0.2130296,0.1108732,1.466691,0.2817136,286.0028,167.4951,82.88531,True
2,1.844448,-0.8436065,-0.2259375,-0.1534165,-1.200912,-4.670656,-1.635714,0.4457344,1.443914,0.4083011,-0.5624788,1.390767,14,100,-0.406646,-0.0602183,0.3815033,-0.3972179,1.018248,1.181861,0.6331744,1.486143,0.3626788,-0.1584623,0.1982021,0.05654081,-0.9876972,0.3274341,0.01379011,0.7522371,1.487034,0.2131977,0.1095478,1.467744,0.2817211,286.2578,168.1068,82.32182,True
2,1.855559,-0.8392714,-0.2418402,-0.1416296,-1.197756,-4.671734,-1.626028,0.4452779,1.445891,0.407661,-0.5471997,1.375112,11.9,100,-0.3936767,-0.08951257,0.3118662,-0.3986406,1.013408,1.190287,0.6328859,1.486603,0.3623283,-0.1460772,0.1885327,0.01702066,-0.9888157,0.3295408,0.01396535,0.752063,1.487173,0.2132714,0.1081585,1.468624,0.2818753,286.3817,168.9306,81.61841,True
2,1.86667,-0.821088,-0.2619816,-0.133049,-1.194139,-4.672918,-1.61693,0.445069,1.447681,0.4071281,-0.5321752,1.352012,11.9,100,-0.3614543,-0.1371473,0.2567814,-0.4013139,1.007339,1.198917,0.6328188,1.487127,0.3620701,-0.1497926,0.1404607,-0.03924126,-0.9906565,0.3296344,0.01561012,0.7520801,1.487246,0.213201,0.1066899,1.469308,0.2821578,286.4702,170.0222,80.70894,True
2,1.877781,-0.8007909,-0.2757335,-0.1255657,-1.190557,-4.673976,-1.608277,0.4448143,1.449429,0.4065969,-0.5171875,1.348836,11.9,100,-0.3433259,-0.1607575,0.2681004,-0.4024462,0.9967622,1.211949,0.6326559,1.487564,0.3617671,-0.1563555,0.07114613,-0.06350924,-0.9921303,0.3278197,0.01859632,0.7520554,1.487264,0.2130768,0.1051302,1.469839,0.2824792,286.5525,171.4874,79.49052,True
2,1.888893,-0.7666383,-0.2787069,-0.1021996,-1.187357,-4.674312,-1.600767,0.4448097,1.450883,0.4060268,-0.5027771,1.296057,11.9,100,-0.3232853,-0.1508358,0.3425491,-0.4015104,0.9795958,1.230559,0.6328477,1.487945,0.3614559,-0.156211,0.02643347,-0.05484687,-0.9919918,0.3267928,0.02082193,0.7517993,1.487132,0.2130802,0.1036753,1.470205,0.2827936,286.6918,173.0618,78.17135,True
2,1.900004,-0.7305184,-0.2263478,-0.0865974,-1.186305,-4.674866,-1.593674,0.4448146,1.451944,0.4052317,-0.4881563,1.315736,11.9,100,-0.2840522,-0.1743946,0.3355331,-0.4030188,0.9689466,1.242362,0.6328216,1.488174,0.3609571,-0.14748,0.01690756,-0.03675879,-0.9912254,0.3268479,0.02195643,0.7517318,1.487009,0.2130067,0.1024708,1.470368,0.2831042,286.885,174.436,76.9959,True
2,1.911115,-0.6998969,-0.1239646,-0.08081069,-1.188328,-4.675687,-1.58676,0.4447181,1.452877,0.4046302,-0.4739143,1.280836,10,100,-0.2689692,-0.1810044,0.3534247,-0.4037656,0.9563029,1.256433,0.6327208,1.488263,0.3604822,-0.1292699,0.006296001,-0.02839961,-0.9911684,0.3264376,0.02293647,0.7515559,1.486986,0.2129855,0.101469,1.47032,0.2834015,287.0629,175.6418,75.95364,True
2,1.922226,-0.6842251,-0.01097041,-0.07612354,-1.191724,-4.676624,-1.579422,0.4445097,1.453826,0.4041567,-0.4592696,1.317892,10,100,-0.2675696,-0.1011012,0.35302,-0.4010646,0.9486089,1.266354,0.6326306,1.488417,0.3601444,-0.1283063,0.05742408,-0.03381724,-0.9912701,0.329381,0.02249359,0.75148,1.487022,0.2131016,0.100701,1.469967,0.2836619,287.1522,176.6782,75.10447,True
2,1.933337,-0.67579,0.04352398,-0.04766662,-1.193607,-4.676248,-1.572497,0.4441513,1.454847,0.4036443,-0.4443095,1.346384,10,100,-0.2590098,-0.07872131,0.3477908,-0.4000862,0.9396839,1.2771,0.6324782,1.488672,0.3598607,-0.108878,0.1097146,-0.004317281,-0.990338,0.3327709,0.02113937,0.7513036,1.487099,0.2130868,0.09997267,1.469279,0.2838441,287.0959,177.8346,74.09674,True
2,1.944448,-0.6704439,0.0564386,-0.02538298,-1.194463,-4.675829,-1.565569,0.443838,1.455993,0.4032722,-0.4286619,1.408987,10,100,-0.2464722,-0.07431879,0.3242417,-0.400223,0.9326121,1.285966,0.6324487,1.489023,0.3597255,-0.09160179,0.1023238,0.01580516,-0.9889356,0.3337002,0.02084403,0.7512625,1.487067,0.2130365,0.09907927,1.468327,0.2840036,286.9225,179.4372,72.50453,True
2,1.955559,-0.6596842,0.03848262,-0.0008058548,-1.194193,-4.674875,-1.559011,0.4436166,1.457013,0.4028971,-0.4132976,1.382638,10.2,100,-0.2241806,-0.1173412,0.2352062,-0.4029554,0.9313743,1.288824,0.6323854,1.489321,0.3594816,-0.08416595,0.06396338,0.009421049,-0.9891587,0.3328601,0.02196629,0.7512137,1.487034,0.2128217,0.09792913,1.467233,0.2842161,286.7621,181.5368,70.38532,True
2,1.966671,-0.6800208,0.08644924,0.01496516,-1.196676,-4.674197,-1.551167,0.4436421,1.458342,0.4024162,-0.3980808,1.369498,10.2,100,-0.2326772,-0.1517605,0.1529599,-0.4059978,0.9323674,1.290829,0.6322984,1.489556,0.3593378,-0.0845067,0.0340609,-0.02670766,-0.9904056,0.3323608,0.02317882,0.7510801,1.486959,0.2127044,0.09661561,1.466064,0.2844622,286.7393,183.8106,68.18656,True
2,1.977782,-0.5944483,-0.0379623,0.01223062,-1.191725,-4.674159,-1.547706,0.4437721,1.459065,0.401782,-0.3830909,1.348827,10.2,100,-0.23355,-0.1991737,0.09078165,-0.4099766,0.9321867,1.293684,0.6324587,1.489981,0.3591812,-0.07958024,0.01799094,-0.06721068,-0.9925132,0.3320675,0.02401639,0.7511179,1.486963,0.2126398,0.095348,1.464857,0.2847296,286.8352,185.9782,66.14355,True
2,1.988893,-0.5049543,-0.03233197,0.02158384,-1.191466,-4.673628,-1.545448,0.4438679,1.460028,0.4011426,-0.3668163,1.466499,10.2,100,-0.1881891,-0.2340517,0.1613665,-0.412423,0.9195347,1.305844,0.6325614,1.490247,0.358917,-0.08193121,0.000893034,-0.09056783,-0.9940137,0.3315544,0.02520203,0.7510546,1.487029,0.212501,0.0943048,1.463634,0.2849845,286.9332,188.155,64.10561,True
2,2.000004,-0.4581855,0.007237285,0.02445802,-1.193096,-4.673289,-1.541869,0.4439798,1.46041,0.4007537,-0.3561307,0.9544037,10.2,100,-0.140144,-0.1518182,0.2382489,-0.4101098,0.9079412,1.316492,0.6325685,1.490369,0.3583691,-0.1140837,-0.03435313,-0.1125275,-0.9960483,0.3296816,0.02862099,0.7510444,1.486939,0.2126429,0.09357201,1.462527,0.2851765,287.0344,190.2834,62.14505,True
2,2.011115,-0.4518656,0.03068039,0.02218927,-1.194239,-4.673086,-1.537185,0.4439237,1.461033,0.4004092,-0.3422481,1.251083,9.7,100,-0.1401918,-0.01046234,0.2778083,-0.4045762,0.9000373,1.325303,0.6324761,1.490453,0.3579404,-0.1554594,-0.01304623,-0.09399666,-0.9959786,0.3304292,0.03121917,0.751182,1.486964,0.2126002,0.0932038,1.461223,0.2853548,287.2969,190.7865,61.78816,True
2,2.022226,-0.4369239,0.03078388,0.03387413,-1.194614,-4.672178,-1.533052,0.443791,1.461745,0.4004037,-0.3255102,1.50898,9.7,100,-0.1497201,0.02373526,0.2696715,-0.4029725,0.8948188,1.332101,0.6323392,1.4906,0.357666,-0.1400215,0.05634634,-0.03677536,-0.9942864,0.3338766,0.03025964,0.7512303,1.486781,0.2127202,0.09292948,1.459522,0.285598,287.3222,191.3953,61.19451,True
2,2.033337,-0.4250826,-0.01501298,0.03090145,-1.192891,-4.671885,-1.528811,0.4436635,1.46263,0.4001057,-0.3088122,1.50345,9.7,100,-0.1787928,0.0155512,0.2443452,-0.4026332,0.8901495,1.339406,0.6322478,1.490649,0.3575051,-0.099207,0.08310436,-0.002109757,-0.993211,0.3358604,0.02890781,0.751101,1.486771,0.2127051,0.09251912,1.457312,0.2859871,287.2393,192.8123,59.74068,True
2,2.044448,-0.4024996,-0.09488839,0.02275065,-1.189236,-4.672045,-1.525029,0.4435217,1.463654,0.3997302,-0.2936588,1.362629,9.7,100,-0.1776422,-0.04566226,0.1766919,-0.4051776,0.8893009,1.342016,0.6321867,1.49089,0.3575838,-0.05199455,0.09922057,0.03146596,-0.9915034,0.3377846,0.02678101,0.751032,1.48658,0.212718,0.09181079,1.454712,0.2865421,287.3654,195.1883,57.3507,True
2,2.055559,-0.3628681,-0.1682726,0.02518326,-1.185054,-4.671777,-1.52234,0.4435067,1.464572,0.3992286,-0.2785677,1.358208,9.7,100,-0.1700787,-0.1218964,0.1173639,-0.4092528,0.8889033,1.343989,0.6322242,1.491148,0.3575466,-0.04677011,0.09067985,0.02077718,-0.9916205,0.338643,0.02663161,0.7510333,1.486515,0.2126687,0.09090541,1.451872,0.2872828,287.7148,197.9049,54.68556,True
2,2.06667,-0.3308672,-0.1788206,0.02730141,-1.18285,-4.671411,-1.519965,0.4435261,1.465264,0.3987372,-0.2639736,1.312671,8.9,94.8,-0.1275512,-0.1604882,0.1250972,-0.4119511,0.8833997,1.349138,0.6324151,1.491484,0.3573337,-0.06153124,0.01480942,-0.07476223,-0.9956947,0.3358931,0.02934883,0.751287,1.486432,0.2124851,0.0899032,1.448946,0.2881803,288.2498,200.5139,52.24467,True
2,2.077781,-0.283088,-0.1286488,0.02053559,-1.183109,-4.671402,-1.518505,0.443636,1.465759,0.3982048,-0.2496985,1.283861,8.9,94.8,-0.1183984,-0.0851298,0.1544127,-0.409697,0.8773237,1.355749,0.6323874,1.491618,0.3568077,-0.08962227,-0.03112782,-0.1169804,-0.9984367,0.3338098,0.03243198,0.7513077,1.486447,0.2124369,0.08895367,1.446028,0.2892202,288.8622,202.6926,50.30641,True
2,2.088892,-0.2535084,-0.03479204,0.02422938,-1.186064,-4.670897,-1.516948,0.4436107,1.465967,0.3978035,-0.2347379,1.346702,8.9,94.8,-0.1384028,-0.05209099,0.1634266,-0.4087542,0.8728355,1.362071,0.6322807,1.491731,0.3564823,-0.1217159,-0.03438405,-0.129456,-1.00073,0.3334625,0.03523495,0.7509446,1.486565,0.2123649,0.08822051,1.4431,0.2903567,289.375,204.5167,48.77625,True
2,2.100003,-0.2441334,0.04516518,0.030177,-1.189096,-4.670141,-1.514763,0.4434472,1.466499,0.3974843,-0.2204224,1.287092,8.9,94.8,-0.1695567,-0.002360322,0.2185265,-0.4065614,0.8629716,1.374062,0.6321824,1.491799,0.3561382,-0.1063607,0.01154647,-0.08181563,-1.000363,0.3354848,0.03483947,0.7509952,1.486607,0.2124302,0.08770686,1.440127,0.2915202,289.7035,206.4063,47.18399,True
2,2.111114,-0.2505549,0.05580162,0.0301385,-1.190034,-4.669673,-1.51192,0.4431496,1.467071,0.3972087,-0.2048333,1.40417,8.2,86.3,-0.183429,0.01695229,0.2092476,-0.4053832,0.8583731,1.380793,0.6320385,1.491901,0.3559494,-0.07383829,0.06179009,-0.02261212,-0.9985927,0.3382201,0.03311295,0.7507958,1.48659,0.2124779,0.08734578,1.43705,0.2926687,289.8725,208.4251,45.41986,True
2,2.122225,-0.266355,-0.01245872,0.02307831,-1.187521,-4.669789,-1.508342,0.4427989,1.4679,0.3969626,-0.1887031,1.452531,8.2,86.3,-0.180552,-0.004190497,0.1877323,-0.4060175,0.8546394,1.386069,0.6319667,1.492077,0.3559661,-0.0607651,0.07998228,0.007036401,-0.9975823,0.3398629,0.03247325,0.7507386,1.486458,0.2126091,0.08696948,1.433836,0.2937495,290.0015,210.7567,43.29009,True
2,2.133336,-0.2683338,-0.07109585,0.01593529,-1.18486,-4.670023,-1.505214,0.4426143,1.46872,0.3965855,-0.172812,1.430506,8.2,86.3,-0.1603523,-0.09104674,0.1185895,-0.4101902,0.8554747,1.38632,0.6318958,1.492258,0.3559716,-0.05230333,0.08851222,0.0026477,-0.9979616,0.3414906,0.03202211,0.7507084,1.486549,0.2125759,0.08645394,1.430564,0.2947102,290.3182,213.1841,41.0174,True
2,2.144447,-0.247932,-0.1318053,0.006615087,-1.181455,-4.670581,-1.503043,0.4425848,1.469394,0.3962023,-0.1571009,1.414335,8.2,86.3,-0.1276812,-0.1293817,0.0997983,-0.4127569,0.8526577,1.389186,0.6318374,1.492447,0.3559608,-0.05910929,0.05005532,-0.03983493,-1.000378,0.3405802,0.03364531,0.7510428,1.486629,0.212482,0.08577871,1.42733,0.2955681,290.8806,215.1316,39.15966,True
2,2.155558,-0.218114,-0.1349607,-0.001958273,-1.179842,-4.671016,-1.501441,0.4425921,1.469959,0.3958011,-0.1424759,1.315206,8.2,86.3,-0.09602831,-0.1175181,0.0665374,-0.4135948,0.8527932,1.389069,0.6317145,1.492668,0.3556929,-0.0914627,0.00837101,-0.08201873,-1.002771,0.3391633,0.0364917,0.7511284,1.48646,0.2123866,0.08505075,1.424257,0.2964168,291.6074,216.5545,37.7843,True
2,2.166669,-0.2032978,-0.1051184,-0.007476147,-1.179726,-4.671325,-1.499633,0.4425566,1.470461,0.3954742,-0.1286483,1.243298,8.4,76.5,-0.1065685,-0.06411438,0.05645271,-0.4124672,0.8525761,1.390819,0.6316906,1.492958,0.3554041,-0.11395,-0.00125432,-0.09247916,-1.004908,0.3391052,0.03882063,0.7508447,1.486373,0.2122967,0.08448798,1.421406,0.2973448,292.2558,217.6873,36.72966,True
2,2.17778,-0.182159,-0.05073518,-0.009947874,-1.181326,-4.671476,-1.498188,0.4425201,1.470772,0.3952594,-0.1143609,1.285842,8.4,76.5,-0.1316603,-0.03980148,0.09102908,-0.4117801,0.8471271,1.398137,0.6316062,1.493218,0.3550773,-0.1095479,0.02221993,-0.07660306,-1.005213,0.3403006,0.03915672,0.7508004,1.486221,0.2123234,0.08419201,1.418696,0.2984303,292.736,218.5807,35.96552,True
2,2.188891,-0.174831,-0.007051986,-0.01339373,-1.182752,-4.671655,-1.496415,0.4423768,1.471148,0.3951197,-0.09928158,1.357868,8.4,76.5,-0.1608049,-0.00921458,0.1427299,-0.410318,0.8395075,1.407899,0.63143,1.493288,0.3547909,-0.1008545,0.02654855,-0.05864833,-1.006039,0.3411183,0.03975008,0.7506229,1.486099,0.2123215,0.084087,1.416005,0.2996858,293.06,219.6408,35.10049,True
2,2.200002,-0.1790802,-0.01134684,-0.0165549,-1.182355,-4.671915,-1.494235,0.4422095,1.471705,0.3949168,-0.08587576,1.20593,8.4,76.5,-0.1777036,-0.002845116,0.1536257,-0.4098786,0.8344218,1.415051,0.6313895,1.493495,0.3545632,-0.09106712,0.03619786,-0.03648121,-1.00686,0.3418613,0.04042279,0.7508535,1.486166,0.2122669,0.08404233,1.41328,0.3010524,293.3592,221.0683,33.93,True
2,2.211113,-0.1778906,-0.05929865,-0.01949761,-1.180127,-4.672361,-1.492019,0.4420865,1.472338,0.3947837,-0.07373494,1.093298,6.4,87.3,-0.1545585,-0.0411859,0.1413246,-0.4113199,0.8312505,1.418989,0.6314826,1.493694,0.3545861,-0.06852388,0.05757543,-0.01758914,-1.006365,0.3434651,0.03959401,0.7508343,1.486104,0.2122176,0.08397875,1.410565,0.3024289,293.7017,222.7206,32.55747,True
2,2.222224,-0.1596306,-0.1157349,-0.02457212,-1.177112,-4.673124,-1.490471,0.442098,1.47297,0.3946159,-0.06315313,0.9527141,6.4,87.3,-0.1111691,-0.09031659,0.1329822,-0.4139074,0.8271467,1.422443,0.6314964,1.493959,0.354543,-0.0643383,0.04690477,-0.02613254,-1.007027,0.3436598,0.04008643,0.7508417,1.486058,0.2122309,0.08382083,1.407999,0.3037105,294.1794,224.3135,31.22807,True
2,2.233335,-0.1414283,-0.1605171,-0.04035214,-1.174002,-4.674292,-1.488969,0.4421514,1.473498,0.3944187,-0.05445153,0.7828247,6.4,87.3,-0.0550331,-0.11702,0.1129651,-0.4161136,0.8251032,1.422944,0.6314809,1.493967,0.3543737,-0.07632668,0.006341003,-0.05578953,-1.009407,0.3421478,0.04232908,0.7511542,1.486064,0.2121148,0.08359718,1.405779,0.3048218,294.789,225.506,30.25273,True
2,2.244446,-0.1307633,-0.1711994,-0.05203906,-1.171924,-4.675514,-1.487476,0.4421242,1.474,0.3942773,-0.04777871,0.5994481,6.4,87.3,-0.04573771,-0.08476384,0.07372785,-0.4158473,0.8261247,1.422403,0.6312873,1.493982,0.3540187,-0.108477,-0.01077759,-0.07568914,-1.011376,0.3416287,0.04503006,0.7511615,1.48594,0.2120073,0.0834051,1.40408,0.3057566,295.3847,226.1728,29.72783,True
2,2.255557,-0.1233151,-0.1776379,-0.06373571,-1.169802,-4.676808,-1.485758,0.4420266,1.474526,0.394136,-0.04160816,0.5555767,6.4,87.3,-0.06023858,-0.02196719,0.0872117,-0.4138882,0.82291,1.426481,0.6310726,1.494182,0.353653,-0.111504,0.01269872,-0.05653654,-1.011281,0.3427656,0.04576802,0.7510892,1.485991,0.2119801,0.08332477,1.402957,0.3065581,295.8032,226.4011,29.58885,True
2,2.266668,-0.1222669,-0.1765966,-0.06907403,-1.167994,-4.678071,-1.483876,0.4418437,1.47505,0.3940256,-0.03606559,0.4989915,6.8,81.6,-0.06517491,-0.008353941,0.1182744,-0.4131522,0.8172044,1.432624,0.630812,1.494356,0.353472,-0.100582,0.03622292,-0.02692067,-1.01108,0.344252,0.04585564,0.7509614,1.486062,0.2119498,0.08330333,1.402362,0.3072819,296.0192,226.4123,29.64843,True
2,2.277779,-0.1254601,-0.1808894,-0.07330535,-1.165901,-4.679354,-1.481846,0.4416064,1.475656,0.393975,-0.03105619,0.4511028,6.8,81.6,-0.0743301,0.007372744,0.1515367,-0.4123495,0.8101353,1.440096,0.6306288,1.494557,0.3533316,-0.08745438,0.05762808,0.009115,-1.009645,0.3457744,0.04560104,0.7508552,1.486048,0.2119508,0.0832251,1.402207,0.3079611,296.0927,226.3888,29.75246,True
2,2.28889,-0.1200929,-0.2043533,-0.08170757,-1.162933,-4.680948,-1.48005,0.4414269,1.476364,0.3939037,-0.02673547,0.3889925,6.8,81.6,-0.09812184,-0.02751894,0.1323116,-0.4137306,0.8079582,1.444036,0.6304769,1.494585,0.3530922,-0.08203584,0.06084962,0.01965473,-1.009708,0.3465422,0.04614219,0.7509199,1.486234,0.2119279,0.083015,1.402397,0.3086095,296.1186,226.3066,29.94214,True
2,2.300001,-0.1200051,-0.2417064,-0.09324303,-1.158947,-4.683003,-1.477811,0.4412963,1.477146,0.3937683,-0.02306404,0.3305061,6.8,81.6,-0.1132806,-0.05825506,0.1204924,-0.4153908,0.8052375,1.448112,0.6303009,1.494816,0.3529608,-0.08538245,0.04802415,0.003741891,-1.010238,0.3466834,0.04718029,0.7508917,1.486294,0.2119987,0.08265722,1.402851,0.3092292,296.1321,226.1725,30.19547,True
2,2.311112,-0.1113575,-0.2928806,-0.1047072,-1.154015,-4.685134,-1.476064,0.4412054,1.477898,0.3935783,-0.02040194,0.2389713,6.4,100,-0.09900589,-0.07041138,0.1639236,-0.4162126,0.7963825,1.456764,0.630039,1.495032,0.3527002,-0.09508151,0.06078047,-0.004743958,-1.010956,0.348032,0.04799389,0.7506869,1.486327,0.2120004,0.08220934,1.403508,0.3098333,296.1641,225.9481,30.52847,True
2,2.322223,-0.1017288,-0.313136,-0.1131502,-1.149969,-4.687357,-1.474371,0.4410112,1.478593,0.3933251,-0.01759977,0.252795,6.4,100,-0.07196102,-0.05267213,0.1946812,-0.4158345,0.7886772,1.463695,0.6297435,1.495273,0.352464,-0.1153118,0.07672662,-0.001417801,-1.011258,0.3494152,0.04926874,0.750689,1.48634,0.211931,0.08176888,1.404306,0.3104655,296.222,225.5577,31.01285,True
2,2.333334,-0.09968688,-0.2833076,-0.1143778,-1.147941,-4.689024,-1.472647,0.4407287,1.479218,0.3930995,-0.01586818,0.1549411,6.4,100,-0.05380204,-0.01644988,0.1852121,-0.4146552,0.7845098,1.467535,0.6293837,1.495494,0.352181,-0.1280016,0.08099627,0.0082899,-1.010788,0.3506258,0.05049886,0.7506076,1.486421,0.2119415,0.08137807,1.405191,0.3111754,296.318,225.0547,31.62369,True
2,2.344445,-0.09668241,-0.2054543,-0.09988162,-1.148363,-4.689674,-1.471411,0.4402381,1.479771,0.3928249,-0.01407694,0.1614279,6.4,100,-0.07664191,0.002190832,0.1344792,-0.4139825,0.7854609,1.468248,0.6289476,1.495868,0.3519325,-0.1469692,0.07462971,0.02871801,-1.010021,0.3511909,0.05258305,0.750455,1.48652,0.2119262,0.08102297,1.406089,0.3119895,296.4052,224.5051,32.32972,True
2,2.355556,-0.09796597,-0.1115809,-0.07587596,-1.150394,-4.68953,-1.47028,0.4396799,1.480271,0.3925264,-0.01214348,0.1744264,6.4,100,-0.1346338,-0.01644111,0.09872276,-0.414928,0.7852579,1.471885,0.6283944,1.496312,0.3517799,-0.1596886,0.08528602,0.03627938,-1.009268,0.3527359,0.05401184,0.7503319,1.486638,0.2119451,0.0806124,1.406931,0.3128752,296.4425,224.2146,32.84855,True
2,2.366668,-0.1055347,-0.05824446,-0.05803943,-1.151335,-4.689608,-1.468828,0.4391779,1.480928,0.3922474,-0.0107368,0.1263803,6.2,100,-0.1936625,-0.02225676,0.06095175,-0.4153823,0.7866814,1.474691,0.6278679,1.496703,0.3515568,-0.1789737,0.09269089,0.0268515,-1.009535,0.3542233,0.05592878,0.75017,1.486758,0.2120917,0.0800986,1.407692,0.31371,296.4225,224.3727,33.00134,True
2,2.377779,-0.1109166,-0.03050038,-0.04644897,-1.151931,-4.689581,-1.467383,0.4384726,1.481694,0.3921461,-0.009291769,0.1303761,6.2,100,-0.2011374,-0.02969614,0.0620364,-0.4158467,0.7845974,1.478952,0.6273696,1.49722,0.3513825,-0.192931,0.08305345,0.01530229,-1.009714,0.3548124,0.05825798,0.7500371,1.486916,0.2122262,0.07945941,1.408366,0.3142874,296.35,224.8894,32.8442,True
2,2.38889,-0.1172503,-0.04969449,-0.046336,-1.150642,-4.690376,-1.46557,0.4377912,1.482587,0.3918772,-0.008001734,0.1163182,6.2,100,-0.190205,-0.05132917,0.09582384,-0.4168513,0.7789395,1.485781,0.6268339,1.497665,0.3511558,-0.2048733,0.1170846,-0.002779152,-1.010314,0.3577227,0.05937171,0.749931,1.487057,0.2123346,0.07878601,1.408969,0.3144215,296.297,225.4594,32.54987,True
2,2.400001,-0.1171177,-0.09871978,-0.05033851,-1.147931,-4.691432,-1.463846,0.4370589,1.483523,0.3916023,-0.007075486,0.08323387,6.2,100,-0.1782583,-0.0750833,0.1263797,-0.4183597,0.772816,1.492952,0.6261585,1.498123,0.3508258,-0.2156363,0.1362232,-0.01123749,-1.010545,0.360261,0.06075656,0.7497643,1.487244,0.2124639,0.07813767,1.40957,0.3140815,296.3532,225.7314,32.3121,True
2,2.411112,-0.1180598,-0.145622,-0.05542344,-1.144845,-4.692807,-1.461934,0.4363373,1.484398,0.3912544,-0.00631542,0.06841923,6.2,100,-0.183646,-0.0814255,0.1231874,-0.4193994,0.7694857,1.49824,0.62551,1.498595,0.3505025,-0.231534,0.1596729,-0.000497669,-1.010219,0.3633256,0.06224846,0.7494377,1.487408,0.2125692,0.07743542,1.410262,0.3133803,296.4656,225.6892,32.14727,True
2,2.422223,-0.1190829,-0.1541222,-0.05004932,-1.143028,-4.693403,-1.460436,0.4355159,1.485247,0.3908811,-0.005887717,0.03819296,5.8,91.6,-0.1874639,-0.01440289,0.137646,-0.4169104,0.765396,1.504083,0.6246299,1.499199,0.3501265,-0.2612095,0.1564721,0.01366159,-1.009457,0.3650043,0.06502827,0.7489778,1.487532,0.2127604,0.07666664,1.411129,0.312522,296.6118,225.3028,32.20818,True
2,2.433334,-0.1170243,-0.1210326,-0.03957697,-1.142832,-4.693589,-1.459142,0.4346876,1.486001,0.3906167,-0.005314604,0.05177688,5.8,91.6,-0.2174075,0.02749556,0.1106318,-0.4153573,0.7645714,1.508045,0.6237893,1.499665,0.349741,-0.2717252,0.1511647,0.02656628,-1.008623,0.366693,0.06747411,0.7486637,1.487729,0.2128792,0.07582282,1.412201,0.3117301,296.7263,224.6572,32.53287,True
2,2.444445,-0.1202627,-0.09969322,-0.03116149,-1.142426,-4.69375,-1.457647,0.4338237,1.486652,0.3902948,-0.004930576,0.03439905,5.8,91.6,-0.243065,0.03517271,0.09924088,-0.4145658,0.7634434,1.51255,0.6228733,1.500068,0.3494725,-0.2672711,0.1640165,0.0467407,-1.007163,0.3694273,0.06868052,0.7482601,1.487988,0.2130625,0.07491783,1.413457,0.3111539,296.7548,224.0438,32.95502,True
2,2.455556,-0.1235507,-0.06774471,-0.03025348,-1.142668,-4.693981,-1.456067,0.4329404,1.4873,0.3899884,-0.00456306,0.03309721,5.8,91.6,-0.2525865,0.03943262,0.1036444,-0.4140257,0.7601333,1.518553,0.6220374,1.500481,0.3492551,-0.2588184,0.1821233,0.04234881,-1.006675,0.3724817,0.06962781,0.7478541,1.488231,0.2132523,0.07397,1.414842,0.3107986,296.6682,223.6841,33.30333,True
2,2.466667,-0.1267488,-0.06562456,-0.03025762,-1.142012,-4.694441,-1.45443,0.4319948,1.488062,0.3896608,-0.004001666,0.05085745,4.9,79.7,-0.2462468,0.008455724,0.1107663,-0.4148204,0.7564994,1.52436,0.62128,1.500925,0.3490777,-0.2451048,0.1916948,0.0294106,-1.006532,0.3753086,0.07027736,0.7474269,1.488459,0.2134364,0.0730163,1.416263,0.3105939,296.4989,223.5094,33.58914,True
2,2.477778,-0.127714,-0.09756726,-0.02689092,-1.13986,-4.694883,-1.452803,0.4310454,1.48893,0.3893404,-0.003629889,0.03339512,4.9,79.7,-0.2335124,-0.01935111,0.1167856,-0.4159431,0.7526259,1.530021,0.6204692,1.501368,0.3488553,-0.2376242,0.1970328,0.03252272,-1.005827,0.3779401,0.07123902,0.7470034,1.488631,0.2136858,0.07204767,1.417632,0.3104506,296.3471,223.366,33.89225,True
2,2.488889,-0.1243322,-0.1529004,-0.01701946,-1.136293,-4.695169,-1.45148,0.4300338,1.489734,0.3889279,-0.003424825,0.01832316,4.9,79.7,-0.2082849,-0.03734988,0.09184445,-0.4168673,0.7524818,1.531512,0.6196098,1.501761,0.3486559,-0.2227565,0.2002299,0.02810687,-1.005412,0.3805732,0.07174689,0.7464427,1.488754,0.2138617,0.07105209,1.418917,0.3103003,296.2505,223.2737,34.11343,True
2,2.5,-0.1146323,-0.1922935,-0.017898,-1.13291,-4.69586,-1.450232,0.4291212,1.490444,0.3885179,-0.00323148,0.01744965,4.9,79.7,-0.2023303,-0.05947573,0.0596342,-0.4182447,0.7534412,1.532649,0.6187832,1.50205,0.3483481,-0.2013773,0.1970715,0.03431838,-1.004365,0.382903,0.07195409,0.7459614,1.489054,0.2139831,0.07001034,1.420123,0.3101224,296.2536,223.0977,34.35343,True
2,2.511111,-0.1060387,-0.2156969,-0.0167241,-1.129994,-4.696384,-1.449126,0.4281522,1.491137,0.3881423,-0.003289537,-0.005534627,4.9,79.7,-0.2157038,-0.07498179,0.0106401,-0.4196577,0.7568991,1.532277,0.6176586,1.5023,0.3479726,-0.1949047,0.1843115,0.04067567,-1.003593,0.3847317,0.07286382,0.7453203,1.489377,0.2140918,0.06893659,1.421259,0.3099277,296.3423,222.7319,34.74957,True
2,2.522222,-0.1070624,-0.2359725,-0.02301239,-1.12697,-4.697404,-1.447407,0.4270183,1.491928,0.3877208,-0.003383812,-0.008683288,4.5,73,-0.220788,-0.03881226,0.01951944,-0.4188716,0.7559527,1.535788,0.6165937,1.502741,0.347693,-0.1935459,0.1939766,0.06943537,-1.001344,0.3875898,0.0733083,0.7444345,1.489761,0.2141662,0.0678451,1.422304,0.3097236,296.4475,222.2114,35.30821,True
2,2.533333,-0.1027348,-0.2604728,-0.02502307,-1.123365,-4.698265,-1.446057,0.4259214,1.492669,0.3873475,-0.003299124,0.007688173,4.5,73,-0.2087616,-0.01986638,0.04086889,-0.4184178,0.7527773,1.54059,0.6155411,1.503149,0.3473668,-0.1921799,0.2068374,0.100285,-0.9990252,0.3906249,0.07373494,0.7436844,1.490077,0.2142069,0.0667908,1.423235,0.3095344,296.5188,221.7439,35.80511,True
2,2.544444,-0.1015407,-0.3030522,-0.01948157,-1.118717,-4.699047,-1.444539,0.4248267,1.493445,0.3869357,-0.002744654,0.05050991,4.5,73,-0.1967514,0.01726608,0.05383489,-0.4169333,0.750537,1.544428,0.6143265,1.503539,0.3469996,-0.1862125,0.1984669,0.1599433,-0.9948158,0.3926498,0.07429074,0.7427971,1.490355,0.2141724,0.06570866,1.424046,0.3093702,296.5936,221.4431,36.12792,True
2,2.555555,-0.09078566,-0.3381872,-0.01931389,-1.113795,-4.699849,-1.443483,0.4237723,1.494019,0.3862832,-0.002870888,-0.01203838,4.5,73,-0.1926948,0.05908665,0.01899881,-0.4150504,0.7528303,1.544383,0.61316,1.503889,0.346617,-0.1786482,0.1910423,0.1694719,-0.9924941,0.3946756,0.0749054,0.7420321,1.490684,0.2141852,0.06450778,1.424794,0.3092433,296.7403,221.2418,36.34708,True
2,2.566666,-0.07903922,-0.3434424,-0.01292743,-1.109947,-4.70044,-1.442734,0.4227113,1.494498,0.3857987,-0.002597115,0.02511263,4,47.8,-0.187169,0.08028372,0.02976054,-0.4134361,0.7518507,1.547242,0.6118894,1.504262,0.3461993,-0.1688953,0.1836294,0.184323,-0.9896839,0.3964601,0.07539782,0.7410223,1.491032,0.2141106,0.06326244,1.425523,0.3091742,296.9254,220.9302,36.68472,True
2,2.577777,-0.06099026,-0.3092133,0.003901049,-1.107625,-4.700011,-1.442883,0.4215857,1.494741,0.3852553,-0.002943326,-0.03198526,4,47.8,-0.1814018,0.09166022,0.06602164,-0.4122366,0.7468552,1.553591,0.6106583,1.504533,0.3457253,-0.1700044,0.1804184,0.1800854,-0.9877164,0.3985628,0.07622899,0.740073,1.49142,0.2141142,0.06202154,1.426251,0.309155,297.1217,220.5213,37.18637,True
2,2.588888,-0.04937433,-0.2675886,0.01217788,-1.106106,-4.69975,-1.442819,0.4203547,1.495115,0.3847713,-0.003092995,-0.01344599,4,47.8,-0.1769548,0.1449379,0.06323191,-0.4088634,0.7455623,1.556715,0.60937,1.504706,0.3451736,-0.1783457,0.1740662,0.1961822,-0.984707,0.4005766,0.07730518,0.7388633,1.491811,0.2140641,0.06082689,1.426941,0.3091403,297.2592,220.056,37.80546,True
2,2.599999,-0.05382148,-0.1865377,0.03200106,-1.106487,-4.69855,-1.442626,0.4187934,1.495211,0.3843091,-0.003407781,-0.02879392,4,47.8,-0.1726703,0.1887228,0.04864381,-0.4051936,0.7456055,1.558474,0.6079926,1.504995,0.3447533,-0.170676,0.1837316,0.217395,-0.9812928,0.4034311,0.07732248,0.7377201,1.49222,0.2141802,0.05968565,1.427528,0.3090885,297.2975,219.6964,38.32188,True
2,2.61111,-0.05597351,-0.1694319,0.0446992,-1.105074,-4.697696,-1.442298,0.4173456,1.495476,0.3838282,-0.003147856,0.02389639,4,47.8,-0.1506989,0.2028499,0.005906187,-0.4023312,0.749653,1.555646,0.6065382,1.505284,0.344445,-0.1384937,0.2147262,0.2425564,-0.9774771,0.4072351,0.07572885,0.7365268,1.492601,0.2141593,0.05855588,1.427919,0.308906,297.2657,219.521,38.65275,True
2,2.622221,-0.04630877,-0.1767285,0.07135515,-1.102421,-4.696104,-1.442736,0.4158443,1.495671,0.3832569,-0.002436792,0.06468368,3.6,29.9,-0.1545243,0.1638064,-0.03699809,-0.4021395,0.754332,1.553282,0.6050763,1.505592,0.3442051,-0.1045036,0.2190147,0.2326297,-0.974791,0.4102986,0.07402097,0.7351927,1.493077,0.2141397,0.05731008,1.428092,0.3085326,297.2585,219.549,38.71818,True
2,2.633332,-0.03453601,-0.187291,0.08203813,-1.099859,-4.695034,-1.44321,0.4144689,1.495823,0.382709,-0.00230683,0.01130706,3.6,29.9,-0.1485053,0.129878,-0.05866292,-0.4018108,0.7576558,1.551678,0.6035482,1.50575,0.3438265,-0.0939651,0.1955572,0.2187289,-0.9727185,0.4117994,0.07386544,0.7340069,1.493526,0.2141144,0.05586118,1.42807,0.3078953,297.2813,219.7115,38.58437,True
2,2.644443,-0.008921087,-0.1870915,0.1054098,-1.097565,-4.693345,-1.444666,0.4130064,1.495743,0.382081,-0.002677542,-0.03397644,3.6,29.9,-0.1421934,0.1384702,-0.06931771,-0.399904,0.7608637,1.55013,0.6020217,1.505874,0.3434408,-0.1013991,0.1891586,0.2199027,-0.9698935,0.4137698,0.074193,0.7326492,1.493916,0.2140512,0.05436892,1.427921,0.3070093,297.432,219.6592,38.56571,True
2,2.655554,0.006979957,-0.1561239,0.1105378,-1.096619,-4.691868,-1.445951,0.4114392,1.495466,0.3814192,-0.002908705,-0.02088438,3.6,29.9,-0.1156246,0.1480282,-0.07910211,-0.3979146,0.7635983,1.548024,0.6003855,1.505929,0.342886,-0.09713179,0.2019524,0.2219582,-0.9671078,0.4168717,0.07339139,0.7312671,1.494345,0.2139695,0.05293733,1.427668,0.305923,297.6252,219.3502,38.73331,True
2,2.666665,0.01754132,-0.1198398,0.1167148,-1.096341,-4.690203,-1.447285,0.4098257,1.495209,0.3808031,-0.003505785,-0.05452629,3.6,29.9,-0.1222497,0.1696156,-0.1086896,-0.395431,0.7698298,1.543912,0.5986208,1.506037,0.3423889,-0.09472033,0.1988371,0.2485766,-0.963186,0.4193465,0.07298712,0.729664,1.494833,0.2137196,0.0516282,1.427322,0.3047366,297.767,218.9739,38.91479,True
2,2.677776,0.0259181,-0.05903271,0.1280939,-1.097611,-4.68804,-1.448861,0.4079621,1.494896,0.3802128,-0.003329484,0.01643943,6.6,20.3,-0.1231911,0.194102,-0.1063371,-0.3924834,0.7727746,1.542684,0.5968742,1.506244,0.3418679,-0.09114191,0.2148994,0.2879415,-0.9580956,0.422321,0.07221561,0.7280776,1.495225,0.2137454,0.05035245,1.426812,0.3035184,297.8104,218.6127,39.10144,True
2,2.688887,0.03012764,-0.02802555,0.1481604,-1.097835,-4.685405,-1.45038,0.4061443,1.494613,0.3795898,-0.003103115,0.02042544,6.6,20.3,-0.1154048,0.2301593,-0.09013583,-0.3886159,0.7743059,1.542226,0.5950185,1.506441,0.3413763,-0.08761275,0.2437588,0.3230009,-0.9529387,0.4266244,0.07058948,0.7264855,1.495857,0.2135947,0.049003,1.426091,0.3023119,297.8122,218.4677,39.09438,True
2,2.699998,0.0525695,-0.04281269,0.1609782,-1.096434,-4.683037,-1.452747,0.4042779,1.494376,0.3789515,-0.002955576,0.01320606,6.6,20.3,-0.1022614,0.2725732,-0.07393464,-0.3843921,0.7754817,1.541687,0.5930548,1.506611,0.3409154,-0.0788264,0.2565915,0.3516746,-0.9475991,0.4298222,0.06946749,0.7247905,1.496361,0.213589,0.04753037,1.425178,0.3011363,297.8452,218.586,38.83804,True
2,2.711109,0.07186429,-0.07143594,0.1770707,-1.094398,-4.68042,-1.455346,0.4023756,1.494037,0.3783281,-0.002558765,0.03607996,6.6,20.3,-0.1006397,0.2847246,-0.1260514,-0.3809732,0.7840506,1.534796,0.5910389,1.506704,0.3404818,-0.07649696,0.2566139,0.3729827,-0.9423558,0.4324532,0.0689005,0.723022,1.496879,0.2134829,0.04589365,1.424125,0.2999652,297.9023,218.8967,38.41949,True
2,2.72222,0.100719,-0.1022514,0.1771744,-1.092018,-4.678468,-1.458231,0.4004112,1.493625,0.3776503,-0.003375823,-0.07504193,9,12.2,-0.09152701,0.2754481,-0.1667131,-0.3784032,0.7927842,1.527434,0.5888685,1.506697,0.3399866,-0.07542077,0.2566183,0.3729771,-0.9380106,0.435646,0.06771699,0.7211465,1.497371,0.2133732,0.04421589,1.422989,0.2987663,298.0519,219.1086,38.1128,True
2,2.733331,0.1167358,-0.1182069,0.1729633,-1.089999,-4.676687,-1.460852,0.3984811,1.493253,0.3769667,-0.003444,-0.005613716,9,12.2,-0.08311957,0.2776395,-0.1784993,-0.375413,0.7993657,1.521919,0.5866622,1.506744,0.339494,-0.07446396,0.2746978,0.3654876,-0.9337932,0.4396353,0.06624187,0.7192067,1.497832,0.2132363,0.0425413,1.421782,0.2975751,298.2482,219.004,38.07959,True
2,2.744442,0.1710835,-0.135177,0.1569561,-1.087895,-4.675514,-1.465104,0.3962774,1.492859,0.3762136,-0.003833887,-0.03582387,9,12.2,-0.09066051,0.2788163,-0.1869381,-0.3722737,0.8061983,1.51682,0.584483,1.506729,0.3390119,-0.06692111,0.291773,0.3749624,-0.9290698,0.4439777,0.06408604,0.7172863,1.498395,0.2131138,0.04086755,1.420473,0.2964466,298.4256,218.7775,38.14993,True
2,2.755553,0.2104826,-0.1383198,0.1451672,-1.086105,-4.674271,-1.469408,0.3940264,1.492331,0.375478,-0.003488208,0.03180332,9,12.2,-0.111688,0.3043378,-0.1705128,-0.3679972,0.8105978,1.514718,0.5820939,1.506709,0.3383563,-0.04436779,0.3184776,0.3970425,-0.9235017,0.4490604,0.06085456,0.7150707,1.498991,0.213038,0.03915861,1.419033,0.2954524,298.5884,218.5925,38.17878,True
2,2.766664,0.200835,-0.1234792,0.1365909,-1.085107,-4.672873,-1.47192,0.3916841,1.491713,0.3748543,-0.005103682,-0.1482158,9,12.2,-0.1222986,0.3193242,-0.1724053,-0.3638911,0.8169646,1.510489,0.5796757,1.506742,0.3376377,-0.04321057,0.3280724,0.4066193,-0.9181882,0.4534266,0.058593,0.7127387,1.499596,0.2128551,0.03737772,1.417484,0.294636,298.7791,218.6105,38.0457,True
2,2.777775,0.1901611,-0.117124,0.1355171,-1.083861,-4.671303,-1.474363,0.3894114,1.491255,0.3741865,-0.004980111,0.01239885,9,12.2,-0.1255791,0.3439945,-0.1902348,-0.359351,0.8243627,1.504957,0.5772813,1.506353,0.3363826,-0.07310951,0.3567815,0.4058172,-0.9131953,0.459024,0.05713439,0.7101815,1.500205,0.2126729,0.03540058,1.415786,0.2940564,298.9485,218.607,37.97279,True
2,2.788886,0.1923391,-0.1395355,0.1271071,-1.081358,-4.670254,-1.477028,0.387048,1.49083,0.3735201,-0.002776612,0.2009676,9,12.2,-0.1128876,0.3504243,-0.2009753,-0.3554574,0.8328611,1.497808,0.5747924,1.506289,0.335768,-0.087055,0.3876439,0.4005635,-0.9086375,0.4654384,0.05464593,0.7077055,1.500801,0.2124903,0.03326883,1.413877,0.2937438,299.0941,218.7197,37.85567,True
2,2.799997,0.2265604,-0.1970557,0.1092287,-1.077249,-4.669919,-1.480902,0.3847327,1.490427,0.372766,-0.002229598,0.04820764,9,12.2,-0.1205196,0.3473873,-0.2158002,-0.3519272,0.8407973,1.491799,0.5720713,1.506291,0.3348708,-0.07078853,0.4197028,0.4322845,-0.9024164,0.4722919,0.05060246,0.704857,1.501588,0.2122371,0.03104865,1.41183,0.2936161,299.3185,219.2036,37.46924,True
2,2.811108,0.2788433,-0.254635,0.07106568,-1.072577,-4.670904,-1.485251,0.3823848,1.489971,0.3718359,-0.002597647,-0.03393738,9,12.2,-0.1693029,0.3249686,-0.1866961,-0.3491921,0.8444912,1.491748,0.5693263,1.506446,0.3342462,-0.03087902,0.4390539,0.4819019,-0.8951316,0.4790074,0.04545696,0.7019379,1.502059,0.2118495,0.0288477,1.409802,0.2935415,299.6615,219.7805,37.0402,True
2,2.822219,0.3012979,-0.3069423,0.03826942,-1.067749,-4.672063,-1.48868,0.3798904,1.48949,0.3710866,-0.004078365,-0.135102,2.9,8.6,-0.2212247,0.3198468,-0.05941397,-0.3455862,0.8362236,1.503577,0.5664051,1.506448,0.3332684,-0.009279788,0.42422,0.5104888,-0.8884683,0.4837574,0.04213014,0.6990341,1.502483,0.211592,0.02664268,1.407898,0.2934682,300.0552,220.0813,36.84393,True
2,2.83333,0.2683132,-0.3326913,0.02249669,-1.063319,-4.672742,-1.490303,0.3772819,1.488988,0.3703632,-0.005098888,-0.0923116,2.9,8.6,-0.2299071,0.4123804,0.08742726,-0.3379578,0.8207559,1.520859,0.5634744,1.506254,0.3323674,0.008237779,0.4456752,0.558201,-0.8805545,0.4908058,0.03704856,0.6959316,1.502867,0.211175,0.02443017,1.40611,0.2934596,300.3937,219.9849,36.97864,True
2,2.844441,0.2107877,-0.3403523,0.01520385,-1.059517,-4.673135,-1.490478,0.3746721,1.488513,0.3696887,-0.00404907,0.09644883,2.9,8.6,-0.206277,0.4890846,0.07610598,-0.3300796,0.8215798,1.52154,0.5605979,1.505851,0.3314264,0.02022094,0.4478719,0.5857828,-0.8730252,0.4969184,0.03271001,0.6930112,1.503142,0.2109666,0.02212331,1.404346,0.2936534,300.6444,219.6964,37.26263,True
2,2.855552,0.1608079,-0.3853415,-0.003623888,-1.053921,-4.674431,-1.489892,0.3717402,1.48824,0.3690524,-0.0016714,0.2162523,2.9,8.6,-0.1442938,0.5376099,-0.02323565,-0.3226862,0.8346778,1.508772,0.5573308,1.505523,0.330709,0.05901664,0.4288622,0.6237624,-0.8649036,0.5021861,0.02720339,0.6897097,1.503622,0.2107882,0.01964032,1.402545,0.2941463,300.889,219.5568,37.44656,True
2,2.866663,0.1417558,-0.4451768,-0.02670249,-1.047096,-4.676324,-1.489848,0.368854,1.488015,0.3683984,0.0001494161,0.1647151,2.9,8.6,-0.1087379,0.5037717,-0.07079658,-0.318766,0.8436562,1.500481,0.5541265,1.505118,0.3298941,0.07826656,0.4299659,0.6320862,-0.8576418,0.5081459,0.0219069,0.6866542,1.503861,0.2106273,0.01698841,1.400781,0.2948547,301.212,219.8053,37.41495,True
2,2.877774,0.1281332,-0.5540864,-0.06659129,-1.037575,-4.679779,-1.489367,0.3656823,1.487868,0.3677146,0.000425315,0.02416127,2.6,8.6,-0.1119612,0.4105917,-0.1365445,-0.3177306,0.8557019,1.490395,0.5505179,1.504646,0.3293176,0.09627807,0.4395738,0.6222767,-0.8509609,0.5152391,0.01547217,0.6832144,1.50427,0.2104712,0.01417937,1.399235,0.2955889,301.6405,220.2556,37.28513,True
2,2.888885,0.1261632,-0.6266553,-0.08964038,-1.028113,-4.682855,-1.489131,0.3626901,1.487723,0.367022,-0.0006673881,-0.09975577,2.6,8.6,-0.1382675,0.3428837,-0.1783974,-0.3164645,0.8670555,1.482376,0.5470442,1.504229,0.3284607,0.1015077,0.4310035,0.6094792,-0.8443915,0.520995,0.01017993,0.6797727,1.504299,0.2102895,0.01111454,1.39809,0.2962514,302.1474,220.4304,37.37027,True
2,2.899997,0.131672,-0.7012985,-0.1052346,-1.017578,-4.685888,-1.489258,0.3595684,1.487412,0.3661904,-0.001333711,-0.05989991,2.6,8.6,-0.1377388,0.338197,-0.1283345,-0.3128421,0.8653842,1.485417,0.5434625,1.503378,0.3273795,0.0865413,0.422456,0.6021789,-0.8379578,0.5269521,0.005669337,0.6760491,1.504587,0.2099826,0.007847605,1.39742,0.2968864,302.5903,220.0769,37.86178,True
2,2.911108,0.1486838,-0.6830955,-0.0968425,-1.010764,-4.687383,-1.490773,0.3562659,1.486646,0.3654647,-0.001574461,-0.02149334,2.6,8.6,-0.07831392,0.4142365,-0.07931927,-0.3050172,0.8641296,1.485361,0.5397404,1.502902,0.3263772,0.07498848,0.4150427,0.6140164,-0.8307539,0.5332217,0.0008966863,0.6723512,1.504512,0.2094717,0.004354686,1.397178,0.2976607,302.951,219.2825,38.72623,True
2,2.922219,0.1559934,-0.6276357,-0.08756471,-1.005651,-4.688645,-1.491981,0.353037,1.486124,0.3646741,-0.002006426,-0.03939054,2.4,9.5,-0.06832305,0.4780048,-0.0661017,-0.297539,0.8680577,1.482115,0.5359971,1.50246,0.3254237,0.08168906,0.4066232,0.6437701,-0.8227389,0.5392101,-0.004244812,0.6685895,1.504703,0.208945,0.0008491403,1.397241,0.2986647,303.1871,218.3793,39.81764,True
2,2.93333,0.1578864,-0.5391594,-0.07844955,-1.002735,-4.689561,-1.493339,0.3495835,1.485248,0.3639891,-0.002643986,-0.05796397,2.4,9.5,-0.1160052,0.5057895,-0.05256835,-0.2909136,0.8707792,1.482525,0.5322711,1.501787,0.3243797,0.1025059,0.3833499,0.6936646,-0.8133352,0.5442479,-0.009710951,0.6646562,1.504683,0.208535,-0.002678864,1.397358,0.2998732,303.3047,217.5005,41.09579,True
2,2.944441,0.1534975,-0.4783248,-0.05532517,-0.9992703,-4.689715,-1.494782,0.3459752,1.484256,0.363199,-0.002241316,0.03721661,2.4,9.5,-0.1170687,0.49724,-0.04837653,-0.2857167,0.8741867,1.480703,0.5283293,1.501149,0.3233809,0.11998,0.3760106,0.7329184,-0.8038731,0.5499875,-0.01566578,0.6607096,1.504514,0.2080934,-0.006192605,1.39722,0.3011139,303.2524,217.0001,42.16108,True
2,2.955552,0.1523456,-0.4314362,-0.0428103,-0.9951365,-4.690542,-1.496098,0.342283,1.483295,0.3625433,-0.002118278,0.01085186,2.4,9.5,-0.1107175,0.4651864,-0.04017624,-0.2815957,0.8754541,1.480441,0.5244197,1.500276,0.322262,0.1168952,0.3696401,0.7425518,-0.7953291,0.5557956,-0.02096653,0.6567484,1.504408,0.2076125,-0.009641618,1.396655,0.3021749,303.2345,216.9454,42.7853,True
2,2.966663,0.1639985,-0.389731,-0.01642581,-0.9917473,-4.690127,-1.49852,0.3385557,1.482208,0.3615911,-0.001778992,0.03098498,2.4,9.5,-0.1077408,0.4642736,-0.05939686,-0.276655,0.8821697,1.475147,0.5204943,1.499548,0.3212762,0.07734603,0.3375823,0.7260004,-0.788057,0.5596393,-0.02312263,0.6528803,1.504202,0.2071514,-0.01315271,1.395557,0.302894,303.2794,217.0741,43.10341,True
2,2.977774,0.1746375,-0.3725653,0.000505805,-0.9882027,-4.689742,-1.501001,0.3349361,1.481068,0.3607826,-0.001987783,-0.01936695,2.6,9.3,-0.08255768,0.5192095,-0.01763931,-0.2689031,0.8800257,1.477152,0.5165153,1.49869,0.3203001,0.02764082,0.3386836,0.7595354,-0.7787376,0.5653923,-0.02572507,0.6489211,1.503765,0.2064955,-0.01677125,1.393911,0.3031805,303.4828,217.1767,43.24439,True
2,2.988885,0.1830991,-0.3383391,0.02161425,-0.9855491,-4.688791,-1.503731,0.3311937,1.479703,0.3597949,-0.002442651,-0.04136132,2.6,9.3,-0.05893007,0.57133,-0.01957941,-0.2608763,0.8837424,1.473391,0.512362,1.497674,0.3192697,0.009121656,0.3355972,0.8172689,-0.7677771,0.5709832,-0.02956961,0.644716,1.503366,0.2057576,-0.02046731,1.391822,0.303089,303.806,217.2462,43.20348,True
2,2.999996,0.1904898,-0.3105781,0.02891131,-0.9831001,-4.688284,-1.506348,0.3275273,1.478307,0.3588817,-0.002519883,-0.00681623,2.6,9.3,-0.1015391,0.5595121,-0.1119123,-0.25568,0.903261,1.457265,0.5082306,1.496535,0.318094,0.009211481,0.3270927,0.8247459,-0.7585663,0.5761539,-0.03341868,0.6406715,1.5029,0.2052054,-0.02411274,1.389389,0.3026519,304.1322,217.3536,43.04185,True
2,3.011107,0.1956385,-0.2348182,0.04873055,-0.9830207,-4.687086,-1.509351,0.3237146,1.476432,0.357765,-0.002404302,0.01057864,2.6,9.3,-0.1370107,0.5438777,-0.1351028,-0.25058,0.9149008,1.448747,0.5041461,1.495517,0.3169878,0.0144341,0.316407,0.8108668,-0.7504985,0.5809747,-0.03748959,0.636568,1.502222,0.2047424,-0.02763247,1.386705,0.3019589,304.447,217.4496,42.81641,True
2,3.022218,0.1987295,-0.1953317,0.05596371,-0.9823682,-4.686252,-1.512102,0.319715,1.474696,0.3568628,-0.002463424,-0.005532013,2.6,9.3,-0.1611533,0.5618626,-0.1080572,-0.2436206,0.9184551,1.447906,0.4998708,1.494287,0.3157752,0.04500276,0.3515381,0.782765,-0.7428366,0.5892738,-0.04513552,0.6323168,1.501376,0.2043946,-0.03109532,1.383846,0.3010691,304.7321,217.5838,42.53262,True
2,3.033329,0.2049773,-0.1420115,0.06205823,-0.9825983,-4.685212,-1.515149,0.3156877,1.472712,0.3558292,-0.002420281,0.003961435,2.4,8.8,-0.1752636,0.5770872,-0.1376194,-0.237049,0.9330496,1.436213,0.495562,1.49298,0.3147204,0.05006808,0.3557455,0.7571242,-0.7355896,0.5957803,-0.05072762,0.6281654,1.500655,0.2038779,-0.0345411,1.3809,0.3000757,304.9619,217.7435,42.21885,True
2,3.04444,0.2218843,-0.08003689,0.08298682,-0.9840359,-4.683429,-1.51913,0.3116617,1.470467,0.3548312,-0.002313222,0.009674259,2.4,8.8,-0.1768628,0.5508049,-0.1772448,-0.232388,0.9505786,1.42113,0.4912178,1.49159,0.3135343,0.04969162,0.359914,0.7198303,-0.7291484,0.6023272,-0.05614343,0.6239873,1.499818,0.2032595,-0.03810706,1.377883,0.2989973,305.0844,217.9742,41.87576,True
2,3.055551,0.2377038,-0.01171127,0.101769,-0.986078,-4.681203,-1.523495,0.3076681,1.468084,0.3536918,-0.002436792,-0.01139084,2.4,8.8,-0.1672557,0.5560948,-0.1773031,-0.2264859,0.9632269,1.410345,0.4869065,1.489955,0.3122847,0.02289605,0.3843677,0.7061958,-0.7221705,0.6106688,-0.061788,0.6197218,1.498835,0.2025955,-0.04186569,1.374837,0.2979096,305.2181,218.1655,41.53863,True
2,3.066662,0.2524953,0.03742318,0.1163832,-0.9880061,-4.679229,-1.527661,0.3036531,1.465656,0.3524728,-0.002911368,-0.04332347,2.4,8.8,-0.1874012,0.5806825,-0.1768824,-0.2195324,0.9771372,1.399567,0.4825147,1.488332,0.3110266,-0.007521451,0.3854929,0.7533941,-0.7126155,0.6180354,-0.06619979,0.6154151,1.497842,0.2019277,-0.04573705,1.37178,0.2968462,305.2828,218.3508,41.26689,True
2,3.077773,0.2514322,0.05244587,0.1376129,-0.9889467,-4.676518,-1.531893,0.2996768,1.463322,0.351357,-0.003001915,-0.008002901,2.4,8.4,-0.2419584,0.6294128,-0.1172776,-0.2107541,0.9806771,1.400698,0.478279,1.486565,0.309787,0.004855216,0.372892,0.811875,-0.7020231,0.625034,-0.07207632,0.6112041,1.496694,0.2013047,-0.04958647,1.368643,0.2957869,305.2298,218.5597,41.06405,True
2,3.088884,0.2088398,0.0598837,0.1579091,-0.9895982,-4.673609,-1.534292,0.2957354,1.460928,0.3501594,-0.002834669,0.01523793,2.4,8.4,-0.2915756,0.6538376,-0.0835079,-0.2028109,0.9854859,1.400892,0.4741789,1.484682,0.3085494,0.04062152,0.3624272,0.867986,-0.6909156,0.6320553,-0.07929695,0.6071154,1.49528,0.2007544,-0.05333798,1.365325,0.294666,305.1526,218.8322,40.86081,True
2,3.099995,0.1790322,0.06732196,0.1771165,-0.9900035,-4.670348,-1.537034,0.2918549,1.45823,0.3484938,-0.002384594,0.04095956,2.4,8.4,-0.3059964,0.6329727,-0.1282827,-0.1971293,1.006392,1.384358,0.4700606,1.482876,0.3073933,0.03734589,0.3315022,0.8563746,-0.6820419,0.6374139,-0.08378172,0.6030436,1.493815,0.2000771,-0.05699161,1.361778,0.2934497,305.166,219.1242,40.5857,True
2,3.111106,0.1993428,0.05253186,0.1920951,-0.9896903,-4.666606,-1.541966,0.2880598,1.455261,0.3468237,-0.000396811,0.181411,2.4,8.4,-0.2936294,0.5776516,-0.1438205,-0.193134,1.023308,1.370759,0.4660213,1.480763,0.3061121,0.01761943,0.2930009,0.8012752,-0.6754006,0.6414186,-0.0862526,0.5991025,1.492357,0.1995337,-0.06053447,1.358023,0.292131,305.3042,219.4119,40.23521,True
2,3.122217,0.2152451,0.08029163,0.1951163,-0.991464,-4.663796,-1.54647,0.2841308,1.45235,0.3454418,-0.0004607269,-0.007252703,2.4,8.4,-0.2973267,0.5534776,-0.1802129,-0.188277,1.045855,1.35219,0.4619114,1.478359,0.3048282,-0.044034,0.3033781,0.7177404,-0.6702292,0.6482004,-0.08881535,0.595178,1.490684,0.1989017,-0.06402767,1.354179,0.2906257,305.528,219.8452,39.80022,True
2,3.133328,0.2267466,0.1731391,0.22123,-0.9964201,-4.659732,-1.551645,0.2804874,1.449009,0.3442097,-0.002543319,-0.1900994,2.1,7.8,-0.2890723,0.5987669,-0.1234551,-0.1801836,1.053494,1.347652,0.4579081,1.476019,0.3036184,-0.05918515,0.3256788,0.6976014,-0.6634867,0.6563262,-0.09406977,0.5912244,1.489147,0.1983027,-0.06747676,1.350313,0.2887865,305.7216,220.1711,39.54751,True
2,3.144439,0.2073638,0.2573341,0.2389427,-1.002184,-4.65562,-1.555481,0.2766464,1.445801,0.34288,-0.002852778,-0.02670651,2.1,7.8,-0.275026,0.6968721,-0.1408898,-0.1695821,1.080611,1.323635,0.4538479,1.473471,0.3024495,-0.03926802,0.3407747,0.7698126,-0.6526396,0.6651049,-0.1013421,0.5871857,1.487381,0.1976216,-0.07086347,1.346332,0.2866133,305.7922,220.1711,39.46196,True
2,3.15555,0.1677098,0.3606983,0.2704507,-1.009617,-4.650502,-1.558512,0.2730752,1.44257,0.34147,-0.002761698,0.008295866,2.1,7.8,-0.2487653,0.679953,-0.169026,-0.163525,1.109405,1.297196,0.4500742,1.471133,0.3014488,0.01797611,0.3229097,0.8416983,-0.6411395,0.6721269,-0.1091204,0.5831597,1.485618,0.1969664,-0.07421084,1.342177,0.2842425,305.7057,220.2283,39.11208,True
2,3.166661,0.3278582,0.2397261,0.2707386,-1.007839,-4.647179,-1.569573,0.269497,1.439347,0.3401601,-0.001351288,0.1287888,2.1,7.8,-0.2449062,0.6214844,-0.1844899,-0.1596086,1.133529,1.276063,0.4463062,1.468588,0.3002558,0.05764937,0.30918,0.8658193,-0.6311308,0.6791481,-0.1167138,0.5791456,1.483809,0.196269,-0.07739776,1.337784,0.2817356,305.4913,220.5514,38.48011,True
2,3.177772,0.3172786,0.1776551,0.2210074,-1.007689,-4.646673,-1.573067,0.2663847,1.436348,0.3391654,4.673105E-05,0.1267615,1.1,6.6,-0.2752101,0.5695763,-0.2080788,-0.1564687,1.162092,1.25212,0.4426183,1.466165,0.2991321,0.06941664,0.2921577,0.8689361,-0.6217112,0.685698,-0.1231811,0.575322,1.481906,0.1954703,-0.08050873,1.333197,0.2790501,305.3866,221.2251,37.57311,True
2,3.188883,0.3218043,0.08283211,0.2118945,-1.00581,-4.644486,-1.577742,0.2633258,1.432951,0.3382294,-0.008733571,-0.8037651,1.1,6.6,-0.2768555,0.5478276,-0.154976,-0.1513927,1.172572,1.244965,0.4391,1.463392,0.2979071,0.07361293,0.2676385,0.8593636,-0.6128306,0.6914094,-0.1287084,0.5716105,1.479863,0.1945803,-0.08344479,1.328565,0.276102,305.4718,221.7604,36.75775,True
2,3.199994,0.3090764,0.03787807,0.1769848,-1.005041,-4.643821,-1.581035,0.2602966,1.4295,0.337194,-0.003308711,0.5029672,1.1,6.6,-0.2451635,0.5951399,-0.09848174,-0.143481,1.185398,1.233779,0.4355932,1.460505,0.2966552,0.07675481,0.258035,0.8529611,-0.6041077,0.6978,-0.1349083,0.5679017,1.477871,0.1937118,-0.08618671,1.32365,0.2734181,305.5917,220.9539,36.80603,True
2,3.211105,0.280319,0.01419008,0.1473434,-1.004171,-4.643235,-1.583453,0.2577188,1.426119,0.3361528,-0.002552374,0.0638904,1.1,6.6,-0.200414,0.7373053,-0.04981109,-0.1303324,1.210595,1.209402,0.4321778,1.457597,0.2954612,0.1090834,0.202765,0.8847222,-0.5933954,0.701228,-0.139919,0.5641425,1.475594,0.1926892,-0.08872546,1.318531,0.2715244,305.7957,220.5875,36.37401,True
2,3.222216,0.2643165,0.02159778,0.147344,-1.004786,-4.641116,-1.586954,0.2547074,1.423044,0.3351209,-0.001897236,0.05972556,1.1,6.6,-0.1548305,0.7391562,-0.1685897,-0.125665,1.28167,1.139296,0.4287872,1.454646,0.2946129,0.1327083,0.184747,0.9015524,-0.583407,0.7065395,-0.146525,0.5603427,1.473497,0.1917908,-0.09119345,1.313315,0.2705681,306.0686,220.6374,35.93386,True
2,3.233327,0.2376634,-0.01501467,0.0879335,-1.00335,-4.642413,-1.587956,0.2520461,1.420257,0.3341985,-0.001014132,0.08029711,0.6,7.6,-0.1109584,0.6015639,-0.2980742,-0.1278509,1.34312,1.078152,0.4254976,1.451593,0.2935474,0.1404152,0.1709617,0.9238796,-0.5728715,0.7121137,-0.1530007,0.5566057,1.471355,0.1909094,-0.09365413,1.308143,0.2704576,306.3993,221.1855,35.47031,True
2,3.244438,0.2079134,-0.1071803,6.710738E-05,-0.9990348,-4.645734,-1.587461,0.2491532,1.41783,0.3332682,-0.001267132,-0.02373441,0.6,7.6,-0.06745678,0.4925232,-0.2738866,-0.1271926,1.364259,1.056538,0.4220844,1.448986,0.2923503,0.1406342,0.1837783,0.9440863,-0.5622796,0.7198768,-0.1610999,0.5530534,1.469064,0.1899447,-0.09601253,1.303207,0.270919,306.7992,222.0807,35.00964,True
2,3.255549,0.1665932,-0.2526603,-0.09070273,-0.9915923,-4.650128,-1.585565,0.2464714,1.41542,0.3323617,-0.0007542072,0.04726253,0.6,7.6,-0.05666357,0.4209991,-0.1350532,-0.1236367,1.350618,1.070343,0.4188105,1.446036,0.2910049,0.1532075,0.1986587,0.9258068,-0.5533127,0.7278034,-0.1699528,0.5494963,1.466845,0.1889131,-0.09846473,1.298631,0.2715711,307.2163,223.0429,34.59496,True
2,3.26666,0.1390512,-0.3553651,-0.1582865,-0.9841344,-4.654886,-1.583547,0.243687,1.413102,0.3314204,-0.0004410195,0.02833205,0.6,7.6,-0.07613239,0.4503936,-0.07280704,-0.1174901,1.366489,1.056249,0.4154425,1.443206,0.2895055,0.1457133,0.2114429,0.9237182,-0.5439544,0.7364035,-0.1786472,0.5458204,1.464821,0.1879532,-0.1010676,1.294628,0.2723009,307.7086,223.6728,34.2949,True
2,3.277771,0.08285448,-0.5018773,-0.2351809,-0.9737588,-4.661123,-1.579167,0.2409088,1.410961,0.3305438,0.0001853692,0.05718631,0.5,18.9,-0.06393033,0.5474592,0.03656238,-0.1067432,1.377393,1.045801,0.4121478,1.440373,0.2880139,0.1203384,0.2508719,0.9473285,-0.5333768,0.7483421,-0.1893039,0.5423306,1.462554,0.186976,-0.104009,1.291417,0.2732031,308.2237,223.7766,34.3057,True
2,3.288882,0.04907604,-0.6278248,-0.2621484,-0.9624153,-4.665717,-1.575901,0.2384342,1.409133,0.3297248,-9.161274E-05,-0.02567372,0.5,18.9,-0.05973145,0.6513795,0.09278011,-0.09604158,1.409683,1.014186,0.4091595,1.437563,0.2865677,0.1286268,0.265774,0.9301539,-0.5245453,0.7589331,-0.2000223,0.5389447,1.460391,0.1861384,-0.1072168,1.289124,0.2744034,308.6189,223.4711,34.75351,True
2,3.299993,0.04816527,-0.6853886,-0.2693086,-0.9531251,-4.669427,-1.574363,0.2361252,1.406903,0.3289721,0.00108428,0.1080118,0.5,18.9,-0.05139959,0.6795284,0.1643236,-0.08625659,1.421385,1.002901,0.4060987,1.435018,0.2853131,0.1239429,0.2496752,0.8876278,-0.5167156,0.766568,-0.2079303,0.5355003,1.458182,0.185256,-0.110676,1.287706,0.2759283,308.8136,222.9536,35.58737,True
2,3.311104,0.06962445,-0.7514747,-0.2881824,-0.9424245,-4.674078,-1.57318,0.2342201,1.40536,0.3283868,0.0006508911,-0.04034808,0.5,18.9,-0.0302915,0.618687,0.1678301,-0.0815135,1.432573,0.9912711,0.4034353,1.432702,0.2839539,0.09235579,0.2579837,0.8219108,-0.5103341,0.7758676,-0.2159001,0.532684,1.455929,0.1846528,-0.1142379,1.287074,0.2777793,308.9841,222.2549,36.76093,True
2,3.322215,0.06750643,-0.7729139,-0.3136373,-0.933177,-4.679515,-1.57065,0.2320386,1.403372,0.3279278,-0.0009566075,-0.146432,0.5,18.9,-0.03518306,0.5307524,0.2417348,-0.07608864,1.397119,1.027395,0.4010704,1.429958,0.2824936,0.09070992,0.2930542,0.7803051,-0.5038483,0.788415,-0.227415,0.5294486,1.453953,0.1837983,-0.117551,1.287057,0.279818,309.0549,221.4258,38.27385,True
2,3.333326,0.0418369,-0.7657323,-0.3509119,-0.9248444,-4.686163,-1.566276,0.2299711,1.401474,0.3273923,-0.002212021,-0.1134372,0.9,16,-0.01142248,0.5090328,0.2796473,-0.06954206,1.377984,1.045787,0.3986685,1.427666,0.2814453,0.07390159,0.3674335,0.7099828,-0.5001577,0.8045413,-0.2417365,0.5265199,1.451944,0.1832504,-0.1204371,1.287255,0.2818613,308.946,220.544,39.91639,True
2,3.344437,0.02175222,-0.7413704,-0.3734175,-0.9175197,-4.691872,-1.562373,0.2278366,1.399549,0.3268912,-0.001529187,0.06337492,0.9,16,0.03384105,0.4761361,0.2426546,-0.06536782,1.396269,1.025853,0.3962836,1.425316,0.2804418,0.07132643,0.4057057,0.6683732,-0.4956047,0.8195593,-0.2557894,0.5236189,1.449878,0.1828132,-0.1228979,1.28732,0.2839039,308.8974,219.6105,41.43971,True
2,3.355548,0.02461624,-0.7243942,-0.3776714,-0.9103515,-4.696915,-1.559558,0.2259305,1.397942,0.326623,-0.0004308995,0.0998736,0.9,16,0.0847307,0.436601,0.234324,-0.0609752,1.395689,1.023941,0.3938271,1.422895,0.2793925,0.06522053,0.4247032,0.5959414,-0.4929394,0.8323758,-0.2675337,0.5208444,1.448023,0.1822405,-0.1253569,1.286974,0.2859869,308.9178,218.918,42.61972,True
2,3.366659,0.04896313,-0.6549485,-0.3525194,-0.905332,-4.700841,-1.558506,0.2240902,1.39615,0.3263688,-0.0004207795,0.0002994354,0.9,16,0.09665544,0.46845,0.2419224,-0.05421983,1.409402,1.00876,0.3915044,1.420763,0.2784576,0.09161592,0.4588206,0.5860141,-0.4884222,0.8487163,-0.2834011,0.5179323,1.446362,0.1816504,-0.1279033,1.286216,0.2880821,309.0775,218.6425,43.37186,True
2,3.37777,0.06262898,-0.5738044,-0.3242062,-0.9015386,-4.704217,-1.557527,0.2221592,1.394234,0.3257711,-0.00131134,-0.08127438,0.9,16,0.06593109,0.4425577,0.1685173,-0.05107836,1.462067,0.9566032,0.3891714,1.418859,0.2776093,0.12054,0.4343879,0.5985622,-0.4827331,0.8612023,-0.2967523,0.5152925,1.444569,0.1810193,-0.1304578,1.285128,0.2900828,309.3476,218.6079,43.87442,True
2,3.388881,0.07071651,-0.3806348,-0.2623818,-0.9039104,-4.705203,-1.558034,0.2203143,1.392068,0.3256576,-0.002583266,-0.1155716,1.1,16,0.05693497,0.3489237,0.1593036,-0.04979312,1.446406,0.9721466,0.387206,1.417132,0.2767346,0.1268917,0.3320895,0.5817036,-0.4770574,0.8653066,-0.3021617,0.5127198,1.442976,0.1804538,-0.1327858,1.28382,0.2919103,309.6397,218.618,44.26442,True
2,3.399992,0.05857496,-0.2046591,-0.2164214,-0.9070844,-4.706676,-1.557282,0.2188589,1.389948,0.3252461,-0.002437858,0.01419969,1.1,16,0.06910232,0.385933,0.1882416,-0.0433504,1.459278,0.9580709,0.3853588,1.415386,0.2759213,0.06582001,0.266928,0.5335046,-0.4730477,0.8706663,-0.3058278,0.5106507,1.441325,0.1799037,-0.1348689,1.282269,0.2934794,309.7919,218.6792,44.61708,True
2,3.411103,0.09036645,-0.1159206,-0.1732796,-0.9084501,-4.707509,-1.558785,0.2175125,1.388289,0.3249261,-0.002356898,0.007141114,1.1,16,0.05354415,0.462585,0.1996862,-0.03610021,1.523823,0.8934757,0.3838838,1.413789,0.2752843,0.05417007,0.2498782,0.53793,-0.4679414,0.8792762,-0.3136887,0.5085991,1.439833,0.1793437,-0.1367928,1.280419,0.29465,309.8156,218.9242,44.81063,True
2,3.422215,0.1202385,-0.1039175,-0.1350595,-0.9073523,-4.707997,-1.56079,0.2161966,1.386684,0.3244154,-0.001378985,0.0893957,1.1,16,0.06320396,0.4699635,0.2060349,-0.03032382,-4.710863,0.8441555,0.3822619,1.41233,0.2744973,0.07214308,0.2147303,0.5239878,-0.4631205,0.8863469,-0.3212899,0.5069508,1.438507,0.1788285,-0.1384704,1.278235,0.2952257,309.6319,219.447,44.64878,True
2,3.433326,0.1523912,-0.1366101,-0.09019015,-0.9046572,-4.707013,-1.564143,0.2149629,1.385354,0.3240328,-0.003112703,-0.159296,2.1,14.4,0.04596549,0.3769791,0.122338,-0.03059599,-4.652977,0.786339,0.3809998,1.411046,0.2739017,0.0813722,0.1560435,0.4814229,-0.4593399,0.8886885,-0.3246976,0.5053932,1.437332,0.1783936,-0.1398028,1.275805,0.2950874,309.5649,220.024,44.20646,True
2,3.444437,0.1621394,-0.1726284,-0.05698452,-0.901431,-4.706301,-1.566384,0.2137216,1.383672,0.3237717,-0.003516438,-0.03553708,2.1,14.4,0.03284866,0.2907265,0.1238919,-0.02948066,-4.684815,0.8184235,0.3795511,1.409736,0.2732863,0.03724197,0.1303188,0.4361347,-0.4563678,0.8926497,-0.3271305,0.5036983,1.436428,0.1780338,-0.1408509,1.27325,0.2943828,309.7032,220.1875,43.80231,True
2,3.455548,0.1686817,-0.1765347,0.006954491,-0.8993378,-4.703198,-1.570378,0.2126384,1.381971,0.3234096,-0.003796602,-0.02559952,2.1,14.4,-0.003207013,0.3257617,0.02869417,-0.02823483,-4.500359,0.6353685,0.3782771,1.408342,0.272939,0.003806174,0.1184599,0.3960644,-0.4532189,0.8981376,-0.3309324,0.5023302,1.435333,0.1777198,-0.1417536,1.270642,0.2934032,309.9598,219.987,43.5353,True
2,3.466659,0.1718291,-0.09616466,0.09494632,-0.9009256,-4.697988,-1.575614,0.2118027,1.380144,0.3231618,-0.002700445,0.1002607,2.1,14.4,0.02834532,0.4074001,0.06100479,-0.02309973,-4.284207,0.4180132,0.3772222,1.407163,0.2728648,0.05925015,0.1132208,0.3997658,-0.4492678,0.9039451,-0.3385362,0.5010642,1.434435,0.1775336,-0.1425881,1.268012,0.2924512,310.2158,219.5768,43.41774,True
2,3.47777,0.1759338,-0.02573933,0.1158714,-0.9027849,-4.695784,-1.579136,0.2107036,1.378353,0.3227518,-0.002716424,-0.002428916,2.1,14.4,0.03139916,0.3314017,-0.02489507,-0.02536554,-4.193479,0.3267797,0.3760591,1.405761,0.2726231,0.09089902,0.1014618,0.3664349,-0.4466622,0.9078972,-0.3443718,0.4994262,1.433596,0.1773052,-0.1434382,1.265347,0.2917432,310.4006,219.2489,43.37437,True
2,3.488881,0.1841896,0.08414923,0.1419092,-0.9075733,-4.692677,-1.583422,0.2096673,1.376721,0.3226211,-0.002579538,0.0124997,2.6,13.3,0.002095535,0.2163087,-0.1331517,-0.03100985,-4.188144,0.3225575,0.3750301,1.404772,0.2724719,0.02513312,0.09585394,0.2904238,-0.4463138,0.9100549,-0.3444104,0.4981691,1.432792,0.1773763,-0.1440926,1.262608,0.2912291,310.4701,219.2194,43.33924,True
2,3.499992,0.1766613,0.1268544,0.165134,-0.9100628,-4.689632,-1.587025,0.2086245,1.375323,0.3223279,-0.00263866,-0.005655914,2.6,13.3,-0.007315636,0.1563763,-0.09519641,-0.03057256,-4.197968,0.3328496,0.3739908,1.4037,0.2722633,0.02593061,0.1842462,0.27634,-0.4455937,0.9234548,-0.3566955,0.4971269,1.432146,0.1777089,-0.1445077,1.259691,0.2907028,310.4361,219.5652,43.12737,True
2,3.511103,0.1726085,0.07154959,0.1867364,-0.9088809,-4.686256,-1.590886,0.2076019,1.373906,0.3218913,-0.00277821,-0.01274396,2.6,13.3,-0.06174788,0.0666755,-0.1720836,-0.03534387,-4.218835,0.3562026,0.3730321,1.402824,0.2722623,0.06085345,0.2151423,0.2577907,-0.4447538,0.9327924,-0.3669881,0.4960736,1.431451,0.1777036,-0.14498,1.256613,0.290103,310.4695,220.108,42.61129,True
