loc,t,aDotUA,bDotUA,gDotUA,aUA,bUA,gUA,xUA,yUA,zUA,qE,qDotE,emgA,emgB,aDotSH,bDotSH,gDotSH,aSH,bSH,gSH,xSH,ySH,zSH,aDotUB,bDotUB,gDotUB,aUB,bUB,gUB,xUB,yUB,zUB,xHand,yHand,zHand,aHand,bHand,gHand,enable
3,0,-0.1091552,-0.7305313,0.232049,-1.514418,-4.182606,2.750321,0.6269583,1.133029,0.4893706,-1.934764,0.06104816,13.14,6.99,-0.4217964,0.3730155,0.2231396,-1.065702,-3.59625,-0.4982175,0.5747384,1.33766,0.4182429,-0.3883273,0.215984,-0.1320332,-0.6761382,0.99629,-0.7117894,0.7249432,1.503162,0.3126707,0.454261,1.027907,0.2975758,297.5597,243.6931,344.4731,True
3,0.01111111,-0.1869188,-0.7275448,0.2385192,-1.520095,-4.176277,2.754465,0.6260082,1.133513,0.4875658,-1.934136,0.05719544,12.26,6.65,-0.3752927,0.2289162,0.2375455,-1.062081,-3.596691,-0.4953919,0.574715,1.338989,0.417311,-0.393146,0.1572311,-0.2032418,-0.6795066,0.9916925,-0.7036971,0.72584,1.503612,0.3120279,0.4540454,1.028495,0.2947604,297.6139,244.4936,343.3999,True
3,0.02222222,-0.2391414,-0.720245,0.2417238,-1.525607,-4.169963,2.758358,0.6250331,1.133857,0.4857287,-1.933893,0.02215983,11.43,6.33,-0.3213179,0.143527,0.2331558,-1.059712,-3.59618,-0.4936363,0.5747,1.340366,0.4165902,-0.4095837,0.07930329,-0.2668432,-0.6822785,0.9847572,-0.6932528,0.7269385,1.504208,0.3112705,0.4543077,1.029571,0.291003,297.5966,244.8952,342.4666,True
3,0.03333334,-0.3254635,-0.7131548,0.2321931,-1.530581,-4.163557,2.76453,0.6240671,1.134675,0.4840641,-1.93306,0.07640294,10.66,6.03,-0.2841193,0.1007308,0.2399204,-1.05711,-3.594593,-0.4923892,0.574741,1.341645,0.4158611,-0.4225516,0.02062824,-0.2964278,-0.6844457,0.9786464,-0.6833573,0.7278832,1.504763,0.310559,0.4549331,1.031142,0.2865275,297.4688,244.9264,341.5989,True
3,0.04444445,-0.4213869,-0.7061578,0.2141469,-1.534966,-4.157091,2.771998,0.6231537,1.135574,0.4824166,-1.933817,-0.06949764,9.81,5.68,-0.222359,0.0674139,0.2486429,-1.054236,-3.59328,-0.4926856,0.5751957,1.34337,0.4151745,-0.4537323,-0.05088551,-0.3396772,-0.6865901,0.9698516,-0.6703848,0.7292678,1.505431,0.3098364,0.4558772,1.033251,0.2816697,297.2517,244.8656,340.6449,True
3,0.05555556,-0.516299,-0.6854022,0.1853475,-1.538614,-4.15081,2.780431,0.6221508,1.136683,0.4808595,-1.932258,0.1436332,9.02,5.35,-0.1625102,0.05422725,0.2735184,-1.051009,-3.590808,-0.4938547,0.5756902,1.345287,0.4146876,-0.4796972,-0.1096283,-0.3936477,-0.6894327,0.9601533,-0.6567236,0.7308472,1.50636,0.3089845,0.4569849,1.035822,0.2767209,296.9021,244.7949,339.6258,True
3,0.06666667,-0.5856516,-0.6612899,0.1650049,-1.541913,-4.145137,2.78881,0.621179,1.137768,0.4793653,-1.931492,0.06925754,8.27,5.04,-0.1140133,0.04507737,0.3326295,-1.046216,-3.587485,-0.4958329,0.5763493,1.347398,0.4142146,-0.4715619,-0.1704506,-0.4468524,-0.6922866,0.9492982,-0.6434847,0.7325253,1.507082,0.3081391,0.4580672,1.038839,0.2719381,296.541,244.6694,338.675,True
3,0.07777778,-0.6828071,-0.60752,0.1359456,-1.544109,-4.140523,2.799468,0.620175,1.139169,0.4779348,-1.931283,0.01916892,7.58,4.75,-0.09097865,-0.02494755,0.4245553,-1.038478,-3.585705,-0.4962372,0.5771028,1.349675,0.4138112,-0.4612452,-0.2078152,-0.4905473,-0.6957253,0.9385125,-0.6304363,0.7342583,1.507907,0.3072722,0.4589042,1.042294,0.267479,296.1247,244.5102,337.8668,True
3,0.08888889,-0.7747115,-0.5313257,0.1099014,-1.545543,-4.137441,2.810826,0.619095,1.140682,0.4766176,-1.93216,-0.07971521,6.93,4.48,-0.0732639,-0.08959755,0.5144374,-1.02977,-3.583819,-0.4970026,0.5779718,1.351856,0.4134257,-0.4594624,-0.2718265,-0.5394238,-0.698749,0.925557,-0.6154104,0.7363091,1.508834,0.3063226,0.4593256,1.046175,0.2634594,295.6199,244.3851,337.1791,True
3,0.1,-0.8612918,-0.458396,0.07428706,-1.546268,-4.134462,2.822806,0.6179512,1.142385,0.4753428,-1.930825,0.1234204,6.28,4.16,-0.03484794,-0.1771368,0.6593403,-1.016868,-3.582001,-0.4988807,0.5789953,1.354549,0.4132614,-0.4704624,-0.32734,-0.5871466,-0.7022175,0.9113825,-0.5990056,0.7383991,1.509681,0.3053875,0.4592777,1.050415,0.2599793,294.9935,244.4068,336.5441,True
3,0.1111111,-0.9168678,-0.4183821,0.03782514,-1.546453,-4.131067,2.834699,0.6165823,1.14406,0.4740243,-1.930859,-0.003651405,5.67,3.86,-0.004806548,-0.2404366,0.7033026,-1.006339,-3.581738,-0.5000564,0.5800021,1.357084,0.412993,-0.4793032,-0.3562017,-0.6264108,-0.7062544,0.8981829,-0.5832954,0.7404426,1.510518,0.3043249,0.4586462,1.05498,0.2570373,294.3425,244.481,336.0451,True
3,0.1222222,-1.00658,-0.3722954,-0.02314079,-1.545193,-4.127638,2.848479,0.6149673,1.146055,0.4729474,-1.931143,-0.02520188,5.1,3.58,-0.005654663,-0.4267153,0.6848301,-0.9955173,-3.588982,-0.4961917,0.581317,1.360015,0.4130168,-0.4808527,-0.3957509,-0.6870346,-0.7112872,0.8827457,-0.5662519,0.7427539,1.511345,0.3033042,0.4573942,1.059873,0.2546381,293.6432,244.6107,335.6884,True
3,0.1333333,-1.095188,-0.3444935,-0.1063371,-1.542356,-4.123497,2.86333,0.6130147,1.148258,0.4718227,-1.932083,-0.08520241,4.57,3.31,-0.02429795,-0.5042183,0.6599219,-0.9859635,-3.593485,-0.4927264,0.5823683,1.362755,0.4129059,-0.4736975,-0.4469734,-0.7285401,-0.7157879,0.8663513,-0.5487795,0.7453402,1.51212,0.3021181,0.4556187,1.065084,0.2527149,292.8716,244.8481,335.45,True
3,0.1444445,-1.156014,-0.3344816,-0.1628052,-1.539703,-4.119113,2.878011,0.6110313,1.150428,0.4707937,-1.931095,0.09161609,4.07,3.06,-0.04856372,-0.6007027,0.6114789,-0.97675,-3.601027,-0.4871942,0.5836271,1.365667,0.4128911,-0.4495078,-0.5130836,-0.7733468,-0.7202882,0.8482171,-0.5308876,0.7479389,1.512867,0.3009217,0.4534678,1.070539,0.2511135,292.0041,245.1348,335.2957,True
3,0.1555556,-1.277706,-0.3048819,-0.2758189,-1.533631,-4.114819,2.896319,0.6087378,1.15312,0.4698513,-1.930714,0.03465234,3.6,2.83,-0.08017141,-0.6993999,0.5758819,-0.9668297,-3.609906,-0.4802465,0.5851654,1.368546,0.412843,-0.4489119,-0.563283,-0.833978,-0.7262099,0.8291947,-0.5115546,0.7508688,1.51357,0.299829,0.4510387,1.076218,0.2496673,291.1313,245.2191,335.3476,True
3,0.1666667,-1.366898,-0.2481147,-0.3587611,-1.528754,-4.111448,2.913038,0.6065316,1.155507,0.4689116,-1.931696,-0.08943398,3.16,2.61,-0.1185582,-0.7879006,0.6043462,-0.9546506,-3.61826,-0.4728885,0.5865329,1.371567,0.4128203,-0.4545486,-0.5857373,-0.8722292,-0.7324039,0.8116971,-0.4931762,0.7535501,1.514205,0.2988343,0.4484121,1.082144,0.2481996,290.2368,245.0461,335.6202,True
3,0.1777778,-1.427388,-0.1946007,-0.4117859,-1.521602,-4.110242,2.931772,0.6042455,1.158189,0.4680593,-1.929068,0.2417195,2.75,2.41,-0.1299192,-0.8191148,0.6521675,-0.9421076,-3.624131,-0.4675952,0.5879987,1.374538,0.4127123,-0.4881099,-0.5880445,-0.9326497,-0.7403125,0.794419,-0.4738307,0.7565526,1.514671,0.2978632,0.4457943,1.08832,0.2466608,289.285,244.7484,335.9514,True
3,0.1888889,-1.515127,-0.1102771,-0.4911661,-1.513318,-4.110051,2.951306,0.6015894,1.161043,0.4674435,-1.931315,-0.2068833,2.36,2.22,-0.116173,-0.8038887,0.7437645,-0.9281319,-3.626982,-0.4650361,0.5894258,1.377634,0.4127426,-0.4978678,-0.5817053,-0.9506891,-0.7474785,0.7788142,-0.4565015,0.7593454,1.515126,0.2968564,0.4431296,1.09482,0.2449341,288.3302,243.8888,336.7074,True
3,0.2,-1.599648,-0.03663702,-0.5747302,-1.504191,-4.109979,2.971806,0.5987787,1.164081,0.4668355,-1.930591,0.0687768,2.17,2.04,-0.1121727,-0.7810389,0.8174049,-0.914432,-3.629528,-0.4622675,0.5911238,1.380743,0.4127238,-0.4991665,-0.5870997,-0.9783689,-0.7551643,0.7623408,-0.4389273,0.7623266,1.515527,0.2957551,0.4405135,1.101659,0.2431348,287.2365,242.9686,337.4219,True
3,0.2111111,-1.656309,0.002169311,-0.6292897,-1.495142,-4.109846,2.992248,0.5958719,1.167056,0.4661512,-1.930624,-0.003118639,1.99,1.87,-0.1446792,-0.7877313,0.8720109,-0.9000797,-3.633443,-0.4571398,0.5928013,1.383815,0.4125443,-0.4823087,-0.6233526,-1.005078,-0.762756,0.7441735,-0.4208982,0.7654023,1.51595,0.2946482,0.437779,1.108814,0.2413444,286.0782,241.581,338.4918,True
3,0.2222222,-1.738582,0.04491144,-0.7115473,-1.484427,-4.109964,3.014272,0.5927922,1.170426,0.4656079,-1.930595,0.003456685,1.82,1.71,-0.1923039,-0.7963482,0.9086233,-0.8861914,-3.637859,-0.4504881,0.594359,1.387246,0.41271,-0.4685027,-0.6659703,-1.01683,-0.7700477,0.7257563,-0.4028236,0.7683898,1.516213,0.293457,0.4347418,1.116299,0.239706,284.8762,239.6273,340.0813,True
3,0.2333333,-1.818693,0.07808417,-0.7937312,-1.472991,-4.110366,3.036486,0.5895505,1.173747,0.4651067,-1.931532,-0.08507525,1.66,1.57,-0.2016422,-0.7847627,0.9301118,-0.8730598,-3.641373,-0.4457413,0.596009,1.390236,0.4126453,-0.4599909,-0.690486,-1.023245,-0.7771679,0.7086357,-0.3859341,0.7713697,1.516544,0.292392,0.4313566,1.124133,0.238329,283.6341,237.3811,342.0912,True
3,0.2444444,-1.895644,0.1284744,-0.8568823,-1.461252,-4.112243,3.060014,0.5862164,1.177306,0.4646142,-1.930929,0.05646488,1.68,1.51,-0.2024136,-0.7785773,0.9578665,-0.8590835,-3.644853,-0.4412056,0.5977802,1.393398,0.4126861,-0.4547787,-0.6904827,-1.031805,-0.7853396,0.6927648,-0.3696595,0.7742842,1.516955,0.291074,0.4277159,1.132276,0.2372584,282.3304,234.9308,344.4936,True
3,0.2555556,-1.938448,0.1695697,-0.8933675,-1.44987,-4.114568,3.083433,0.5831136,1.180925,0.4640608,-1.931528,-0.05469003,1.7,1.45,-0.2052178,-0.8248056,1.014005,-0.8426092,-3.650384,-0.4352079,0.5998036,1.396618,0.4126923,-0.440056,-0.7118196,-1.056397,-0.7941014,0.6751736,-0.3528145,0.7774737,1.517135,0.2899678,0.4238856,1.140713,0.2364619,281.0313,231.5939,347.891,True
3,0.2666667,-2.022009,0.2849618,-0.9516796,-1.43691,-4.12093,3.109408,0.5797873,1.184882,0.4637468,-1.93128,0.02380144,1.72,1.39,-0.2321427,-0.9174066,1.016772,-0.8264849,-3.660165,-0.4253409,0.6018404,1.399653,0.4125264,-0.4318558,-0.732157,-1.096914,-0.8038693,0.6568283,-0.33541,0.780513,1.517206,0.2889235,0.4199182,1.149411,0.235896,279.7238,227.0794,352.5075,True
3,0.2777778,-2.063797,0.3464197,-0.973407,-1.425415,-4.126416,3.134125,0.5766679,1.188732,0.4633226,-1.932226,-0.08609973,1.74,1.33,-0.2622656,-0.9811651,1.011264,-0.8114417,-3.670082,-0.4146499,0.6039143,1.402702,0.4124308,-0.4214369,-0.7417968,-1.125748,-0.8136442,0.6398329,-0.3194249,0.7836517,1.517208,0.2879107,0.4158311,1.158384,0.2355155,278.4967,221.3914,358.3607,True
3,0.2888889,-2.122729,0.4322324,-1.004889,-1.413372,-4.133687,-3.122795,0.5734154,1.192829,0.4630458,-1.931106,0.1036264,1.76,1.29,-0.2948496,-1.054276,0.9748043,-0.7970634,-3.683027,-0.4013461,0.6058681,1.405721,0.4125919,-0.4134499,-0.7248788,-1.185521,-0.8256028,0.6237886,-0.3042659,0.7867343,1.516892,0.2868567,0.4117441,1.167617,0.2353174,277.3653,213.7692,6.188122,True
3,0.3,-2.17625,0.497911,-1.031952,-1.401322,-4.141642,-3.095923,0.5700572,1.19714,0.4628987,-1.932947,-0.1685888,1.94,1.17,-0.3004168,-1.090405,0.9639202,-0.7825118,-3.694423,-0.3899414,0.6080009,1.408678,0.4128964,-0.4071928,-0.7281101,-1.201551,-0.8363274,0.6076403,-0.2890289,0.7897311,1.516678,0.2859285,0.4075004,1.177184,0.2353001,276.4643,203.0076,17.14437,True
3,0.3111111,-2.226545,0.5496464,-1.065314,-1.388964,-4.149999,-3.068272,0.5667484,1.201456,0.4625876,-1.932645,0.02953955,2.1,1.05,-0.2674177,-1.100127,0.9667251,-0.7676668,-3.704932,-0.3804203,0.6102204,1.411563,0.4130962,-0.3869307,-0.737666,-1.200646,-0.8466637,0.5917885,-0.2748244,0.7926034,1.516439,0.2849548,0.4032971,1.187056,0.2355492,275.7536,189.4123,31.03433,True
3,0.3222222,-2.259723,0.586692,-1.083651,-1.377166,-4.15882,-3.040671,0.5634663,1.205818,0.4623575,-1.932831,-0.01688189,2.26,0.95,-0.2582181,-1.154345,0.9448905,-0.7533284,-3.719326,-0.3676877,0.6124345,1.41426,0.4133749,-0.3752661,-0.7461802,-1.209262,-0.8575932,0.5760857,-0.2607568,0.7955495,1.516288,0.2839618,0.3990976,1.197228,0.2360077,275.4467,172.922,47.84229,True
3,0.3333333,-2.307871,0.6374426,-1.110611,-1.36506,-4.169159,-3.011512,0.5601351,1.210289,0.4621212,-1.932891,-0.004851942,2.4,0.85,-0.2830465,-1.209559,0.9308546,-0.7387156,-3.735379,-0.352039,0.6146623,1.417121,0.4135563,-0.3699346,-0.7568476,-1.212484,-0.868501,0.5603563,-0.2466439,0.7984211,1.51596,0.2829845,0.394915,1.207708,0.2366467,275.6437,155.6268,65.50183,True
3,0.3444445,-2.351777,0.6957389,-1.128055,-1.353275,-4.180655,-2.981385,0.5570116,1.21486,0.4619949,-1.933739,-0.0771369,2.54,0.76,-0.3417102,-1.305759,0.9665493,-0.7225145,-3.754376,-0.3324973,0.6166508,1.420125,0.4139755,-0.3645201,-0.749373,-1.201893,-0.8793097,0.545868,-0.2334117,0.80106,1.515547,0.2818465,0.3908313,1.21846,0.2374052,276.3082,140.2527,81.31828,True
3,0.3555556,-2.386086,0.7595442,-1.127434,-1.342609,-4.193636,-2.950693,0.5537388,1.219478,0.4617934,-1.933257,0.04519963,2.79,0.68,-0.3478587,-1.321695,0.9902371,-0.705572,-3.771639,-0.314959,0.6188334,1.422794,0.4142535,-0.3440487,-0.7333013,-1.173344,-0.8894617,0.5326615,-0.221877,0.8035838,1.515152,0.280982,0.38695,1.229409,0.2382557,277.3443,128.0795,93.94263,True
3,0.3666667,-2.416085,0.8181431,-1.108701,-1.333093,-4.206772,-2.920007,0.5507174,1.22422,0.4616468,-1.933165,0.008355513,3.03,0.6,-0.3444928,-1.316488,1.005173,-0.6899803,-3.787469,-0.2991175,0.6208771,1.425312,0.4143791,-0.314966,-0.7075958,-1.134246,-0.8990992,0.5206725,-0.2118361,0.805918,1.514745,0.2802038,0.3832545,1.240528,0.2391512,278.674,119.3728,103.0735,True
3,0.3777778,-2.425762,0.8534307,-1.09191,-1.324115,-4.220253,-2.889549,0.5476959,1.228924,0.4615488,-1.933634,-0.04251605,3.25,0.52,-0.3520714,-1.321709,0.9956269,-0.6755667,-3.805158,-0.2812541,0.6229872,1.427861,0.4144762,-0.3019919,-0.6883658,-1.110964,-0.9089923,0.508791,-0.2015603,0.8083551,1.51436,0.279398,0.3797722,1.251829,0.2401278,280.1708,113.3151,109.5241,True
3,0.3888889,-2.445211,0.9355788,-1.06268,-1.316743,-4.236423,-2.857086,0.5449095,1.233852,0.461308,-1.934393,-0.06859357,3.45,0.45,-0.4002591,-1.318138,0.9694966,-0.6619436,-3.823914,-0.2603706,0.6248983,1.430259,0.4145803,-0.301844,-0.6531463,-1.087608,-0.9191128,0.4983862,-0.1918227,0.8105744,1.513802,0.2786238,0.376432,1.263366,0.2411938,281.7225,108.7816,114.4521,True
3,0.4,-2.451739,0.9697822,-1.051104,-1.309635,-4.251713,-2.825624,0.5420644,1.238711,0.461339,-1.935343,-0.08591875,3.73,0.45,-0.4729941,-1.301614,0.927713,-0.649725,-3.842785,-0.2382373,0.6269342,1.432382,0.41467,-0.3250314,-0.6105086,-1.055543,-0.9288435,0.4889272,-0.1818444,0.8126849,1.51328,0.2779036,0.3733683,1.275088,0.2424357,283.2909,105.1435,118.5442,True
3,0.4111111,-2.462545,1.012382,-1.036499,-1.303196,-4.267653,-2.793579,0.5393826,1.243537,0.4611263,-1.934593,0.06934702,3.99,0.45,-0.4922901,-1.286505,0.9088404,-0.637058,-3.862082,-0.2168569,0.6288489,1.434759,0.414701,-0.3334478,-0.5881311,-1.040602,-0.9388798,0.4790749,-0.1720112,0.8149548,1.51285,0.2771361,0.3705916,1.286941,0.243846,284.9242,102.1688,122.0017,True
3,0.4222222,-2.464845,1.048767,-1.017419,-1.298184,-4.284302,-2.761228,0.5366907,1.248498,0.4611411,-1.935755,-0.1064947,4.23,0.45,-0.4952722,-1.256729,0.9090953,-0.6240399,-3.880343,-0.1970188,0.6305872,1.437108,0.4149275,-0.3292439,-0.563636,-1.041751,-0.9495117,0.4697999,-0.162965,0.8168516,1.512263,0.2763951,0.3680033,1.298999,0.2454134,286.5839,99.88863,124.7902,True
3,0.4333333,-2.462794,1.073361,-1.002691,-1.293146,-4.300944,-2.729069,0.5341256,1.253476,0.4609373,-1.93589,-0.01119007,4.46,0.45,-0.4908088,-1.213136,0.9147126,-0.6113041,-3.89779,-0.1774051,0.6323504,1.439397,0.4148338,-0.3206178,-0.560413,-1.031179,-0.9595534,0.4600525,-0.1541011,0.8188637,1.511809,0.275656,0.3657082,1.311152,0.247215,288.308,97.87462,127.3548,True
3,0.4444444,-2.451161,1.102409,-0.9762082,-1.289774,-4.318072,-2.697345,0.5316219,1.258524,0.4607558,-1.936122,-0.02106591,4.67,0.45,-0.4895406,-1.190837,0.9234222,-0.5985907,-3.916363,-0.1568535,0.6337103,1.441551,0.4146585,-0.2957105,-0.5528184,-0.9834791,-0.9680638,0.4509505,-0.1463564,0.8203353,1.51129,0.2749145,0.3636802,1.32335,0.2491792,290.055,96.15358,129.6654,True
3,0.4555556,-2.428869,1.128222,-0.949787,-1.28694,-4.335163,-2.665988,0.5292576,1.263431,0.4606559,-1.936646,-0.04747156,4.95,0.53,-0.4879771,-1.143163,0.9546609,-0.5853798,-3.9333,-0.1374409,0.6351486,1.443683,0.4144597,-0.2793833,-0.5366968,-0.9442601,-0.976604,0.4429359,-0.139359,0.8220062,1.510727,0.2741423,0.3618828,1.335586,0.2512859,291.7914,94.72746,131.6951,True
3,0.4666667,-2.402265,1.150909,-0.9223304,-1.284765,-4.352448,-2.635106,0.5271016,1.26834,0.4602594,-1.937493,-0.07698058,5.21,0.61,-0.4971571,-1.09217,0.9753883,-0.5725296,-3.949878,-0.1177631,0.6363395,1.445796,0.4141974,-0.2778114,-0.49821,-0.8815003,-0.9837941,0.436484,-0.1327322,0.8234048,1.510366,0.2735717,0.360321,1.347819,0.2534639,293.5239,93.56542,133.5168,True
3,0.4777778,-2.374567,1.16718,-0.9001583,-1.283219,-4.369543,-2.604818,0.5248128,1.273219,0.4600053,-1.938068,-0.05177915,5.46,0.69,-0.5266305,-1.054967,0.9994123,-0.5595919,-3.967322,-0.09618139,0.6375982,1.447878,0.4137578,-0.2836511,-0.445846,-0.8123305,-0.9901862,0.4316791,-0.1268288,0.8245683,1.509954,0.2730098,0.3590166,1.359984,0.2557132,295.2402,92.56634,135.1713,True
3,0.4888889,-2.358593,1.170488,-0.8927366,-1.281858,-4.385985,-2.575269,0.5227814,1.278017,0.4598768,-1.938681,-0.05570059,5.69,0.75,-0.5648064,-1.027192,1.004264,-0.547816,-3.985158,-0.07381883,0.6388279,1.44986,0.4134912,-0.2822347,-0.4159226,-0.7644511,-0.9963099,0.426564,-0.1209033,0.8257731,1.509516,0.2726038,0.3580264,1.371948,0.2580426,296.9455,91.68701,136.7361,True
3,0.5,-2.328709,1.154605,-0.8947867,-1.280226,-4.402082,-2.546309,0.520584,1.282835,0.4598999,-1.939234,-0.05020524,6.03,0.77,-0.6098702,-0.9827338,1.061536,-0.5338578,-4.001393,-0.05174629,0.6396482,1.451837,0.4130716,-0.2892652,-0.3923815,-0.7122424,-1.001859,0.4216365,-0.114839,0.8270323,1.509156,0.2721255,0.3573113,1.383671,0.2603548,298.6418,90.96973,138.1651,True
3,0.5111111,-2.297725,1.126952,-0.9073992,-1.278298,-4.418131,-2.517488,0.5184948,1.287771,0.4598827,-1.939715,-0.04369331,6.35,0.79,-0.5962583,-0.9428534,1.132025,-0.5185867,-4.018118,-0.03117337,0.6406703,1.453873,0.4125736,-0.302622,-0.3411244,-0.6483199,-1.006482,0.4187973,-0.1095028,0.8279977,1.508693,0.2716718,0.3568452,1.395074,0.2626306,300.3168,90.40639,139.3788,True
3,0.5222223,-2.276499,1.107751,-0.9133977,-1.277853,-4.433998,-2.488201,0.5164,1.292651,0.4607072,-1.940068,-0.03207762,6.65,0.81,-0.5720793,-0.9018537,1.191764,-0.5030525,-4.034405,-0.01150352,0.6414577,1.455818,0.411994,-0.3015341,-0.2984896,-0.6388351,-1.01313,0.4157456,-0.1046617,0.8289495,1.508177,0.2711947,0.3566584,1.406052,0.2648846,301.9467,90.0075,140.3659,True
3,0.5333334,-2.239144,1.08544,-0.9260677,-1.276429,-4.44984,-2.460606,0.5144088,1.297518,0.4608474,-1.94001,0.005349733,6.93,0.83,-0.5465828,-0.8226348,1.263479,-0.4870016,-4.047074,0.004595817,0.6422204,1.457533,0.4112322,-0.2995145,-0.2740168,-0.6484854,-1.02015,0.4122583,-0.09972819,0.8297399,1.507817,0.2707665,0.356634,1.416645,0.2670603,303.5481,89.78705,141.1166,True
3,0.5444446,-2.210473,1.072612,-0.9364511,-1.276211,-4.465932,-2.432258,0.5123138,1.302464,0.4610357,-1.939272,0.06713022,7.19,0.85,-0.5549988,-0.7679773,1.358796,-0.4691238,-4.062059,0.02434449,0.6426998,1.459242,0.4105372,-0.2908483,-0.2430612,-0.6273223,-1.026172,0.4096332,-0.09548099,0.8305472,1.507389,0.2703023,0.356722,1.426905,0.26918,305.0802,89.79155,141.5362,True
3,0.5555557,-2.174176,1.047105,-0.9469475,-1.275241,-4.482019,-2.404437,0.5100128,1.307502,0.4612882,-1.940667,-0.1280802,7.52,0.95,-0.57546,-0.7440224,1.435891,-0.4506063,-4.08091,0.04851267,0.6434164,1.461113,0.4097714,-0.2980626,-0.2302258,-0.5974526,-1.03157,0.4064953,-0.0902319,0.8313552,1.506958,0.2698987,0.3569184,1.436929,0.2714169,306.5156,89.86464,141.8232,True
3,0.5666668,-2.135765,1.014139,-0.9467074,-1.274653,-4.497238,-2.377133,0.5078398,1.312423,0.4610481,-1.939897,0.07116845,7.83,1.03,-0.6084185,-0.6903085,1.520793,-0.4311439,-4.097788,0.07144809,0.6439258,1.46292,0.4091249,-0.3060002,-0.1810763,-0.5229132,-1.034929,0.405636,-0.08596711,0.8318955,1.506505,0.2695849,0.3571462,1.446848,0.2736875,307.9656,89.92757,142.2845,True
3,0.577778,-2.102551,0.9685228,-0.9421426,-1.273842,-4.511927,-2.350366,0.5058824,1.317376,0.461221,-1.940065,-0.01614631,8.12,1.11,-0.6197909,-0.649971,1.540397,-0.4137402,-4.115976,0.09536433,0.6445253,1.464799,0.40835,-0.3025508,-0.1554549,-0.491029,-1.039303,0.4039361,-0.08189274,0.832512,1.506157,0.269326,0.3573246,1.456794,0.2759428,309.4208,90.00493,142.7852,True
3,0.5888891,-2.058679,0.9154997,-0.9289961,-1.273201,-4.525707,-2.324519,0.5040696,1.322157,0.4611096,-1.940115,-0.004617208,8.39,1.19,-0.6069609,-0.6318659,1.535106,-0.3974278,-4.137334,0.1212119,0.6450227,1.466729,0.4075446,-0.3076893,-0.128774,-0.4654738,-1.043572,0.4029204,-0.07775232,0.8330309,1.50579,0.2691092,0.3574778,1.466743,0.2781549,310.8938,90.06866,143.3599,True
3,0.6000003,-2.001937,0.8486663,-0.9137186,-1.271891,-4.538157,-2.300511,0.5021926,1.326975,0.4608738,-1.940246,-0.01209083,8.55,1.3,-0.5869631,-0.6274735,1.50937,-0.3826163,-4.160639,0.1485716,0.6454737,1.46848,0.40694,-0.3332963,-0.103275,-0.4652864,-1.048674,0.4018212,-0.07256608,0.8334957,1.505501,0.2688763,0.3577449,1.476537,0.280265,312.2942,90.10019,144.0203,True
3,0.6111114,-1.958093,0.8105971,-0.8996506,-1.27151,-4.551135,-2.276314,0.5005413,1.331734,0.4609807,-1.940635,-0.03574849,8.71,1.4,-0.5447759,-0.6369022,1.457726,-0.3696862,-4.187545,0.1775394,0.6459805,1.470047,0.4065287,-0.3481607,-0.08516768,-0.4566722,-1.053438,0.4010847,-0.06779103,0.8339778,1.505164,0.2686615,0.3583141,1.485975,0.2822863,313.6134,90.18114,144.5935,True
3,0.6222225,-1.882189,0.7502884,-0.8791178,-1.270368,-4.562496,-2.254878,0.4990106,1.336184,0.4609082,-1.941789,-0.10532,8.85,1.5,-0.5166615,-0.6535743,1.397652,-0.3580679,-4.216099,0.2088131,0.6463116,1.471656,0.405762,-0.3618129,-0.07128596,-0.4320766,-1.057257,0.4003593,-0.06302637,0.8343858,1.504845,0.2684672,0.3592454,1.495018,0.2841006,314.9067,90.23196,145.1772,True
3,0.6333337,-1.8031,0.6964942,-0.8489917,-1.269846,-4.573171,-2.234614,0.4976919,1.340264,0.4609792,-1.941466,0.02995682,8.99,1.59,-0.5098888,-0.6477214,1.327316,-0.3476666,-4.243561,0.2399338,0.6466554,1.473141,0.405318,-0.3678306,-0.05095848,-0.3873229,-1.059942,0.4002718,-0.05878901,0.8345979,1.504563,0.268394,0.3605007,1.503647,0.2855795,316.2307,90.28701,145.6269,True
3,0.6444448,-1.720816,0.6545081,-0.8073096,-1.269748,-4.583235,-2.215509,0.4964275,1.344404,0.4609814,-1.943214,-0.1604668,9.12,1.67,-0.4967401,-0.6418643,1.255857,-0.3382353,-4.271688,0.2714571,0.646992,1.474666,0.4048088,-0.3675697,-0.02958144,-0.3543504,-1.062818,0.4005207,-0.05488562,0.8349108,1.504255,0.2683403,0.3620382,1.511845,0.286775,317.5406,90.40839,145.8498,True
3,0.655556,-1.668505,0.6368368,-0.7731566,-1.270602,-4.593454,-2.195851,0.4950948,1.348286,0.4610169,-1.943783,-0.05111158,9.08,1.82,-0.4865769,-0.642601,1.209933,-0.3289467,-4.302829,0.3059479,0.647325,1.476123,0.4043291,-0.3643079,-0.02956812,-0.3479832,-1.06638,0.3998578,-0.05076385,0.8351688,1.504003,0.2682667,0.3638406,1.519426,0.2877471,318.8487,90.48412,146.0315,True
3,0.6666671,-1.586344,0.6301128,-0.716801,-1.27254,-4.602766,-2.178503,0.4940731,1.351901,0.4611123,-1.944099,-0.02905869,9.04,1.96,-0.4841541,-0.6345008,1.130088,-0.3217109,-4.332126,0.3389466,0.6476908,1.477315,0.4037042,-0.3472126,-0.04658508,-0.3449002,-1.070069,0.3983574,-0.04680266,0.8353789,1.503749,0.2683313,0.3657786,1.526352,0.2885432,320.0956,90.54446,146.1344,True
3,0.6777782,-1.502095,0.6351779,-0.6530397,-1.275631,-4.611544,-2.16229,0.493314,1.355054,0.4610832,-1.94291,0.1084085,9,2.1,-0.4811625,-0.5959169,1.097319,-0.3134157,-4.360065,0.3706931,0.6480653,1.478537,0.4033296,-0.3397199,-0.0487126,-0.3406909,-1.073572,0.3973677,-0.04273947,0.8357472,1.503537,0.2681975,0.3676251,1.532856,0.2891589,321.2801,90.63609,146.1423,True
3,0.6888894,-1.416793,0.6445065,-0.5893114,-1.279341,-4.619915,-2.146901,0.492621,1.358038,0.4610388,-1.944113,-0.1114588,8.96,2.22,-0.4652172,-0.5617697,1.083575,-0.3044867,-4.390103,0.4039914,0.6484693,1.479736,0.4029024,-0.3278775,-0.03374614,-0.3248534,-1.076676,0.3973772,-0.03956765,0.8359609,1.503281,0.2682335,0.3692667,1.539076,0.2897106,322.3459,90.77847,146.0734,True
3,0.7000005,-1.330432,0.6527708,-0.522385,-1.28376,-4.627531,-2.132568,0.4918056,1.360864,0.4609973,-1.944487,-0.03368564,8.92,2.34,-0.4398578,-0.5477712,1.056815,-0.296682,-4.422636,0.4391377,0.6487106,1.480988,0.4023917,-0.3235933,-0.01242593,-0.3196209,-1.080184,0.3977659,-0.03629595,0.8361347,1.503029,0.2682931,0.3707609,1.54493,0.2904077,323.2508,90.89776,146.073,True
3,0.7111117,-1.274943,0.6458112,-0.4840589,-1.287459,-4.63527,-2.117716,0.4910059,1.363924,0.460942,-1.944402,0.007466304,8.72,2.34,-0.4160225,-0.5270501,0.985356,-0.2912481,-4.452008,0.4711513,0.6489035,1.482047,0.401993,-0.3149911,-0.002809346,-0.3090676,-1.083387,0.3978207,-0.03301201,0.8362703,1.50282,0.268398,0.3721413,1.55037,0.2913665,324.0261,90.97113,146.2359,True
3,0.7222228,-1.194876,0.6252197,-0.4275816,-1.291293,-4.641305,-2.105445,0.4902584,1.366725,0.4614117,-1.944397,-0.0002516747,8.54,2.34,-0.4005077,-0.4743888,0.9206322,-0.2856672,-4.476037,0.4981552,0.6489543,1.483005,0.4016621,-0.3042516,0.008950159,-0.2974747,-1.086378,0.3982177,-0.03015604,0.8363722,1.502617,0.2684395,0.3733837,1.55552,0.2925863,324.7405,91.01221,146.5217,True
3,0.7333339,-1.116941,0.598124,-0.384866,-1.294829,-4.646899,-2.094286,0.4895322,1.369053,0.4614103,-1.943129,0.1154804,8.36,2.34,-0.3786272,-0.4292285,0.8579092,-0.2807558,-4.499244,0.5239761,0.6490042,1.483882,0.4013395,-0.2912778,0.03671968,-0.2720779,-1.088475,0.3996578,-0.02811286,0.8363045,1.50244,0.2685759,0.3744344,1.560555,0.2940083,325.4279,91.00593,146.9076,True
3,0.7444451,-1.048591,0.5634161,-0.3580861,-1.297654,-4.652491,-2.083339,0.4888241,1.3714,0.4613843,-1.944345,-0.11275,8.2,2.34,-0.3373901,-0.4013355,0.8172379,-0.2757927,-4.524775,0.5509564,0.648893,1.48477,0.4011641,-0.2791525,0.04642859,-0.225328,-1.08943,0.4005297,-0.02585823,0.8362874,1.502229,0.2687728,0.3753157,1.565611,0.2955533,326.0371,91.03897,147.2697,True
3,0.7555562,-1.008031,0.5477157,-0.3388498,-1.300989,-4.658179,-2.071894,0.4882262,1.373668,0.4613707,-1.944708,-0.03268547,8.05,3.19,-0.308912,-0.3894766,0.78613,-0.2715237,-4.552125,0.5797915,0.6488047,1.485562,0.4009316,-0.2650824,0.04330879,-0.2009427,-1.090823,0.4009204,-0.02359081,0.8362844,1.502028,0.2689104,0.3761755,1.570393,0.2972982,326.6044,90.98932,147.696,True
3,0.7666674,-0.9482408,0.5268511,-0.3068481,-1.304265,-4.662924,-2.062109,0.4876387,1.375728,0.4612985,-1.944124,0.05307199,7.91,3.98,-0.2900867,-0.3849343,0.7381122,-0.2677904,-4.580791,0.6095605,0.6486202,1.48654,0.4009774,-0.2360277,0.0306273,-0.1702746,-1.091769,0.4006682,-0.02181156,0.836326,1.501931,0.269233,0.3770222,1.574749,0.2990992,327.1767,90.8537,148.3199,True
3,0.7777785,-0.9087273,0.509071,-0.2812001,-1.307664,-4.667369,-2.052309,0.4868642,1.377793,0.4612696,-1.942826,0.1175722,7.77,4.73,-0.3065471,-0.392005,0.6955999,-0.2654373,-4.609028,0.6409075,0.6485687,1.487505,0.4008436,-0.2199499,0.03387372,-0.1587057,-1.093166,0.4011682,-0.02013403,0.8363552,1.501748,0.2695224,0.3778074,1.578759,0.3007427,327.7275,90.77589,148.9056,True
3,0.7888896,-0.8542694,0.4936107,-0.2385774,-1.311438,-4.670929,-2.04384,0.4859326,1.379736,0.461225,-1.943418,-0.05556194,7.65,5.42,-0.3209891,-0.4256686,0.6475829,-0.2641366,-4.641486,0.6763356,0.6483362,1.488312,0.4006145,-0.2061088,0.06693089,-0.1535754,-1.09477,0.4032286,-0.01913401,0.8363217,1.501532,0.2698934,0.3785544,1.582542,0.302124,328.198,90.77271,149.3384,True
3,0.8000008,-0.8040608,0.4706983,-0.1926686,-1.315233,-4.673771,-2.035663,0.4850156,1.381541,0.4613321,-1.942758,0.06045449,7.53,6.07,-0.3211486,-0.4202023,0.6295154,-0.2619554,-4.670646,0.7080352,0.6480451,1.489061,0.4004636,-0.2075657,0.1051905,-0.1909364,-1.098186,0.4058307,-0.01789591,0.8362381,1.501387,0.2703094,0.3793004,1.586088,0.3032244,328.656,90.76151,149.6567,True
3,0.8111119,-0.7794649,0.4484967,-0.1818783,-1.318308,-4.677352,-2.02682,0.4841088,1.383528,0.4612701,-1.943137,-0.03560048,7.42,12.46,-0.3138532,-0.410506,0.6135268,-0.2600758,-4.699108,0.7389641,0.6478364,1.489857,0.4003217,-0.2141783,0.1392269,-0.2101271,-1.101186,0.408732,-0.01658643,0.836163,1.501281,0.2707081,0.3799997,1.589505,0.3040513,329.1342,90.73534,149.8573,True
3,0.8222231,-0.754795,0.41041,-0.16673,-1.320874,-4.680716,-2.018205,0.4829915,1.385673,0.4612403,-1.942674,0.04226781,7.32,18.44,-0.3058134,-0.3973415,0.5613479,-0.2594079,1.56032,0.7650354,0.64748,1.490464,0.4001555,-0.2129272,0.1531297,-0.1878004,-1.102582,0.4110989,-0.01543968,0.8359596,1.50127,0.2710059,0.3806237,1.592755,0.3047001,329.6239,90.66792,149.9855,True
3,0.8333342,-0.7397943,0.3870217,-0.1687038,-1.323304,-4.684228,-2.009596,0.4822029,1.387616,0.4611413,-1.941565,0.1005544,7.22,24.03,-0.3135853,-0.4035016,0.5336719,-0.2591682,1.532851,0.7954223,0.6473899,1.491159,0.39994,-0.2158428,0.1382763,-0.1589776,-1.10343,0.4122412,-0.01349317,0.8358181,1.501211,0.2712648,0.3811433,1.595837,0.3052607,330.0729,90.60074,150.0862,True
3,0.8444453,-0.7183758,0.3507738,-0.1823373,-1.324522,-4.687876,-2.001416,0.4812289,1.389556,0.460942,-1.941142,0.03745806,7.13,29.26,-0.33631,-0.3946177,0.497744,-0.2591335,1.509363,0.822733,0.6471371,1.491746,0.3995848,-0.2120556,0.09686512,-0.09926122,-1.102552,0.4118108,-0.01106597,0.8355504,1.501141,0.2714298,0.3815195,1.598956,0.3057213,330.4967,90.62221,150.1636,True
3,0.8555565,-0.7044192,0.3123806,-0.1959179,-1.325532,-4.691464,-1.993007,0.4804438,1.391453,0.4608383,-1.94075,0.03532393,7.66,44.45,-0.3372954,-0.3839949,0.5020984,-0.2581887,1.482376,0.8526504,0.6468203,1.492454,0.3993659,-0.2158421,0.0575484,-0.05226746,-1.101708,0.4111274,-0.008188421,0.835243,1.501087,0.271558,0.3817837,1.602141,0.3061244,330.8823,90.6775,150.2302,True
3,0.8666676,-0.6989989,0.280346,-0.208482,-1.326242,-4.694993,-1.984505,0.4795361,1.393416,0.4606988,-1.940809,-0.005909414,8.17,58.67,-0.3212644,-0.372339,0.503089,-0.2573791,1.456,0.8811167,0.6464498,1.493213,0.3992183,-0.2113947,0.03948662,-0.03415425,-1.101504,0.4109871,-0.00589757,0.8349576,1.501011,0.2717462,0.3820534,1.605236,0.3065287,331.2224,90.74294,150.3533,True
3,0.8777788,-0.6860954,0.235497,-0.2283924,-1.326021,-4.698481,-1.976469,0.4786287,1.395201,0.4606221,-1.940243,0.05159503,8.64,71.97,-0.2968491,-0.3638332,0.4943709,-0.2571618,1.430925,0.9080221,0.6460778,1.493849,0.3989613,-0.1997726,0.03628787,-0.04489999,-1.102477,0.411485,-0.004225904,0.834651,1.500964,0.2720068,0.3823654,1.608167,0.3068992,331.5931,90.8142,150.5035,True
3,0.8888899,-0.6796185,0.2099309,-0.2314151,-1.326312,-4.701679,-1.968366,0.4777292,1.397165,0.460597,-1.939785,0.04121445,9.08,84.42,-0.2969134,-0.319991,0.4734067,-0.2561636,1.411634,0.9299599,0.6456374,1.494415,0.3985536,-0.1699982,0.04377799,-0.05050249,-1.103173,0.4123134,-0.003793407,0.8342294,1.500963,0.2722759,0.3827614,1.610945,0.3072095,331.9645,90.89724,150.6075,True
3,0.900001,-0.6603185,0.1694254,-0.2417859,-1.325618,-4.704682,-1.961128,0.476714,1.398882,0.4605725,-1.939953,-0.01581373,9.49,96.07,-0.3008933,-0.2945664,0.4928196,-0.2546909,1.386388,0.957854,0.6451951,1.495004,0.3982928,-0.1785956,0.09809546,-0.04948547,-1.10365,0.4154609,-0.002923352,0.8338313,1.50096,0.2726398,0.3832452,1.613636,0.3074251,332.3771,90.97263,150.6815,True
3,0.9111122,-0.650699,0.1587984,-0.2427824,-1.325947,-4.70785,-1.953421,0.4758179,1.400579,0.4604967,-1.939613,0.03106001,10.79,100,-0.3039686,-0.2722185,0.497287,-0.2533465,1.362374,0.9845759,0.6447321,1.495511,0.3978853,-0.1992448,0.1714901,-0.08355956,-1.10565,0.4202155,-0.002184857,0.8334246,1.500935,0.2730205,0.3838142,1.616184,0.3075382,332.8294,91.04965,150.6983,True
3,0.9222233,-0.63471,0.1599626,-0.2364404,-1.326602,-4.710971,-1.946075,0.4749756,1.402025,0.4603741,-1.940161,-0.0505314,12.01,100,-0.3114753,-0.260397,0.4889283,-0.2527825,1.34012,1.009867,0.6443207,1.496033,0.3976114,-0.2005817,0.2033901,-0.1081226,-1.107664,0.4237641,-0.001419199,0.8330534,1.500911,0.2734306,0.3844321,1.618698,0.307553,333.2939,91.1126,150.6703,True
3,0.9333345,-0.6240588,0.1632623,-0.2279583,-1.327583,1.569266,-1.938707,0.4741759,1.403526,0.4602649,-1.939567,0.05460015,13.15,100,-0.3164634,-0.2254191,0.5126856,-0.2506397,1.314594,1.038463,0.6438488,1.496447,0.3972247,-0.1930852,0.2023476,-0.1039294,-1.108692,0.4261636,-0.0006045375,0.8327222,1.500886,0.2738097,0.3850597,1.62104,0.3075004,333.7915,91.15965,150.6384,True
3,0.9444456,-0.6081011,0.174022,-0.22061,-1.328859,1.56624,-1.931709,0.4732929,1.40489,0.4600973,-1.939131,0.03846227,14.21,100,-0.3194679,-0.1945841,0.5214756,-0.248638,1.290743,1.065247,0.6433471,1.496755,0.3969994,-0.1811902,0.1970836,-0.08484675,-1.108962,0.4283758,5.060006E-05,0.8322973,1.500829,0.2741737,0.38564,1.623273,0.3074171,334.2584,91.21812,150.5903,True
3,0.9555568,-0.595323,0.1816368,-0.2057721,-1.330357,1.563615,-1.924787,0.4724817,1.406089,0.4599938,-1.937783,0.1216932,15.96,100,-0.3165863,-0.1804647,0.4853355,-0.2480436,1.272554,1.086332,0.6428482,1.497151,0.396713,-0.169333,0.2131212,-0.06687883,-1.109145,0.4316142,4.181163E-05,0.8319062,1.500796,0.2745638,0.3861284,1.625364,0.3073684,334.6936,91.27894,150.5535,True
3,0.9666679,-0.5846695,0.1871071,-0.1919819,-1.331884,1.561166,-1.918026,0.4716832,1.407358,0.4599416,-1.936176,0.1440249,17.59,100,-0.3019494,-0.1738922,0.4554074,-0.2477789,1.254608,1.106555,0.6423225,1.497499,0.3964615,-0.1629272,0.2291175,-0.06270905,-1.109714,0.435033,0.0001243696,0.8315115,1.500776,0.2748556,0.3864551,1.627411,0.3073831,335.0941,91.33411,150.538,True
3,0.977779,-0.5579895,0.1831209,-0.1664325,-1.333177,1.559494,-1.912223,0.470894,1.408535,0.4597261,-1.933496,0.2415012,19.12,100,-0.2855486,-0.1659697,0.3892432,-0.2482412,1.244131,1.119379,0.6417934,1.497778,0.3962038,-0.1587553,0.2344289,-0.07127971,-1.110867,0.4380576,0.0005661881,0.8310947,1.500754,0.2751594,0.386549,1.629376,0.3075063,335.4694,91.37574,150.565,True
3,0.9888902,-0.5323833,0.1812784,-0.1408838,-1.334836,1.558072,-1.906812,0.4702123,1.409463,0.4595144,-1.93016,0.3000729,20.55,100,-0.2667699,-0.1625255,0.3485967,-0.2487211,1.231846,1.133603,0.6412668,1.497978,0.3961036,-0.1480289,0.2312627,-0.06391163,-1.111323,0.4407968,0.0005850965,0.8306743,1.500668,0.2756016,0.3863641,1.631227,0.3077695,335.7601,91.40538,150.6259,True
3,1.000001,-0.5078548,0.1825956,-0.1185569,-1.336583,1.556721,-1.901638,0.469584,1.410322,0.4592481,-1.926692,0.3110888,21.89,100,-0.2578747,-0.183389,0.2876118,-0.2506738,1.222237,1.145541,0.6408803,1.498289,0.3958666,-0.134229,0.2323349,-0.06829139,-1.112146,0.4436378,0.0004958806,0.8302859,1.500566,0.2759192,0.3858658,1.63303,0.3081489,335.9475,91.42315,150.7454,True
3,1.011112,-0.4790986,0.1924686,-0.09309987,-1.338823,1.555731,-1.896911,0.4689921,1.411045,0.4589896,-1.921999,0.4225001,23.1,100,-0.2598459,-0.2093891,0.2075149,-0.2537236,1.218191,1.15249,0.6405388,1.498449,0.3958695,-0.1238142,0.2365551,-0.09502161,-1.113995,0.4467942,0.0001073254,0.8299698,1.500504,0.2763021,0.3850459,1.634701,0.3085928,336.0336,91.40456,150.9584,True
3,1.022224,-0.4503035,0.1938331,-0.06652264,-1.340829,1.555006,-1.892612,0.4683881,1.41177,0.4587624,-1.916384,0.5052056,24.24,100,-0.2509072,-0.249502,0.1570383,-0.2571937,1.2109,1.162098,0.6402303,1.498586,0.3958752,-0.1174814,0.2226911,-0.1035666,-1.115353,0.4489915,0.0003030677,0.8296683,1.500445,0.2766192,0.3839102,1.636134,0.3090611,336.0168,91.39052,151.2022,True
3,1.033335,-0.4257768,0.1951718,-0.04099815,-1.342995,1.554664,-1.888539,0.4678692,1.412516,0.4585021,-1.910142,0.5614976,25.3,100,-0.2403594,-0.2601292,0.1493891,-0.2595123,1.200796,1.174086,0.6398908,1.498795,0.3958862,-0.1088288,0.2024863,-0.0929397,-1.115916,0.4507565,0.0004026699,0.8294493,1.500473,0.2769532,0.382466,1.637354,0.3094987,335.9099,91.40794,151.4184,True
3,1.044446,-0.3916165,0.184845,-0.01326427,-1.344868,1.554873,-1.885406,0.4672769,1.413134,0.4582825,-1.903127,0.6310264,26.29,100,-0.2203077,-0.268591,0.1331408,-0.2620119,1.192551,1.183797,0.6396017,1.49903,0.3959572,-0.1022087,0.1641878,-0.07373445,-1.116071,0.4513607,0.001029045,0.8291589,1.500443,0.2772563,0.3807298,1.638396,0.3098922,335.7262,91.4381,151.5863,True
3,1.055557,-0.3585038,0.165963,0.01027457,-1.346316,1.555213,-1.882427,0.4667323,1.413801,0.45805,-1.89519,0.7143659,27.22,100,-0.213203,-0.2726105,0.09895328,-0.2648748,1.187829,1.190432,0.6392646,1.499311,0.3959777,-0.09559865,0.1418741,-0.05348785,-1.115879,0.4524404,0.001331314,0.8289407,1.500435,0.2776089,0.3787111,1.639335,0.3102235,335.4679,91.47281,151.7159,True
3,1.066668,-0.3253679,0.1395859,0.02961056,-1.347265,1.555861,-1.879936,0.4662319,1.414385,0.4577999,-1.887176,0.7202506,28.38,100,-0.2162125,-0.250312,0.1098115,-0.2662437,1.179525,1.200947,0.6390176,1.499685,0.3959284,-0.09021634,0.137632,-0.04819476,-1.116138,0.4539533,0.001448227,0.8286632,1.500411,0.2779319,0.376443,1.64021,0.3104914,335.1339,91.50431,151.8293,True
3,1.077779,-0.300787,0.12167,0.04463445,-1.34831,1.556614,-1.877553,0.465704,1.414977,0.4575391,-1.877891,0.8360592,29.46,100,-0.2118793,-0.2279651,0.1099476,-0.2675513,1.17212,1.210372,0.638782,1.499892,0.3959124,-0.07960951,0.1365749,-0.05361651,-1.117006,0.455696,0.001232245,0.828375,1.500396,0.2782476,0.3739441,1.640942,0.3107104,334.7646,91.51593,151.9461,True
3,1.08889,-0.2687395,0.1006026,0.06179098,-1.349139,1.557647,-1.875731,0.4652994,1.415527,0.4572771,-1.868266,0.8657765,30.48,100,-0.2031281,-0.1843862,0.1187202,-0.2676434,1.165775,1.218563,0.6384498,1.500118,0.3958356,-0.1030696,0.1514486,-0.05451066,-1.117682,0.4580909,0.002007491,0.8281463,1.500317,0.2787361,0.3712242,1.641527,0.310856,334.3379,91.53373,152.0589,True
3,1.100002,-0.2377906,0.09340897,0.08311788,-1.350362,1.558891,-1.874392,0.4648374,1.416019,0.4569983,-1.857875,0.9352985,31.43,100,-0.1987247,-0.1311043,0.1148322,-0.2668546,1.162358,1.223895,0.6381531,1.500349,0.3957443,-0.1093902,0.1503917,-0.04592801,-1.117868,0.4598262,0.002690325,0.827898,1.500262,0.2791293,0.3683079,1.641931,0.3109082,333.8601,91.56793,152.1463,True
3,1.111113,-0.2175037,0.08722761,0.1012507,-1.3516,1.560279,-1.872968,0.4642965,1.416395,0.456666,-1.847466,0.9361744,32.49,100,-0.1915587,-0.05375116,0.1654391,-0.263826,1.152658,1.235173,0.6378991,1.500597,0.3957195,-0.1137005,0.1471748,-0.05227274,-1.118617,0.4615096,0.003282612,0.8276504,1.500268,0.2795315,0.3652162,1.642198,0.3108609,333.321,91.61908,152.1887,True
3,1.122224,-0.1972365,0.09070422,0.1288964,-1.353363,1.562136,-1.871773,0.463795,1.416865,0.4562702,-1.836692,0.9693629,33.48,100,-0.1883854,-0.05053795,0.1622384,-0.2637877,1.145766,1.24386,0.6376678,1.500803,0.3957243,-0.1116548,0.1429012,-0.06186525,-1.119592,0.4632514,0.003792075,0.8274496,1.500211,0.2797575,0.3619947,1.642325,0.3107352,332.7288,91.68069,152.1931,True
3,1.133335,-0.1844549,0.09831633,0.1437354,-1.355238,1.563769,-1.870491,0.4633143,1.417159,0.4558704,-1.825062,1.047193,34.4,100,-0.1996327,-0.06926901,0.1100005,-0.2653755,1.146106,1.246159,0.6373881,1.500951,0.3956757,-0.1042024,0.141848,-0.06299005,-1.120267,0.4650442,0.003882889,0.8272747,1.50013,0.2801549,0.3586524,1.642324,0.3105708,332.1327,91.72832,152.1878,True
3,1.144446,-0.1652683,0.09845186,0.1532938,-1.356834,1.565355,-1.869564,0.4628368,1.417538,0.4554369,-1.813386,1.050627,35.26,100,-0.224217,-0.06912055,0.1017267,-0.2658698,1.142032,1.253399,0.637208,1.501086,0.3957522,-0.09894337,0.1375759,-0.07048189,-1.121266,0.4665792,0.004258395,0.8271436,1.500066,0.2805963,0.3551902,1.642237,0.3103886,331.5169,91.75247,152.1979,True
3,1.155557,-0.1567367,0.09959804,0.1596656,-1.358538,1.566915,-1.868487,0.4622237,1.417839,0.4550192,-1.801517,1.06828,36.07,100,-0.235839,-0.07130457,0.1124816,-0.2662416,1.134586,1.263663,0.6369978,1.50116,0.3957798,-0.09691592,0.1482143,-0.08011105,-1.122495,0.4689074,0.004314853,0.8270646,1.5001,0.2809942,0.3516362,1.64214,0.3102071,330.853,91.75693,152.2326,True
3,1.166668,-0.1428364,0.08258365,0.1576478,-1.359323,1.568434,-1.867648,0.4616911,1.418281,0.4546828,-1.789995,1.036436,36.5,100,-0.2319088,-0.09776006,0.08879589,-0.2680456,1.131722,1.26885,0.63684,1.50119,0.3958714,-0.08216596,0.1631132,-0.09625779,-1.124155,0.4715407,0.003547597,0.8270062,1.499964,0.2814615,0.3480466,1.641982,0.3100622,330.1703,91.77361,152.2918,True
3,1.17778,-0.1427658,0.05700654,0.1557088,-1.359585,1.570019,-1.866229,0.4612019,1.418625,0.4542868,-1.777973,1.082412,36.9,100,-0.2332815,-0.1092841,0.06315248,-0.269791,1.130287,1.272951,0.6365958,1.501226,0.3959692,-0.06953968,0.1705457,-0.1123776,-1.126054,0.4737733,0.003001383,0.8268856,1.499962,0.2819736,0.3444443,1.641781,0.3099501,329.5118,91.79932,152.3626,True
3,1.188891,-0.1458632,0.02818309,0.1506062,-1.359318,-4.711444,-1.864977,0.4605698,1.418922,0.4538417,-1.766256,1.054055,37.27,100,-0.2355399,-0.1209237,0.05455324,-0.2712387,1.127501,1.278315,0.6362808,1.501295,0.396152,-0.06212062,0.1833312,-0.1145988,-1.127337,0.476456,0.002260491,0.8266287,1.499827,0.2824838,0.3408327,1.641537,0.3098707,328.8767,91.81341,152.4396,True
3,1.200002,-0.150061,0.01007745,0.1528805,-1.359432,-4.709564,-1.863562,0.460053,1.419226,0.4535921,-1.753741,1.127438,37.62,100,-0.2295478,-0.1398594,0.02131945,-0.2735317,1.128044,1.280172,0.6359768,1.501387,0.3962848,-0.06845412,0.1886649,-0.1070974,-1.128263,0.4790093,0.002157161,0.8264531,1.499727,0.2829452,0.337231,1.64123,0.3097898,328.2368,91.83366,152.5236,True
3,1.211113,-0.1542947,0.001531288,0.1518881,-1.359656,-4.707831,-1.862093,0.4593905,1.419529,0.4532578,-1.741877,1.067173,37.66,100,-0.2243801,-0.1482993,0.008416541,-0.2754971,1.127273,1.283235,0.6356746,1.501458,0.396353,-0.07585804,0.1939843,-0.1006495,-1.129083,0.4814267,0.002164351,0.8262501,1.499657,0.2834094,0.3336761,1.64081,0.3096451,327.5968,91.85756,152.6295,True
3,1.222224,-0.1521517,-0.003804177,0.1497948,-1.359914,-4.706212,-1.860826,0.4588779,1.419822,0.4529965,-1.729776,1.089355,37.7,100,-0.2232815,-0.146189,0.01054993,-0.2769091,1.125015,1.287751,0.6353037,1.501565,0.3964155,-0.08230547,0.185428,-0.1080316,-1.130487,0.4833185,0.002524943,0.8261487,1.499464,0.28391,0.3301792,1.640262,0.3093754,326.9796,91.88893,152.6872,True
3,1.233335,-0.1542838,-0.005961776,0.1476832,-1.360188,-4.704614,-1.859271,0.4585803,1.420189,0.4526062,-1.717935,1.065665,37.73,100,-0.2199028,-0.128183,0.02238156,-0.2774055,1.121537,1.293439,0.6350849,1.501624,0.3964343,-0.08661464,0.1832811,-0.1143744,-1.131881,0.4855471,0.002619485,0.8261183,1.499375,0.2843316,0.3267547,1.639634,0.3089944,326.3597,91.93673,152.6427,True
3,1.244446,-0.1617613,-0.001779571,0.1412644,-1.360606,-4.70335,-1.857509,0.4580646,1.420573,0.4522238,-1.706477,1.030818,37.75,100,-0.1982495,-0.09327544,0.04481037,-0.276858,1.11723,1.299032,0.6347042,1.501701,0.3962998,-0.08243777,0.1917917,-0.1218834,-1.133408,0.4882379,0.002300172,0.8259676,1.499268,0.2846682,0.3233891,1.639,0.3085287,325.7603,91.99637,152.5465,True
3,1.255558,-0.1671088,0.002418727,0.1359137,-1.361118,-4.702031,-1.855724,0.457695,1.421002,0.4518566,-1.694632,1.066648,37.77,100,-0.1982597,-0.08578265,0.04060521,-0.2774417,1.115728,1.302607,0.6344483,1.501811,0.3962662,-0.08253948,0.1960243,-0.1325523,-1.135326,0.4907429,0.002164884,0.8259895,1.499201,0.2850504,0.3201153,1.638357,0.3080365,325.1365,92.07239,152.4314,True
3,1.266669,-0.1692593,0.00554774,0.1284327,-1.361578,-4.70096,-1.854022,0.4571458,1.421489,0.4514227,-1.68297,1.049561,37.38,100,-0.1863675,-0.1009086,0.06274334,-0.2786449,1.109139,1.310616,0.6341103,1.50194,0.3962061,-0.08790249,0.1992029,-0.1357079,-1.13694,0.4932363,0.002333728,0.8258815,1.49912,0.2854192,0.3169579,1.637774,0.3075327,324.5111,92.16181,152.3378,True
3,1.27778,-0.1841396,-0.009517178,0.1157849,-1.361198,-4.69994,-1.851718,0.4564493,1.422074,0.4511125,-1.67152,1.030464,37.01,100,-0.1878523,-0.07789975,0.1183361,-0.2779536,1.097872,1.323455,0.6337354,1.502061,0.3961501,-0.09845601,0.2034723,-0.1228417,-1.137786,0.4957763,0.002767024,0.8258549,1.498991,0.2858777,0.3138984,1.637297,0.307046,323.9488,92.24679,152.2505,True
3,1.288891,-0.1968914,-0.02132058,0.1105664,-1.360824,-4.698706,-1.84936,0.4558172,1.422724,0.4507263,-1.660316,1.00816,36.67,100,-0.1948334,-0.06542316,0.1611196,-0.2773879,1.08672,1.336584,0.6333792,1.502147,0.3960903,-0.1146718,0.2055163,-0.149329,-1.140211,0.498271,0.003466371,0.8257114,1.498941,0.2863076,0.3109395,1.636924,0.306609,323.4296,92.30752,152.1916,True
3,1.300002,-0.2287533,-0.05672435,0.09170277,-1.359074,-4.697898,-1.84593,0.4550709,1.423687,0.4503932,-1.648462,1.067788,36.35,100,-0.1948201,-0.07397868,0.1653139,-0.2780303,1.078756,1.346374,0.6329606,1.502276,0.3959973,-0.1276506,0.2097094,-0.1705301,-1.142822,0.5009763,0.004208061,0.8255719,1.498827,0.2867301,0.3080115,1.636658,0.3062224,322.9988,92.34951,152.1679,True
3,1.311113,-0.2574295,-0.09320429,0.06965417,-1.357022,-4.697222,-1.842233,0.4543182,1.424769,0.4501457,-1.637096,1.022629,36.05,100,-0.2043155,-0.05051517,0.1666633,-0.2773618,1.072738,1.354747,0.6325456,1.502457,0.3959239,-0.1234491,0.2224844,-0.1759224,-1.144857,0.5041115,0.003977431,0.8253976,1.498659,0.2871921,0.3050607,1.636474,0.3058636,322.5884,92.38962,152.1544,True
3,1.322224,-0.2850454,-0.1254257,0.04862865,-1.354523,-4.69668,-1.838361,0.4535795,1.425925,0.4496498,-1.624992,1.090702,35.4,100,-0.2118134,-0.06541169,0.1676875,-0.2781847,1.065013,1.364774,0.6321152,1.502667,0.3958101,-0.1170889,0.2310132,-0.1781336,-1.146938,0.5072238,0.003738279,0.8252178,1.498603,0.2876585,0.3020704,1.636372,0.3054818,322.1498,92.44011,152.1592,True
3,1.333336,-0.3126709,-0.1576995,0.02015018,-1.351609,-4.696588,-1.834068,0.4526973,1.427176,0.4492326,-1.613633,1.021976,34.79,100,-0.2271316,-0.1323445,0.150281,-0.281918,1.057981,1.374562,0.6316643,1.503027,0.3957052,-0.1266815,0.2256671,-0.1801686,-1.148993,0.5097495,0.004362524,0.8249121,1.498512,0.2880111,0.2990243,1.636425,0.3049907,321.6862,92.58231,152.09,True
3,1.344447,-0.3296877,-0.1695564,0.01067206,-1.349292,-4.696161,-1.829979,0.4518683,1.42844,0.4487219,-1.602518,1.000393,34.22,100,-0.2413294,-0.1982497,0.1381894,-0.2860059,1.051098,1.38427,0.6311613,1.503505,0.3955786,-0.1456255,0.2129133,-0.1554646,-1.149842,0.5119041,0.005794772,0.8246354,1.49856,0.2882917,0.2959868,1.636604,0.3043659,321.213,92.77851,151.9575,True
3,1.355558,-0.3562807,-0.1835821,0.0001611337,-1.346746,-4.695792,-1.825304,0.4509488,1.429989,0.4481955,-1.591273,1.012368,33.69,100,-0.2562894,-0.2152561,0.1392829,-0.2885775,1.043239,1.395097,0.6308137,1.504008,0.3953221,-0.155026,0.2108078,-0.1351386,-1.150658,0.5142894,0.006784935,0.8243871,1.498521,0.2886281,0.2930084,1.636869,0.3035652,320.7773,92.99669,151.8058,True
3,1.366669,-0.3829117,-0.1869228,-0.007235348,-1.344562,-4.695553,-1.820188,0.4500099,1.431684,0.4476726,-1.580477,0.97126,32.98,100,-0.2996827,-0.2025094,0.1632633,-0.2898355,1.033064,1.409635,0.6302947,1.504457,0.3949952,-0.1719717,0.1937577,-0.1264269,-1.151779,0.5160448,0.00860494,0.8240898,1.498544,0.2890224,0.2901036,1.63719,0.3025927,320.3939,93.24396,151.568,True
3,1.37778,-0.4159384,-0.1892545,-0.01889046,-1.342301,-4.695557,-1.814538,0.4489727,1.433356,0.446995,-1.569039,1.030261,32.31,100,-0.3247948,-0.1942251,0.2051283,-0.2911325,1.019629,1.4269,0.6296276,1.505012,0.3945549,-0.1847052,0.1905499,-0.1220472,-1.153013,0.5182026,0.01015756,0.823828,1.498503,0.2893879,0.287278,1.637582,0.3014829,320.0253,93.46612,151.2885,True
3,1.388891,-0.435107,-0.1925388,-0.02203642,-1.340003,-4.695356,-1.809017,0.4479783,1.435031,0.4463382,-1.557714,1.019468,31.69,100,-0.346562,-0.1582965,0.2525105,-0.2911592,1.004608,1.445764,0.629001,1.505481,0.3940444,-0.2017729,0.221423,-0.1187626,-1.154104,0.5220448,0.01146651,0.8233919,1.498477,0.2898815,0.2844815,1.638181,0.3002515,319.6619,93.70302,150.9549,True
3,1.400002,-0.4819427,-0.2131057,-0.04418825,-1.336765,-4.695842,-1.802014,0.4469164,1.436909,0.4455595,-1.546389,1.019649,31.1,100,-0.3546306,-0.149006,0.2942149,-0.2919309,0.9879298,1.465954,0.6283653,1.505977,0.3935416,-0.21131,0.2640459,-0.1059928,-1.15482,0.5266879,0.0122034,0.8230139,1.49846,0.2902987,0.2817209,1.639023,0.2989644,319.3276,93.95203,150.6069,True
3,1.411114,-0.5624982,-0.3467953,-0.07714485,-1.328394,-4.695842,-1.793287,0.4461111,1.438278,0.4457343,-1.535643,0.9667296,30.55,100,-0.3877053,-0.1702175,0.2965198,-0.2943038,0.9754168,1.483331,0.6277039,1.506605,0.3929434,-0.2251109,0.2906726,-0.0963421,-1.155535,0.5310469,0.01334137,0.8225005,1.498413,0.2907238,0.2790327,1.640032,0.2976801,319.0401,94.18614,150.3095,True
3,1.422225,-0.6158739,-0.3030788,-0.04971957,-1.327556,-4.693552,-1.785137,0.4456384,1.440327,0.445122,-1.523587,1.086874,30.04,100,-0.4114051,-0.1934315,0.2784658,-0.2970799,0.9663136,1.49743,0.6270607,1.507159,0.3923845,-0.2358247,0.3034253,-0.1005399,-1.156752,0.5350131,0.01473687,0.8221017,1.498389,0.2910914,0.2764435,1.64112,0.2964285,318.8001,94.39798,150.0734,True
3,1.433336,-0.5496596,-0.381213,-0.1248371,-1.319903,-4.696323,-1.78095,0.4443184,1.442431,0.4436226,-1.510972,1.137076,29.57,100,-0.4367998,-0.1849307,0.2926331,-0.2986112,0.9537029,1.51516,0.6262732,1.507649,0.3917997,-0.2551255,0.3193514,-0.1121224,-1.158298,0.5394862,0.01635927,0.8217528,1.498407,0.2914674,0.274016,1.642115,0.2951966,318.6205,94.70355,149.7909,True
3,1.444447,-0.525465,-0.3014779,-0.156384,-1.317863,-4.698924,-1.775769,0.4429975,1.443663,0.4443481,-1.500291,0.9600155,29.12,100,-0.4567685,-0.1444845,0.3059353,-0.2985164,0.9405164,1.533529,0.6256016,1.508271,0.3912139,-0.27217,0.3267874,-0.1098531,-1.159309,0.5436893,0.01835903,0.8214048,1.498371,0.2916617,0.2719644,1.642779,0.2939545,318.3357,95.11292,149.3079,True
3,1.455558,-0.5512039,-0.2363206,-0.120622,-1.317847,-4.698706,-1.768555,0.4421773,1.445723,0.4427192,-1.494851,0.4820654,28.71,100,-0.4570128,-0.1731278,0.2907961,-0.3013457,0.9311221,1.547418,0.6251224,1.50887,0.390491,-0.2762825,0.3257506,-0.09384172,-1.159804,0.5476074,0.01991032,0.8211606,1.498329,0.2919202,0.2701238,1.643966,0.2925191,317.9944,95.29208,149.1181,True
3,1.466669,-0.5448324,-0.2233839,-0.1026159,-1.315569,-4.698821,-1.762609,0.4412543,1.447291,0.4419239,-1.483443,1.031684,28.36,100,-0.4942884,-0.1933072,0.2984724,-0.3043221,0.9191872,1.565483,0.6246409,1.509467,0.3898008,-0.2719904,0.3108369,-0.09384535,-1.160778,0.5507213,0.02140995,0.8208126,1.498417,0.2921441,0.2682748,1.645176,0.29088,318.2871,95.72721,148.6899,True
3,1.47778,-0.5235669,-0.2018421,-0.07937539,-1.313709,-4.698571,-1.75768,0.4405882,1.449072,0.4410126,-1.469521,1.256356,28.03,100,-0.5001012,-0.1702302,0.3477166,-0.3053932,0.9011518,1.588501,0.6241221,1.509921,0.3890991,-0.2795315,0.2926773,-0.1065307,-1.162477,0.5535585,0.02361878,0.8205012,1.498495,0.2924948,0.2662245,1.646116,0.2895972,318.5182,96.01159,147.9832,True
3,1.488891,-0.5043761,-0.209325,-0.0878538,-1.310602,-4.699212,-1.75257,0.4396834,1.450641,0.4396284,-1.45963,0.8864865,27.73,100,-0.4860237,-0.1608399,0.3668267,-0.3069064,0.8856074,1.608109,0.6235862,1.510446,0.3883224,-0.2837433,0.2809575,-0.1032742,-1.163463,0.5565209,0.02571548,0.8202493,1.49846,0.2927811,0.2637715,1.647455,0.2884675,318.2299,95.99858,147.9008,True
3,1.500003,-0.4904655,-0.24259,-0.1249039,-1.306384,-4.70114,-1.747081,0.4391871,1.452285,0.4388256,-1.449785,0.8855326,27.45,100,-0.4733899,-0.1415416,0.3455424,-0.3079467,0.8755112,1.622526,0.6230437,1.510852,0.3876123,-0.2826418,0.2820343,-0.09902513,-1.164323,0.5599912,0.02745932,0.8199515,1.498428,0.2930992,0.2612166,1.64867,0.2875064,317.8445,96.12634,147.9439,True
3,1.511114,-0.4797687,-0.2640229,-0.1449934,-1.302307,-4.702749,-1.741574,0.4387092,1.453983,0.4380503,-1.438906,0.9796601,27.18,100,-0.4756719,-0.1232605,0.324405,-0.3089443,0.8664832,1.636579,0.6225692,1.5112,0.3870227,-0.2687267,0.3193758,-0.08644495,-1.164755,0.5653558,0.02772457,0.8196864,1.498373,0.2935147,0.2586389,1.649693,0.2865788,317.4686,96.3273,148.029,True
3,1.522225,-0.4456514,-0.2789502,-0.1608918,-1.298337,-4.704309,-1.737262,0.4382169,1.455061,0.4372396,-1.427785,1.001119,29.54,100,-0.4587781,-0.1264163,0.310352,-0.310792,0.857132,1.650036,0.6220758,1.511648,0.3864646,-0.251689,0.3353866,-0.08450108,-1.165479,0.5700542,0.02815973,0.8193576,1.498434,0.2939661,0.256031,1.650424,0.2855273,317.1834,96.63095,148.0156,True
3,1.533336,-0.4328814,-0.2746418,-0.1588036,-1.295199,-4.705361,-1.732563,0.4375269,1.456602,0.4363787,-1.416484,1.017122,31.75,100,-0.4505239,-0.1326435,0.2857144,-0.3126743,0.8500829,1.661391,0.6215805,1.51205,0.3858113,-0.2548894,0.3247184,-0.08764802,-1.166515,0.5734748,0.02967374,0.8190218,1.498354,0.2943056,0.2534503,1.650813,0.2843776,316.8832,97.14947,147.6171,True
3,1.544447,-0.3998732,-0.2637665,-0.1440138,-1.292543,-4.705995,-1.729114,0.4370868,1.457499,0.4358137,-1.406315,0.9134735,33.82,100,-0.4379835,-0.1196849,0.2569264,-0.3137875,0.8444663,1.671118,0.6211143,1.51239,0.3852284,-0.2633073,0.29596,-0.08111633,-1.167172,0.5760458,0.03182051,0.8187449,1.498375,0.2945807,0.2509093,1.650952,0.283179,316.5529,97.68655,147.0874,True
3,1.555558,-0.3774902,-0.2657849,-0.1376355,-1.289226,-4.706768,-1.725365,0.4366295,1.458799,0.4350677,-1.394435,1.070662,35.76,100,-0.4092959,-0.09943515,0.2429442,-0.3144043,0.837418,1.68143,0.6207104,1.512859,0.3846178,-0.2620273,0.2789706,-0.05978422,-1.167067,0.5788726,0.03359365,0.8184948,1.498402,0.2947364,0.2483865,1.650799,0.2819905,316.262,98.13161,146.6195,True
3,1.566669,-0.3433306,-0.286986,-0.138583,-1.285089,-4.707729,-1.722468,0.4362238,1.459752,0.4344831,-1.383891,0.9470558,37.57,100,-0.3601792,-0.0815378,0.2479153,-0.3151414,0.827973,1.692746,0.6203524,1.513137,0.3840177,-0.251187,0.257719,-0.04278657,-1.166958,0.5812635,0.03501284,0.818321,1.498374,0.2948575,0.2457342,1.650628,0.2807978,315.9092,98.52586,146.1724,True
3,1.577781,-0.308137,-0.3029467,-0.1502245,-1.28086,-4.709176,-1.719827,0.4357609,1.460842,0.4338951,-1.372029,1.068749,45.91,100,-0.3122471,-0.05605531,0.2380513,-0.3151973,0.8201753,1.702005,0.6200596,1.513478,0.3834519,-0.2425771,0.2481777,-0.03646065,-1.167248,0.584151,0.0360861,0.8180902,1.498377,0.2950411,0.2430658,1.650215,0.2797392,315.5254,98.90073,145.7591,True
3,1.588892,-0.2750819,-0.316806,-0.1650779,-1.276574,-4.710915,-1.717336,0.4353244,1.461923,0.4333043,-1.361075,0.9843981,53.72,100,-0.3006442,-0.04532861,0.2231041,-0.3156783,0.8139136,1.711024,0.6197532,1.513863,0.382786,-0.2308807,0.2513818,-0.03870285,-1.167654,0.587269,0.03700516,0.817957,1.49833,0.295136,0.2402966,1.649723,0.2787584,315.1034,99.35155,145.3528,True
3,1.600003,-0.2452122,-0.3316686,-0.1713959,-1.27216,1.570732,-1.715149,0.4349904,1.462898,0.4329078,-1.349648,1.028408,61.02,100,-0.2944294,-0.05268997,0.2080681,-0.3167074,0.8086032,1.719097,0.6194456,1.51423,0.382272,-0.2203295,0.2545688,-0.04946262,-1.16853,0.590495,0.03785843,0.8178346,1.498342,0.2952266,0.2374766,1.648998,0.277886,314.7225,99.87619,144.9084,True
3,1.611114,-0.2206886,-0.3380195,-0.1767067,-1.267923,1.56915,-1.713016,0.4347173,1.463846,0.4324882,-1.338045,1.04433,67.85,100,-0.2850454,-0.06645959,0.1929453,-0.3183228,0.8039518,1.726545,0.6191335,1.514525,0.3817883,-0.2076308,0.2343212,-0.06337866,-1.169672,0.5927377,0.03881264,0.8177016,1.49825,0.2953281,0.23451,1.648144,0.2771015,314.3326,100.4553,144.4054,True
3,1.622225,-0.1876165,-0.3539202,-0.1808906,-1.263126,1.567564,-1.711512,0.4344892,1.464778,0.4321756,-1.326504,1.038528,72.87,99.02,-0.2593979,-0.04631954,0.1939071,-0.3185774,0.7969549,1.735289,0.6189069,1.514837,0.3812852,-0.1957544,0.1821381,-0.0527126,-1.169934,0.5927612,0.04083185,0.8175952,1.498216,0.2950602,0.2313974,1.64717,0.2764329,313.8895,101.0851,143.8511,True
3,1.633336,-0.1577604,-0.3580365,-0.1755742,-1.258804,1.566313,-1.710381,0.4342226,1.465685,0.4318647,-1.314864,1.047514,77.57,94.04,-0.2369028,-0.02833461,0.2002142,-0.3186733,0.7888754,1.744904,0.6186598,1.51514,0.3807175,-0.1774307,0.1587841,-0.03151002,-1.169466,0.5940644,0.04188992,0.8173183,1.498333,0.2949266,0.2282173,1.646023,0.2759272,313.3782,101.7491,143.2745,True
3,1.644447,-0.1374909,-0.3654174,-0.1755441,-1.254329,1.564867,-1.709014,0.4339986,1.466615,0.431653,-1.303837,0.9916577,81.97,89.38,-0.197171,0.007598802,0.2192706,-0.3179303,0.7781994,1.755903,0.6185306,1.515379,0.3801863,-0.1514316,0.1195107,0.009899765,-1.167977,0.5942258,0.04261031,0.817071,1.498507,0.2947991,0.2250172,1.644746,0.2755744,312.8173,102.4471,142.7098,True
3,1.655559,-0.1161775,-0.3729014,-0.1882994,-1.249618,1.562884,-1.707797,0.4338235,1.467449,0.4313819,-1.292673,1.004722,86.09,85.01,-0.17398,-0.008319035,0.2008017,-0.3189008,0.7732689,1.761894,0.6184973,1.515696,0.3797572,-0.1329595,0.07806702,0.04392897,-1.166341,0.5936922,0.04377598,0.8168979,1.498633,0.2945223,0.221846,1.643348,0.2753516,312.2622,103.1732,142.1453,True
3,1.66667,-0.0970126,-0.3750784,-0.203222,-1.245086,1.560621,-1.706589,0.4336562,1.46827,0.4312682,-1.281188,1.034132,89.95,80.92,-0.1741742,-0.02632469,0.1868169,-0.3201929,0.7685698,1.768315,0.6184021,1.51594,0.3793342,-0.1392036,0.05785075,0.05681462,-1.165297,0.5936926,0.04552194,0.8167277,1.498755,0.2943549,0.2187007,1.641894,0.2752202,311.711,103.8787,141.5941,True
3,1.677781,-0.06926822,-0.3964299,-0.2212057,-1.23957,1.558151,-1.705904,0.433543,1.469039,0.4311368,-1.270443,0.9665136,90.99,77.02,-0.1732593,-0.01980285,0.1698128,-0.3204997,0.7645425,1.774033,0.6182645,1.516277,0.378794,-0.1615631,0.05036055,0.05596197,-1.164801,0.5940933,0.04790521,0.8166866,1.498853,0.2941637,0.2156057,1.640431,0.2751547,311.172,104.6181,141.019,True
3,1.688892,-0.05540602,-0.3985249,-0.2222747,-1.234735,1.556214,-1.705145,0.4334566,1.469801,0.4309006,-1.259928,0.946404,91.96,73.38,-0.1634814,0.007785402,0.1795182,-0.3199255,0.7563981,1.783302,0.6180789,1.516573,0.3782597,-0.168142,0.06309181,0.03680879,-1.165105,0.5954443,0.04941629,0.8166088,1.499112,0.2940667,0.2126083,1.638952,0.2751513,310.6854,105.4185,140.391,True
3,1.700003,-0.03521147,-0.3824275,-0.216035,-1.230773,1.554436,-1.704819,0.4333133,1.470369,0.4307206,-1.250338,0.8623101,92.87,69.97,-0.1300167,0.06073607,0.2051651,-0.3181401,0.7447333,1.794635,0.6178711,1.516815,0.3776579,-0.1576093,0.07480191,0.02496888,-1.165171,0.5968046,0.05023894,0.8164471,1.499197,0.2938685,0.2097446,1.637465,0.2752368,310.245,106.2454,139.7226,True
3,1.711114,-0.02355927,-0.3610315,-0.209822,-1.227332,1.552699,-1.704321,0.4331432,1.470857,0.4305484,-1.240377,0.897249,93.72,66.78,-0.1031049,0.1010175,0.21906,-0.3164485,0.7340528,1.805027,0.617616,1.517161,0.3770673,-0.1479196,0.0791077,0.03765537,-1.164253,0.5978501,0.05116598,0.8162233,1.499273,0.2937009,0.2070375,1.635939,0.2753938,309.8481,107.0626,139.0905,True
3,1.722225,-0.01299443,-0.3332625,-0.205789,-1.224386,1.550818,-1.703888,0.4329832,1.47139,0.430501,-1.231441,0.8034983,92.81,63.79,-0.08489621,0.1126209,0.2242951,-0.3156895,0.724568,1.814255,0.6173459,1.517444,0.3765886,-0.1402076,0.07279354,0.06530178,-1.162541,0.5984257,0.05220728,0.8160119,1.499377,0.2934902,0.2044691,1.634435,0.2755644,309.4348,107.8088,138.5308,True
3,1.733337,-0.005582161,-0.3150905,-0.2006087,-1.221221,1.54914,-1.703594,0.4327629,1.471868,0.4302928,-1.222578,0.7981678,91.96,60.99,-0.08065272,0.1233031,0.2190057,-0.3146003,0.7165154,1.822715,0.6172204,1.517635,0.3760555,-0.1401907,0.07173203,0.06636604,-1.161817,0.5991994,0.05339025,0.8158212,1.499448,0.2933359,0.2020448,1.63295,0.2757461,309.0512,108.4649,138.0293,True
3,1.744448,0.002894372,-0.2990679,-0.1986134,-1.218098,1.547286,-1.703296,0.432692,1.472374,0.4301193,-1.214592,0.7184475,91.17,58.37,-0.07456099,0.1213761,0.1901597,-0.3136373,0.7123176,1.827356,0.616967,1.517885,0.3756609,-0.1433015,0.08347152,0.07808533,-1.160461,0.6005222,0.054598,0.8156551,1.499504,0.2931185,0.1997426,1.631532,0.275941,308.6887,109.0985,137.5113,True
3,1.755559,0.01560599,-0.2755481,-0.1934857,-1.215519,1.545492,-1.703262,0.4325806,1.472754,0.4299474,-1.20766,0.6238327,90.42,55.93,-0.06965058,0.1024677,0.1548017,-0.313192,0.7103076,1.829801,0.6167471,1.518141,0.375164,-0.1422868,0.07600653,0.07170363,-1.159815,0.6012611,0.05590881,0.8155017,1.499659,0.2929442,0.197566,1.630254,0.2761708,308.3417,109.7369,136.9786,True
3,1.76667,0.01877315,-0.2637709,-0.1893192,-1.21291,1.543709,-1.703015,0.4325234,1.473067,0.4299717,-1.201684,0.5378305,89.73,53.63,-0.06473914,0.07606874,0.1225822,-0.3133092,0.709249,1.831391,0.6164675,1.518352,0.3747523,-0.1455423,0.06745994,0.06322607,-1.159438,0.6017221,0.05738846,0.8153136,1.499739,0.2927709,0.1955568,1.629136,0.2764074,308.0168,110.357,136.5135,True
3,1.777781,0.02401923,-0.2338107,-0.1746429,-1.211188,1.542405,-1.703036,0.4323641,1.473345,0.4298074,-1.196733,0.4452946,88.33,51.49,-0.04675521,0.08358172,0.1075439,-0.3123899,0.7061759,1.834263,0.6162291,1.518523,0.3743808,-0.1413198,0.06745796,0.05892755,-1.158878,0.6025067,0.05852722,0.8152056,1.499862,0.2925417,0.1938005,1.628166,0.2766408,307.732,110.9653,136.0742,True
3,1.788892,0.02821046,-0.202708,-0.1503833,-1.209871,1.541648,-1.703232,0.4322321,1.473602,0.4297526,-1.192066,0.4204322,87.02,49.48,-0.02552635,0.08997723,0.09779415,-0.31138,0.7020935,1.83782,0.6161083,1.518718,0.374006,-0.1252991,0.07282245,0.06409343,-1.157985,0.6036186,0.05891951,0.8151035,1.500086,0.2923484,0.1923414,1.627315,0.276886,307.5301,111.4828,135.6869,True
3,1.800003,0.03239825,-0.1705396,-0.1250702,-1.20887,1.541153,-1.703576,0.4320759,1.473816,0.429491,-1.188298,0.3388682,85.8,47.61,-0.0149911,0.08469076,0.08805404,-0.3107909,0.6995159,1.840155,0.6159211,1.518951,0.3736782,-0.1113956,0.06220318,0.06825633,-1.157037,0.6040129,0.05956559,0.8149822,1.500185,0.2921531,0.1911698,1.626586,0.2771558,307.3929,111.8948,135.3652,True
3,1.811115,0.03131383,-0.1576495,-0.1113237,-1.207411,1.540385,-1.7037,0.4319165,1.474157,0.4292748,-1.184993,0.2975436,84.66,45.86,-0.0182045,0.08258798,0.08700763,-0.3101288,0.6954986,1.844346,0.615761,1.519102,0.3733332,-0.108188,0.04622956,0.06720234,-1.156288,0.6039808,0.06075869,0.8148332,1.500251,0.2919772,0.1901975,1.62605,0.2774069,307.2813,112.1528,135.1896,True
3,1.822226,0.02277523,-0.1458288,-0.09435795,-1.20615,1.540064,-1.70353,0.4318002,1.474413,0.4290662,-1.18221,0.2503694,83.67,45.99,-0.0320786,0.08585667,0.08398192,-0.3093208,0.6916915,1.848874,0.6156035,1.519179,0.3729937,-0.1040248,0.03768277,0.05439745,-1.156173,0.6041025,0.06175471,0.8147274,1.500326,0.2918401,0.1893957,1.625683,0.2776158,307.1819,112.2925,135.1395,True
3,1.833337,0.01957103,-0.1350309,-0.07419561,-1.204937,1.540019,-1.703643,0.4316888,1.474646,0.4288528,-1.179659,0.2298351,82.74,46.11,-0.03618106,0.09108858,0.0979145,-0.3085826,0.6856254,1.85521,0.6154916,1.519346,0.3727152,-0.09877817,0.04086898,0.0458279,-1.155769,0.6047773,0.06242423,0.814573,1.500373,0.2917287,0.1887057,1.625464,0.2777162,307.113,112.384,135.1643,True
3,1.844448,0.01958041,-0.1285283,-0.05932605,-1.20353,1.539999,-1.703995,0.4314834,1.474872,0.4286435,-1.177618,0.184257,81.87,46.23,-0.03734672,0.08368965,0.09040945,-0.3081847,0.6826895,1.858429,0.615384,1.519526,0.3724174,-0.08397339,0.03340002,0.0318603,-1.155963,0.6048953,0.06278003,0.8144733,1.500451,0.2916164,0.1881165,1.625356,0.2776792,307.0772,112.5322,135.1106,True
3,1.855559,0.01212073,-0.1177118,-0.03489676,-1.202659,1.540586,-1.704099,0.4313031,1.475096,0.4284256,-1.176986,0.056274,81.06,46.33,-0.02814109,0.07434399,0.05615442,-0.3075013,0.6837169,1.857487,0.6153054,1.519545,0.3722882,-0.07976799,0.0312679,0.02543761,-1.155844,0.6052899,0.0634064,0.8143542,1.500614,0.291434,0.1876934,1.625314,0.2775002,307.0375,112.6806,135.0121,True
3,1.86667,0.006769932,-0.1037935,-0.02327992,-1.201903,1.540757,-1.70416,0.4311977,1.475311,0.4281924,-1.17715,-0.01491843,80.3,46.43,-0.02398947,0.0744181,0.04546212,-0.306664,0.68208,1.859209,0.6151466,1.519833,0.3719585,-0.07229813,0.03341577,0.02748771,-1.155522,0.6058136,0.06380135,0.8142059,1.500691,0.2912645,0.1874657,1.625325,0.277171,307.0343,112.7835,134.9154,True
3,1.877781,0.0003742371,-0.09621833,-0.008380326,-1.201585,1.541741,-1.704308,0.4311268,1.475584,0.4281201,-1.177322,-0.01469917,78.92,45.6,-0.02736303,0.05747276,0.03363963,-0.3066294,0.6822342,1.859466,0.6150471,1.520003,0.371757,-0.06369255,0.02919295,0.03594551,-1.154754,0.6060634,0.06411108,0.814126,1.50077,0.2911415,0.1874076,1.625394,0.2766903,307.0846,112.835,134.8189,True
3,1.888893,-0.002823175,-0.09087866,-0.004165776,-1.200583,1.541828,-1.70436,0.4310038,1.475835,0.4277458,-1.178621,-0.1174146,77.64,44.82,-0.04248274,0.03952157,0.02087232,-0.3066736,0.6825438,1.860363,0.614885,1.520184,0.3715332,-0.05622663,0.005765203,0.03379778,-1.154588,0.6052806,0.06493159,0.813939,1.50082,0.2909272,0.1875157,1.625558,0.2760651,307.1295,112.8422,134.7213,True
3,1.900004,-0.00177938,-0.08013952,0.006405815,-1.200144,1.542369,-1.704584,0.4309462,1.475974,0.4274533,-1.180224,-0.1438719,76.44,44.09,-0.04351514,0.04269993,0.02303503,-0.3062422,0.681154,1.862229,0.61483,1.520322,0.3713052,-0.05202796,-0.009164771,0.02420714,-1.154702,0.6045927,0.06564985,0.8138463,1.500896,0.2907388,0.1878164,1.625837,0.2753454,307.1993,112.852,134.5746,True
3,1.911115,-0.005006489,-0.06731577,0.01269872,-1.199898,1.542714,-1.704589,0.430854,1.476076,0.4272313,-1.182687,-0.2221571,75.32,43.41,-0.03502,0.04590138,0.01978501,-0.3055413,0.6796365,1.86386,0.6148393,1.52045,0.3710577,-0.04662256,-0.01873269,0.03163924,-1.154139,0.6039093,0.06630898,0.8137538,1.500895,0.2904692,0.1883118,1.626279,0.274574,307.2941,112.7966,134.4805,True
3,1.922226,-0.01566938,-0.06306589,0.01587649,-1.199401,1.543111,-1.704179,0.4307885,1.476197,0.4270141,-1.185486,-0.251732,72.94,44.81,-0.03170378,0.05861199,0.02730742,-0.304689,0.6769512,1.866625,0.6148233,1.520571,0.3708169,-0.04009224,-0.02188195,0.04650297,-1.153098,0.60355,0.06665386,0.8136466,1.500963,0.2902822,0.1889666,1.626881,0.273749,307.4794,112.7031,134.4765,True
3,1.933337,-0.02100941,-0.0599016,0.01373023,-1.198864,1.543257,-1.703807,0.4307361,1.476369,0.4268405,-1.188553,-0.2758104,70.71,46.12,-0.03805368,0.05752726,0.0326905,-0.3042859,0.6746268,1.869641,0.6148497,1.52065,0.3705935,-0.03567127,-0.01757178,0.06563029,-1.151739,0.6033686,0.06702298,0.8135675,1.501044,0.2901373,0.1898056,1.627565,0.2729237,307.7119,112.5253,134.5326,True
3,1.944448,-0.02418305,-0.0673856,0.01166169,-1.19786,1.543463,-1.703505,0.4307081,1.476541,0.4266379,-1.191735,-0.2858369,68.62,47.34,-0.03258822,0.04992459,0.04856024,-0.3044068,0.670755,1.873432,0.614844,1.520773,0.3703551,-0.02925926,-0.003700795,0.06980083,-1.150844,0.6038049,0.06691672,0.8134646,1.501167,0.2900674,0.1907815,1.628323,0.2721336,307.9739,112.293,134.6205,True
3,1.955559,-0.02411906,-0.08983611,0.001179907,-1.196019,1.543302,-1.70325,0.4307629,1.476689,0.4264548,-1.195813,-0.367479,66.67,48.48,-0.03038008,0.05733323,0.05392504,-0.3037831,0.6672627,1.877021,0.6147032,1.520721,0.3701053,-0.01654362,0.01335226,0.06539606,-1.150112,0.6045113,0.06644613,0.8133422,1.50122,0.2898867,0.191854,1.62917,0.2713808,308.2405,112.0765,134.7068,True
3,1.966671,-0.02196186,-0.09838372,-0.003019441,-1.194661,1.543325,-1.703132,0.430747,1.476855,0.4262588,-1.200171,-0.3922227,64.84,49.56,-0.02716319,0.06371079,0.05394354,-0.3030933,0.6644682,1.879902,0.6147611,1.520828,0.3699164,-0.005950637,0.009089742,0.05785693,-1.149729,0.6044082,0.0662195,0.8133212,1.501297,0.2896593,0.1930023,1.630111,0.270672,308.525,111.8798,134.7973,True
3,1.977782,-0.02192517,-0.1079464,0.000250292,-1.193157,1.543689,-1.703033,0.4307944,1.476969,0.4260595,-1.20476,-0.4132655,62.01,48.97,-0.02618635,0.0627121,0.04539991,-0.3024808,0.6632618,1.881288,0.6147374,1.520849,0.3697174,0.005705776,0.004826347,0.05030405,-1.149486,0.6042519,0.06584373,0.8133776,1.501375,0.2894714,0.1942316,1.63108,0.2699964,308.8383,111.6852,134.9288,True
3,1.988893,-0.01236283,-0.09614567,0.005489592,-1.192729,1.544286,-1.703527,0.4308842,1.477112,0.4259293,-1.209324,-0.4107108,59.36,48.42,-0.02643402,0.05008923,0.02506505,-0.3022187,0.6642103,1.880717,0.6149122,1.520936,0.3695724,0.009886404,-0.005852354,0.03963831,-1.1494,0.6036532,0.06591297,0.8135369,1.501513,0.2893224,0.1955289,1.631999,0.2693303,309.1882,111.5126,135.0539,True
3,2.000004,-0.01131325,-0.08971765,0.009699818,-1.192002,1.544676,-1.703589,0.4309397,1.477191,0.425734,-1.213762,-0.3992541,56.88,47.91,-0.032893,0.04588931,0.01976885,-0.3019215,0.6637498,1.881715,0.6149874,1.521055,0.3694911,0.007751572,-0.01544809,0.03754871,-1.1491,0.603076,0.06613907,0.8135681,1.501573,0.2891519,0.1968287,1.63287,0.2686454,309.521,111.3083,135.1858,True
3,2.011115,-0.00494473,-0.08113602,0.01282531,-1.191621,1.54504,-1.703896,0.4311354,1.477208,0.425602,-1.218845,-0.4581782,54.56,47.43,-0.03723307,0.03421165,0.01652677,-0.3019652,0.6633445,1.882766,0.615121,1.521048,0.3693922,0.004531705,-0.01759475,0.03438389,-1.148874,0.6027304,0.06638009,0.8136371,1.501637,0.2890484,0.1981274,1.633665,0.2679247,309.7984,111.1028,135.2904,True
3,2.022226,-0.005995676,-0.08540063,0.01285969,-1.190545,1.545361,-1.703901,0.4312685,1.47729,0.4254785,-1.223176,-0.3890198,52.39,46.98,-0.02868509,0.0224127,0.02274378,-0.3022517,0.6618378,1.884232,0.6152837,1.520973,0.3692136,0.01732767,-0.01330632,0.03639135,-1.148387,0.602783,0.0656874,0.8136206,1.501629,0.2888637,0.1994063,1.634403,0.2671886,310.0421,110.8875,135.3693,True
3,2.033337,0.0004385328,-0.0971188,0.009739414,-1.189068,1.54544,-1.70427,0.4313231,1.477341,0.4252775,-1.22794,-0.4293357,50.44,45.82,-0.01816333,0.01607011,0.01192988,-0.3021702,0.6627387,1.883199,0.6153769,1.521044,0.3690672,0.02371757,-0.01223145,0.03633229,-1.147987,0.6026503,0.0652549,0.8137279,1.50168,0.2886958,0.2006564,1.63508,0.2664499,310.2767,110.7098,135.4197,True
3,2.044448,0.01001951,-0.09820938,0.002275277,-1.187953,1.545336,-1.704682,0.4315908,1.477416,0.4251342,-1.232162,-0.37941,48.61,44.73,-0.006815689,-0.003979381,-0.01817318,-0.3025585,0.6676395,1.878154,0.6155171,1.521091,0.368892,0.02576493,-0.01224232,0.02673147,-1.147939,0.6026095,0.06490656,0.8137897,1.501773,0.288507,0.2019117,1.635672,0.2657491,310.5081,110.5663,135.4372,True
3,2.055559,0.02174748,-0.1046274,-0.006213943,-1.186545,1.545184,-1.705256,0.4317784,1.477486,0.4249928,-1.23699,-0.4352917,46.9,43.71,-0.01559118,-0.01444081,-0.038404,-0.3026672,0.6715803,1.875067,0.6157691,1.52106,0.3688002,0.0214585,-0.01546056,0.02144654,-1.147953,0.6022381,0.06501628,0.8139006,1.501847,0.2883651,0.2031263,1.63623,0.2650594,310.7534,110.4527,135.4529,True
3,2.06667,0.02815857,-0.1175162,-0.0221029,-1.184721,1.544681,-1.705539,0.4320355,1.477507,0.424685,-1.241478,-0.403872,45.3,42.76,-0.02589988,0.005615009,-0.01044269,-0.3022081,0.6678778,1.879365,0.6159363,1.521037,0.3685889,0.01084518,-0.01333863,0.02579345,-1.147516,0.6020909,0.06527887,0.8140364,1.501911,0.288275,0.2042895,1.636734,0.2643701,311.0091,110.3631,135.4571,True
3,2.077781,0.03564213,-0.1249398,-0.02099058,-1.183089,1.544715,-1.706191,0.4321836,1.477578,0.4245524,-1.245427,-0.3555656,43.76,40.97,-0.03095881,0.02358351,0.009991823,-0.3015987,0.6643019,1.883289,0.6160969,1.52106,0.3684053,0.008649999,-0.008030143,0.01940855,-1.147519,0.6022009,0.06521709,0.8141822,1.50192,0.2881579,0.2054185,1.637156,0.2637217,311.242,110.2973,135.4212,True
3,2.088892,0.04524688,-0.1324116,-0.02839576,-1.181514,1.544488,-1.706941,0.4323608,1.477703,0.4245641,-1.248503,-0.2764303,42.32,39.3,-0.01145985,0.05316525,0.03239595,-0.3005377,0.6592531,1.887583,0.6162813,1.521127,0.3682249,0.00861647,-0.004841257,0.01620501,-1.147471,0.6022315,0.06508792,0.8143588,1.501917,0.2880638,0.2064585,1.637488,0.2631206,311.4759,110.2295,135.4117,True
3,2.100003,0.05164834,-0.1388476,-0.03687756,-1.179669,1.543982,-1.707549,0.4324979,1.477813,0.4244769,-1.251407,-0.2616723,40.98,37.74,-0.003982202,0.05525961,0.03340539,-0.3000765,0.6572381,1.889261,0.6164501,1.521131,0.3680093,0.007500537,0.003669634,0.01193384,-1.147471,0.6026003,0.06488658,0.8145206,1.501938,0.2879176,0.2073676,1.637709,0.262543,311.693,110.2002,135.3963,True
3,2.111114,0.06654311,-0.1421377,-0.05605095,-1.177891,1.542759,-1.708291,0.432663,1.477819,0.4243813,-1.253976,-0.231375,39.72,36.28,-0.01369481,0.04044133,0.02591806,-0.3000392,0.657679,1.889331,0.6165721,1.521092,0.367872,-0.001090665,-0.002754973,0.003504603,-1.14769,0.6023389,0.06535743,0.8146794,1.50199,0.2876265,0.208108,1.637823,0.2620008,311.8724,110.1911,135.3118,True
3,2.122225,0.08145054,-0.1475656,-0.07521443,-1.175839,1.541366,-1.709201,0.4327079,1.478001,0.4242556,-1.255963,-0.1787102,38.54,34.92,-0.01592963,0.01275525,0.02465656,-0.3009116,0.6580175,1.889233,0.6166939,1.521126,0.3676999,4.755566E-06,-0.0102055,0.005642824,-1.147565,0.6019031,0.06549352,0.8148384,1.502045,0.2874458,0.2086595,1.637833,0.2615385,312.0136,110.2311,135.1618,True
3,2.133336,0.09103881,-0.1562118,-0.09540218,-1.173589,1.53978,-1.709934,0.4328589,1.478129,0.4242761,-1.258063,-0.1896296,37.48,33.13,-0.01371214,0.01160909,0.03421436,-0.3010277,0.6556006,1.891678,0.6167232,1.521113,0.3674691,-0.001986003,-0.01762991,0.0205904,-1.146818,0.6013101,0.06585651,0.8149318,1.502043,0.2873383,0.2090074,1.637746,0.2611708,312.1268,110.3372,135.0002,True
3,2.144447,0.08997084,-0.1616568,-0.1102733,-1.171405,1.538207,-1.710276,0.4329624,1.478258,0.4243333,-1.259765,-0.15318,36.48,31.45,-0.01042354,0.0190085,0.04062615,-0.3006762,0.6531658,1.893979,0.6167541,1.521183,0.3672967,-0.01027812,0.006930601,0.05043638,-1.14517,0.6022896,0.06580591,0.8149399,1.502146,0.287149,0.2091522,1.63756,0.2609262,312.2253,110.5091,134.8214,True
3,2.155558,0.08569882,-0.1639008,-0.1230412,-1.169282,1.536518,-1.710379,0.4329554,1.478431,0.4244092,-1.260878,-0.09989551,35.55,29.88,0.01316708,0.03269448,0.05114871,-0.3001958,0.6493449,1.896684,0.6167712,1.521207,0.3670812,-0.02531858,0.02073077,0.03882021,-1.145054,0.6030597,0.06627889,0.8150132,1.502158,0.2870119,0.2090658,1.637323,0.2607998,312.2851,110.738,134.6121,True
3,2.166669,0.08143752,-0.1682411,-0.1315274,-1.16708,1.534938,-1.710491,0.4331459,1.478488,0.4244893,-1.261496,-0.05507529,34.68,28.41,0.03326241,0.04234535,0.03396373,-0.2993856,0.6496877,1.895372,0.6168183,1.521152,0.3668303,-0.02431387,0.0228539,0.03241732,-1.144892,0.6034048,0.06635053,0.8152226,1.502166,0.2868919,0.2088316,1.63699,0.2608276,312.2928,111.0232,134.3666,True
3,2.17778,0.08249028,-0.1693932,-0.1432385,-1.164882,1.533082,-1.710733,0.4333088,1.478601,0.4245954,-1.262171,-0.06073138,33.83,26.88,0.04167657,0.04240032,0.02322523,-0.2988887,0.6495624,1.894741,0.6168495,1.521186,0.3666131,-0.01905363,0.02284463,0.02491337,-1.14484,0.603699,0.06624986,0.8153182,1.502237,0.2867281,0.2084756,1.636639,0.2609814,312.2568,111.3335,134.1244,True
3,2.188891,0.08245692,-0.1630893,-0.1550122,-1.163009,1.53097,-1.710894,0.4335586,1.478656,0.4247496,-1.262933,-0.06875777,33.03,25.45,0.04056771,0.03069097,0.0231389,-0.2989728,0.6490211,1.894963,0.616915,1.521205,0.3664179,-0.02110242,0.01540195,0.03346919,-1.144201,0.603518,0.06671219,0.8153536,1.502285,0.2865429,0.2080566,1.636321,0.2612278,312.1935,111.6471,133.917,True
3,2.200002,0.07922806,-0.1546025,-0.1582692,-1.161304,1.52916,-1.710947,0.4337367,1.478763,0.4248874,-1.263877,-0.08531615,32.28,24.11,0.04389706,0.03698514,0.03381366,-0.2986815,0.6457898,1.897408,0.6169805,1.521208,0.3661785,-0.02636732,0.01754312,0.0399068,-1.143448,0.6038398,0.06693216,0.8153241,1.502355,0.2862947,0.207714,1.635988,0.2615464,312.1202,111.9623,133.746,True
3,2.211113,0.07281131,-0.1460837,-0.1561991,-1.159734,1.527557,-1.7109,0.4340484,1.478843,0.4249659,-1.264523,-0.05798826,31.58,22.86,0.05147289,0.04007027,0.04441236,-0.2984274,0.6426281,1.899595,0.6171193,1.521313,0.365941,-0.02317022,0.01861229,0.04094847,-1.142865,0.6040233,0.06710207,0.8154094,1.502455,0.2860813,0.2074786,1.635672,0.2618983,312.0892,112.2667,133.5754,True
3,2.222224,0.06207445,-0.1172758,-0.145756,-1.159172,1.526164,-1.710678,0.4342419,1.478968,0.425102,-1.264806,-0.02508885,30.93,21.69,0.05796931,0.0442249,0.05397143,-0.2982943,0.6391159,1.902189,0.6172478,1.521477,0.3657722,-0.01038072,0.02076892,0.04189692,-1.142327,0.6043901,0.06664454,0.8154948,1.502501,0.2858458,0.2073621,1.635399,0.2622794,312.0982,112.5279,133.4141,True
3,2.233335,0.05884301,-0.1044623,-0.1405238,-1.158225,1.524767,-1.710675,0.4344301,1.47906,0.4252295,-1.265049,-0.02181393,30.32,20.89,0.0622447,0.04526749,0.05500178,-0.2980013,0.6363519,1.903985,0.6173616,1.521556,0.3655806,-0.005072488,0.001589304,0.0365676,-1.142129,0.6037714,0.06679235,0.8155744,1.502573,0.2855728,0.2073294,1.635229,0.2626513,312.1124,112.7196,133.3125,True
3,2.244446,0.05243379,-0.09592381,-0.1352552,-1.15714,1.523421,-1.710581,0.4346858,1.479187,0.4253905,-1.265188,-0.01227137,29.75,20.14,0.0558166,0.04744684,0.05082258,-0.2976652,0.6344605,1.905412,0.617437,1.521605,0.3654156,-0.002916959,-0.02291389,0.03553988,-1.141821,0.6025951,0.06731033,0.8157168,1.502522,0.2852225,0.2073908,1.635169,0.2629827,312.1252,112.8668,133.2514,True
3,2.255557,0.04604969,-0.101329,-0.1426621,-1.15558,1.521635,-1.71015,0.4349431,1.479324,0.4255345,-1.265757,-0.05169244,29.21,19.44,0.05680688,0.0539101,0.04127486,-0.2969185,0.633119,1.906032,0.6175514,1.521653,0.3652408,0.0003068196,-0.05380754,0.03345209,-1.141649,0.6008033,0.06795003,0.8157786,1.502586,0.2849262,0.2075095,1.635267,0.2632671,312.1591,112.9476,133.2241,True
3,2.266668,0.037528,-0.1046032,-0.1479719,-1.153848,1.519578,-1.709419,0.4351943,1.479371,0.4256313,-1.266001,-0.02161906,28.7,18.79,0.06232758,0.0569286,0.05829549,-0.2970202,0.6283549,1.909527,0.6176437,1.521811,0.365191,0.006749388,-0.06657128,0.0366257,-1.141121,0.5996268,0.0681162,0.8158228,1.502667,0.2847519,0.2077013,1.635435,0.2635282,312.2441,112.9924,133.2295,True
3,2.277779,0.03007246,-0.1046199,-0.1468962,-1.152447,1.518011,-1.70885,0.4354211,1.47948,0.4257755,-1.266116,-0.01027724,28.1,19.42,0.06547338,0.04413269,0.0560444,-0.2974581,0.6262007,1.910536,0.6177341,1.521869,0.3650749,0.01110447,-0.06014604,0.04829102,-1.140224,0.5990772,0.06804457,0.8158158,1.502708,0.284488,0.207958,1.635602,0.2637776,312.3591,113.0473,133.2265,True
3,2.28889,0.02576866,-0.09401953,-0.1512366,-1.151486,1.516113,-1.708218,0.4356449,1.479648,0.4259105,-1.266174,-0.005076339,27.41,21.21,0.06327739,0.0356743,0.05066019,-0.2972082,0.6253785,1.91046,0.6177334,1.521767,0.3650441,0.004749695,-0.05376192,0.052594,-1.139552,0.5985266,0.06833991,0.8157473,1.502683,0.2843583,0.208241,1.635727,0.2640119,312.5076,113.1383,133.201,True
3,2.300001,0.01933648,-0.08447427,-0.1545025,-1.150649,1.514147,-1.707357,0.4358351,1.479758,0.426177,-1.266369,-0.01763339,26.78,22.88,0.0697464,0.03238103,0.05803499,-0.2975315,0.6221255,1.91238,0.6178201,1.521825,0.3649387,-0.009118647,-0.03247392,0.05372987,-1.138967,0.5988559,0.06871621,0.8157274,1.502725,0.2841496,0.2085139,1.635793,0.2642283,312.6532,113.2518,133.146,True
3,2.311112,0.01716587,-0.07168189,-0.1524674,-1.15004,1.51244,-1.706759,0.4360277,1.479844,0.4263127,-1.266663,-0.02656832,26.19,24.45,0.07922235,0.02177337,0.04932585,-0.2975512,0.6211736,1.911896,0.6178997,1.521834,0.3648255,-0.01343874,-0.02077576,0.04841025,-1.138645,0.5989633,0.06886961,0.8157531,1.502715,0.2839773,0.2087302,1.635849,0.2644202,312.7494,113.3637,133.058,True
3,2.322223,0.01715455,-0.06847367,-0.1503733,-1.149059,1.510638,-1.706178,0.4362216,1.479856,0.4264712,-1.266671,-0.0003633786,25.63,25.92,0.0781119,0.02824211,0.04192537,-0.2968903,0.6198918,1.912215,0.6179159,1.52182,0.3646312,-0.01460237,-0.02293527,0.03670454,-1.138677,0.5985652,0.06917933,0.8157384,1.502769,0.2838094,0.2088662,1.635934,0.2646219,312.829,113.4968,132.925,True
3,2.333334,0.01498173,-0.05677937,-0.1525911,-1.148601,1.50876,-1.7055,0.4363921,1.479931,0.4265909,-1.266982,-0.02830869,25.23,31.7,0.08244862,0.03457757,0.04725818,-0.2965696,0.6169679,1.913952,0.6179727,1.521876,0.3644919,-0.0157818,-0.03255318,0.0228886,-1.138908,0.5978549,0.06977189,0.8156995,1.502806,0.28354,0.2089438,1.63604,0.2648973,312.8961,113.6323,132.7958,True
3,2.344445,0.01707633,-0.04069383,-0.1399341,-1.14851,1.507507,-1.70527,0.4365454,1.480036,0.4267464,-1.267205,-0.02007999,24.86,37.11,0.08243084,0.03459249,0.04513074,-0.2964279,0.6149999,1.914858,0.6179023,1.521902,0.3642304,-0.009405807,-0.0346809,0.02070515,-1.13875,0.5973305,0.06989812,0.8156028,1.502822,0.2833154,0.2089871,1.636149,0.2652542,312.944,113.7371,132.7555,True
3,2.355556,0.01917482,-0.02675635,-0.1293909,-1.148505,1.506295,-1.705067,0.4366514,1.480054,0.4268215,-1.267265,-0.005282748,24.51,42.17,0.08988688,0.021751,0.04921599,-0.2968583,0.6130383,1.915468,0.6179474,1.52193,0.3640928,-0.009314718,-0.03252565,0.03135277,-1.138078,0.5969466,0.07017749,0.8155766,1.502836,0.2830923,0.2090121,1.636219,0.2656778,312.9912,113.8432,132.757,True
3,2.366668,0.02020833,-0.01714043,-0.1241608,-1.148179,1.504655,-1.704531,0.4367269,1.480025,0.4268222,-1.267546,-0.02563269,24.18,46.91,0.0802104,0.007978834,0.04388395,-0.2972897,0.6122094,1.915506,0.6179942,1.521895,0.363862,-0.008178126,-0.02824248,0.04091628,-1.13738,0.5966979,0.07043981,0.8155941,1.502865,0.2828434,0.2089916,1.636315,0.2661337,313.0041,113.9528,132.7501,True
3,2.377779,0.02233823,-0.01605164,-0.1220414,-1.147882,1.503283,-1.704298,0.4368293,1.480073,0.4268417,-1.26765,-0.009166331,23.87,51.34,0.05882882,-0.001507714,0.03870588,-0.2978788,0.6116573,1.915964,0.6180242,1.521886,0.3636723,-0.001759931,-0.0271602,0.04405297,-1.136799,0.5963594,0.07037723,0.8155546,1.502847,0.2826312,0.208943,1.636445,0.266607,312.9861,114.0151,132.7851,True
3,2.38889,0.02236092,-0.0255788,-0.1144922,-1.147189,1.502556,-1.703934,0.4370174,1.480131,0.4271593,-1.267552,0.008989956,24,55.16,0.05992319,0.003812827,0.03979705,-0.2977148,0.6099048,1.916921,0.6180253,1.521844,0.3635516,-0.0008207131,-0.02611372,0.03018732,-1.137048,0.5962711,0.07044514,0.8155613,1.502903,0.2824986,0.2088733,1.636576,0.2670653,312.9845,114.0439,132.8859,True
3,2.400001,0.02772317,-0.0382581,-0.1111439,-1.147193,1.502205,-1.704154,0.4370306,1.480487,0.4276705,-1.267778,-0.02066335,24.12,58.74,0.06096262,0.003825471,0.03659518,-0.2979028,0.6087877,1.917129,0.6180313,1.521864,0.3634584,0.001182027,-0.02187523,0.01631178,-1.137314,0.5963004,0.0703498,0.8155574,1.502895,0.2823,0.2087819,1.636683,0.2674696,313.0056,114.1067,132.9665,True
3,2.411112,0.02772171,-0.03826633,-0.1122092,-1.146581,1.500874,-1.7039,0.4370849,1.48055,0.4277406,-1.267455,0.02973804,24.24,62.08,0.0566441,-0.0003878474,0.03234415,-0.2980573,0.6081951,1.917167,0.6180499,1.521892,0.3633201,0.006385015,-0.01869867,0.003476028,-1.137649,0.5962444,0.07021397,0.815523,1.502936,0.2820473,0.2087106,1.636728,0.2678234,313.0175,114.201,132.9579,True
3,2.422223,0.02558282,-0.03283517,-0.1005086,-1.146703,1.500361,-1.703833,0.4370964,1.480621,0.4274895,-1.267889,-0.03995027,24.34,65.21,0.05558757,-0.003597453,0.03445795,-0.2983571,0.6070425,1.917724,0.6180845,1.521883,0.3631191,0.005314424,-0.01976978,0.003489812,-1.137573,0.5958604,0.07046298,0.8154404,1.50289,0.2817752,0.2086954,1.636721,0.268153,313.0032,114.323,132.8112,True
3,2.433334,0.03086838,-0.01568295,-0.08892944,-1.147013,1.499622,-1.704059,0.4370688,1.480612,0.4274507,-1.267899,-0.0004755102,24.93,67.88,0.03626741,-0.01516971,0.02497907,-0.2988834,0.607666,1.917512,0.6180776,1.521915,0.3629508,0.005377187,-0.01762192,0.01094167,-1.13721,0.5957043,0.07047177,0.8153892,1.502921,0.2815619,0.2086575,1.636809,0.2684712,312.9997,114.3928,132.6863,True
3,2.444445,0.03191317,-0.009211048,-0.08043809,-1.147201,1.499214,-1.704115,0.4371927,1.480519,0.4272614,-1.267763,0.01239682,25.48,70.38,0.0363105,-0.003468674,0.02613907,-0.2987475,0.6061331,1.918658,0.6180797,1.521944,0.362819,0.002254982,-0.01547446,0.01948654,-1.136701,0.5956036,0.07058629,0.8153321,1.502928,0.2813506,0.2085901,1.636952,0.2687522,313.0179,114.4257,132.7407,True
3,2.455556,0.03191279,-0.005957767,-0.07300587,-1.147156,1.4986,-1.704195,0.4371766,1.480504,0.4271894,-1.268145,-0.03504158,26.01,72.72,0.03845912,0.001850534,0.02615918,-0.2986645,0.6048292,1.919383,0.6180326,1.521939,0.362633,0.006559716,-0.01120004,0.02476573,-1.136254,0.5955139,0.07037377,0.8152496,1.502897,0.2812207,0.2084861,1.637145,0.2689205,313.0089,114.4104,132.8946,True
3,2.466667,0.03192005,-0.006972872,-0.06766558,-1.147094,1.498022,-1.704286,0.4371959,1.480555,0.426959,-1.267887,0.02385268,26.5,74.9,0.0224324,0.005130354,0.02101998,-0.2987044,0.6047512,1.91979,0.6179768,1.521918,0.3624475,0.008651234,-0.01333291,0.02049199,-1.136184,0.5953356,0.07035193,0.8152252,1.50306,0.2810528,0.2084096,1.637256,0.269015,313.013,114.3769,133.0166,True
3,2.477778,0.029832,-0.01976306,-0.06756406,-1.146333,1.497298,-1.70424,0.4371665,1.480551,0.4268723,-1.267965,-0.007322507,26.96,76.95,0.005387962,-0.001220819,0.02327262,-0.2990277,0.6038709,1.921107,0.6178861,1.521886,0.362247,0.003233612,-0.009101927,0.01094207,-1.136397,0.5954134,0.07046005,0.8151759,1.503074,0.2809165,0.2083861,1.63724,0.2690279,313.0085,114.3737,133.0747,True
3,2.488889,0.02454268,-0.02827165,-0.0632269,-1.145664,1.496822,-1.704159,0.437188,1.480483,0.4266028,-1.267609,0.03209848,27.97,78.17,0.001064749,0.002044258,0.01694712,-0.2988099,0.603788,1.921418,0.6177471,1.521765,0.3620429,-0.002189412,0.005789464,0.00243684,-1.136553,0.5961502,0.07032503,0.8150762,1.503108,0.2807794,0.2083364,1.63716,0.268955,313.0324,114.4031,133.0479,True
3,2.5,0.02777132,-0.03675848,-0.05996993,-1.144892,1.496328,-1.704379,0.4371569,1.480464,0.4264891,-1.266679,0.08382157,28.91,79.31,0.009553439,0.005243134,0.01262236,-0.2986299,0.6038602,1.920948,0.6176845,1.521652,0.3617318,-0.004307831,0.0164466,0.005626941,-1.136351,0.596754,0.07020172,0.8149977,1.50312,0.2806432,0.2082064,1.637039,0.2688117,313.0668,114.4509,132.9851,True
3,2.511111,0.03098093,-0.03666362,-0.0493135,-1.144573,1.496349,-1.70483,0.4370174,1.480289,0.4264374,-1.265123,0.140219,29.79,80.37,0.0234957,0.01152099,0.02105558,-0.2985127,0.6016681,1.922469,0.6176391,1.521597,0.3615422,-0.001143612,0.0281747,0.004505115,-1.136284,0.5976728,0.06976523,0.8147175,1.503165,0.280551,0.2079767,1.636804,0.2686519,313.1121,114.5143,132.9058,True
3,2.522222,0.03204668,-0.03231969,-0.03975265,-1.144464,1.496355,-1.705223,0.4369096,1.480345,0.4263992,-1.263501,0.1454645,30.62,81.36,0.02675681,0.02320362,0.02324847,-0.298143,0.5998562,1.923779,0.6175635,1.521546,0.3613894,-4.876219E-05,0.02712017,0.007693168,-1.136096,0.5979326,0.06964353,0.8146892,1.503179,0.2804294,0.2076175,1.636433,0.2684858,313.113,114.5987,132.8197,True
3,2.533333,0.02780852,-0.03654555,-0.03332222,-1.143893,1.496312,-1.705331,0.4367727,1.480333,0.4262812,-1.261066,0.2192742,31.8,81.88,0.00948283,-5.811732E-05,0.008324391,-0.2986874,0.6016883,1.922506,0.6174725,1.521537,0.3612666,0.003156427,0.02712743,0.008730131,-1.135939,0.598263,0.06935058,0.8146017,1.503181,0.2803371,0.2070932,1.635896,0.2683676,313.096,114.7022,132.6814,True
3,2.544444,0.02782481,-0.0397245,-0.03115804,-1.143319,1.496221,-1.705656,0.4366989,1.480356,0.4262259,-1.258019,0.2743592,32.92,82.37,-0.00578337,-0.01897937,-0.01936271,-0.2993489,0.6062327,1.918849,0.6173561,1.52156,0.3611789,0.001941745,0.02921868,-0.00724921,-1.136583,0.5987521,0.06924618,0.8146372,1.503102,0.2802544,0.2063506,1.635201,0.268346,313.0107,114.8063,132.5166,True
3,2.555555,0.02996334,-0.04075803,-0.02795703,-1.142809,1.496083,-1.706024,0.4366188,1.480329,0.4260776,-1.254334,0.3319918,33.96,82.82,-0.01975344,-0.02311062,-0.02990805,-0.2994815,0.6091336,1.91679,0.6172245,1.521538,0.3610406,-0.006632004,0.02599522,-0.01355791,-1.136927,0.5989684,0.06952582,0.814551,1.503111,0.2801409,0.2053377,1.634447,0.2684305,312.8321,114.9881,132.3132,True
3,2.566666,0.03530814,-0.04711926,-0.02682324,-1.142155,1.49635,-1.706616,0.4365692,1.480343,0.4260814,-1.250646,0.3313553,34.94,83.25,-0.007892478,-0.01472726,-0.01823814,-0.299538,0.6077649,1.917805,0.6171434,1.521623,0.3608899,-0.005455912,0.03029009,0.0002587796,-1.136561,0.5994642,0.06940731,0.8144535,1.502998,0.2800124,0.2041018,1.633624,0.2686221,312.5947,115.2628,132.0973,True
3,2.577777,0.02893561,-0.05245856,-0.02570792,-1.141365,1.496197,-1.706655,0.436437,1.480325,0.4259634,-1.246402,0.3820846,35.85,83.65,0.0006583687,-0.006233474,-0.0182576,-0.2992562,0.6081751,1.917106,0.6170111,1.521632,0.360729,-0.004268365,0.03671799,0.01514816,-1.135831,0.6000971,0.06915537,0.8143377,1.50301,0.2798951,0.2027223,1.632712,0.2689278,312.316,115.5919,131.8713,True
3,2.588888,0.03215146,-0.05450696,-0.01608935,-1.140739,1.496764,-1.707327,0.4362265,1.480383,0.4257762,-1.241737,0.4198384,36.66,82.65,-0.005712923,0.002314691,-0.01919588,-0.2989015,0.6090399,1.916538,0.6167941,1.521616,0.3605418,-0.00847983,0.03139754,0.02051795,-1.135521,0.600265,0.06939505,0.8141862,1.503099,0.2798858,0.2012554,1.631703,0.2693321,312.0065,115.9331,131.6549,True
3,2.599999,0.03854218,-0.0501736,-0.007618701,-1.140146,1.496892,-1.70804,0.4360923,1.480145,0.4253376,-1.236317,0.4882969,37.42,81.72,-0.01413035,0.007598835,-0.01054776,-0.2987774,0.6083176,1.91769,0.6166868,1.521592,0.36026,-0.01813444,0.02603693,0.01209311,-1.135683,0.6003882,0.06987469,0.8140922,1.503104,0.2798007,0.1997387,1.630601,0.2698103,311.6852,116.2704,131.444,True
3,2.61111,0.03961951,-0.05438161,0.0009524236,-1.139246,1.497665,-1.70858,0.4359873,1.480012,0.4253557,-1.231172,0.4623254,38.13,80.85,-0.01287919,0.01385351,0.006530282,-0.2986554,0.6059515,1.920135,0.6164684,1.521523,0.3600547,-0.01718582,0.02707176,-0.001762113,-1.136142,0.6007975,0.06974899,0.8138421,1.503175,0.2796814,0.1981351,1.629486,0.2702862,311.3597,116.6141,131.2502,True
3,2.622221,0.04390643,-0.05967416,0.004195494,-1.138385,1.49815,-1.709435,0.4357545,1.480145,0.4250743,-1.225622,0.4993913,38.8,80.03,-0.01500814,0.02773553,0.002390616,-0.2979321,0.6060731,1.920278,0.6162801,1.521479,0.3599572,-0.01726576,0.03238148,-0.01029881,-1.136534,0.6015002,0.06955697,0.8136882,1.503232,0.2796834,0.1964604,1.628351,0.270697,311.0211,116.9063,131.1373,True
3,2.633332,0.03753269,-0.06285006,0.009555455,-1.137657,1.498597,-1.709813,0.4355544,1.480108,0.4248857,-1.219075,0.5900478,39.43,79.26,-0.02031972,0.03842252,0.0003975928,-0.2971598,0.6053108,1.921419,0.6161366,1.521454,0.359822,-0.01185536,0.03133819,-0.001820967,-1.136227,0.6016927,0.06931729,0.8135629,1.503245,0.2795901,0.1947966,1.627041,0.2710354,310.7092,117.2,131.0105,True
3,2.644443,0.03433749,-0.06286675,0.01171905,-1.136731,1.499471,-1.710341,0.4355115,1.479897,0.4247949,-1.213063,0.5401786,39.89,78.25,-0.02035488,0.02669362,0.000313418,-0.2975092,0.605301,1.92156,0.6159846,1.521415,0.3597109,-0.01067801,0.02923876,0.01203624,-1.13542,0.6018632,0.06952076,0.8134758,1.50307,0.2796752,0.1931262,1.625587,0.2712995,310.3811,117.5583,130.7175,True
3,2.655554,0.03431114,-0.05324646,0.01590601,-1.136497,1.499863,-1.71089,0.4353504,1.479782,0.4246125,-1.206033,0.6336257,40.32,77.3,-0.02691515,0.005485112,-0.009375946,-0.2979822,0.6074079,1.920048,0.6158196,1.521377,0.3595955,-0.0138549,0.02923889,0.01419503,-1.13517,0.602199,0.06961609,0.8133459,1.503058,0.2796187,0.1913398,1.624138,0.2714482,310.05,117.9671,130.3401,True
3,2.666665,0.03533228,-0.04042262,0.02328411,-1.136276,1.500816,-1.711522,0.4351812,1.479493,0.4244399,-1.19915,0.6192355,40.72,76.41,-0.03672402,-0.003928952,-0.02853287,-0.2980717,0.6112891,1.917045,0.6155146,1.521306,0.3595593,-0.01496108,0.02496824,0.009972321,-1.134946,0.6023526,0.06988907,0.8130534,1.503084,0.2796104,0.189541,1.622607,0.2715746,309.7136,118.3956,129.9241,True
3,2.677776,0.03424625,-0.03294464,0.02642371,-1.136218,1.501262,-1.712046,0.4349787,1.479379,0.4242983,-1.192413,0.6059354,41.09,75.58,-0.04107061,0.008968934,-0.04117204,-0.2972168,0.613712,1.915345,0.6152979,1.521263,0.3594632,-0.01705679,0.02071127,0.01319677,-1.134688,0.6024193,0.07011996,0.812896,1.50308,0.2795894,0.1878151,1.620939,0.2717361,309.3661,118.822,129.5079,True
3,2.688887,0.02676531,-0.02550239,0.03065252,-1.135902,1.502106,-1.712331,0.4347477,1.479336,0.4239719,-1.185178,0.6515904,41.03,75.17,-0.02498799,0.01417019,-0.03277237,-0.2969355,0.6132425,1.915451,0.6150596,1.521287,0.3593285,-0.01497239,0.03562833,0.01316039,-1.134222,0.6033835,0.07010639,0.8126771,1.503038,0.2795234,0.1860798,1.619246,0.2719426,309.0223,119.2224,129.1206,True
3,2.699998,0.02782269,-0.0244583,0.02744702,-1.135692,1.502336,-1.712754,0.4345332,1.479244,0.423806,-1.178027,0.6433301,40.97,74.79,-0.01436784,0.01416018,-0.03607569,-0.2966154,0.6147287,1.913797,0.6148276,1.521242,0.3592064,-0.01078877,0.04307452,0.005648718,-1.13437,0.6042102,0.06973008,0.8124976,1.503034,0.2794876,0.1843256,1.617532,0.2722135,308.6672,119.5927,128.779,True
3,2.711109,0.03208826,-0.02553879,0.02531214,-1.135167,1.502551,-1.713357,0.4342587,1.479291,0.4234605,-1.170419,0.6853815,40.91,74.44,-0.01766783,0.01105403,-0.04565735,-0.2962559,0.6175562,1.911384,0.614482,1.521411,0.3590345,-0.01619904,0.05049492,-0.002835335,-1.134552,0.6049595,0.06975458,0.8122426,1.503039,0.2791138,0.1824812,1.6159,0.2725353,308.2929,120.0015,128.4275,True
3,2.72222,0.02888942,-0.02661885,0.0263981,-1.134728,1.503161,-1.713694,0.4340856,1.479071,0.4235339,-1.163598,0.6130808,40.85,74.11,-0.02084611,0.01425067,-0.04559792,-0.2959853,0.6189405,1.910325,0.6142615,1.521372,0.3588622,-0.01505514,0.05051819,0.005674975,-1.134166,0.605584,0.06957455,0.8120206,1.503183,0.2791386,0.1805648,1.614379,0.272871,307.8962,120.4537,128.0836,True
3,2.733331,0.0235644,-0.02662852,0.02747066,-1.134484,1.503592,-1.713956,0.4338737,1.479011,0.423419,-1.156665,0.6239581,40.81,73.8,-0.01095411,0.02251717,-0.01686211,-0.2957552,0.6153688,1.913708,0.6142631,1.521287,0.3587694,-0.01810919,0.03669383,0.01957838,-1.133537,0.6053867,0.06998814,0.8118659,1.503244,0.2789581,0.1786436,1.612923,0.2732534,307.5343,120.9193,127.7328,True
3,2.744442,0.0182525,-0.03202575,0.02218491,-1.133781,1.503643,-1.714057,0.4336767,1.479066,0.4232218,-1.1491,0.6815773,40.18,74.37,-0.009616222,0.0329733,0.007709813,-0.2953904,0.6117298,1.91741,0.6141876,1.521146,0.3586054,-0.01586708,0.02926362,0.03022453,-1.132931,0.6054209,0.06998441,0.8117125,1.503266,0.2789779,0.176756,1.611481,0.2736931,307.2078,121.3642,127.3967,True
3,2.755553,0.01293252,-0.03309244,0.02433099,-1.133431,1.504074,-1.71421,0.4334867,1.479055,0.4231157,-1.141936,0.6444665,39.59,74.9,-0.006377433,0.03933752,0.009858076,-0.2948327,0.6103957,1.918648,0.6140812,1.521146,0.3585038,-0.004051149,0.0143869,0.0386772,-1.132238,0.6049871,0.06978574,0.8115442,1.503303,0.2788322,0.1750027,1.609936,0.2742513,306.8801,121.7658,127.0692,True
3,2.766664,0.01613683,-0.0373592,0.02436906,-1.132702,1.504698,-1.714662,0.4333814,1.478976,0.4231608,-1.134854,0.6373754,39.04,75.39,-0.004281132,0.02760748,0.01080634,-0.2949781,0.6102421,1.918842,0.6139189,1.521102,0.3583484,-0.004064385,0.0026588,0.0344388,-1.13212,0.6046072,0.06993141,0.8114447,1.503311,0.2787645,0.1732696,1.608425,0.2748482,306.524,122.191,126.759,True
3,2.777775,0.01507525,-0.04059985,0.01906895,-1.132181,1.504831,-1.714849,0.4332344,1.479028,0.4230611,-1.127807,0.6344031,38.53,75.85,-0.0162889,0.0150561,-0.01367535,-0.2948993,0.6137832,1.916035,0.6137732,1.521081,0.358253,-0.007289725,-0.002682352,0.03021836,-1.131934,0.6043791,0.07022596,0.8112907,1.503344,0.2786593,0.1715347,1.606992,0.2754343,306.1756,122.6819,126.4181,True
3,2.788886,0.01189849,-0.05027217,0.01276914,-1.130974,1.50521,-1.714959,0.4330668,1.47908,0.4228921,-1.121207,0.593646,37.8,76.36,-0.01940752,0.02889325,-0.01034328,-0.2940343,0.613003,1.917155,0.613595,1.521054,0.3581038,-0.0009629414,-0.002695414,0.02163244,-1.132074,0.6043376,0.06991996,0.811064,1.503343,0.2785821,0.1698766,1.60559,0.2760148,305.8367,123.1485,126.0791,True
3,2.799997,0.009792725,-0.06099806,0.004332487,-1.129899,1.505109,-1.714945,0.4329091,1.479175,0.422801,-1.114473,0.6062888,37.11,76.83,-0.007426905,0.03077825,0.01405725,-0.2941712,0.6092905,1.920232,0.6134295,1.521168,0.35816,0.002221773,-0.001627784,0.02053644,-1.131883,0.604336,0.06978494,0.8108841,1.503373,0.278497,0.1683406,1.604164,0.2765909,305.5262,123.5804,125.7504,True
3,2.811108,0.00128584,-0.06960905,-0.0009019673,-1.12856,1.505359,-1.714664,0.4327129,1.479293,0.4226575,-1.107685,0.6111112,36.48,77.27,-0.002181395,0.02868599,0.007598298,-0.2938702,0.6093547,1.920132,0.613232,1.521117,0.3581305,0.006548669,-0.001606712,0.0268907,-1.131311,0.6042836,0.06945364,0.8105564,1.50344,0.2783384,0.1668343,1.602797,0.2771144,305.2357,124.019,125.4247,True
3,2.822219,-0.002986031,-0.06855992,-0.0009045955,-1.127854,1.5055,-1.714457,0.4325605,1.479296,0.4226146,-1.101238,0.5799525,35.89,77.68,0.001108097,0.02645827,0.01713816,-0.2939523,0.6077647,1.921495,0.6130919,1.521284,0.3581569,0.003397764,-0.002673533,0.03117555,-1.130922,0.6040866,0.06955271,0.8104311,1.503495,0.2783597,0.1653475,1.601476,0.2775507,304.9761,124.482,125.0806,True
3,2.83333,-0.001899011,-0.07494786,-0.0008564685,-1.126817,1.505652,-1.714555,0.4324036,1.479443,0.4225452,-1.094415,0.6147444,35.33,78.07,-0.00209345,0.01365004,0.02132232,-0.2943203,0.6072113,1.922248,0.6129842,1.521268,0.358171,-0.004042774,-0.01333769,0.03126614,-1.130618,0.6035054,0.07009919,0.810325,1.50357,0.278264,0.1638773,1.600195,0.2779157,304.7472,124.96,124.6832,True
3,2.844441,-0.00614638,-0.0824486,-0.005044581,-1.12573,1.505772,-1.714322,0.4323515,1.479836,0.4224834,-1.088153,0.5631656,34.64,76.47,-0.01598217,0.0126508,0.0182574,-0.2943272,0.6070072,1.923144,0.6129039,1.52146,0.3581533,-0.008262472,-0.02932689,0.03346967,-1.130277,0.602413,0.07081212,0.8101968,1.503662,0.2782052,0.1624382,1.598945,0.2782182,304.5178,125.4285,124.2692,True
3,2.855552,-0.01463208,-0.09747376,-0.01557009,-1.124113,1.505457,-1.713764,0.4322719,1.480066,0.4224188,-1.08218,0.5371713,33.99,74.97,-0.02117581,0.02324536,0.0279817,-0.2939789,0.6042102,1.926243,0.6128231,1.521542,0.358104,-0.009329358,-0.02826319,0.03347665,-1.129931,0.6020825,0.07110453,0.8100593,1.503708,0.2781529,0.1610707,1.597698,0.2785113,304.2899,125.8682,123.8509,True
3,2.866663,-0.01355236,-0.1060455,-0.01976045,-1.122355,1.505462,-1.713503,0.4321988,1.48004,0.422286,-1.07564,0.5892389,33.38,73.57,-0.01350367,0.02945571,0.04713048,-0.2939592,0.5999514,1.930183,0.6127485,1.521552,0.3578465,-0.00723388,-0.02187298,0.03024737,-1.129702,0.6021185,0.07104702,0.8098856,1.50369,0.2781391,0.1597371,1.59649,0.2788113,304.0574,126.3496,123.386,True
3,2.877774,-0.01784031,-0.09861143,-0.02087781,-1.121467,1.505283,-1.71306,0.4321189,1.48022,0.4222169,-1.069257,0.57451,32.81,72.25,-0.009146065,0.03577447,0.05459407,-0.2936801,0.5964377,1.933506,0.6127044,1.521593,0.3577893,-0.007274216,-0.01335673,0.02703096,-1.129516,0.602284,0.07106432,0.8097728,1.503664,0.2780449,0.158429,1.595371,0.2791312,303.8257,126.9018,122.8709,True
3,2.888885,-0.02316537,-0.09536935,-0.01130756,-1.120424,1.505735,-1.712818,0.4320432,1.480352,0.4222524,-1.063236,0.5415872,32.08,70.32,-0.01008469,0.03674609,0.06632607,-0.2936934,0.5926024,1.937264,0.6125998,1.521609,0.357656,-0.005286488,-0.009133723,0.01102373,-1.129927,0.6022761,0.0709855,0.8096387,1.503631,0.277993,0.1571978,1.594275,0.2794986,303.6583,127.4049,122.4548,True
3,2.899997,-0.02426883,-0.08147439,-0.006076316,-1.120115,1.506072,-1.712691,0.4319618,1.48061,0.4223363,-1.057012,0.560402,31.39,68.51,-0.01673066,0.02307855,0.04498167,-0.2939315,0.5935353,1.936688,0.6125922,1.521676,0.3576736,-0.003187185,-0.01340159,0.006753704,-1.130023,0.6019703,0.07107444,0.8095553,1.503659,0.2779348,0.1560526,1.593124,0.2799033,303.5071,127.8158,122.1448,True
3,2.911108,-0.02532879,-0.08148108,-0.006082362,-1.119156,1.506013,-1.712437,0.4319393,1.480842,0.4221792,-1.050813,0.557924,30.74,66.82,-0.02002714,0.01463292,0.03749128,-0.2940108,0.5930959,1.9374,0.6125557,1.521735,0.3576343,-0.004144378,-0.03042556,0.01638408,-1.129686,0.6009128,0.07161613,0.8093908,1.503708,0.2778931,0.1549065,1.591989,0.2803346,303.3121,128.2271,121.7911,True
3,2.922219,-0.02852233,-0.08153175,-0.009285204,-1.117996,1.505783,-1.711991,0.4318583,1.481044,0.4219289,-1.044872,0.5344064,30.13,65.24,-0.02751952,0.009346598,0.03540497,-0.2942905,0.5915273,1.93939,0.6125052,1.521768,0.3577535,-0.008366905,-0.03468129,0.02069669,-1.129292,0.6003749,0.07216155,0.8092623,1.503757,0.2777848,0.1537595,1.590868,0.2807982,303.0832,128.6587,121.3935,True
3,2.93333,-0.02851506,-0.08366227,-0.009268688,-1.116994,1.505841,-1.711718,0.4318334,1.4812,0.421838,-1.038846,0.5423778,29.56,63.76,-0.02217542,0.0146554,0.03539297,-0.2941174,0.589912,1.941026,0.6124799,1.521852,0.3577545,-0.007285747,-0.0389384,0.02176236,-1.129037,0.5997189,0.07247686,0.8091878,1.503767,0.2777362,0.1525787,1.589818,0.2812948,302.8294,129.114,120.9923,True
3,2.944441,-0.02532871,-0.08041809,-0.006090479,-1.11643,1.506171,-1.711638,0.431822,1.481398,0.4219849,-1.03265,0.5578575,28.91,61.44,-0.02431756,0.01893877,0.03332126,-0.2939517,0.588317,1.942947,0.6125413,1.521942,0.3577445,-0.01369191,-0.04107815,0.02075554,-1.128953,0.5991975,0.07315411,0.8091779,1.503758,0.2777789,0.1513759,1.588813,0.2817931,302.6037,129.6013,120.6481,True
3,2.955552,-0.02642145,-0.06862948,0.003407432,-1.116109,1.506595,-1.711505,0.4317884,1.48152,0.4219341,-1.026614,0.5430908,28.3,59.28,-0.02015321,0.01900036,0.02369132,-0.2937509,0.5882306,1.943113,0.6125624,1.522032,0.3577294,-0.01590427,-0.03684001,0.01224251,-1.129128,0.59893,0.07352615,0.8091373,1.50377,0.2777672,0.1510434,1.588427,0.2819216,302.1767,129.401,120.663,True
3,2.966663,-0.02539414,-0.05794793,0.006513387,-1.115824,1.506732,-1.711231,0.4318813,1.481451,0.4219148,-1.020632,0.5382615,27.73,57.25,-0.02330989,0.01791734,0.02692059,-0.2938404,0.5863141,1.945168,0.6125498,1.522085,0.3576663,-0.01589266,-0.03577062,0.01330275,-1.129003,0.5985608,0.07380605,0.8091578,1.503646,0.277806,0.1510341,1.588387,0.2818572,302.3697,129.0537,120.8806,True
3,2.977774,-0.02650297,-0.0440837,0.01065293,-1.115581,1.5068,-1.710894,0.4318576,1.481467,0.4217861,-1.014492,0.552789,27.2,55.36,-0.02212521,0.02529147,0.03549352,-0.2937946,0.5834861,1.947958,0.6125613,1.522171,0.3576896,-0.01805306,-0.03471595,0.0101234,-1.129044,0.5981845,0.07423295,0.8091584,1.503635,0.2778211,0.1512121,1.588688,0.2817455,302.7054,128.7908,121.1652,True
3,2.988885,-0.02862895,-0.04406504,0.01385094,-1.115121,1.507172,-1.710672,0.4319339,1.481557,0.4217651,-1.008422,0.5463025,26.7,53.59,-0.02416466,0.03377722,0.04196804,-0.2932918,0.5805703,1.951137,0.6125712,1.522089,0.3578153,-0.01913199,-0.0283201,0.009055247,-1.128925,0.5981922,0.07440712,0.8091427,1.503626,0.2778177,0.1513718,1.589072,0.2819801,302.8296,127.7447,122.1872,True
3,2.999996,-0.02757985,-0.0387246,0.01593238,-1.114801,1.507403,-1.710495,0.4319622,1.481597,0.4216659,-1.002356,0.545963,25.82,51.19,-0.01988583,0.02947702,0.04508717,-0.2933536,0.5784126,1.953268,0.6126211,1.522147,0.3578486,-0.01911932,-0.03044821,0.01012542,-1.128815,0.5977311,0.07482071,0.8091618,1.50359,0.277832,0.1514622,1.589347,0.2818329,303.1221,127.6935,122.2038,True
3,3.011107,-0.02438303,-0.03762951,0.01805012,-1.114499,1.507759,-1.710519,0.4319721,1.481717,0.4216208,-0.9963099,0.5441814,24.99,48.94,-0.02423375,0.01780011,0.0407795,-0.2937999,0.5778983,1.954251,0.6127486,1.522288,0.3578107,-0.02127246,-0.03045327,0.006942727,-1.128956,0.5974404,0.07517412,0.8091426,1.503628,0.2778459,0.1515951,1.589449,0.2817919,303.3455,127.5126,122.397,True
3,3.022218,-0.0201293,-0.03548252,0.01802635,-1.114252,1.508003,-1.710544,0.4320303,1.481847,0.4216485,-0.9903945,0.5322353,24.22,46.84,-0.02758216,0.0157891,0.02588235,-0.293736,0.5787625,1.953783,0.612828,1.522325,0.3578265,-0.02347964,-0.03580523,-0.002613379,-1.1294,0.5968084,0.07579143,0.8091687,1.503623,0.2778418,0.1515996,1.58967,0.2818227,303.5129,127.6104,122.6099,True
3,3.033329,-0.01693982,-0.03334032,0.01800215,-1.113991,1.508202,-1.710573,0.4320292,1.481968,0.4215949,-0.9845248,0.5280851,23.49,44.87,-0.02441289,0.02006645,0.02268589,-0.29341,0.5778326,1.954967,0.6128348,1.522415,0.3578312,-0.02553851,-0.04644454,0.002754774,-1.129295,0.5958962,0.07642154,0.8092021,1.503607,0.2778072,0.1516742,1.589841,0.2819124,303.555,127.4359,122.8881,True
3,3.04444,-0.01694608,-0.03121241,0.0169115,-1.113783,1.50826,-1.710435,0.4320158,1.48205,0.4216359,-0.9785514,0.5376424,22.56,42.73,-0.02442784,0.02648219,0.01953786,-0.2929733,0.5768327,1.956246,0.6128811,1.522438,0.3579404,-0.02228546,-0.05068187,0.008059963,-1.129103,0.5952178,0.07679092,0.8092045,1.503547,0.2778618,0.1517639,1.589927,0.282007,303.5742,127.1975,123.1672,True
3,3.055551,-0.01588914,-0.03125836,0.01051849,-1.113411,1.508203,-1.710256,0.4320517,1.482148,0.4216378,-0.9725358,0.5413961,21.69,40.73,-0.02753055,0.02535181,0.02914866,-0.2929957,0.574324,1.959049,0.6129727,1.522463,0.3580124,-0.01582638,-0.05172023,0.01546265,-1.128726,0.5945088,0.07703699,0.8092289,1.503507,0.2778881,0.1518824,1.590023,0.2820743,303.6219,126.9403,123.4284,True
3,3.066662,-0.01801362,-0.03122261,0.01477965,-1.113247,1.508545,-1.710127,0.4320634,1.482271,0.4218569,-0.9665144,0.5421247,20.88,38.86,-0.0253702,0.02318762,0.03337314,-0.2929573,0.5721948,1.961384,0.6131139,1.522431,0.3579652,-0.01050191,-0.03998749,0.01644924,-1.128569,0.5945212,0.07685963,0.8092897,1.503562,0.2779217,0.1517251,1.590104,0.282271,303.4386,126.4707,123.8801,True
3,3.077773,-0.01269946,-0.02801698,0.01368253,-1.113061,1.508678,-1.710211,0.4321277,1.482358,0.4218991,-0.9607247,0.5209916,20.12,37.11,-0.01908603,0.01363818,0.02577684,-0.2931491,0.5723045,1.961264,0.6132315,1.522472,0.3580441,-0.01063308,-0.03788698,0.001528577,-1.129113,0.5942685,0.07704179,0.8093758,1.503536,0.2779744,0.1492707,1.587656,0.283443,304.1269,126.0644,123.8563,True
3,3.088884,-0.01056856,-0.02801223,0.01366693,-1.112719,1.508688,-1.710177,0.4322371,1.482385,0.4219291,-0.9549329,0.5214422,19.41,35.47,-0.01381033,0.007252198,0.02353759,-0.2932103,0.572178,1.961473,0.6133404,1.522578,0.3581929,-0.009659385,-0.04216725,-0.01018842,-1.129668,0.5937181,0.07728413,0.8094254,1.503582,0.2779672,0.1456859,1.583529,0.285143,302.9347,128.2948,121.9194,True
3,3.099995,-0.007365441,-0.03230162,0.008363865,-1.112236,1.508559,-1.710139,0.4323096,1.482534,0.4220314,-0.9496513,0.4748165,19,33.75,-0.01491242,-0.003399605,0.02345997,-0.2936849,0.5721114,1.961763,0.6134597,1.522636,0.3582606,-0.01184312,-0.05284736,-0.01866989,-1.130275,0.5926225,0.07788015,0.8095473,1.503492,0.2779317,0.1467246,1.592854,0.2857764,303.3548,125.9849,124.0387,True
3,3.111106,-0.008419406,-0.03875716,-0.0001148884,-1.1116,1.508185,-1.709863,0.4324713,1.48263,0.4221468,-0.9442419,0.4871124,18.61,32.14,-0.01710267,-0.004410023,0.01815266,-0.2937259,0.5718405,1.962324,0.6136404,1.522652,0.3583939,-0.009644751,-0.05175593,-0.01124162,-1.130281,0.5920801,0.07809614,0.8096375,1.503548,0.2779036,0.1482372,1.595818,0.2872057,303.7306,122.7413,127.886,True
3,3.122217,-0.01159964,-0.04306118,-0.004347183,-1.110954,1.507966,-1.709615,0.4326029,1.48276,0.4223101,-0.939095,0.4631289,18.24,30.63,-0.01272821,0.008307459,0.02459737,-0.2934228,0.5697167,1.964234,0.6136521,1.522747,0.3585262,-0.006340295,-0.04532865,0.0004165452,-1.130114,0.5918062,0.07797736,0.8097603,1.50357,0.2778869,0.1478447,1.59238,0.2893429,304.7677,123.2644,128.3866,True
3,3.133328,-0.01266093,-0.04630187,-0.009647347,-1.110287,1.507751,-1.709334,0.4326936,1.482836,0.4223926,-0.9339439,0.4638124,17.9,29.22,-0.00202938,0.01571261,0.02667874,-0.2931491,0.5679759,1.965564,0.6137619,1.522799,0.3586154,-0.005251616,-0.04212377,0.00359551,-1.130004,0.5914196,0.07818162,0.8098413,1.503567,0.2778811,0.1452451,1.586264,0.2912419,303.3961,126.3264,125.8361,True
3,3.144439,-0.01370502,-0.04950318,-0.009629129,-1.109596,1.50763,-1.709259,0.4327392,1.482941,0.4224682,-0.9290123,0.4438248,17.96,27.98,0.003240666,0.01254079,0.02127775,-0.2932045,0.5676723,1.965529,0.6138346,1.522847,0.3587523,-0.002011562,-0.04637,0.005691418,-1.130165,0.5907551,0.07810093,0.8098652,1.503613,0.2778442,0.1477759,1.589891,0.2918851,302.204,128.3438,123.9555,True
3,3.15555,-0.009461175,-0.04524416,-0.01179831,-1.109219,1.507436,-1.709213,0.4328559,1.483017,0.4225445,-0.9242325,0.4301895,18.02,26.82,0.009539034,0.01686489,0.01059453,-0.292789,0.5681108,1.964759,0.6139432,1.522883,0.358829,-0.003045117,-0.05488899,0.007851009,-1.130083,0.5897099,0.07863089,0.8099751,1.503613,0.2778134,0.1489959,1.59273,0.2922796,303.2791,126.7777,126.3937,True
3,3.166661,-0.006268881,-0.0420232,-0.01076277,-1.108938,1.507398,-1.709319,0.4329073,1.483113,0.4227235,-0.9198803,0.3914743,18.06,25.73,0.00426648,0.01897318,0.01494193,-0.2928428,0.565999,1.966889,0.6140707,1.522976,0.3588963,-0.004096031,-0.06660781,0.006819615,-1.130179,0.5885477,0.07913423,0.8100384,1.503591,0.2778339,0.1466589,1.589404,0.2936801,304.1487,124.0984,128.8277,True
3,3.177772,-0.0009518399,-0.04092203,-0.008659055,-1.108437,1.507269,-1.709454,0.4330257,1.483099,0.422719,-0.9160193,0.3475244,18.1,24.71,0.007598821,0.02205646,0.02665873,-0.2929642,0.5631499,1.969317,0.6142218,1.523004,0.3588979,-0.0126254,-0.06769344,0.005828671,-1.13027,0.587604,0.07995795,0.8101485,1.503554,0.2778001,0.1478169,1.591844,0.29423,302.1218,125.7751,126.8932,True
3,3.188883,0.006499184,-0.03768554,-0.006560287,-1.108203,1.507365,-1.709707,0.433089,1.483077,0.4228547,-0.9127069,0.2980052,18.14,23.75,0.01081398,0.02097838,0.02873847,-0.2927075,0.5618826,1.970294,0.6141877,1.52303,0.3589189,-0.01582941,-0.06131795,0.003688515,-1.130661,0.5870423,0.08016808,0.810205,1.503694,0.2776468,0.1486064,1.594085,0.2942557,303.2362,125.5001,128.1509,True
3,3.199994,0.01182789,-0.03765243,-0.004444964,-1.107752,1.507344,-1.710009,0.4331701,1.483099,0.4229174,-0.9098514,0.2569729,18.26,22.93,0.01182911,0.02955456,0.02027632,-0.2922516,0.5613608,1.970527,0.6142942,1.523067,0.3589864,-0.01582038,-0.04745795,0.006853972,-1.130468,0.5870364,0.08029591,0.8102663,1.503759,0.2777536,0.1461368,1.590362,0.2950211,304.467,122.6769,130.458,True
3,3.211105,0.01181055,-0.03443534,-0.002336316,-1.107555,1.507454,-1.710041,0.433269,1.483041,0.4230175,-0.9073486,0.2252661,18.38,22.16,0.005351368,0.03711714,0.009741105,-0.2914691,0.5617389,1.970391,0.6144319,1.522897,0.3591771,-0.0147031,-0.03998895,0.0121405,-1.130338,0.5867917,0.08028259,0.8103105,1.503858,0.2775884,0.1474593,1.592741,0.2952833,302.5468,124.8787,128.0079,True
3,3.222216,0.01714104,-0.03439276,0.0008396804,-1.107171,1.507425,-1.710385,0.4333497,1.483118,0.4230466,-0.9052734,0.1866663,18.48,21.45,0.007589974,0.03595662,0.02143208,-0.291402,0.5589361,1.972999,0.6144803,1.52308,0.3591926,-0.01898333,-0.03999893,0.01005049,-1.130313,0.5863044,0.0808842,0.8104187,1.503955,0.2777052,0.1453308,1.588462,0.2961222,303.9833,123.5976,129.5344,True
3,3.233327,0.01714519,-0.03436799,0.004035466,-1.106811,1.507659,-1.71067,0.4334387,1.483099,0.4231112,-0.9030907,0.1969496,18.58,20.78,0.008615851,0.03705201,0.01716885,-0.2910228,0.5581389,1.973632,0.6145961,1.523037,0.3592589,-0.01901226,-0.04746588,0.004734933,-1.130626,0.5855065,0.08134652,0.8106046,1.503664,0.278019,0.147203,1.591467,0.2961716,302.1946,126.5608,126.4828,True
3,3.244438,0.01819002,-0.03223945,0.002949729,-1.106558,1.50763,-1.710707,0.4335623,1.483061,0.4232044,-0.9018283,0.1128957,18.68,20.15,0.00750301,0.03709389,0.01291414,-0.290545,0.557843,1.97394,0.6146936,1.523074,0.3593218,-0.01795065,-0.05279273,0.00474651,-1.130503,0.5846167,0.08204267,0.8106587,1.503559,0.2781436,0.148502,1.594378,0.2958326,303.9564,126.2383,127.8383,True
3,3.255549,0.01929968,-0.04500854,0.003047686,-1.105783,1.507826,-1.711061,0.4336255,1.483139,0.4233611,-0.9003189,0.1363215,18.85,19.67,0.005369124,0.02642305,0.01604763,-0.2907453,0.5569354,1.974826,0.6148176,1.523055,0.3594005,-0.01577305,-0.05277717,0.01005391,-1.130242,0.5839354,0.08242404,0.8107476,1.503531,0.2782257,0.1461647,1.590128,0.2960126,304.9291,123.3009,130.0307,True
3,3.26666,0.01717122,-0.0450562,-0.001214373,-1.105174,1.507693,-1.711232,0.4337557,1.483233,0.423295,-0.8989884,0.1197969,19.01,19.22,0.005303316,0.02540783,0.009650914,-0.2905013,0.5567489,1.974914,0.6149268,1.523056,0.3593991,-0.0168248,-0.03998241,0.01537367,-1.129692,0.5839103,0.08286452,0.8108264,1.503475,0.2782195,0.1477398,1.592564,0.2958634,303.3211,125.789,127.2232,True
3,3.277771,0.01932916,-0.05467676,-0.00648071,-1.104201,1.507399,-1.711427,0.4338843,1.483192,0.4233654,-0.8981851,0.07192663,19.16,18.8,0.007330163,0.02014182,0.001065884,-0.290357,0.557624,1.973938,0.6150205,1.523044,0.3594663,-0.01468892,-0.02825452,0.01852761,-1.129323,0.5839655,0.08299076,0.8109325,1.50339,0.278208,0.145529,1.587825,0.2962983,304.4407,123.9235,129.1271,True
3,3.288882,0.02252157,-0.05360068,-0.006493647,-1.103636,1.507401,-1.711797,0.4340404,1.48322,0.4233871,-0.8973063,0.07926923,19.3,18.41,0.007248745,0.01698807,-0.004283603,-0.2901983,0.5580927,1.97366,0.6151426,1.523134,0.3594894,-0.01686153,-0.02507132,0.01428101,-1.129287,0.5837701,0.08331726,0.8110796,1.503407,0.2782958,0.147615,1.591002,0.296131,302.7462,127.1994,125.7415,True
