loc,t,aDotUA,bDotUA,gDotUA,aUA,bUA,gUA,xUA,yUA,zUA,qE,qDotE,emgA,emgB,aDotSH,bDotSH,gDotSH,aSH,bSH,gSH,xSH,ySH,zSH,aDotUB,bDotUB,gDotUB,aUB,bUB,gUB,xUB,yUB,zUB,xHand,yHand,zHand,aHand,bHand,gHand,enable
2,0,-0.1137217,-0.8471152,0.279866,-1.382877,-4.301353,3.062304,0.6673867,1.215545,0.4360454,-1.400317,0.02898454,24.5,76.3,-0.4562083,0.4151152,0.03728829,-0.7569242,-3.526001,-0.7176745,0.6576806,1.409354,0.3339133,-0.2778169,0.2598715,0.232506,-0.5861245,-0.05048022,-0.04999126,0.7662964,1.48283,0.170013,0.4629208,1.029723,0.2869498,309.4314,242.0449,354.8454,False
2,0.01111111,-0.1224562,-0.7948674,0.2966347,-1.387241,-4.294256,3.062654,0.6657987,1.214772,0.4351225,-1.400769,-0.04151825,24.5,76.3,-0.4487222,0.4087281,0.03931265,-0.7595761,-3.520582,-0.7169786,0.6564254,1.409078,0.3336475,-0.2799721,0.2502957,0.2292898,-0.5837767,-0.04576017,-0.0506709,0.7657791,1.482948,0.1703899,0.4623855,1.02964,0.2838811,309.3151,241.163,355.2845,False
2,0.02222222,-0.134468,-0.7223613,0.3175597,-1.391762,-4.288934,3.063604,0.6644536,1.213977,0.4341896,-1.400594,0.01661712,24.5,76.3,-0.4530337,0.3831931,0.03598431,-0.761589,-3.516512,-0.7147562,0.6553278,1.408733,0.333405,-0.2747161,0.2460748,0.2207045,-0.5817521,-0.04093265,-0.05187438,0.7653601,1.483013,0.1707618,0.4619419,1.029453,0.2807475,309.1674,240.8935,355.0817,False
2,0.03333334,-0.1411088,-0.6583958,0.3321372,-1.396296,-4.283948,3.064481,0.6630993,1.213215,0.4332881,-1.400892,-0.02736511,24.5,76.3,-0.454286,0.3694888,0.01459542,-0.764397,-3.513084,-0.7121413,0.6543303,1.408385,0.3332183,-0.2747764,0.2503583,0.2143299,-0.579743,-0.03545213,-0.05341689,0.7650865,1.483047,0.1711254,0.4616213,1.02915,0.2775671,309.0667,240.8492,354.6487,False
2,0.04444445,-0.1465946,-0.6232239,0.3404598,-1.40061,-4.278175,3.065397,0.6617252,1.212501,0.4323382,-1.400831,0.005940457,24.5,76.3,-0.4395037,0.3589356,-0.001576766,-0.7672711,-3.509487,-0.7103833,0.6533428,1.408058,0.3329704,-0.2748936,0.2482816,0.2004739,-0.5781015,-0.03039918,-0.05459001,0.7647015,1.483102,0.1714916,0.4614397,1.028754,0.2743663,309.0237,240.777,354.2014,False
2,0.05555556,-0.1488605,-0.5890933,0.3498689,-1.405219,-4.273098,3.066285,0.6604651,1.211833,0.4314215,-1.401107,-0.02524358,8.8,84.1,-0.4204198,0.3461991,-0.01140633,-0.7698703,-3.506083,-0.7087542,0.6524327,1.407771,0.3327947,-0.272824,0.2344695,0.1918772,-0.5763725,-0.02625251,-0.05508136,0.7643666,1.483137,0.1717973,0.4613557,1.028321,0.2712268,309.0242,240.7435,353.69,False
2,0.06666667,-0.1585616,-0.5625129,0.3497162,-1.409311,-4.267769,3.067522,0.6592553,1.211168,0.4305882,-1.401109,0.0001164134,8.8,84.1,-0.4097868,0.3344865,-0.01264398,-0.7722368,-3.502555,-0.7070959,0.6513532,1.407489,0.3326755,-0.2697102,0.2217318,0.1811455,-0.5748162,-0.02242501,-0.05541426,0.7640153,1.483182,0.1721306,0.4612902,1.027896,0.2682007,309.0424,240.7262,353.1934,False
2,0.07777778,-0.1735561,-0.5423371,0.3485462,-1.413437,-4.262775,3.069156,0.6580614,1.210596,0.4297101,-1.401379,-0.0245696,8.8,84.1,-0.3971498,0.3004791,-0.02682482,-0.7741926,-3.50097,-0.7042956,0.6505758,1.407279,0.3324933,-0.2624177,0.213305,0.1608162,-0.5737589,-0.01842255,-0.05621507,0.7636465,1.48311,0.1724582,0.4612184,1.02752,0.2652826,309.0681,240.6927,352.7696,False
2,0.08888889,-0.1810597,-0.53388,0.3442234,-1.417367,-4.257112,3.070587,0.6568507,1.209978,0.4288425,-1.401133,0.02271172,8.8,84.1,-0.3876199,0.2802669,-0.03236045,-0.7761421,-3.49875,-0.7019123,0.6497674,1.407028,0.332273,-0.2615615,0.2048871,0.1352098,-0.5731857,-0.01463647,-0.05656954,0.763347,1.483107,0.1727455,0.4611513,1.027246,0.2624871,309.0638,240.6825,352.36,False
2,0.1,-0.2014059,-0.5073779,0.3344984,-1.421023,-4.252614,3.072869,0.6557834,1.209458,0.4280138,-1.40089,0.02215092,8.2,84.6,-0.3684654,0.2685382,-0.03366081,-0.778092,-3.496349,-0.7002497,0.6490691,1.406844,0.3321373,-0.2563459,0.1942956,0.1212718,-0.5724252,-0.01124427,-0.05676608,0.7630746,1.483135,0.1730077,0.4610667,1.027085,0.2598082,309.0335,240.6552,351.9883,False
2,0.1111111,-0.222874,-0.46704,0.3246939,-1.424532,-4.248822,3.075518,0.6547866,1.208845,0.4272478,-1.401106,-0.01987743,8.2,84.6,-0.3396524,0.2588786,-0.02757066,-0.7798593,-3.4936,-0.6994654,0.6483544,1.406703,0.3320239,-0.2521718,0.1911505,0.1105749,-0.5715479,-0.007277221,-0.05744119,0.7627617,1.48312,0.1733024,0.4609089,1.027053,0.2572066,308.9876,240.6356,351.6501,False
2,0.1222222,-0.2454588,-0.4139349,0.3148112,-1.427753,-4.24588,3.078519,0.6539314,1.208315,0.4265473,-1.400616,0.04516617,8.2,84.6,-0.305454,0.2385114,-0.01307066,-0.7808819,-3.491084,-0.6990782,0.6476843,1.406627,0.3319299,-0.238429,0.1848243,0.09764508,-0.5710435,-0.003848135,-0.05815225,0.7625105,1.483142,0.1735241,0.4606986,1.027147,0.2546461,308.8929,240.5934,351.3522,False
2,0.1333333,-0.2649629,-0.3309692,0.3047945,-1.430826,-4.245148,3.082021,0.65307,1.207915,0.4259791,-1.40047,0.01307619,8.2,84.6,-0.287217,0.2181326,0.004754663,-0.7814892,-3.488593,-0.6982949,0.6471761,1.406526,0.3318212,-0.2225271,0.178489,0.08683662,-0.5704156,-0.0005415538,-0.05913869,0.7622716,1.483174,0.1736591,0.4604238,1.027381,0.252143,308.7699,240.5594,351.028,False
2,0.1444445,-0.2769931,-0.2522556,0.2947877,-1.433731,-4.24465,3.08531,0.6521639,1.20749,0.4255855,-1.400429,0.003749935,8.2,84.6,-0.2679559,0.1892814,0.01613678,-0.7817661,-3.486683,-0.6974824,0.6465991,1.406447,0.3317876,-0.2055788,0.1625794,0.07384481,-0.5700182,0.001933322,-0.05946838,0.7620519,1.483193,0.1738853,0.4600553,1.027754,0.2497427,308.5982,240.5424,350.6817,False
2,0.1555556,-0.2666059,-0.185206,0.2742015,-1.436125,-4.24484,3.088039,0.6512564,1.207157,0.4251497,-1.400439,-0.0008446297,8.2,85,-0.2379924,0.1518249,0.03694727,-0.7811062,-3.485255,-0.6969191,0.6461741,1.406408,0.3317618,-0.1897006,0.150929,0.06087452,-0.5698547,0.004349874,-0.05992325,0.7618769,1.483187,0.174015,0.4595759,1.028283,0.2475286,308.4172,240.5472,350.3039,False
2,0.1666667,-0.2070753,-0.1541543,0.2591282,-1.438621,-4.243966,3.088264,0.6503013,1.20682,0.4246686,-1.400869,-0.03909726,8.2,85,-0.2068835,0.1100599,0.06519879,-0.7796149,-3.483672,-0.6970635,0.6456144,1.406405,0.3319235,-0.171561,0.1487995,0.0639063,-0.5690776,0.007344998,-0.06106362,0.7616752,1.483232,0.1741984,0.4588561,1.028974,0.2456124,308.2332,240.6022,349.8853,False
2,0.1777778,-0.1647252,-0.08814739,0.2183061,-1.439602,-4.245235,3.08876,0.6494275,1.206666,0.4244561,-1.4017,-0.07558767,8.2,85,-0.1595581,0.05206452,0.1272763,-0.7759866,-3.481949,-0.6981394,0.6450887,1.406377,0.3319564,-0.147001,0.1551853,0.07117486,-0.5681716,0.01108261,-0.06334142,0.7615409,1.483217,0.1743309,0.457851,1.029812,0.2440849,307.9967,240.6931,349.5356,False
2,0.1888889,-0.1905468,-0.02455641,0.1764215,-1.440033,-4.246781,3.09204,0.648681,1.20649,0.424325,-1.404137,-0.2221935,8.2,85,-0.1233086,0.02748522,0.1332104,-0.7744387,-3.480828,-0.6987045,0.6445067,1.406225,0.3318207,-0.1353878,0.1573751,0.05936047,-0.5680262,0.01452262,-0.06506982,0.7613547,1.483183,0.1745307,0.4565929,1.030744,0.2429727,307.7044,240.835,349.3286,False
2,0.2,-0.219533,0.03168005,0.1548272,-1.440907,-4.24911,3.095784,0.6478307,1.206314,0.4242358,-1.404227,-0.006487502,8.2,85,-0.07749394,0.02851522,0.1296577,-0.773652,-3.479245,-0.7007866,0.6441733,1.406215,0.3319149,-0.1409563,0.1574822,0.03171058,-0.5687394,0.01770829,-0.06599873,0.7612331,1.483204,0.174623,0.4553003,1.031644,0.2422735,307.3297,240.9804,349.2422,False
2,0.2111111,-0.3007887,0.1046173,0.1086351,-1.440263,-4.252489,3.102427,0.6471704,1.206203,0.4242916,-1.40128,0.2691374,7.2,86.5,-0.0433261,0.05932517,0.1359829,-0.7733239,-3.475783,-0.7038932,0.6438514,1.406244,0.3319008,-0.1409761,0.1606903,0.02852662,-0.5686904,0.02117985,-0.06742352,0.7610756,1.48318,0.1747787,0.454018,1.032344,0.2420514,306.9938,241.0846,349.1838,False
2,0.2222222,-0.4225036,0.1698657,0.04544103,-1.438583,-4.256264,3.111658,0.6461178,1.206361,0.4243791,-1.400601,0.05980073,7.2,86.5,-0.01742331,0.1144675,0.1691698,-0.7731125,-3.469559,-0.708979,0.6436785,1.406186,0.3317363,-0.1196611,0.1489868,0.02828575,-0.5684741,0.02342796,-0.06865523,0.7609802,1.483168,0.1747413,0.4525839,1.032788,0.242232,306.8549,241.2256,349.154,False
2,0.2333333,-0.458737,0.1727483,0.01240423,-1.437634,-4.258269,3.118202,0.6449677,1.206542,0.4243557,-1.398031,0.2347897,7.2,86.5,-0.003663339,0.1371045,0.2853342,-0.7692519,-3.460347,-0.7160239,0.6435009,1.406408,0.3316388,-0.1004835,0.1266428,0.02589732,-0.5682983,0.02469097,-0.06923047,0.7608294,1.483149,0.174758,0.4508897,1.033084,0.2427108,306.8537,241.4136,349.1761,False
2,0.2444444,-0.5204643,0.1562924,-0.03332536,-1.435784,-4.259283,3.125947,0.6435571,1.206899,0.4243655,-1.395697,0.2118311,7.2,86.5,0.008804567,0.1247433,0.3746635,-0.7641115,-3.452572,-0.7224365,0.6434942,1.406891,0.331743,-0.07712184,0.1054001,0.01495251,-0.5685439,0.02541095,-0.06973061,0.7607042,1.483208,0.1747658,0.4488111,1.033442,0.2433962,306.9774,241.5106,349.3263,False
2,0.2555556,-0.6034981,0.1407869,-0.08544709,-1.433156,-4.260358,3.135401,0.6419376,1.207419,0.4243774,-1.398536,-0.2607342,6.5,87.6,0.03867519,0.05110759,0.3888332,-0.7593477,-3.44986,-0.7257897,0.6435344,1.407321,0.3318009,-0.06650626,0.08625577,0.008393225,-0.568653,0.02583533,-0.06970611,0.7605275,1.483252,0.1746726,0.4461237,1.034188,0.2441314,307.1664,241.5366,349.6096,False
2,0.2666667,-0.6684332,0.1265007,-0.1205404,-1.430702,-4.26127,-3.138206,0.6404582,1.2079,0.4242725,-1.39809,0.04352649,6.5,87.6,0.04700699,-0.03616846,0.3732647,-0.7545375,-3.450356,-0.7265908,0.6434495,1.407714,0.3319242,-0.04531115,0.04799293,-0.008996398,-0.5693556,0.02413849,-0.06853911,0.7604607,1.483238,0.1745265,0.4430991,1.035604,0.2448143,307.0848,241.5693,350.0091,False
2,0.2777778,-0.7557151,0.1077289,-0.1832992,-1.426593,-4.261848,-3.126874,0.6383483,1.208616,0.4241452,-1.396816,0.1162365,6.5,87.6,0.04773827,-0.1414502,0.3459082,-0.7489666,-3.453323,-0.7250019,0.6434472,1.408201,0.3320091,-0.02748259,0.0002251938,-0.04663836,-0.5710558,0.02096547,-0.06613801,0.7604288,1.483201,0.1743801,0.439853,1.037706,0.245269,306.7543,241.503,350.4698,False
2,0.2888889,-0.8376847,0.09001566,-0.2524568,-1.421656,-4.262418,-3.114982,0.6361947,1.209365,0.4240613,-1.397129,-0.02918381,6.5,87.6,0.06042533,-0.1872164,0.3369787,-0.7441384,-3.453491,-0.7262616,0.6432489,1.408699,0.3319242,-0.02328524,-0.01251726,-0.05631947,-0.5719746,0.01999781,-0.06524824,0.7603492,1.483154,0.1743174,0.4363916,1.040485,0.2453755,306.2354,241.3203,350.9305,False
2,0.3,-0.9100481,0.07133824,-0.3088194,-1.416558,-4.262865,-3.102781,0.6335939,1.21027,0.4239488,-1.396529,0.05648603,6.5,87.6,0.06590559,-0.2225355,0.360131,-0.7380791,-3.452953,-0.7276304,0.6430527,1.409246,0.3318653,-0.01373661,-0.02100823,-0.06176373,-0.5727501,0.01911351,-0.06463651,0.760249,1.483145,0.1742082,0.4327779,1.043889,0.2450828,305.5391,241.0408,351.3726,True
2,0.3111111,-0.9590372,0.06564912,-0.3428822,-1.411671,-4.263618,-3.090338,0.6311117,1.211113,0.4238341,-1.397402,-0.07899614,3.1,81.3,0.03098971,-0.2408216,0.3901449,-0.7316588,-3.450763,-0.7284616,0.6427889,1.409725,0.3315432,-0.01059274,-0.01352281,-0.06707288,-0.5734521,0.01938715,-0.06490576,0.7600985,1.483041,0.1741333,0.4288158,1.04781,0.2443403,304.7704,240.4858,351.8903,True
2,0.3222222,-1.06875,0.06064832,-0.4025169,-1.405513,-4.264498,-3.075009,0.6279429,1.21219,0.4235768,-1.398613,-0.1090228,3.1,81.3,-0.01419273,-0.2135714,0.4620864,-0.7250823,-3.445075,-0.7311946,0.6424018,1.410223,0.3313088,-0.008558027,-0.02093018,-0.07884545,-0.5747283,0.01837182,-0.06399044,0.7599666,1.483037,0.1740305,0.424538,1.052211,0.2432931,303.8971,239.7329,352.4565,True
2,0.3333333,-1.136903,0.0538003,-0.4397687,-1.399528,-4.26533,-3.060117,0.6249533,1.213154,0.4232876,-1.399837,-0.110119,3.1,81.3,-0.04152256,-0.1999846,0.5050192,-0.7187158,-3.440054,-0.7336247,0.642059,1.410654,0.331013,-0.01606486,-0.01878286,-0.08409076,-0.5757169,0.01806329,-0.06329322,0.7598132,1.483004,0.1739199,0.4199618,1.057007,0.2420971,302.9203,238.9357,353.0313,True
2,0.3444445,-1.239198,0.05841627,-0.5005118,-1.392254,-4.266813,-3.042911,0.6217029,1.214262,0.4229424,-1.398331,0.1394519,3.1,81.3,-0.08494575,-0.1692368,0.5322253,-0.7130097,-3.434375,-0.7355859,0.6417294,1.411026,0.3306596,-0.02358601,-0.01875814,-0.09148391,-0.5769504,0.01756275,-0.06236857,0.7596855,1.482969,0.1738806,0.41518,1.062062,0.2409044,301.8587,238.1245,353.6688,True
2,0.3555556,-1.328784,0.08331985,-0.5624245,-1.384214,-4.269427,-3.02471,0.6181035,1.215359,0.4225008,-1.39981,-0.1356101,2.5,81,-0.1104763,-0.1372515,0.5326547,-0.7082949,-3.428767,-0.7377289,0.6412359,1.411314,0.3303237,-0.03426209,-0.003850311,-0.09239537,-0.5780482,0.01825743,-0.06220958,0.7594537,1.482927,0.173831,0.4099589,1.067263,0.2396947,300.8793,237.1852,354.4861,True
2,0.3666667,-1.384317,0.1159568,-0.5945494,-1.377014,-4.272571,-3.007121,0.6147658,1.21643,0.4221888,-1.399017,0.07466667,2.5,81,-0.1446178,-0.09239817,0.5215335,-0.7045568,-3.422583,-0.7396496,0.6407399,1.411452,0.329973,-0.041678,0.01636094,-0.08586213,-0.5789446,0.01975,-0.06281784,0.7591929,1.482868,0.1738954,0.4045212,1.072627,0.2385956,299.8743,236.1501,355.4873,True
2,0.3777778,-1.485768,0.178147,-0.64706,-1.368612,-4.27803,-2.986022,0.6109015,1.217606,0.4217517,-1.399335,-0.02897737,2.5,81,-0.1820614,-0.05384088,0.4976032,-0.7015075,-3.416867,-0.7406781,0.6399721,1.411568,0.3296602,-0.04693463,0.03123083,-0.07616775,-0.5795337,0.02121687,-0.06334116,0.7588724,1.482821,0.1738849,0.3987437,1.078128,0.2375914,298.9332,234.957,356.6716,True
2,0.3888889,-1.616085,0.2669839,-0.6730709,-1.361423,-4.285295,-2.962604,0.6070725,1.21885,0.4212997,-1.400895,-0.1419407,2.5,81,-0.2086946,-0.03142941,0.4958486,-0.697565,-3.410801,-0.7420936,0.6391454,1.411826,0.3293848,-0.05103878,0.04712078,-0.05582141,-0.5794719,0.02302289,-0.06411241,0.7584192,1.482804,0.1737981,0.3925914,1.083817,0.2367406,298.0001,233.6583,357.9963,True
2,0.4,-1.741141,0.371926,-0.6799985,-1.355028,-4.294181,-2.9376,0.6031274,1.220106,0.4207568,-1.398177,0.2493888,2.5,81,-0.2139288,-0.06455514,0.5116476,-0.691641,-3.40622,-0.7431391,0.6381992,1.412168,0.3289976,-0.05736664,0.05453775,-0.04829332,-0.5800439,0.02432371,-0.06444264,0.7580176,1.482743,0.1738269,0.3862763,1.0897,0.236183,296.9851,232.364,359.3902,True
2,0.4111111,-1.842846,0.4983193,-0.6753008,-1.349704,-4.305547,-2.911242,0.5990499,1.22139,0.42014,-1.395529,0.2389773,2.2,80.5,-0.2329231,-0.1158649,0.5402176,-0.68454,-3.402246,-0.7430161,0.6372162,1.412546,0.3286386,-0.06171028,0.06309043,-0.05674345,-0.5810043,0.02598167,-0.06499498,0.757501,1.482699,0.1738441,0.379441,1.095737,0.2358528,296.0463,231.0299,0.8731775,True
2,0.4222222,-1.883657,0.5802091,-0.6682646,-1.344593,-4.316055,-2.886697,0.5950941,1.222725,0.4195068,-1.393112,0.2179325,2.2,80.5,-0.2411262,-0.1374457,0.5816865,-0.6772051,-3.396396,-0.7445855,0.6362404,1.412892,0.3282669,-0.07342064,0.07480199,-0.05659787,-0.5817904,0.02811433,-0.06584986,0.7569249,1.482628,0.1738346,0.3720739,1.102094,0.2357972,295.1647,229.851,2.344035,True
2,0.4333333,-1.909875,0.7442394,-0.6530994,-1.341474,-4.331531,-2.860968,0.5907387,1.224055,0.4186356,-1.390459,0.23902,2.2,80.5,-0.2590075,-0.1696037,0.6135746,-0.6692806,-3.391123,-0.7452233,0.63501,1.413157,0.3277946,-0.07554686,0.08012203,-0.05549236,-0.5824541,0.02999199,-0.06650393,0.7562033,1.482604,0.1738536,0.3642024,1.108923,0.2360128,294.2427,228.7988,3.854263,True
2,0.4444444,-1.91121,0.8103046,-0.6491724,-1.337618,-4.344124,-2.836951,0.5867459,1.225494,0.4178362,-1.389379,0.09435748,2.2,80.5,-0.2879007,-0.1790634,0.5998998,-0.6632752,-3.386882,-0.7444183,0.6339463,1.413441,0.3273408,-0.0840133,0.07902259,-0.05010646,-0.5830097,0.03128868,-0.06652363,0.7556099,1.482578,0.173912,0.3559836,1.11632,0.2365318,293.1916,227.7843,5.49663,True
2,0.4555556,-1.908314,0.886016,-0.6367642,-1.335049,-4.358284,-2.812701,0.5823943,1.226894,0.4169152,-1.385787,0.324271,0.4,73.6,-0.3293986,-0.1513351,0.6025625,-0.6577406,-3.38042,-0.7444803,0.6324828,1.413622,0.3268874,-0.09448479,0.08425215,-0.02868684,-0.5827082,0.03340549,-0.06688875,0.7547174,1.482553,0.1739514,0.3477353,1.124183,0.237365,291.9402,226.594,7.406203,True
2,0.4666667,-1.902066,0.921241,-0.6262778,-1.332584,-4.371084,-2.789032,0.5781727,1.228362,0.4160969,-1.382038,0.3360207,0.4,73.6,-0.3475319,-0.1257084,0.5986238,-0.6527759,-3.373949,-0.7451439,0.6311936,1.413844,0.3264048,-0.09755791,0.08739376,-0.01587417,-0.5826837,0.03532603,-0.06752605,0.7538889,1.482579,0.1739805,0.3393312,1.132301,0.2385009,290.5634,225.4044,9.370243,True
2,0.4777778,-1.889388,0.9479659,-0.6178876,-1.330477,-4.384494,-2.765312,0.5736462,1.229883,0.4151146,-1.376495,0.4991487,0.4,73.6,-0.3793713,-0.09485626,0.6076254,-0.6476834,-3.366112,-0.7460846,0.629486,1.414053,0.3258693,-0.1113038,0.09691592,-0.002933666,-0.5824035,0.03789052,-0.06796627,0.7528812,1.482532,0.1740637,0.3311968,1.140373,0.2399591,289.154,223.9109,11.74327,True
2,0.4888889,-1.860875,1.01109,-0.5862408,-1.330395,-4.399464,-2.742095,0.5690048,1.231445,0.4141266,-1.370059,0.5789821,0.4,73.6,-0.4013858,-0.08126786,0.650517,-0.6410607,-3.356511,-0.7485099,0.6278706,1.414239,0.3253114,-0.1198091,0.1032894,-0.0007087099,-0.5825356,0.04031773,-0.06842992,0.7518623,1.482555,0.1741705,0.3232096,1.148097,0.2415732,287.8333,222.3441,14.19741,True
2,0.5,-1.85883,1.032588,-0.5490618,-1.330855,-4.41305,-2.718361,0.5645855,1.232966,0.4132798,-1.362669,0.6650236,0.4,73.6,-0.3973886,-0.03288928,0.741371,-0.6335943,-3.341533,-0.756219,0.6260877,1.414462,0.3247457,-0.1378841,0.1192332,0.004839568,-0.5824461,0.04385534,-0.0692808,0.7506939,1.482555,0.1743031,0.3154513,1.155245,0.2432259,286.7059,220.7607,16.64699,True
2,0.5111111,-2.109358,1.078587,-0.5258558,-1.33231,-4.427754,-2.682854,0.5606971,1.234396,0.4125199,-1.355342,0.6581349,2,68,-0.3800022,0.02225006,0.7767662,-0.6279036,-3.327362,-0.7641903,0.6243674,1.414817,0.3241301,-0.1463421,0.1202599,0.012375,-0.58211,0.04642782,-0.06948933,0.7493626,1.482562,0.1743803,0.3076651,1.161729,0.2447558,285.838,219.3887,18.77748,True
2,0.5222223,-2.308896,1.163347,-0.463425,-1.33663,-4.443305,-2.646948,0.5567081,1.235533,0.4117455,-1.345798,0.8608605,2,68,-0.3873715,0.04030776,0.7854719,-0.6223445,-3.315944,-0.7689635,0.6224985,1.415131,0.3235595,-0.1537304,0.108512,0.01878444,-0.581759,0.04793623,-0.06888878,0.747965,1.482573,0.1744723,0.2998473,1.167585,0.246226,285.1503,218.512,20.31903,True
2,0.5333334,-2.280265,1.196706,-0.4188468,-1.340722,-4.457577,-2.619868,0.5524788,1.236816,0.4109137,-1.325289,1.861322,2,68,-0.3916267,0.02964482,0.7875648,-0.616141,-3.305677,-0.7729311,0.6206776,1.415443,0.3229971,-0.1621283,0.09460358,0.03158501,-0.5810224,0.04903213,-0.06776227,0.7465006,1.482551,0.1745257,0.2922598,1.172902,0.2477227,284.6074,217.9968,21.48665,True
2,0.5444446,-2.152386,1.192074,-0.386862,-1.34418,-4.470695,-2.598358,0.5480379,1.23824,0.4100819,-1.315214,0.8991466,2,68,-0.3765711,-0.01208308,0.8116556,-0.6079858,-3.296031,-0.7771109,0.6186657,1.415699,0.3224905,-0.1663548,0.0956531,0.03481939,-0.580665,0.05114614,-0.06768291,0.7449286,1.482558,0.1745877,0.2846505,1.178325,0.2490755,284.429,218.5995,21.54926,True
2,0.5555557,-1.989448,1.205623,-0.3624246,-1.348569,-4.484673,-2.578155,0.5434889,1.239751,0.4090388,-1.314953,0.01122693,2,68,-0.3211855,-0.07184502,0.8182542,-0.5992235,-3.287653,-0.7823121,0.6165031,1.415792,0.3219953,-0.1694626,0.1009333,0.04552134,-0.5798767,0.05363446,-0.067762,0.7433422,1.482543,0.1746414,0.2770247,1.184665,0.2502172,284.1864,219.4222,21.38499,True
2,0.5666668,-1.879564,1.167765,-0.3537135,-1.351616,-4.496871,-2.557923,0.5392579,1.241184,0.4081047,-1.311404,0.3175362,1,64.1,-0.3184204,-0.09919727,0.7701107,-0.592981,-3.281012,-0.7842876,0.6143218,1.416003,0.3214004,-0.1757657,0.104069,0.05623963,-0.5790032,0.05581746,-0.06741766,0.7416755,1.482522,0.1747088,0.2698066,1.191995,0.2512848,283.399,218.6132,22.7958,True
2,0.577778,-1.785533,1.095728,-0.3469632,-1.354031,-4.507111,-2.53918,0.5349705,1.242507,0.4071019,-1.302587,0.7951881,1,64.1,-0.3391861,-0.09873858,0.7063633,-0.5881772,-3.275306,-0.784588,0.6118647,1.416126,0.3208776,-0.1863312,0.1104075,0.06700921,-0.5780338,0.05857063,-0.06732498,0.739817,1.482483,0.1748161,0.2631153,1.199749,0.2524211,282.101,215.7918,26.11038,True
2,0.5888891,-1.756627,1.057503,-0.3456848,-1.357086,-4.51835,-2.517366,0.5308543,1.243867,0.4064114,-1.29084,1.058895,1,64.1,-0.3607745,-0.09637487,0.6745954,-0.5828333,-3.267989,-0.7855579,0.6093649,1.416232,0.3202701,-0.2086498,0.122068,0.07472714,-0.5768141,0.06183727,-0.06693802,0.7378703,1.482403,0.1748683,0.2567216,1.207267,0.2537248,280.6549,211.6291,30.74033,True
2,0.6000003,-1.710462,0.967167,-0.3388461,-1.358779,-4.526648,-2.498157,0.5265948,1.245028,0.4055078,-1.280154,0.9598574,1,64.1,-0.3864428,-0.05467826,0.6569803,-0.578731,-3.258358,-0.788313,0.6066839,1.416308,0.3195717,-0.2214183,0.1348263,0.0780852,-0.5759869,0.06549805,-0.06709462,0.7359782,1.4824,0.1749465,0.2505891,1.213986,0.2552065,279.4455,206.7651,36.16788,True
2,0.6111114,-1.643034,0.8875707,-0.3309726,-1.36059,-4.534624,-2.480341,0.5225421,1.246137,0.4048314,-1.265694,1.306059,0.8,64.1,-0.3808776,0.01118782,0.6829306,-0.5744369,-3.24413,-0.7958191,0.6039658,1.416693,0.3194773,-0.232958,0.1475113,0.09954485,-0.5742574,0.06959745,-0.067611,0.733962,1.482448,0.1750572,0.2445883,1.219555,0.2567429,278.6039,202.3265,41.19365,True
2,0.6222225,-1.560683,0.8122928,-0.3263246,-1.362097,-4.542188,-2.464296,0.5183079,1.247386,0.4041193,-1.255677,0.8968256,0.8,64.1,-0.3699659,0.07705098,0.7077987,-0.5703894,-3.228722,-0.8049356,0.6012939,1.416701,0.3187022,-0.2403906,0.1506874,0.1028163,-0.5731629,0.07301775,-0.06757585,0.7318795,1.482413,0.1750648,0.2385028,1.224019,0.258263,278.1531,200.1984,43.88822,True
2,0.6333337,-1.448538,0.739308,-0.3099849,-1.363533,-4.548671,-2.450472,0.5140482,1.24859,0.4034235,-1.245462,0.9186547,0.8,64.1,-0.3580867,0.1120903,0.7228564,-0.566268,-3.213999,-0.8137174,0.5984892,1.416767,0.3179545,-0.2477928,0.1474548,0.109262,-0.5718457,0.07597679,-0.06698276,0.7296634,1.482415,0.1750464,0.2324518,1.227485,0.2596358,277.9266,199.429,45.25338,True
2,0.6444448,-1.312978,0.6706441,-0.3021626,-1.36472,-4.555058,-2.438577,0.51003,1.249739,0.4028246,-1.235425,0.9018632,0.8,64.1,-0.3592228,0.1121296,0.7175329,-0.5616521,-3.202008,-0.8195322,0.5956937,1.416822,0.3173399,-0.2572908,0.1431452,0.1189146,-0.5702978,0.07883543,-0.06621257,0.727457,1.48242,0.1750371,0.2265586,1.230092,0.2608149,277.8387,199.853,45.3185,True
2,0.655556,-1.143375,0.6149607,-0.2795183,-1.366183,-4.560583,-2.43017,0.5059685,1.250739,0.4022403,-1.225608,0.8819057,0.8,64.1,-0.3446217,0.104912,0.6800768,-0.5580755,-3.192273,-0.8244388,0.5927409,1.416871,0.3166981,-0.2614038,0.1366759,0.1359754,-0.5681433,0.08142735,-0.06526928,0.7251191,1.482366,0.1750276,0.2207298,1.232039,0.2617723,277.8484,201.0255,44.51848,True
2,0.6666671,-1.040897,0.5654477,-0.2515864,-1.367891,-4.565647,-2.420648,0.5022225,1.251711,0.4017212,-1.215594,0.8999294,0,64.1,-0.3013845,0.09776384,0.6285332,-0.5551908,-3.183925,-0.8295494,0.5896696,1.416849,0.3160806,-0.2676748,0.1280917,0.1487814,-0.5661343,0.08373165,-0.06407379,0.7226828,1.482395,0.1750255,0.2150467,1.233446,0.2625497,277.8963,202.4093,43.41819,True
2,0.6777782,-0.9651114,0.5273212,-0.2663132,-1.368295,-4.571438,-2.411434,0.4985869,1.25244,0.4013412,-1.206789,0.7890764,0,64.1,-0.275412,0.08336082,0.5493866,-0.5532142,-3.178584,-0.8319771,0.5866392,1.416748,0.3154066,-0.271763,0.1226834,0.1679715,-0.5636724,0.08619827,-0.06302185,0.7202104,1.482376,0.1749351,0.2096252,1.234362,0.2632491,277.9585,203.7418,42.29625,True
2,0.6888894,-0.895645,0.4732766,-0.2670701,-1.368702,-4.576262,-2.402522,0.494942,1.253112,0.4012413,-1.193516,1.19861,0,64.1,-0.271491,0.08898157,0.5078411,-0.5513047,-3.170909,-0.8353963,0.5836207,1.416718,0.3147738,-0.2769887,0.1215774,0.1786695,-0.5614258,0.08911776,-0.06235765,0.7177505,1.482365,0.1750219,0.2044927,1.23473,0.2639585,277.9698,204.9595,41.25713,True
2,0.7000005,-0.8475192,0.4255584,-0.2604446,-1.368829,-4.580397,-2.393961,0.4912174,1.253793,0.4009755,-1.181483,1.081604,0,64.1,-0.2631936,0.152071,0.4719821,-0.5516334,-3.160475,-0.8416337,0.5805194,1.416473,0.3140786,-0.2830822,0.1118502,0.2117093,-0.557912,0.09118051,-0.06074378,0.715161,1.482332,0.1748815,0.1995778,1.23458,0.2647188,278.0626,206.8581,39.53711,True
2,0.7111117,-0.7630569,0.3492087,-0.2579224,-1.36781,-4.583175,-2.387852,0.4876951,1.254281,0.4007936,-1.169468,1.081323,0.8,66.1,-0.2385441,0.2212328,0.4818398,-0.5514709,-3.145669,-0.8523008,0.5775337,1.41633,0.3133626,-0.2849918,0.1096139,0.2362204,-0.5545314,0.09359293,-0.05965188,0.7125164,1.48223,0.1747239,0.1947653,1.234023,0.2656129,278.2918,208.684,37.84367,True
2,0.7222228,-0.6914667,0.2963181,-0.2320846,-1.367763,-4.585335,-2.382218,0.4840028,1.254741,0.4006863,-1.157664,1.062112,0.8,66.1,-0.2173075,0.2372617,0.4711227,-0.550763,-3.134705,-0.8600093,0.5745142,1.416106,0.3127012,-0.2828013,0.1053292,0.2425761,-0.5516781,0.09586381,-0.05853974,0.7099442,1.482153,0.1745846,0.1899391,1.233217,0.2666934,278.5789,210.915,35.76686,True
2,0.7333339,-0.6135284,0.2530513,-0.2105692,-1.367532,-4.587447,-2.377644,0.4804466,1.255182,0.4005675,-1.147896,0.8762458,0.8,66.1,-0.2040021,0.2302349,0.4059798,-0.5509377,-3.128779,-0.8631853,0.5714555,1.415708,0.3120611,-0.2614087,0.09891495,0.2508844,-0.5487646,0.09762257,-0.05802202,0.7071587,1.482057,0.174391,0.1850779,1.232296,0.2679004,278.8742,213.2646,33.71524,True
2,0.7444451,-0.5760702,0.2095668,-0.2028897,-1.36684,-4.58968,-2.371859,0.4769686,1.255742,0.4004605,-1.136491,1.027429,0.8,66.1,-0.1968844,0.2145126,0.3664013,-0.5504009,-3.122411,-0.8665662,0.5683528,1.415586,0.3116541,-0.2464596,0.09146574,0.2539282,-0.5457786,0.09968612,-0.05749152,0.7042242,1.481936,0.1742904,0.1804139,1.23121,0.2691539,279.1093,214.985,32.36053,True
2,0.7555562,-0.4999812,0.09368476,-0.2151079,-1.362835,-4.589532,-2.368884,0.473635,1.256099,0.4002585,-1.125559,0.9826449,0.8,66.1,-0.1578592,0.1764116,0.3232096,-0.5495875,-3.118571,-0.8693205,0.5653342,1.415342,0.3111527,-0.2303925,0.07759878,0.2622546,-0.5426212,0.1008744,-0.05645236,0.7013725,1.481805,0.1740699,0.175867,1.229933,0.2703359,279.301,216.8483,30.83263,True
2,0.7666674,-0.4646034,0.03731202,-0.2244211,-1.359909,-4.590602,-2.36448,0.4703046,1.256557,0.4000781,-1.112539,1.174174,0.8,66.1,-0.1269997,0.175359,0.3176247,-0.5489585,-3.110792,-0.8756196,0.5622727,1.415049,0.3105898,-0.220704,0.07010707,0.2727868,-0.5393498,0.102234,-0.05544462,0.6985312,1.481797,0.1739116,0.1714645,1.228423,0.2713964,279.5361,218.6699,29.28304,True
2,0.7777785,-0.3993708,-0.02637129,-0.2283726,-1.356227,-4.590686,-2.36223,0.4670349,1.256795,0.3998086,-1.102866,0.8664953,0.8,66.1,-0.09851545,0.1755607,0.2833025,-0.5492061,-3.105377,-0.8801151,0.5593005,1.414632,0.3100705,-0.1982144,0.05303809,0.2842402,-0.5357726,0.1026421,-0.05434686,0.6955497,1.481655,0.1736326,0.1671979,1.226718,0.272297,279.9023,220.252,27.95729,True
2,0.7888896,-0.3321261,-0.05915076,-0.231399,-1.353382,-4.591409,-2.360508,0.4638544,1.256945,0.3995464,-1.090132,1.149272,0.8,66.1,-0.07968713,0.1705174,0.2383762,-0.5497867,-3.101324,-0.8834429,0.5562383,1.414218,0.3094957,-0.1725207,0.03171009,0.2967101,-0.5321022,0.1024561,-0.05300143,0.6924341,1.481707,0.1733904,0.1632452,1.224715,0.2729648,280.3187,220.7737,27.65043,True
2,0.8000008,-0.2830935,-0.06640542,-0.2292357,-1.350901,-4.592468,-2.358812,0.4606189,1.257042,0.399307,-1.080166,0.8934985,0.8,66.1,-0.08190957,0.1663312,0.2277123,-0.5497451,-3.096005,-0.8869823,0.5531315,1.413796,0.3089366,-0.1574498,0.02313446,0.3135895,-0.5280085,0.1028225,-0.05208104,0.6894077,1.481602,0.1731267,0.1594129,1.222457,0.273399,280.7981,221.6142,26.90393,True
2,0.8111119,-0.2192828,-0.03944797,-0.2176488,-1.349962,-4.59449,-2.357971,0.4576403,1.256777,0.3991761,-1.069258,0.9819862,5.5,71.7,-0.0851348,0.1930121,0.2193993,-0.5505862,-3.089077,-0.8918953,0.5500327,1.413242,0.3083611,-0.1497568,0.02303101,0.3401607,-0.523276,0.1038386,-0.05152657,0.6862483,1.481436,0.172807,0.1557371,1.219905,0.2736478,281.2594,222.3247,26.22034,True
2,0.8222231,-0.2108944,-0.004165987,-0.1986462,-1.349658,-4.596459,-2.355364,0.4545251,1.256678,0.398998,-1.057627,1.047168,5.5,71.7,-0.0841648,0.2325425,0.2026155,-0.5527226,-3.081881,-0.897113,0.5469291,1.412677,0.3078256,-0.1399181,0.02079555,0.3688278,-0.5183252,0.1047329,-0.05105546,0.683075,1.481272,0.1725061,0.1521415,1.217021,0.2738141,281.7326,223.2201,25.27371,True
2,0.8333342,-0.2132243,0.04712893,-0.166931,-1.350837,-4.598763,-2.35236,0.4514804,1.25641,0.3991077,-1.046917,0.9625232,5.5,71.7,-0.07596177,0.292535,0.1528863,-0.5570353,-3.075573,-0.902178,0.5437371,1.412017,0.3074524,-0.1268588,0.01002669,0.3984995,-0.5129616,0.1045805,-0.05000857,0.6799288,1.481108,0.1721516,0.1485416,1.21382,0.2740381,282.2487,224.3705,24.02263,True
2,0.8444453,-0.1867689,0.09318553,-0.1373324,-1.352073,-4.600977,-2.350626,0.448388,1.256113,0.3989148,-1.033557,1.205579,5.5,71.7,-0.07404479,0.3033568,0.1273646,-0.5594662,-3.070776,-0.9053222,0.5406474,1.411393,0.3067751,-0.1087573,0.001530215,0.3961789,-0.5086467,0.104463,-0.0493007,0.6767831,1.480955,0.1718516,0.1449802,1.210312,0.2745085,282.7625,225.9162,22.39318,True
2,0.8555565,-0.1570556,0.1232126,-0.1204363,-1.353198,-4.603261,-2.34934,0.4453502,1.255766,0.3987153,-1.021499,1.084542,5.5,71.7,-0.05835751,0.276926,0.09509502,-0.5612867,-3.068367,-0.9072535,0.5376116,1.410699,0.3062763,-0.1066876,-0.009088844,0.3876025,-0.5045881,0.103852,-0.04767298,0.6735694,1.480759,0.1715271,0.1412813,1.206663,0.2752771,283.3999,228.0708,20.24796,True
2,0.8666676,-0.1410669,0.1211966,-0.1097866,-1.353172,-4.604848,-2.347863,0.4423755,1.255505,0.3981819,-1.011311,0.9148898,5.5,78.1,-0.06146407,0.2811325,0.1036677,-0.5628985,-3.062475,-0.9116186,0.5346998,1.41013,0.305723,-0.09906787,-0.02939156,0.4044997,-0.4994732,0.1022426,-0.04529185,0.6703175,1.480522,0.1711318,0.137481,1.20309,0.2763754,284.0685,230.4711,17.99275,True
2,0.8777788,-0.1271099,0.09361582,-0.09686847,-1.352819,-4.605358,-2.346816,0.439363,1.25522,0.3978164,-1.000506,0.9726447,5.5,78.1,-0.0602389,0.3065889,0.1198116,-0.5651297,-3.054779,-0.9174739,0.5317292,1.409474,0.3052478,-0.07750458,-0.04546051,0.4319454,-0.4936712,0.1005663,-0.04368996,0.6670221,1.48026,0.1707904,0.1336584,1.19969,0.2777226,284.6478,232.6095,16.1877,True
2,0.8888899,-0.1225877,0.02766326,-0.08055895,-1.351289,-4.604312,-2.345823,0.4362549,1.254961,0.3975148,-0.9887912,1.055094,5.5,78.1,-0.04319099,0.3097621,0.1186222,-0.5671303,-3.049148,-0.9224578,0.5286366,1.408871,0.3049026,-0.06361559,-0.05185414,0.4360618,-0.4886214,0.09956148,-0.04254373,0.6636425,1.47991,0.1704676,0.1299325,1.196444,0.2792028,285.1224,234.3962,14.86502,True
2,0.900001,-0.1256846,0.002058114,-0.08575981,-1.349875,-4.604529,-2.344278,0.4332444,1.25469,0.3971314,-0.9775692,1.009502,5.5,78.1,-0.03891161,0.3182724,0.1197105,-0.5693657,-3.042845,-0.9274837,0.525635,1.408195,0.3044491,-0.04985735,-0.05499282,0.4252754,-0.484282,0.09842338,-0.04149791,0.6603779,1.479623,0.1701627,0.1263627,1.193305,0.2806081,285.5693,235.8159,13.97366,True
2,0.9111122,-0.1330541,-0.02350088,-0.08030473,-1.348724,-4.604425,-2.34237,0.430298,1.254278,0.3967011,-0.9659861,1.042993,5.5,78.1,-0.0507074,0.3321971,0.1103004,-0.5722196,-3.037302,-0.9310001,0.5226411,1.40736,0.3039041,-0.03700432,-0.05181503,0.4336997,-0.4792092,0.09805253,-0.04111788,0.6569655,1.479383,0.1699545,0.122985,1.190202,0.2817537,285.9923,236.8657,13.36864,True
2,0.9222233,-0.1437024,-0.0256398,-0.07390395,-1.348129,-4.604712,-2.340299,0.4274369,1.253837,0.3962939,-0.9544215,1.041018,5.5,78.1,-0.0453729,0.326849,0.1113072,-0.5739698,-3.031278,-0.9358193,0.5196851,1.406846,0.3033905,-0.0327132,-0.05395411,0.4368494,-0.474236,0.0970083,-0.03997565,0.6537431,1.479034,0.1696475,0.1197586,1.187061,0.2824853,286.4403,237.5766,12.95124,True
2,0.9333345,-0.1693262,-0.01183155,-0.06437591,-1.348265,-4.605397,-2.337379,0.4243878,1.253545,0.3961654,-0.9427809,1.048083,5.5,78.1,-0.0325819,0.3182986,0.1132744,-0.5758116,-3.025797,-0.9405081,0.5167598,1.406131,0.302983,-0.0359585,-0.0603234,0.4304602,-0.4696394,0.09543145,-0.03805551,0.6505467,1.478697,0.1693461,0.1166263,1.18387,0.2828141,286.9244,238.1559,12.47908,True
2,0.9444456,-0.1970459,-0.005448841,-0.04735589,-1.348506,-4.605639,-2.334311,0.4213805,1.253137,0.3957732,-0.9315529,1.01033,5.5,78.1,-0.04109606,0.3311008,0.1112944,-0.578437,-3.019945,-0.9448224,0.5139727,1.405353,0.302706,-0.03814778,-0.05710243,0.4240946,-0.4652484,0.09461213,-0.03675508,0.647408,1.478338,0.1690698,0.1135874,1.180639,0.2828155,287.4236,238.7426,11.8722,True
2,0.9555568,-0.2204517,-0.01287659,-0.02281571,-1.348611,-4.604976,-2.331237,0.4183278,1.25286,0.3954287,-0.9197472,1.063532,5.5,78.1,-0.04419127,0.3427493,0.1220531,-0.5808722,-3.012931,-0.9501083,0.5110915,1.40466,0.3023701,-0.03500077,-0.05068364,0.4198319,-0.4606949,0.09442198,-0.03625494,0.6442337,1.47789,0.1689608,0.1105954,1.177412,0.2826172,287.9537,239.363,11.10306,True
2,0.9666679,-0.2321444,-0.01924639,-0.008927643,-1.348567,-4.60439,-2.328466,0.4153582,1.252522,0.3950143,-0.9084516,1.016414,13.1,100,-0.03342193,0.3266433,0.1367636,-0.5821063,-3.006914,-0.9553137,0.5085515,1.403974,0.302134,-0.02232474,-0.03997546,0.4091112,-0.456444,0.09457458,-0.03654336,0.6410141,1.477529,0.1688294,0.1075034,1.174292,0.2823806,288.5177,240.0783,10.1923,True
2,0.977779,-0.2437278,-0.05335894,-0.004498719,-1.347382,-4.603156,-2.325718,0.4123676,1.252277,0.3946781,-0.897187,1.013931,13.1,100,-0.04302382,0.2669546,0.1428259,-0.5818527,-3.003255,-0.9575936,0.5058442,1.403273,0.3018379,-0.01171181,-0.02291172,0.4069557,-0.4520316,0.09558245,-0.0376009,0.6377404,1.477259,0.1687245,0.1043468,1.171347,0.2821746,289.042,240.7908,9.402068,True
2,0.9888902,-0.2393223,-0.09064956,-0.007512067,-1.345588,-4.601653,-2.323566,0.409296,1.252081,0.3942044,-0.8863416,0.9755484,13.1,100,-0.05689354,0.2093787,0.1521079,-0.5811704,-3.00044,-0.9584435,0.5027996,1.40247,0.3015103,-0.004171044,-0.009103781,0.4186657,-0.4469764,0.09683653,-0.03886804,0.6346462,1.476834,0.1684775,0.1012106,1.168604,0.2819953,289.5128,241.4022,8.809031,True
2,1.000001,-0.2328287,-0.1173194,-0.020166,-1.343521,-4.600577,-2.32144,0.4062546,1.251865,0.3938501,-0.874989,1.02208,13.1,100,-0.06668304,0.1967493,0.1350583,-0.5821489,-2.99701,-0.9602427,0.5000532,1.401632,0.3010979,-0.01253685,-0.003859177,0.4368703,-0.4415393,0.09753082,-0.03911757,0.6316044,1.476455,0.1683004,0.0981802,1.166019,0.2818365,289.8972,241.8102,8.447731,True
2,1.011112,-0.2326836,-0.1546399,-0.02850432,-1.341019,-4.59903,-2.319274,0.4032496,1.251632,0.3935385,-0.864117,0.9776373,13.1,100,-0.06966816,0.2317565,0.1555538,-0.5840536,-2.989512,-0.9651807,0.4972062,1.40063,0.3004677,-0.02422258,-0.007093333,0.4412223,-0.436466,0.09722282,-0.03807468,0.6285585,1.476057,0.1681943,0.09524129,1.163509,0.2816868,290.2538,241.9791,8.313987,True
2,1.022224,-0.2549529,-0.1803199,-0.03476687,-1.33866,-4.597544,-2.316056,0.4002936,1.251473,0.3932626,-0.8527809,1.02043,19.6,100,-0.07693031,0.2870221,0.1783548,-0.5867881,-2.979904,-0.9715451,0.4946396,1.399916,0.2999234,-0.03821117,0.001487911,0.4254026,-0.4323061,0.09864828,-0.03858041,0.6258014,1.475566,0.1681259,0.09233458,1.160971,0.2815367,290.5993,241.9993,8.30322,True
2,1.033335,-0.2943075,-0.1964822,-0.0410764,-1.336188,-4.596151,-2.311781,0.3973829,1.251384,0.3929403,-0.8410337,1.057553,19.6,100,-0.1001353,0.3007129,0.2052702,-0.5881655,-2.971369,-0.97679,0.4920608,1.399173,0.299504,-0.05656499,0.02287787,0.4000807,-0.4287913,0.1012194,-0.03966858,0.6231059,1.475071,0.1681347,0.08945931,1.158306,0.2814457,290.9596,241.9822,8.281099,True
2,1.044446,-0.3135054,-0.1901475,-0.03791826,-1.334539,-4.595197,-2.30799,0.3945212,1.251308,0.3925691,-0.8282143,1.155102,19.6,100,-0.1138504,0.2984375,0.2287847,-0.588941,-2.96367,-0.9809061,0.489416,1.398733,0.2994168,-0.06637007,0.05598082,0.3800639,-0.4251699,0.1058887,-0.04278555,0.6203042,1.474612,0.168143,0.08663772,1.155444,0.2814521,291.3835,242.019,8.209883,True
2,1.055557,-0.3295213,-0.1805955,-0.03263701,-1.333167,-4.594183,-2.30404,0.391663,1.251354,0.392215,-0.8152314,1.16923,19.6,100,-0.1190289,0.2663324,0.2509808,-0.5884803,-2.956406,-0.985441,0.4870053,1.398116,0.2990997,-0.07066932,0.05705886,0.3758443,-0.4211379,0.1080262,-0.04380607,0.6176991,1.474184,0.1681149,0.08384192,1.152423,0.2815551,291.943,242.2305,8.006248,True
2,1.066668,-0.3455228,-0.1742478,-0.03053318,-1.331767,-4.593256,-2.30001,0.3888322,1.251317,0.3917756,-0.8038065,1.026719,28,100,-0.1157523,0.2246391,0.2698374,-0.5872835,-2.950405,-0.9890298,0.4846599,1.397466,0.298923,-0.06966665,0.04751255,0.3662112,-0.4172742,0.1089166,-0.04402658,0.6151034,1.473842,0.1681671,0.08103976,1.14938,0.2817187,292.625,242.5842,7.714084,True
2,1.077779,-0.3722117,-0.1593948,-0.02208097,-1.330851,-4.592349,-2.295144,0.3860309,1.251487,0.3913527,-0.7916779,1.092152,28,100,-0.1017044,0.2095309,0.2962554,-0.5865058,-2.942196,-0.9951738,0.4823846,1.396978,0.298713,-0.06444669,0.04224294,0.3533603,-0.4137562,0.1100738,-0.04452592,0.6125595,1.473442,0.1681185,0.07826126,1.14645,0.2819167,293.2974,243.0326,7.355211,True
2,1.08889,-0.3977951,-0.1552074,-0.01676428,-1.329693,-4.591198,-2.290138,0.383158,1.251612,0.3909516,-0.7794369,1.101655,28,100,-0.09221622,0.1722846,0.2927181,-0.5857692,-2.936451,-0.9988023,0.4802113,1.396506,0.2986743,-0.0592854,0.02741759,0.3340825,-0.4105886,0.1102457,-0.04406812,0.6100227,1.473018,0.168015,0.07551255,1.143711,0.2821122,293.9055,243.468,7.027925,True
2,1.100002,-0.4404156,-0.1520814,0.00240057,-1.328902,-4.589582,-2.2842,0.3803724,1.252074,0.3905051,-0.7663518,1.178807,28,100,-0.0881145,0.1372299,0.278597,-0.5848494,-2.932014,-1.001435,0.4781105,1.396267,0.2987592,-0.04456422,0.00942117,0.30938,-0.4078876,0.1094622,-0.04336106,0.6076503,1.472674,0.1679215,0.07279003,1.141186,0.2822636,294.434,243.8357,6.771049,True
2,1.111113,-0.4553481,-0.1467844,0.008769341,-1.327989,-4.588344,-2.278997,0.3776211,1.252537,0.3900883,-0.7537715,1.131939,28,100,-0.07727088,0.1263697,0.3061246,-0.5834251,-2.924723,-1.006811,0.4758543,1.395957,0.2984793,-0.04036298,0.002002552,0.3029309,-0.4045486,0.1095824,-0.04299727,0.605312,1.472365,0.1678944,0.07006603,1.138923,0.2823318,294.9394,244.1895,6.508651,True
2,1.122224,-0.4670442,-0.15211,0.01838302,-1.326876,-4.586718,-2.273825,0.3749706,1.253117,0.3896017,-0.7404019,1.204565,64,100,-0.07500085,0.1155924,0.3273397,-0.5821649,-2.916693,-1.012496,0.4737782,1.395524,0.2980454,-0.03509274,-0.01181071,0.2953717,-0.4014252,0.1084879,-0.04171389,0.6031855,1.471995,0.1677647,0.06732456,1.136941,0.2822834,295.4095,244.4735,6.294394,True
2,1.133335,-0.4702149,-0.1584881,0.02374116,-1.325647,-4.58506,-2.268862,0.3723488,1.253618,0.389132,-0.7287692,1.045111,64,100,-0.07478707,0.09835349,0.355986,-0.5800003,-2.908516,-1.018529,0.4719181,1.3953,0.2977819,-0.02456397,-0.02132281,0.2792582,-0.3988419,0.1074327,-0.04090882,0.6011286,1.471568,0.1676838,0.06461894,1.135315,0.2820743,295.8864,244.747,6.074157,True
2,1.144446,-0.4818901,-0.1702542,0.0227387,-1.324106,-4.583346,-2.263492,0.3699557,1.254173,0.3887153,-0.716368,1.116714,64,100,-0.07894774,0.08013915,0.3729474,-0.5779043,-2.900708,-1.023809,0.4701539,1.394618,0.2973654,-0.02152796,-0.02124269,0.2621851,-0.3964685,0.1074491,-0.04061906,0.5991296,1.471303,0.1676743,0.06199657,1.134033,0.2817219,296.2456,244.8662,5.954972,True
2,1.155557,-0.4871851,-0.1777818,0.01212319,-1.322302,-4.582084,-2.258255,0.3675758,1.254823,0.3882849,-0.7040184,1.11114,64,100,-0.08221183,0.08126694,0.3644614,-0.5767539,-2.893783,-1.028567,0.4684418,1.39434,0.2970936,-0.0227209,-0.02331451,0.2472724,-0.3941809,0.1068925,-0.03981745,0.5972736,1.471042,0.1675301,0.05950133,1.133,0.2812534,296.4894,244.8637,5.924289,True
2,1.166668,-0.4999778,-0.1767996,0.002523214,-1.320654,-4.581227,-2.252481,0.3652341,1.255386,0.3878965,-0.6911292,1.160755,88.8,100,-0.07263058,0.09617473,0.3634208,-0.5760449,-2.886077,-1.034414,0.4666438,1.394048,0.296792,-0.02279647,-0.03499,0.237642,-0.3917243,0.1053431,-0.03807095,0.5952952,1.470744,0.1674685,0.05713988,1.13207,0.2807137,296.6492,244.7635,5.950695,True
2,1.17778,-0.4946065,-0.1885075,0.0004491769,-1.318649,-4.57969,-2.247513,0.3630824,1.25608,0.3875079,-0.6789122,1.098905,88.8,100,-0.05440688,0.08858973,0.3792087,-0.5741658,-2.877788,-1.041319,0.4651282,1.393887,0.2965937,-0.02180098,-0.0487992,0.2279898,-0.389491,0.102846,-0.03556519,0.5936633,1.4705,0.167336,0.054945,1.131132,0.2801692,296.8409,244.6366,5.968641,True
2,1.188891,-0.4765022,-0.1895245,-0.007008243,-1.316882,-4.578704,-2.243032,0.3611568,1.256705,0.3870773,-0.6662877,1.13702,88.8,100,-0.0566531,0.05670561,0.3683572,-0.5719165,-2.872222,-1.045328,0.463738,1.393757,0.2963583,-0.0240586,-0.04767855,0.2130974,-0.3875922,0.1017052,-0.03422881,0.5920601,1.470236,0.1672835,0.0528166,1.130115,0.2796982,297.0995,244.516,5.95637,True
2,1.200002,-0.4584128,-0.1841827,-0.0241039,-1.314959,-4.578587,-2.238695,0.3592244,1.257474,0.3867307,-0.6549544,1.018785,88.8,100,-0.06211285,0.03550723,0.354408,-0.570039,-2.867042,-1.048746,0.462272,1.393697,0.2961016,-0.02311762,-0.04229552,0.1992622,-0.3858579,0.1011993,-0.03355397,0.5905482,1.469989,0.1671519,0.05071521,1.129009,0.2793755,297.433,244.4841,5.889769,True
2,1.211113,-0.4531515,-0.1671284,-0.02631802,-1.313727,-4.578069,-2.23398,0.3573474,1.258167,0.3863525,-0.6439571,0.9892794,88.8,100,-0.05467287,0.0131119,0.3552605,-0.5674579,-2.861362,-1.053111,0.461155,1.393763,0.2959442,-0.01898591,-0.04329554,0.1853766,-0.3842095,0.1001795,-0.03243331,0.5891397,1.46972,0.1669717,0.04878459,1.127846,0.2792213,297.8,244.4804,5.881902,True
2,1.222224,-0.4426839,-0.1202006,-0.02976192,-1.313624,-4.578939,-2.229137,0.3557128,1.258859,0.3859584,-0.6329817,0.987708,100,100,-0.03978625,-0.01245808,0.354969,-0.5648336,-2.85558,-1.057974,0.4599131,1.393743,0.2957151,-0.02658299,-0.0506981,0.1694327,-0.3827617,0.0979524,-0.02972833,0.5879394,1.46955,0.1669052,0.04705419,1.12662,0.2792399,298.1779,244.5356,5.856131,True
2,1.233335,-0.4687011,-0.002140366,-0.04844616,-1.31618,-4.582529,-2.222158,0.3542644,1.25938,0.3857632,-0.6215546,1.029399,100,100,-0.03768994,-0.01671357,0.3527924,-0.5625843,-2.849635,-1.062533,0.4586756,1.393869,0.2954512,-0.03528275,-0.04849491,0.1492755,-0.3817471,0.09671855,-0.02788782,0.5868154,1.469405,0.16679,0.04540944,1.125343,0.2794578,298.5984,244.6631,5.765683,True
2,1.244446,-0.4741633,0.03293794,-0.06462347,-1.316319,-4.584705,-2.21611,0.3528707,1.260026,0.3857205,-0.6112785,0.9242193,100,100,-0.01868664,-0.003783979,0.3292865,-0.5617417,-2.844715,-1.067171,0.4576251,1.393905,0.2952971,-0.04184402,-0.03564319,0.1312685,-0.380897,0.09698034,-0.02746997,0.58571,1.469177,0.1665833,0.04379538,1.124084,0.2798306,299.0609,244.9749,5.570833,True
2,1.255558,-0.4678255,0.04894026,-0.06470032,-1.316755,-4.585876,-2.210977,0.3513654,1.260673,0.3855407,-0.5999447,1.022189,100,100,-0.006945208,-0.005946532,0.3323743,-0.5598018,-2.838551,-1.072714,0.4566835,1.393973,0.2952194,-0.04619748,-0.03560483,0.120653,-0.379901,0.09597766,-0.02588486,0.5846132,1.469028,0.1664765,0.04220792,1.122972,0.2803421,299.5125,245.5164,5.163314,True
2,1.266669,-0.4689682,0.07132464,-0.06056517,-1.317545,-4.587367,-2.205444,0.3498802,1.261315,0.3853543,-0.5910497,0.7988043,100,100,0.008983955,-0.02511439,0.3278557,-0.5571956,-2.83361,-1.077567,0.4558371,1.394121,0.2951279,-0.04199787,-0.02916861,0.1131842,-0.3788373,0.09602919,-0.025728,0.5835953,1.468886,0.1663265,0.04054997,1.122185,0.2810399,299.9398,246.242,4.558004,True
2,1.27778,-0.4594138,0.07991014,-0.05528035,-1.318306,-4.588493,-2.200301,0.3487668,1.262153,0.3853242,-0.5830687,0.7176217,100,100,0.0248377,-0.06659625,0.3167942,-0.5538821,-2.830164,-1.081259,0.4551051,1.394344,0.2950811,-0.03575541,-0.0258981,0.09609447,-0.3783542,0.09557272,-0.02515436,0.5827348,1.468837,0.1661973,0.03885871,1.121826,0.2819099,300.2658,246.6312,4.34906,True
2,1.288891,-0.4455317,0.07035827,-0.0552397,-1.318097,-4.589162,-2.195589,0.3474922,1.262912,0.3851449,-0.5747208,0.7522504,100,100,0.03822932,-0.105659,0.2620922,-0.5511097,-2.830355,-1.082131,0.4544046,1.394631,0.2948716,-0.03699826,-0.02688807,0.07586399,-0.3781012,0.09446352,-0.02362863,0.5818397,1.468782,0.1662059,0.03710549,1.121874,0.2828166,300.4297,246.9305,4.351802,True
2,1.300002,-0.443313,0.04579531,-0.0700244,-1.317113,-4.590042,-2.190454,0.3465037,1.263839,0.3847671,-0.5674349,0.6551088,100,100,0.04868288,-0.1129497,0.2363921,-0.5491028,-2.828456,-1.084737,0.4537267,1.394876,0.2947237,-0.02973509,-0.03105113,0.05340859,-0.3782679,0.09308454,-0.02226349,0.5811059,1.468752,0.1661756,0.03536993,1.122296,0.2836365,300.4872,247.2666,4.341437,True
2,1.311113,-0.4335687,0.004207939,-0.08580154,-1.31505,-4.590447,-2.185863,0.3454421,1.264769,0.3846648,-0.56121,0.5599689,100,100,0.05943069,-0.1023784,0.2470313,-0.5469286,-2.823917,-1.08963,0.4531744,1.395103,0.2946248,-0.0308969,-0.02674832,0.04278248,-0.3781609,0.09262221,-0.02143978,0.5804828,1.468729,0.1660912,0.03383024,1.123077,0.2842876,300.4755,247.5078,4.374455,True
2,1.322224,-0.4302748,-0.0214258,-0.1016527,-1.313246,-4.591202,-2.180995,0.344436,1.265628,0.3844438,-0.5552041,0.54131,100,100,0.0637328,-0.1013443,0.2523322,-0.544634,-2.819498,-1.094202,0.4525031,1.395256,0.2944984,-0.03413016,-0.02353868,0.038562,-0.3778403,0.09225722,-0.02062778,0.579718,1.468636,0.1659849,0.03237664,1.124106,0.2846799,300.4088,247.5492,4.553216,True
2,1.333336,-0.4280719,-0.04062378,-0.107951,-1.311512,-4.591743,-2.176191,0.3434311,1.266562,0.3844233,-0.5507119,0.4034397,100,100,0.06804773,-0.1013833,0.25763,-0.542275,-2.815212,-1.098863,0.4520108,1.395592,0.2943251,-0.03646043,-0.01280369,0.01731929,-0.3783638,0.09279425,-0.02059156,0.5792173,1.46853,0.1659234,0.0310423,1.125344,0.2847942,300.3471,247.3861,4.820567,True
2,1.344447,-0.4269833,-0.04703689,-0.1121724,-1.310226,-4.592416,-2.171331,0.3425128,1.267395,0.3843527,-0.5463794,0.3904571,100,100,0.07457201,-0.1057563,0.2735384,-0.5394414,-2.809896,-1.104539,0.4514893,1.395678,0.2941704,-0.03441072,-0.009564281,0.008794712,-0.3784783,0.09299319,-0.02041792,0.5784976,1.468489,0.1659245,0.02973804,1.126718,0.2846995,300.248,247.0273,5.124546,True
2,1.355558,-0.4311961,-0.05984152,-0.1131749,-1.308561,-4.592848,-2.166304,0.3415151,1.268401,0.3843572,-0.5427661,0.3251044,100,100,0.08310001,-0.1174963,0.2755215,-0.5365028,-2.805905,-1.109185,0.4510433,1.395911,0.2940605,-0.02708208,-0.01056209,-0.006187619,-0.3790717,0.09258373,-0.02000433,0.578007,1.468393,0.1658595,0.02840507,1.128182,0.2844855,300.1306,246.6911,5.340423,False
2,1.366669,-0.4193936,-0.08221048,-0.1215856,-1.30632,-4.593259,-2.161983,0.3405763,1.269392,0.38433,-0.5396582,0.2796728,100,100,0.08509116,-0.1354987,0.2594113,-0.5335712,-2.803635,-1.1122,0.4506717,1.396015,0.2938254,-0.02080256,-0.005182963,-0.01900718,-0.3796922,0.09268879,-0.02012684,0.5776044,1.46825,0.1656818,0.02705351,1.129725,0.2842503,300.0094,246.3927,5.503767,False
2,1.37778,-0.4246767,-0.09400673,-0.1332462,-1.304088,-4.594036,-2.15689,0.3396426,1.270414,0.3842487,-0.5367873,0.2587099,100,100,0.08732325,-0.1526434,0.2741961,-0.5300175,-2.799235,-1.116988,0.4502518,1.396232,0.2936952,-0.01880077,0.000201026,-0.0328537,-0.380522,0.09307095,-0.0202813,0.5771718,1.468144,0.1655955,0.0256944,1.131341,0.284051,299.8904,246.1461,5.659155,False
2,1.388891,-0.4331764,-0.1015522,-0.1438453,-1.301982,-4.594775,-2.151514,0.338744,1.271534,0.3842859,-0.5351921,0.1424128,100,100,0.08422559,-0.1697846,0.2879563,-0.5261086,-2.794779,-1.121716,0.4498209,1.396465,0.2934482,-0.02418112,0.004480207,-0.0381161,-0.3810872,0.09360559,-0.02025361,0.5767075,1.468067,0.1655223,0.02430929,1.133052,0.2839198,299.8086,245.8531,5.893773,False
2,1.400002,-0.4460002,-0.09100489,-0.1556144,-1.300289,-4.59628,-2.145709,0.3377978,1.272571,0.3841777,-0.5326322,0.231819,100,100,0.07031387,-0.1825105,0.2815894,-0.5226486,-2.791707,-1.12465,0.4493601,1.396657,0.2932794,-0.02951918,0.0108708,-0.03910858,-0.3815452,0.09450427,-0.02062964,0.5763444,1.467947,0.1654685,0.02292847,1.134853,0.2838896,299.6965,245.4754,6.244176,False
2,1.411114,-0.4620647,-0.06981979,-0.1652984,-1.299063,-4.598025,-2.139527,0.3367798,1.273758,0.3841166,-0.5306034,0.1825741,100,100,0.06290379,-0.1782755,0.2859444,-0.519604,-2.787267,-1.129048,0.4489673,1.396911,0.2930574,-0.04227362,0.02255755,-0.03362227,-0.3816736,0.09632414,-0.02132846,0.5759388,1.467874,0.165463,0.02151932,1.136758,0.283976,299.6009,245.1494,6.572702,False
2,1.422225,-0.4888077,-0.04441276,-0.1771378,-1.298097,-4.600249,-2.132463,0.3357507,1.274871,0.3840275,-0.5289704,0.1470901,100,100,0.06848365,-0.1774199,0.3168094,-0.5159001,-2.780174,-1.136242,0.4485973,1.397123,0.2928205,-0.05192166,0.03003874,-0.03989887,-0.3823197,0.09809487,-0.02211409,0.5755363,1.467677,0.1654792,0.02005679,1.138819,0.2841736,299.5133,244.8932,6.871297,False
2,1.433336,-0.5133099,-0.04454264,-0.1845925,-1.296489,-4.602015,-2.125481,0.3344649,1.276146,0.3838949,-0.5274998,0.1326199,100,100,0.04843098,-0.1871544,0.3414078,-0.5117083,-2.77357,-1.141848,0.4480429,1.397348,0.2925057,-0.06269875,0.0439278,-0.05253395,-0.3833311,0.1005266,-0.02331518,0.5750917,1.467494,0.1654935,0.01844585,1.141077,0.2844502,299.4062,244.73,7.132112,False
2,1.444447,-0.5292478,-0.05529144,-0.1898568,-1.294433,-4.60331,-2.118776,0.3332732,1.277452,0.3838468,-0.525798,0.153979,100,100,0.04755011,-0.1883683,0.3637793,-0.5078584,-2.766588,-1.148504,0.4474787,1.397665,0.2922785,-0.06382336,0.05567639,-0.05779864,-0.3840736,0.1035008,-0.0253256,0.574681,1.467386,0.1656442,0.01666447,1.143598,0.2847726,299.2671,244.6141,7.374559,False
2,1.455558,-0.5482855,-0.09164126,-0.2013966,-1.291094,-4.604407,-2.111672,0.3317758,1.27881,0.3836548,-0.524957,0.07524726,100,100,0.02972656,-0.2024519,0.4011148,-0.5029811,-2.757948,-1.155754,0.4467803,1.397824,0.2919669,-0.06923115,0.07274541,-0.06514079,-0.3850729,0.1071965,-0.0277789,0.5742146,1.467144,0.1656785,0.01467513,1.14643,0.2850956,299.0792,244.4747,7.667203,False
2,1.466669,-0.5651662,-0.1344005,-0.2160923,-1.287076,-4.605281,-2.104651,0.3303657,1.280107,0.3833969,-0.5245266,0.03846336,100,100,0.01262182,-0.204507,0.3937852,-0.4992921,-2.752013,-1.160559,0.4460092,1.397863,0.2916994,-0.07990709,0.07487888,-0.06717187,-0.3859102,0.1096144,-0.02870621,0.57367,1.46694,0.1656678,0.01249681,1.149596,0.28536,298.8252,244.159,8.138957,False
2,1.47778,-0.5863211,-0.1750504,-0.23399,-1.282824,-4.606361,-2.097097,0.3289077,1.281477,0.3831298,-0.5236132,0.08293721,100,100,-0.0001446009,-0.1959804,0.3950105,-0.4957805,-2.745021,-1.166223,0.445217,1.397987,0.2913818,-0.1033197,0.08123412,-0.063751,-0.3865829,0.1125962,-0.0295246,0.5730174,1.466638,0.1656537,0.01025596,1.153055,0.2855285,298.4664,243.6297,8.805441,False
2,1.488891,-0.6032369,-0.2092927,-0.2519321,-1.278095,-4.607628,-2.089393,0.3272993,1.282854,0.3828421,-0.5231977,0.03709166,100,100,-0.01495039,-0.1758056,0.406993,-0.4925942,-2.736059,-1.173391,0.4442747,1.397994,0.2909231,-0.1159975,0.07798342,-0.05193594,-0.3867943,0.1147842,-0.02983832,0.5724628,1.4664,0.1656823,0.007886529,1.156698,0.2855573,298.054,242.8788,9.675196,False
2,1.500003,-0.6148942,-0.2242926,-0.26038,-1.273993,-4.608975,-2.081875,0.3257304,1.28417,0.3825526,-0.5224259,0.07009119,100,100,-0.01803285,-0.160975,0.4199122,-0.4893963,-2.726838,-1.181184,0.4433848,1.398079,0.2905366,-0.1350228,0.06831104,-0.03582839,-0.3866372,0.1158721,-0.02875095,0.5718457,1.466088,0.165801,0.00551294,1.160432,0.2854424,297.6097,241.9767,10.65628,False
2,1.511114,-0.6138254,-0.2253732,-0.2646266,-1.27036,-4.610422,-2.074636,0.3239596,1.285502,0.3822029,-0.5220627,0.03255661,100,100,-0.02952448,-0.1664713,0.4476706,-0.4852929,-2.716542,-1.189631,0.4424165,1.398203,0.2902622,-0.1520229,0.07040282,-0.03034599,-0.3868135,0.1180423,-0.02851207,0.5710595,1.46579,0.1658154,0.00312246,1.164185,0.2852031,297.2068,241.0341,11.61902,False
2,1.522225,-0.603205,-0.2157131,-0.2561494,-1.267305,-4.61166,-2.068007,0.322332,1.286745,0.3818169,-0.5220989,-0.003650378,100,100,-0.05080929,-0.1707374,0.451014,-0.4814079,-2.707796,-1.196097,0.4413472,1.398274,0.2898433,-0.1595192,0.06509387,-0.03562999,-0.3874452,0.1196892,-0.02808516,0.5703355,1.465512,0.1657395,0.0006734203,1.167912,0.2848846,296.8466,240.0597,12.56998,False
2,1.533336,-0.5936815,-0.1985696,-0.2434499,-1.264814,-4.612972,-2.061371,0.3204753,1.287877,0.381397,-0.5222778,-0.01639923,100,91.5,-0.07420489,-0.1654168,0.4555009,-0.4780294,-2.698739,-1.202535,0.4401993,1.398274,0.2894089,-0.1680143,0.05655432,-0.03345985,-0.3877728,0.1205967,-0.02678847,0.569401,1.465204,0.1657283,-0.001803481,1.171587,0.2845308,296.495,239.171,13.43921,False
2,1.544447,-0.588405,-0.1856973,-0.2296567,-1.262447,-4.614057,-2.054665,0.3187411,1.289132,0.3809505,-0.5226858,-0.03725469,100,91.5,-0.08483517,-0.1558379,0.4588459,-0.4749215,-2.689324,-1.209524,0.4390252,1.398367,0.2889495,-0.1775457,0.05652124,-0.02697854,-0.3877664,0.1223426,-0.02615384,0.568453,1.464916,0.1657567,-0.004320472,1.175172,0.2841559,296.146,238.3769,14.25124,False
2,1.555558,-0.5820577,-0.1739287,-0.224388,-1.260056,-4.61545,-2.048006,0.3167177,1.290247,0.3804243,-0.5225543,0.01218541,100,91.5,-0.1018133,-0.149481,0.4664826,-0.4716554,-2.679264,-1.216709,0.4376397,1.398298,0.2883739,-0.1838239,0.04794571,-0.01523905,-0.3875512,0.1230049,-0.02457858,0.5673752,1.464524,0.1657667,-0.006778583,1.178611,0.2837562,295.7785,237.64,15.04257,False
2,1.566669,-0.5926602,-0.1867473,-0.2232383,-1.256784,-4.616385,-2.040839,0.3146429,1.291309,0.3797972,-0.5222139,0.03086608,100,91.5,-0.1388252,-0.1038258,0.494794,-0.4697907,-2.665586,-1.226186,0.4362153,1.398153,0.2876375,-0.1815955,0.048967,-0.003532101,-0.3871837,0.124655,-0.02414422,0.5662271,1.464153,0.165921,-0.009243893,1.181847,0.2833064,295.4509,236.9986,15.74513,False
2,1.577781,-0.6043106,-0.2059554,-0.2210139,-1.253082,-4.617248,-2.033359,0.3124892,1.292257,0.3792419,-0.5221596,0.004592333,100,70.8,-0.1428128,-0.06886874,0.5248913,-0.4679579,-2.650811,-1.237625,0.4347386,1.398007,0.287061,-0.1826107,0.05426675,0.002890007,-0.3869413,0.1267707,-0.02403689,0.5651007,1.463747,0.1659837,-0.01169016,1.184901,0.2827847,295.2133,236.4144,16.37897,False
2,1.588892,-0.5849762,-0.247451,-0.2261473,-1.248195,-4.61791,-2.027297,0.3100521,1.29322,0.3786187,-0.521391,0.07013497,100,70.8,-0.1888519,-0.06862214,0.4954388,-0.4657634,-2.641598,-1.242391,0.4329488,1.397628,0.2864339,-0.202647,0.05840932,0.02758994,-0.385696,0.129064,-0.02313115,0.5639076,1.463323,0.1661072,-0.0142806,1.187782,0.2821759,295.0194,235.7756,17.04821,False
2,1.600003,-0.5560718,-0.2846382,-0.2280991,-1.243057,-4.618278,-2.021964,0.3076694,1.294166,0.3780255,-0.5209138,0.04302074,100,70.8,-0.2263814,-0.08116363,0.465836,-0.463112,-2.633566,-1.245887,0.4312086,1.397502,0.2857974,-0.2260623,0.07434747,0.03211705,-0.3852337,0.132735,-0.02319267,0.5625593,1.462929,0.1662254,-0.01700204,1.190538,0.28147,294.8741,235.0109,17.82702,False
2,1.611114,-0.5099755,-0.3601862,-0.2469142,-1.235793,-4.618512,-2.017808,0.3049704,1.294998,0.3774033,-0.522182,-0.1162957,100,70.8,-0.2797524,-0.08635569,0.4534461,-0.4605005,-2.624655,-1.248937,0.4289302,1.39715,0.2851074,-0.2644481,0.09135902,0.03038766,-0.3850489,0.1369067,-0.02282649,0.5612451,1.46253,0.1663296,-0.01985992,1.193233,0.2806756,294.7558,234.1119,18.70065,False
2,1.622225,-0.5077557,-0.3857249,-0.243595,-1.230208,-4.618779,-2.011912,0.3025953,1.295886,0.3766644,-0.5228403,-0.05925807,100,70.8,-0.279747,-0.07676342,0.4535166,-0.4584419,-2.613813,-1.255566,0.4270251,1.396855,0.2844863,-0.2942904,0.09878972,0.0296082,-0.3848214,0.14049,-0.02184884,0.559962,1.462027,0.1664541,-0.02282743,1.195862,0.2798377,294.6108,232.9817,19.76784,False
2,1.633336,-0.5098576,-0.3931848,-0.2424932,-1.224862,-4.619242,-2.005972,0.2999251,1.296511,0.3759978,-0.523798,-0.0873469,100,37.7,-0.2941511,-0.009115726,0.3752539,-0.4601128,-2.609051,-1.256288,0.4246297,1.39632,0.2838898,-0.335728,0.1104165,0.0438816,-0.3836299,0.1451267,-0.02098571,0.5583237,1.461529,0.1666312,-0.0258023,1.198356,0.2790244,294.4364,231.6643,21.00759,False
2,1.644447,-0.4874818,-0.3952582,-0.2456736,-1.219601,-4.619894,-2.000924,0.2972985,1.296972,0.3752451,-0.5219151,0.1726805,100,37.7,-0.3048112,-0.01017261,0.3732024,-0.4585862,-2.600558,-1.260367,0.4223671,1.395757,0.283231,-0.3452391,0.1156903,0.05251972,-0.3826994,0.1487369,-0.02040967,0.5568032,1.461056,0.1667707,-0.02879257,1.200576,0.2783087,294.2839,230.2082,22.39783,False
2,1.655559,-0.4651393,-0.3877155,-0.2457132,-1.214744,-4.620745,-1.996176,0.2945203,1.297413,0.3745956,-0.5215524,0.03146965,100,37.7,-0.3399915,-0.04423547,0.3743231,-0.4556546,-2.592342,-1.262751,0.4200208,1.395258,0.2824249,-0.3569666,0.125266,0.05265997,-0.382137,0.1533288,-0.02029169,0.5551565,1.46053,0.1669774,-0.0317169,1.202556,0.2776819,294.2397,229.2268,23.3989,False
2,1.66667,-0.4193432,-0.3833233,-0.2531866,-1.209779,-4.621783,-1.992779,0.2916525,1.297645,0.3739295,-0.522386,-0.07640591,100,37.7,-0.4039931,-0.07822222,0.3682187,-0.4523422,-2.585151,-1.262544,0.4174622,1.394534,0.2816021,-0.3973793,0.1560825,0.06275404,-0.3808421,0.1609544,-0.02187174,0.5534322,1.45993,0.1673081,-0.03473753,1.204353,0.277087,294.2418,228.4109,24.28146,False
2,1.677781,-0.3606876,-0.4012646,-0.2648146,-1.203851,-4.622688,-1.990383,0.2884973,1.297746,0.3731623,-0.5226986,-0.02798992,100,36.3,-0.4561789,-0.07285261,0.3697429,-0.450618,-2.576497,-1.263612,0.4146716,1.393646,0.2807183,-0.4442312,0.1794496,0.06856888,-0.3800954,0.1683368,-0.0222366,0.5515741,1.459248,0.1676509,-0.03781494,1.205987,0.2765041,294.2307,227.5528,25.20053,False
2,1.688892,-0.3275783,-0.4235295,-0.2689723,-1.197629,-4.623349,-1.987651,0.2852835,1.297602,0.37253,-0.5239061,-0.110399,100,36.3,-0.5072927,-0.02912265,0.3683172,-0.4502793,-2.566843,-1.265017,0.411774,1.392609,0.2797518,-0.4816048,0.1954385,0.06048633,-0.3792213,0.176012,-0.02289946,0.5496361,1.458506,0.168113,-0.0409866,1.207457,0.2759501,294.2019,226.6671,26.10469,False
2,1.700003,-0.3168955,-0.4320318,-0.2710443,-1.191816,-4.623953,-1.984103,0.2821823,1.297548,0.371721,-0.5246512,-0.06747486,100,36.3,-0.5094586,-0.008828461,0.3599544,-0.4497307,-2.558388,-1.267244,0.4088813,1.391738,0.2790921,-0.4762635,0.1933124,0.0624885,-0.3792315,0.1813693,-0.02278627,0.5471656,1.457316,0.1684093,-0.04427284,1.208681,0.2754692,294.1278,225.6263,27.15659,False
2,1.711114,-0.2956047,-0.4276473,-0.2625467,-1.186501,-4.624567,-1.981263,0.2788217,1.296979,0.3709807,-0.5238987,0.069008,100,36.3,-0.4413921,-0.3647086,0.5178776,-0.4306251,-2.54416,-1.277643,0.4061429,1.39046,0.2785218,-0.536829,0.2528089,0.08775512,-0.3774983,0.1944897,-0.02691843,0.5448952,1.456359,0.1688318,-0.04772893,1.20951,0.2751018,294.0659,224.4317,28.3745,False
2,1.722225,-0.2934752,-0.4265576,-0.2593562,-1.18115,-4.625302,-1.977833,0.275735,1.296732,0.370255,-0.5226272,0.1153446,100,36.3,-0.4234132,-0.4499009,0.5118365,-0.4212034,-2.536869,-1.280276,0.4033562,1.389318,0.2779598,-0.5227575,0.2686949,0.1164604,-0.3754418,0.2043822,-0.03071131,0.5426659,1.455356,0.169075,-0.05126284,1.209875,0.2748719,294.1047,223.4592,29.41247,False
2,1.733337,-0.2755072,-0.3891223,-0.2424895,-1.177623,-4.626039,-1.975143,0.2723885,1.296006,0.3693752,-0.5229537,-0.03099139,100,38.9,-0.4567523,-0.5457423,0.3516551,-0.4130073,-2.548084,-1.263916,0.4001799,1.387683,0.2772872,-0.525826,0.2707624,0.1314101,-0.3735595,0.2129414,-0.03277419,0.5404224,1.454274,0.1693962,-0.05481201,1.209859,0.2747095,294.2773,222.8949,30.12692,False
2,1.744448,-0.2606671,-0.3698371,-0.2319245,-1.173556,-4.626712,-1.972411,0.2690707,1.295341,0.3684728,-0.5222544,0.06417892,100,38.9,-0.4717467,-0.4838234,0.3351431,-0.4093145,-2.543231,-1.262525,0.3970378,1.386309,0.27651,-0.5323236,0.2558964,0.1175534,-0.3729336,0.219113,-0.0324365,0.5380269,1.453196,0.1700871,-0.05838125,1.20953,0.2745465,294.483,222.486,30.68952,False
2,1.755559,-0.250111,-0.3441879,-0.2235292,-1.169989,-4.627662,-1.969621,0.2657268,1.294535,0.3676283,-0.5227194,-0.0432559,100,38.9,-0.4918673,-0.3868867,0.3391537,-0.4070988,-2.534827,-1.264113,0.3938788,1.384688,0.2756193,-0.5442113,0.2730033,0.0996142,-0.3726354,0.2290962,-0.0353484,0.5356348,1.451761,0.1705801,-0.06186159,1.209048,0.2743321,294.7484,222.2881,31.0308,False
2,1.76667,-0.2406104,-0.3217724,-0.2204401,-1.166405,-4.628755,-1.966783,0.2624066,1.293334,0.3667564,-0.522525,0.01805563,100,38.9,-0.5946039,-0.207105,0.3933874,-0.4088847,-2.517524,-1.27007,0.3903533,1.382591,0.2746983,-0.5462194,0.310222,0.1178934,-0.3708825,0.2424281,-0.04166222,0.5333872,1.450498,0.1713145,-0.06538907,1.208495,0.2739779,294.9166,222.1329,31.33776,False
2,1.777781,-0.2246412,-0.3185428,-0.2257836,-1.16219,-4.629965,-1.964362,0.2589636,1.292049,0.365855,-0.5223572,0.01501089,100,50.1,-0.6027097,-0.2298332,0.447633,-0.4037469,-2.503541,-1.275948,0.3872163,1.380907,0.2738054,-0.5461081,0.3474467,0.1340213,-0.3691461,0.2568211,-0.04915689,0.5308894,1.449036,0.1718931,-0.06893769,1.207926,0.2734475,295.063,221.8461,31.7209,False
2,1.788892,-0.1989688,-0.348388,-0.246942,-1.156273,-4.631283,-1.962345,0.2554182,1.290761,0.3650014,-0.5221841,0.01560887,100,50.1,-0.6642623,-0.3408538,0.4910627,-0.3937622,-2.491142,-1.278055,0.3840763,1.378382,0.2729902,-0.5641296,0.4006001,0.1525042,-0.3670699,0.274377,-0.05852057,0.5284219,1.447357,0.172848,-0.07250708,1.207371,0.2727654,295.1462,221.3707,32.21415,False
2,1.800003,-0.1786155,-0.3782058,-0.2606487,-1.150114,-4.632494,-1.960536,0.2519189,1.289483,0.3642144,-0.5224723,-0.02655545,100,50.1,-0.6507941,-0.3330843,0.443065,-0.3895288,-2.486043,-1.275963,0.3806727,1.376269,0.2721865,-0.5727656,0.4357865,0.1441955,-0.3662219,0.2913015,-0.06753004,0.5257387,1.445711,0.1731002,-0.07610539,1.206793,0.271986,295.1516,220.6826,32.87963,False
2,1.811115,-0.1870281,-0.4080502,-0.2572959,-1.144,-4.632903,-1.957971,0.2485462,1.28771,0.3634236,-0.5227758,-0.02766671,100,50.1,-0.5797817,-0.3179184,0.3957185,-0.3861568,-2.481365,-1.276433,0.3774312,1.373982,0.2716579,-0.5630608,0.4197699,0.1557659,-0.3644248,0.3034703,-0.07290989,0.52314,1.443816,0.173403,-0.07978508,1.20612,0.2711877,295.1659,219.7699,33.73022,False
2,1.822226,-0.2061983,-0.4113301,-0.2593943,-1.13868,-4.633899,-1.954516,0.2451273,1.286123,0.3625455,-0.5227663,0.0009252438,100,50.1,-0.5236725,-0.2067901,0.339553,-0.3868971,-2.475118,-1.278149,0.3743991,1.37172,0.2709985,-0.5351104,0.3600498,0.1776536,-0.3618139,0.3095036,-0.07347182,0.5204262,1.441891,0.1735537,-0.08353322,1.205276,0.2704957,295.2625,218.6985,34.7013,False
2,1.833337,-0.224503,-0.35906,-0.2308837,-1.13598,-4.634632,-1.951081,0.2421547,1.284201,0.3619637,-0.521505,0.1151631,100,60.3,-0.5057898,-0.05202788,0.2935714,-0.3906868,-2.467461,-1.280107,0.3715249,1.36922,0.2704711,-0.4975477,0.3493117,0.2081796,-0.3588093,0.3200849,-0.07907031,0.5178751,1.439838,0.1739061,-0.08724467,1.204211,0.2700149,295.3811,217.6861,35.66578,False
2,1.844448,-0.2419003,-0.2672981,-0.1887071,-1.135791,-4.635352,-1.947484,0.2394719,1.282066,0.3613987,-0.5206416,0.07786339,100,60.3,-0.4783186,0.1944147,0.2374754,-0.3999695,-2.457704,-1.284343,0.3687531,1.366574,0.2700222,-0.4836431,0.3567605,0.2144829,-0.3565967,0.3331697,-0.08646512,0.5152159,1.437992,0.1743133,-0.0908805,1.202883,0.2697116,295.5143,216.9853,36.46266,False
2,1.855559,-0.2454727,-0.1669913,-0.1519132,-1.137062,-4.636467,-1.94414,0.2367291,1.279839,0.3608496,-0.5204951,0.01287294,100,60.3,-0.4399888,0.3148695,0.2209288,-0.4067552,-2.447692,-1.289869,0.3660179,1.364055,0.2695222,-0.4260059,0.3770015,0.2300487,-0.3539112,0.3488331,-0.09854361,0.5128008,1.435878,0.174788,-0.09442458,1.201404,0.2694923,295.6985,216.7353,36.87595,False
2,1.86667,-0.2471235,-0.01122492,-0.102605,-1.141951,-4.637972,-1.940759,0.2341424,1.277135,0.3600814,-0.5203822,0.01032528,100,60.3,-0.4038717,0.3341258,0.2058496,-0.4100437,-2.440428,-1.293185,0.3633777,1.361532,0.2691636,-0.3567104,0.3951387,0.2391144,-0.3515362,0.3639142,-0.1108956,0.5102996,1.433625,0.1752207,-0.09761272,1.199898,0.2692824,295.7719,216.8066,36.97864,False
2,1.877781,-0.2009152,0.1650279,-0.04169615,-1.149032,-4.639498,-1.939303,0.2317821,1.274254,0.3596737,-0.5208472,-0.04256174,100,60.3,-0.3711993,0.2491008,0.1719855,-0.4094163,-2.438737,-1.291613,0.3608453,1.358957,0.2689154,-0.3181191,0.3876162,0.2653852,-0.3482035,0.3770405,-0.120997,0.5078195,1.431566,0.1754854,-0.1004642,1.198448,0.2689553,295.7089,217.0667,36.89387,False
2,1.888893,-0.160657,0.2249746,-0.01430121,-1.153382,-4.640509,-1.938396,0.229323,1.271548,0.3591306,-0.5210512,-0.01826086,100,62.9,-0.3707234,0.2261294,0.1025766,-0.4114152,-2.440109,-1.286172,0.3584307,1.356262,0.2685757,-0.2977282,0.3939679,0.2833539,-0.3450131,0.3922912,-0.1326164,0.5054905,1.429525,0.175858,-0.1031957,1.197094,0.2684094,295.5019,217.3378,36.7721,False
2,1.900004,-0.1438551,0.290205,0.0247901,-1.158422,-4.640972,-1.937044,0.2271067,1.268613,0.3586006,-0.522933,-0.1719438,100,62.9,-0.334791,0.2284638,0.06715099,-0.4140438,-2.43886,-1.284469,0.3561107,1.353587,0.2682846,-0.2614306,0.4078111,0.2937473,-0.3421267,0.408557,-0.1462949,0.5031577,1.427505,0.1760418,-0.105832,1.195816,0.2675779,295.0787,217.6853,36.52444,False
2,1.911115,-0.1588578,0.3147748,0.05023988,-1.162938,-4.641251,-1.934695,0.2250108,1.265819,0.3580678,-0.5232866,-0.0310151,100,62.9,-0.2691498,0.2363821,0.1476427,-0.4161429,-2.42706,-1.294355,0.3540643,1.350919,0.2678373,-0.2293048,0.4024473,0.3136891,-0.3387605,0.4236234,-0.1587438,0.5008683,1.425486,0.1764441,-0.1082817,1.194478,0.2665274,294.5257,217.7733,36.38833,False
2,1.922226,-0.1630924,0.3084166,0.06199562,-1.166037,-4.641273,-1.932682,0.2228273,1.263135,0.3575203,-0.5223892,0.08199309,100,62.9,-0.2700753,0.1317956,0.1767741,-0.4135463,-2.42114,-1.29672,0.3521106,1.348188,0.2675383,-0.1821575,0.3949148,0.3441442,-0.3346981,0.4384564,-0.1722644,0.4986947,1.423613,0.1766236,-0.1106147,1.19289,0.2653511,294.0819,217.4989,36.53118,False
2,1.933337,-0.1256237,0.2617663,0.07819691,-1.167805,-4.64036,-1.932899,0.2210446,1.260616,0.3569474,-0.5210555,0.1211249,87.1,69.6,-0.2642031,-0.01064301,0.1288971,-0.4088458,-2.424641,-1.290753,0.3503981,1.345676,0.2674835,-0.1543009,0.3820963,0.3630246,-0.330837,0.452853,-0.1847541,0.4965175,1.421567,0.1767819,-0.1127781,1.19097,0.2641227,293.7368,217.3967,36.48504,False
2,1.944448,-0.09775622,0.2171985,0.09331937,-1.169093,-4.639265,-1.933119,0.2194266,1.258063,0.3564653,-0.5210965,-0.004770638,87.1,69.6,-0.2101595,-0.04137501,0.09736476,-0.4077843,-2.425893,-1.288819,0.3486707,1.343265,0.2672479,-0.1330072,0.3831787,0.3639145,-0.3276514,0.4683958,-0.1984241,0.4945375,1.419737,0.1770163,-0.1148477,1.188788,0.2628602,293.5668,217.6198,36.11853,False
2,1.955559,-0.07849677,0.1960519,0.1104633,-1.171151,-4.638057,-1.93331,0.217881,1.255528,0.3559735,-0.5229085,-0.1655605,87.1,69.6,-0.2014971,-0.02977212,0.1133531,-0.4073518,-2.421497,-1.290919,0.3470962,1.340875,0.2669466,-0.1107048,0.3864279,0.3562763,-0.3249403,0.4842675,-0.2129751,0.492725,1.417986,0.1771367,-0.1168298,1.186461,0.2615865,293.5499,217.8538,35.74246,False
2,1.966671,-0.04099447,0.138664,0.110734,-1.171142,-4.636688,-1.934597,0.2166734,1.253094,0.3556898,-0.5228696,0.004832373,87.1,69.6,-0.2216241,-0.01811652,0.1263722,-0.4072735,-2.416528,-1.292141,0.3457421,1.3384,0.2667601,-0.08503881,0.3821516,0.3699019,-0.3212529,0.5010336,-0.2284161,0.4907562,1.416224,0.1773057,-0.1184573,1.184013,0.2603617,293.5486,217.8389,35.60763,False
2,1.977782,-0.006649781,0.07275287,0.112117,-1.170251,-4.634822,-1.936438,0.2157243,1.250773,0.355473,-0.5225479,0.02905576,87.1,69.6,-0.1872396,0.0679704,0.1533076,-0.4102056,-2.407773,-1.299106,0.3446878,1.336156,0.2665806,-0.05492729,0.3660955,0.3983469,-0.3169023,0.5165652,-0.2436377,0.488965,1.41468,0.1774743,-0.119779,1.181422,0.2592297,293.5179,217.8293,35.46123,False
2,1.988893,0.01375741,0.03021588,0.1123233,-1.169741,-4.633118,-1.937913,0.2147358,1.248302,0.3552933,-0.5233202,-0.07102917,68.1,66.3,-0.1460626,0.05757049,0.1092235,-0.4106637,-2.407847,-1.298718,0.3434874,1.333925,0.2667024,-0.03351337,0.3532809,0.4108885,-0.3130344,0.531486,-0.258112,0.4871753,1.412878,0.1777377,-0.1208851,1.178711,0.2582029,293.4969,217.936,35.2057,False
2,2.000004,0.05445023,-0.02509002,0.1008686,-1.168092,-4.631534,-1.940381,0.2139091,1.245804,0.3550813,-0.5235023,-0.01618694,68.1,66.3,-0.1257146,-0.03760839,0.001878172,-0.4079888,-2.419586,-1.287136,0.3422747,1.331558,0.2666643,-0.004604936,0.3362325,0.423369,-0.3088708,0.5469556,-0.2737474,0.4854758,1.411271,0.1776104,-0.1216758,1.175863,0.2573554,293.5589,217.8163,35.1494,False
2,2.011115,0.09290721,-0.05380938,0.07969575,-1.166688,-4.630754,-1.942997,0.2129684,1.243505,0.3548946,-0.5229229,0.05283059,68.1,66.3,-0.1104057,-0.072249,-0.07731371,-0.4069566,-2.430233,-1.276688,0.341137,1.329598,0.2664673,0.01248509,0.3287638,0.4295802,-0.3050971,0.5617661,-0.288439,0.4839118,1.409973,0.1774933,-0.1222126,1.172858,0.2567295,293.6663,217.6633,35.14597,False
2,2.022226,0.144068,-0.06009143,0.06267153,-1.165969,-4.630264,-1.94652,0.2122457,1.241042,0.354867,-0.5236142,-0.06388929,68.1,66.3,-0.08488429,-0.03065574,-0.08789696,-0.4086615,-2.431493,-1.275382,0.3399876,1.327607,0.2662292,0.01689702,0.3297704,0.4476619,-0.3008126,0.5796911,-0.305749,0.4821489,1.40888,0.17733,-0.1226963,1.16975,0.2563543,293.8275,217.5033,35.25218,False
2,2.033337,0.1960396,-0.001331154,0.0559801,-1.167904,-4.630639,-1.950287,0.2117704,1.238595,0.3547721,-0.5238502,-0.02116242,66.1,64.8,-0.03736855,0.05281049,-0.1505758,-0.4132811,-2.438184,-1.270593,0.3388282,1.325804,0.2657862,0.01579893,0.2893225,0.4389866,-0.2970154,0.5901251,-0.3158634,0.4808746,1.407982,0.1769578,-0.1225608,1.168488,0.2563775,293.5885,217.3085,35.44609,False
2,2.044448,0.2384502,0.05211212,0.05890468,-1.170442,-4.630771,-1.954192,0.211271,1.236244,0.3544953,-0.5245208,-0.06147662,66.1,64.8,0.003751263,0.1213577,-0.2122391,-0.4180641,-2.446184,-1.264748,0.3380412,1.324261,0.2654247,0.008975089,0.2277491,0.3833927,-0.2951539,0.593281,-0.3186983,0.4796038,1.407121,0.1768537,-0.1223129,1.167678,0.2565528,293.005,216.6865,35.98405,False
2,2.055559,0.2944019,0.1856206,0.08486899,-1.177416,-4.63166,-1.959074,0.2112168,1.233825,0.3543491,-0.5247551,-0.02118193,66.1,64.8,0.02591401,0.1652215,-0.24409,-0.4221696,-2.452263,-1.260239,0.3375726,1.322971,0.2651219,0.01116157,0.2181424,0.388662,-0.2915703,0.6049628,-0.3300858,0.4784355,1.40627,0.1764681,-0.1220878,1.166949,0.2567205,292.1968,216.1574,36.39837,False
2,2.06667,0.3407597,0.3223805,0.1299977,-1.185966,-4.63191,-1.964216,0.2114625,1.231508,0.3542166,-0.5243689,0.03509478,66.1,64.8,0.007385164,0.149595,-0.2941171,-0.4247113,-2.462778,-1.250042,0.3371941,1.321893,0.2649546,0.04424652,0.1649232,0.3892289,-0.2875106,0.6108788,-0.337422,0.4775462,1.405495,0.1760745,-0.1218955,1.166208,0.2568707,291.2583,215.853,36.62252,False
2,2.077781,0.3735367,0.3875895,0.1499109,-1.193018,-4.632308,-1.96937,0.2115571,1.229352,0.354069,-0.525137,-0.07087477,66.1,64.8,-0.008822948,0.1306053,-0.3207483,-0.4266496,-2.472411,-1.240642,0.3368139,1.32067,0.2647147,0.06123236,0.1234422,0.3771968,-0.2839196,0.6146243,-0.3423547,0.4766294,1.404879,0.17571,-0.1217216,1.165473,0.2569116,290.2608,215.7341,36.73977,False
2,2.088892,0.4181983,0.4102343,0.1700312,-1.198591,-4.631928,-1.97567,0.2118542,1.227514,0.3539772,-0.5247615,0.03463985,59.7,56.6,-0.02048686,0.1700211,-0.3182667,-0.4308899,-2.47792,-1.234942,0.3365082,1.319902,0.2645981,0.06850928,0.08627102,0.351411,-0.2811957,0.6169283,-0.345587,0.4760051,1.404269,0.1754403,-0.12144,1.164747,0.2569059,289.1521,215.5688,37.00027,False
2,2.100003,0.4396708,0.3677199,0.1734381,-1.201609,-4.630958,-1.981576,0.2120556,1.225895,0.3541019,-0.5243114,0.04046971,59.7,56.6,-0.02055562,0.1807394,-0.3267315,-0.4345448,-2.484854,-1.228281,0.3361253,1.318988,0.2645864,0.08965671,0.06294806,0.3287707,-0.2784244,0.6204861,-0.350897,0.4754501,1.404044,0.1751335,-0.1210733,1.164024,0.2568704,287.9985,215.3352,37.4031,False
2,2.111114,0.4123124,0.2779672,0.1408608,-1.201778,-4.630534,-1.985422,0.2123373,1.224599,0.3540521,-0.5246848,-0.03476209,59.7,56.6,-0.0273515,0.1384343,-0.371705,-0.4365827,-2.497457,-1.216307,0.3359125,1.318186,0.264447,0.08414638,0.05664363,0.3074811,-0.2762135,0.6254458,-0.3563685,0.4750071,1.403747,0.1750994,-0.1206949,1.163296,0.2568281,287.0416,215.0383,37.86726,False
2,2.122225,0.4042347,0.1583833,0.09351744,-1.199584,-4.630086,-1.989498,0.2126229,1.223598,0.3540413,-0.5237111,0.08907322,59.7,56.6,-0.04222777,0.1320199,-0.3663056,-0.4390072,-2.504922,-1.208556,0.3356895,1.317414,0.2642202,0.06374128,0.06947538,0.2895918,-0.2742433,0.6328637,-0.3634826,0.4745551,1.403564,0.1747918,-0.1202404,1.162568,0.2568492,286.1837,214.1387,38.85465,False
2,2.133336,0.4269654,0.0634874,0.0588243,-1.197083,-4.629458,-1.995419,0.2129264,1.2226,0.3540795,-0.5214384,0.2067755,59.7,56.6,-0.07051826,0.173237,-0.3125342,-0.4428208,-2.50558,-1.206205,0.3355088,1.316862,0.2640102,0.04740483,0.09517862,0.2514833,-0.2735226,0.6415809,-0.3718343,0.4743029,1.403422,0.1746933,-0.1197175,1.161865,0.2570968,285.5871,212.603,40.43227,False
2,2.144447,0.3983268,0.02918146,0.03768974,-1.19659,-4.629448,-1.99882,0.2131209,1.221402,0.3539867,-0.521292,0.01165479,59.7,56.6,-0.0598557,0.1380351,-0.3075336,-0.4442025,-2.512389,-1.199783,0.3353451,1.31625,0.263901,0.03622358,0.09967902,0.1887337,-0.2739967,0.645624,-0.3759718,0.4741723,1.403167,0.1744792,-0.1192986,1.161294,0.2574096,285.0315,211.4189,41.62708,False
2,2.155558,0.3674288,0.02895162,0.01532599,-1.196702,-4.630145,-2.001616,0.2134265,1.220679,0.354105,-0.5229831,-0.154616,59.7,56.6,-0.02989379,0.1581458,-0.2927314,-0.4475511,-2.516623,-1.196777,0.3352752,1.315984,0.2639079,0.03271882,0.1008868,0.1525442,-0.2739839,0.6502212,-0.3807471,0.4740495,1.402996,0.1743743,-0.118939,1.160816,0.2577413,284.5703,210.1249,42.86762,False
2,2.166669,0.3310145,0.07780593,0.01403163,-1.199054,-4.631092,-2.0037,0.2137241,1.220002,0.3543208,-0.5207583,0.2046284,59.7,56.6,-0.01376525,0.1121565,-0.268669,-0.4479522,-2.521724,-1.192568,0.3353047,1.315899,0.2639296,0.03349784,0.08185619,0.1173012,-0.274051,0.6513323,-0.3821945,0.4741589,1.402882,0.1742294,-0.1189322,1.160299,0.257618,283.61,208.4348,44.22779,False
2,2.17778,0.2508558,0.1434762,-0.0001261979,-1.2022,-4.633235,-2.003098,0.2140813,1.219654,0.3544507,-0.520118,0.05663245,59.7,56.6,0.01076646,0.05879283,-0.2585645,-0.44759,-2.528179,-1.187737,0.3354108,1.315855,0.2639558,0.02263603,0.05319355,0.08958027,-0.2738443,0.6500192,-0.3808392,0.4741985,1.402968,0.1740882,-0.1185346,1.159768,0.2576313,283.4539,206.6718,45.81653,False
2,2.188891,0.2251959,0.1667609,-0.01088832,-1.204448,-4.634929,-2.004092,0.2143264,1.219295,0.3545308,-0.5195583,0.05096075,52.4,41.5,-0.0004358441,0.04132021,-0.1925419,-0.4474958,-2.528629,-1.187013,0.3354911,1.316146,0.2638509,0.01389466,0.02347386,0.06076953,-0.2738869,0.6472248,-0.3779955,0.474309,1.402945,0.1738133,-0.1182004,1.159421,0.2577913,283.1915,205.5905,46.86518,False
2,2.200002,0.2294674,0.164604,-0.01939963,-1.205747,-4.636131,-2.006607,0.2144813,1.219223,0.3546851,-0.5174746,0.1902944,52.4,41.5,-0.007503569,0.07405357,-0.1475264,-0.4495256,-2.527575,-1.187517,0.3354298,1.31616,0.2637582,0.0115335,0.01185383,0.03303364,-0.2743674,0.6452988,-0.3761968,0.4745075,1.403116,0.1735086,-0.1180067,1.159241,0.2581056,282.829,205.4266,47.04252,False
2,2.211113,0.2072158,0.133574,-0.0298943,-1.205853,-4.636963,-2.007951,0.2148216,1.219085,0.354809,-0.5189936,-0.1402312,52.4,41.5,-0.01058623,0.0920879,-0.135662,-0.4514692,-2.528319,-1.18663,0.3355223,1.316201,0.2636757,0.005037317,0.005505794,0.02028093,-0.2745101,0.6444408,-0.3751962,0.4746348,1.403235,0.1733279,-0.1180237,1.159248,0.2584718,282.4977,206.278,46.20866,False
2,2.222224,0.1743993,0.07906114,-0.04027798,-1.20458,-4.637342,-2.00865,0.2151883,1.219154,0.3549092,-0.5207742,-0.1612696,52.4,41.5,-0.005251944,0.1134026,-0.137693,-0.4539347,-2.530482,-1.184872,0.3357093,1.316354,0.2635412,0.004919548,-0.01466275,0.004222579,-0.2746529,0.6413965,-0.3723158,0.4748814,1.403396,0.1732841,-0.1180525,1.159257,0.2587994,282.237,207.0266,45.41242,False
2,2.233335,0.142569,0.04592426,-0.03797805,-1.203848,-4.637424,-2.009126,0.2155796,1.219288,0.3551085,-0.5197697,0.09319352,52.4,41.5,0.01402335,0.1111676,-0.1250788,-0.4553851,-2.531469,-1.18483,0.3360107,1.316557,0.2636538,0.01436057,-0.03055511,-0.0150965,-0.2750918,0.6375557,-0.3691381,0.4752398,1.403683,0.1732023,-0.1179777,1.15918,0.2590932,281.9933,207.1681,45.16683,False
2,2.244446,0.1266242,0.0362769,-0.03686569,-1.203855,-4.637877,-2.009888,0.2159334,1.219403,0.3552403,-0.5189766,0.0716766,51.9,35.9,0.004379049,0.06644365,-0.1263801,-0.4552269,-2.535725,-1.180671,0.3363985,1.316747,0.2638056,0.01756013,-0.03269209,-0.01407217,-0.2750513,0.635592,-0.3674268,0.4754581,1.403865,0.1731508,-0.1178986,1.159082,0.2592731,281.506,207.232,45.08785,False
2,2.255557,0.1117296,0.03086661,-0.04216259,-1.203704,-4.638564,-2.010334,0.2165004,1.219741,0.3554931,-0.5188019,0.01559512,51.9,35.9,-0.003978252,0.03326887,-0.1020467,-0.454657,-2.537639,-1.178526,0.336857,1.317031,0.2638683,0.03672493,-0.03903114,-0.02281603,-0.275716,0.6320838,-0.365913,0.4759291,1.404242,0.1734025,-0.1177171,1.159055,0.2594334,281.3457,206.6122,45.62883,False
2,2.266668,0.09472455,0.02122444,-0.03998106,-1.203494,-4.638899,-2.01069,0.2169496,1.220078,0.3557518,-0.519457,-0.05978569,51.9,35.9,0.01778254,0.06271577,-0.04875553,-0.455759,-2.533328,-1.183318,0.3373884,1.317442,0.2640123,0.04841789,-0.03261883,-0.02502255,-0.2759994,0.6311781,-0.3659729,0.4762869,1.404553,0.1733658,-0.1175674,1.159101,0.259503,281.2704,205.9968,46.21407,False
2,2.277779,0.05964802,0.001915254,-0.03988154,-1.202744,-4.639071,-2.010106,0.2174644,1.22065,0.3560858,-0.5195124,-0.004372908,51.9,35.9,0.04139601,0.05508062,-0.02556615,-0.456061,-2.532377,-1.185322,0.3379341,1.317842,0.2642426,0.06234175,-0.04542455,-0.02095028,-0.275936,0.6269025,-0.3633651,0.476798,1.405063,0.1732442,-0.1174363,1.159181,0.2595471,281.2259,205.4203,46.7703,False
2,2.28889,0.05014113,-0.01835973,-0.03871264,-1.201756,-4.639002,-2.010427,0.2179721,1.221145,0.3563657,-0.519481,0.002952102,51.5,29.9,0.04551674,0.02747171,-0.03963315,-0.4558,-2.534888,-1.183694,0.338443,1.318241,0.2644069,0.06974024,-0.06136265,-0.02960018,-0.276075,0.6219963,-0.3596554,0.477277,1.405471,0.1732221,-0.1173126,1.15931,0.2596231,281.1758,204.9089,47.24332,False
2,2.300001,0.03957931,-0.04079019,-0.04179697,-1.200395,-4.639025,-2.010581,0.2185535,1.221742,0.3566074,-0.5186921,0.07227139,51.5,29.9,0.04994512,0.02732357,-0.01836452,-0.4558629,-2.533817,-1.185235,0.3389668,1.31886,0.2646401,0.06422433,-0.05809063,-0.05299943,-0.2774348,0.6175238,-0.3560923,0.4778412,1.405949,0.1732552,-0.1172147,1.159463,0.2597259,281.117,204.5574,47.54505,False
2,2.311112,0.03538233,-0.05789299,-0.05023452,-1.198913,-4.639294,-2.010707,0.21912,1.222487,0.3569913,-0.5196525,-0.08825161,51.5,29.9,0.0588516,0.03445895,0.02848722,-0.4557808,-2.529241,-1.190325,0.3395291,1.319493,0.2647963,0.058783,-0.06230238,-0.06681808,-0.2782588,0.6132661,-0.3524555,0.4784352,1.40642,0.1733372,-0.1171555,1.159686,0.2598138,281.093,204.3616,47.69335,False
2,2.322223,0.02370888,-0.06970834,-0.06189421,-1.197538,-4.639851,-2.010432,0.2198201,1.223352,0.3573108,-0.5198299,-0.01527957,51.5,29.9,0.04284889,-0.003892846,0.03155564,-0.4545004,-2.529405,-1.189961,0.3400693,1.320184,0.2651041,0.0480045,-0.06228244,-0.07738309,-0.2790876,0.6087759,-0.3478544,0.479098,1.406819,0.1733441,-0.1170548,1.159894,0.2598584,281.0933,203.8738,48.1394,False
2,2.333334,0.006694525,-0.07835931,-0.0746318,-1.195977,-4.640536,-2.009693,0.2203116,1.224192,0.3576992,-0.5200429,-0.0193245,51.5,29.9,0.04596091,-0.01022368,0.02190017,-0.4542245,-2.529858,-1.190168,0.340596,1.320724,0.2653317,0.04152858,-0.04627312,-0.08579014,-0.2802689,0.6073762,-0.3468368,0.4797679,1.407208,0.1734891,-0.1169334,1.160109,0.2598807,281.117,203.2207,48.74232,False
2,2.344445,-0.01990862,-0.08704052,-0.08523806,-1.194317,-4.641197,-2.00838,0.2208842,1.225053,0.3580229,-0.5199002,0.01332744,52.1,21.4,0.05767445,-0.02835387,0.02381503,-0.4534277,-2.530015,-1.191032,0.3412529,1.321465,0.2655692,0.03278476,-0.01531266,-0.1047699,-0.2822631,0.6080381,-0.347167,0.4804508,1.407621,0.1737823,-0.1168185,1.160367,0.2599334,281.1404,202.6117,49.27201,False
2,2.355556,-0.03695774,-0.08497771,-0.08524191,-1.193151,-4.641657,-2.007328,0.2212986,1.225929,0.3583913,-0.5196078,0.02667433,52.1,21.4,0.07272258,-0.04874091,0.04273789,-0.45185,-2.528579,-1.19371,0.3418804,1.322098,0.2658856,0.02208782,-0.01636789,-0.110009,-0.2834701,0.6054473,-0.3445736,0.4811422,1.408056,0.1740186,-0.1167503,1.160672,0.2600228,281.154,202.2917,49.50109,False
2,2.366668,-0.05293525,-0.08500785,-0.07991006,-1.192101,-4.641919,-2.006145,0.2216372,1.226926,0.3587835,-0.5191726,0.03973936,52.1,21.4,0.06528157,-0.08926498,0.04998469,-0.4493914,-2.528955,-1.193809,0.3424844,1.322834,0.2661781,0.01238766,-0.02486274,-0.1195307,-0.2845705,0.6016158,-0.3401666,0.4819043,1.40827,0.1741827,-0.1167577,1.160993,0.260135,281.173,202.3537,49.32479,False
2,2.377779,-0.06037923,-0.08821686,-0.07669678,-1.190791,-4.642134,-2.005132,0.2220727,1.227852,0.3590965,-0.5195156,-0.03155735,52.1,21.4,0.04841916,-0.0947293,0.07351574,-0.4477519,-2.526903,-1.195656,0.3430949,1.323663,0.2664671,0.005900964,-0.02269742,-0.1301203,-0.286244,0.5989196,-0.3374363,0.4826724,1.408739,0.1744421,-0.1168082,1.16134,0.2602269,281.2159,202.6165,48.96429,False
2,2.38889,-0.06892972,-0.08078764,-0.07566796,-1.189839,-4.642675,-2.00392,0.2225308,1.228763,0.3593206,-0.5195507,-0.00276922,52.3,20.9,0.03797291,-0.07782989,0.09714976,-0.4467751,-2.523117,-1.19915,0.3436964,1.324324,0.2666862,-0.003775641,-0.03759388,-0.1375366,-0.2873988,0.5940818,-0.3319047,0.4834886,1.409126,0.174593,-0.116892,1.161698,0.2602824,281.298,202.9734,48.51375,False
2,2.400001,-0.07857993,-0.06483731,-0.07467873,-1.18939,-4.643408,-2.002443,0.2230677,1.229671,0.3596613,-0.5198741,-0.02944484,52.3,20.9,0.008153342,-0.06500827,0.09641463,-0.4461194,-2.521082,-1.200107,0.3443836,1.325045,0.2669754,-0.006933466,-0.04930357,-0.1354306,-0.2885476,0.5900652,-0.3280199,0.4844179,1.409729,0.1750195,-0.1169022,1.16207,0.2604135,281.6377,202.978,48.41132,False
2,2.411112,-0.08287844,-0.05527154,-0.07579011,-1.188742,-4.644146,-2.001096,0.2236235,1.230563,0.3599875,-0.5199795,-0.00931167,52.3,20.9,0.008151621,-0.05860955,0.09539176,-0.4453567,-2.519253,-1.201801,0.3450564,1.325711,0.2672756,-0.009184822,-0.03540549,-0.1470839,-0.2905967,0.5877588,-0.325532,0.485321,1.410058,0.1754792,-0.1168251,1.162405,0.2605753,281.994,202.9244,48.40973,False
2,2.422223,-0.09144837,-0.0425147,-0.0747859,-1.18834,-4.644916,-1.999553,0.2242186,1.231419,0.36044,-0.5199273,0.004974992,52.3,20.9,0.01453991,-0.07567345,0.09736443,-0.4435633,-2.517768,-1.203507,0.3457312,1.326405,0.2675636,-0.00607425,-0.02683721,-0.1566685,-0.2926191,0.585568,-0.3235536,0.4862372,1.410543,0.1759028,-0.1166178,1.162706,0.2608329,282.49,202.9614,48.21112,False
2,2.433334,-0.09367393,-0.01802161,-0.07490568,-1.188544,-4.646009,-1.998013,0.2248134,1.232217,0.3607943,-0.520175,-0.02266919,52.3,20.9,0.01443599,-0.09691618,0.08762913,-0.4416789,-2.517963,-1.203471,0.346448,1.327029,0.2679021,-0.002888277,-0.02469879,-0.1577509,-0.2942521,0.5829402,-0.3211533,0.4870583,1.411063,0.1762056,-0.1162671,1.163004,0.2611947,282.9582,203.0933,47.98007,False
2,2.444445,-0.0926764,0.0001088055,-0.07180199,-1.18875,-4.64699,-1.996692,0.2254257,1.233026,0.3610411,-0.5201335,0.004121485,56.2,20.4,0.01656893,-0.08625989,0.08662103,-0.44075,-2.516388,-1.205137,0.3471635,1.327727,0.2681572,-0.007139847,-0.02041056,-0.1609184,-0.296405,0.5807332,-0.3193136,0.4879242,1.411667,0.1770492,-0.1157639,1.163316,0.2616615,283.3288,203.4989,47.54109,False
2,2.455556,-0.09705161,0.02995707,-0.06449167,-1.189796,-4.648048,-1.995048,0.2261497,1.233697,0.3613908,-0.5203487,-0.01964798,56.2,20.4,0.01664391,-0.05753475,0.0921372,-0.440636,-2.513423,-1.208025,0.3478885,1.328341,0.2684715,-0.007099316,-0.01617072,-0.1555751,-0.2979182,0.5788646,-0.3174192,0.4888411,1.412095,0.1774514,-0.1148821,1.163602,0.2622301,283.668,206.2647,44.67494,False
2,2.466667,-0.1003851,0.06730074,-0.04975811,-1.191539,-4.648989,-1.993521,0.2266911,1.234287,0.3617194,-0.5206288,-0.025424,56.2,20.4,0.02300254,-0.05964592,0.08781312,-0.4396309,-2.51213,-1.209708,0.3486642,1.329063,0.2689412,-0.009228468,-0.01725028,-0.1555528,-0.2993303,0.5759546,-0.3145103,0.4897334,1.412528,0.1775639,-0.114273,1.163851,0.2628408,283.7612,206.1666,44.85124,False
2,2.477778,-0.0983036,0.07905972,-0.04342739,-1.192527,-4.649849,-1.992101,0.2273435,1.234953,0.3620739,-0.5204259,0.01883863,56.2,20.4,0.01221681,-0.07444739,0.07289401,-0.4382583,-2.512331,-1.209354,0.3493892,1.329666,0.2693334,-0.02193286,-0.02792967,-0.1523092,-0.3009095,0.5719181,-0.3105046,0.4906862,1.412874,0.1781039,-0.1131925,1.164124,0.2634277,284.1286,210.5745,40.34166,False
2,2.488889,-0.09614611,0.07161669,-0.04233085,-1.192771,-4.650608,-1.990815,0.2280471,1.235725,0.3625202,-0.5205335,-0.009984812,56.2,20.4,0.01765702,-0.07241387,0.08671322,-0.4370689,-2.5099,-1.21189,0.3501046,1.330271,0.2696936,-0.02077129,-0.03223227,-0.141683,-0.3019705,0.5690859,-0.3075988,0.4915878,1.413244,0.1785183,-0.1125719,1.16431,0.2639591,284.009,210.0914,41.01892,False
2,2.5,-0.09186886,0.06847159,-0.03485767,-1.193253,-4.651009,-1.989789,0.228587,1.236382,0.3628163,-0.5206805,-0.01327627,67.1,23.3,0.02400588,-0.07665567,0.08237597,-0.4358498,-2.508795,-1.213345,0.350882,1.330882,0.2701106,-0.02180272,-0.03010944,-0.1395306,-0.3033005,0.5669687,-0.3055868,0.4925201,1.413544,0.1787465,-0.1117916,1.16458,0.2644546,284.4001,212.9007,38.08883,False
2,2.511111,-0.08647133,0.05040343,-0.03050889,-1.193204,-4.651227,-1.988895,0.2291832,1.237005,0.3631184,-0.5208312,-0.01365208,67.1,23.3,0.0193284,-0.1040319,0.03429196,-0.4342982,-2.513371,-1.209248,0.3515762,1.331348,0.2704742,-0.02603057,-0.03545331,-0.1363195,-0.3044989,0.5636913,-0.302032,0.493412,1.413911,0.1791012,-0.1112761,1.164792,0.2648943,284.4286,212.4971,38.60085,False
2,2.522222,-0.07364527,0.03976927,-0.03578604,-1.192997,-4.651828,-1.988281,0.2297946,1.237688,0.3633928,-0.5209958,-0.01492306,67.1,23.3,-0.004033133,-0.1008615,0.04301869,-0.4332143,-2.512612,-1.209154,0.3522807,1.331977,0.2706852,-0.02702816,-0.03440301,-0.1309743,-0.3056036,0.5617196,-0.3001678,0.4943585,1.41422,0.1793883,-0.1104304,1.16506,0.2653224,284.9181,215.0859,35.8144,False
2,2.533333,-0.06503285,0.0163505,-0.03886884,-1.192232,-4.6521,-1.987728,0.2303748,1.23832,0.3636761,-0.52108,-0.007583851,67.1,23.3,-0.02090697,-0.07859242,0.06141251,-0.4326433,-2.509757,-1.210924,0.3529754,1.332454,0.2709258,-0.02590533,-0.02803992,-0.1235011,-0.3066151,0.5603155,-0.2985755,0.4952203,1.414532,0.1797674,-0.1098996,1.165238,0.2657063,284.9037,214.5008,36.5267,False
2,2.544444,-0.06281351,-0.006027448,-0.04195645,-1.191344,-4.652365,-1.986979,0.2309187,1.239003,0.3639944,-0.521489,-0.03738096,67.3,23.3,-0.03146427,-0.0370795,0.06817016,-0.4331924,-2.506286,-1.21332,0.3536285,1.332856,0.2712698,-0.03119853,-0.02805682,-0.1213398,-0.3079562,0.5576374,-0.2956969,0.4960247,1.414982,0.1803043,-0.1091163,1.165453,0.2660629,285.3548,216.4022,34.48854,False
2,2.555555,-0.06062034,-0.02198265,-0.03868264,-1.190496,-4.652338,-1.986384,0.2314657,1.239609,0.3643076,-0.5214272,0.005931251,67.3,23.3,-0.02503607,-0.03391496,0.07239806,-0.4326214,-2.50454,-1.214856,0.3543483,1.333277,0.2715843,-0.04074511,-0.01636679,-0.115876,-0.3089863,0.5573726,-0.2947446,0.4969013,1.415212,0.1807404,-0.1085799,1.165604,0.2664104,285.3589,215.7059,35.28402,False
2,2.566666,-0.05844758,-0.03366606,-0.0343627,-1.189854,-4.652238,-1.98578,0.2320642,1.240112,0.3646543,-0.5211716,0.02323802,67.3,23.3,-0.03247101,-0.04245885,0.07666525,-0.4315045,-2.502918,-1.215726,0.355097,1.333746,0.27198,-0.04387484,-0.01112053,-0.1030367,-0.3095259,0.5558825,-0.2922218,0.4976729,1.415697,0.1806996,-0.1078335,1.165788,0.2667704,285.7711,217.2109,33.62423,False
2,2.577777,-0.0520358,-0.03782794,-0.01942715,-1.189529,-4.651723,-1.985613,0.2326059,1.240454,0.3649533,-0.5211598,0.0008673674,67.3,23.3,-0.04433689,-0.05405731,0.05964047,-0.4304446,-2.503536,-1.214294,0.3556647,1.334112,0.2723851,-0.04382873,-0.01859337,-0.09880521,-0.3103142,0.5535346,-0.2895458,0.4985768,1.4159,0.181102,-0.1073408,1.165936,0.2671374,285.78,216.6561,34.24255,False
2,2.588888,-0.04565896,-0.03350545,-0.01199259,-1.189359,-4.651515,-1.985398,0.2330417,1.240771,0.365232,-0.5211071,0.00481953,67.3,23.3,-0.04235425,-0.06140623,0.04253032,-0.4296222,-2.504532,-1.212985,0.3561695,1.334392,0.272824,-0.03847265,-0.02820262,-0.09140964,-0.3105565,0.5512437,-0.2865359,0.4992905,1.415955,0.1812711,-0.1066027,1.166103,0.2675028,286.1884,218.1899,32.58221,False
2,2.599999,-0.04142069,-0.0270504,-0.003502096,-1.189454,-4.651301,-1.98516,0.2335266,1.241013,0.3654804,-0.5213606,-0.02325744,71,23.7,-0.04897132,-0.08574028,0.01792176,-0.4282075,-2.507186,-1.209845,0.3567052,1.334648,0.2731481,-0.04284665,-0.01112024,-0.0987298,-0.3116037,0.5524105,-0.2866326,0.4999304,1.415878,0.1818335,-0.1060682,1.166203,0.2678468,286.1318,217.5277,33.34885,False
2,2.61111,-0.03182391,-0.02912288,0.0007672319,-1.189182,-4.650976,-1.985266,0.2338955,1.241239,0.365669,-0.5214166,-0.004905481,71,23.7,-0.06929953,-0.08777946,0.007418681,-0.4273074,-2.508862,-1.20686,0.357115,1.334796,0.2733202,-0.04816107,0.02187666,-0.09322503,-0.3127856,0.5556584,-0.2890252,0.5004934,1.416027,0.1822124,-0.1053578,1.166291,0.2681706,286.4756,218.4386,32.41646,False
2,2.622221,-0.02861903,-0.03336682,0.001852537,-1.188688,-4.650725,-1.985037,0.2343219,1.2415,0.365886,-0.5213484,0.006225122,71,23.7,-0.07867174,-0.03889313,0.02699572,-0.4281047,-2.505305,-1.209022,0.3575441,1.334977,0.2735012,-0.04918195,0.03675191,-0.08035001,-0.3132325,0.55878,-0.2907192,0.5011556,1.41634,0.1827366,-0.1048861,1.166342,0.268468,286.3594,217.9025,33.12357,False
2,2.633332,-0.03178988,-0.03976564,0.002949942,-1.188111,-4.650381,-1.98473,0.2346078,1.241615,0.3660367,-0.5215886,-0.02204638,71,23.7,-0.0764498,-0.01231791,0.03461424,-0.4284898,-2.503119,-1.21028,0.3579201,1.335001,0.2737231,-0.05652207,0.03776041,-0.06749298,-0.3136096,0.5599805,-0.2910968,0.501625,1.416436,0.1830935,-0.1044722,1.166412,0.2687719,286.5818,217.7965,33.20338,False
2,2.644443,-0.03285056,-0.04079697,0.01041122,-1.187852,-4.64983,-1.984494,0.2348872,1.241697,0.3661444,-0.5212557,0.03057033,72.2,26.6,-0.08083645,-0.02180994,0.02073557,-0.4279838,-2.504353,-1.208083,0.3583418,1.335039,0.2740896,-0.06175997,0.03557594,-0.05357584,-0.3134509,0.5614399,-0.291182,0.5022337,1.416272,0.1836138,-0.1041058,1.166457,0.2690628,286.6358,217.5578,33.55317,False
2,2.655554,-0.03713254,-0.03433291,0.02849069,-1.188102,-4.648824,-1.984318,0.2351695,1.2417,0.3662424,-0.5210651,0.0171288,72.2,26.6,-0.08938886,-0.03029776,0.01754823,-0.4274586,-2.504805,-1.206491,0.3587454,1.335231,0.2744365,-0.05741482,0.02917304,-0.04618353,-0.3138466,0.5620505,-0.2914763,0.5027046,1.416727,0.1844635,-0.1037736,1.166507,0.2693602,286.7964,217.3589,33.77036,False
2,2.666665,-0.02867833,-0.01503535,0.04649787,-1.188962,-4.648073,-1.984597,0.2352859,1.241687,0.3663096,-0.5210277,0.003283322,72.2,26.6,-0.08626206,-0.05370217,0.01204232,-0.4262027,-2.506099,-1.204442,0.3590126,1.335313,0.2747138,-0.05313066,0.02490803,-0.04410736,-0.3143031,0.5620961,-0.2910745,0.5030857,1.416821,0.1848745,-0.1034682,1.166536,0.2696384,286.8893,217.3125,33.93627,False
2,2.677776,-0.0180603,-0.005376421,0.05284114,-1.189487,-4.647392,-1.985022,0.235454,1.241663,0.3663816,-0.5209143,0.01035108,72.2,26.6,-0.1152514,-0.07694068,-0.01238006,-0.4250831,-2.509524,-1.199067,0.3591005,1.335359,0.2748787,-0.05629753,0.02595776,-0.04088103,-0.3147888,0.562831,-0.2910579,0.5034465,1.416948,0.1852767,-0.103177,1.166552,0.2698852,286.9892,217.2586,34.12154,False
2,2.688887,-0.001020879,-0.002092902,0.05814875,-1.189782,-4.646567,-1.985959,0.2353654,1.241631,0.3664539,-0.5214432,-0.04846612,72.2,26.6,-0.1195435,-0.04918963,-0.01962076,-0.4255763,-2.510293,-1.196856,0.3590929,1.335462,0.2749505,-0.0604592,0.03445896,-0.03229851,-0.315257,0.5655081,-0.2933041,0.5035508,1.417104,0.1860771,-0.1029017,1.166559,0.2700708,287.0802,217.1854,34.38251,False
2,2.699998,0.006451668,-0.007359177,0.06456321,-1.189906,-4.64556,-1.986545,0.2353605,1.24155,0.3664553,-0.5216329,-0.01691678,72,28.3,-0.1109795,-0.01511623,-0.01945978,-0.4264562,-2.509572,-1.196673,0.3592132,1.33551,0.2749927,-0.05817303,0.04718851,-0.01844615,-0.3157113,0.5681607,-0.2958841,0.5038138,1.417323,0.1866157,-0.1026689,1.166552,0.2702144,287.1597,217.1052,34.65696,False
2,2.711109,0.0107736,-0.02222253,0.0720932,-1.189652,-4.64419,-1.987342,0.2352312,1.241458,0.3663821,-0.5220206,-0.03543516,72,28.3,-0.1311939,0.02326912,-0.02117526,-0.4280254,-2.508804,-1.195241,0.3591522,1.335453,0.2749424,-0.05499459,0.04613538,-0.02060867,-0.3161556,0.5695168,-0.2966618,0.5039381,1.417464,0.1869903,-0.102483,1.166526,0.2703485,287.2187,217.0215,34.89655,False
2,2.72222,0.01080509,-0.02966117,0.07638694,-1.189479,-4.643017,-1.987891,0.2352732,1.241433,0.366262,-0.521546,0.04361753,72,28.3,-0.1416629,0.05938199,-0.002745624,-0.4294496,-2.50607,-1.195697,0.3591954,1.335537,0.2751138,-0.05067411,0.04503594,-0.01747527,-0.3165455,0.5692171,-0.2963608,0.5039167,1.417907,0.1869478,-0.1023801,1.166469,0.2704839,287.1936,217.0587,35.02523,False
2,2.733331,0.01298346,-0.04131864,0.0870968,-1.189244,-4.641325,-1.988735,0.2351346,1.241368,0.3661232,-0.5214832,0.005296744,72,28.3,-0.1470152,0.02848782,-0.001839625,-0.4287572,-2.506652,-1.193345,0.3592096,1.335556,0.2752254,-0.05280222,0.05142102,-0.01636579,-0.3169247,0.5714704,-0.2978325,0.5040565,1.417994,0.1873174,-0.1023075,1.166394,0.2706082,287.2029,217.0782,35.11242,False
2,2.744442,0.01194255,-0.04660767,0.09564596,-1.189181,-4.639735,-1.989453,0.2349528,1.241224,0.3659823,-0.5212509,0.02116468,70.5,30.7,-0.1643307,-0.01285584,-0.029673,-0.4276504,-2.511374,-1.186629,0.3591366,1.335451,0.2754121,-0.05701723,0.05136644,-0.00888526,-0.317044,0.5724622,-0.2976913,0.504043,1.417944,0.1869164,-0.1022251,1.166314,0.2706582,287.2424,216.9697,35.35106,False
2,2.755553,0.01195909,-0.05086877,0.09566689,-1.188959,-4.63837,-1.990097,0.2348147,1.241117,0.3658769,-0.5212882,-0.003584734,70.5,30.7,-0.1654758,-0.02878323,-0.03722417,-0.4271945,-2.513562,-1.182736,0.3589481,1.33542,0.2754648,-0.05382062,0.03646619,-0.01110252,-0.3172267,0.5720289,-0.2968692,0.5042636,1.417816,0.187103,-0.1021644,1.16626,0.2705636,287.2357,216.7939,35.64314,False
2,2.766664,0.02160535,-0.06577282,0.09041095,-1.188165,-4.637066,-1.991176,0.2345975,1.240963,0.3657393,-0.5211748,0.01037903,70.5,30.7,-0.176193,-0.03938146,-0.04360122,-0.4267705,-2.515798,-1.17837,0.3587894,1.335356,0.2755337,-0.05595455,0.03965025,-0.006786211,-0.3170664,0.5745329,-0.2980424,0.5041893,1.417587,0.1872063,-0.1021149,1.166198,0.2703592,287.3227,216.4065,36.12604,False
2,2.777775,0.03339383,-0.08386678,0.08410336,-1.187114,-4.635731,-1.992464,0.2343305,1.240771,0.3656414,-0.521146,0.002533915,70.5,30.7,-0.1684636,0.01583314,-0.01667189,-0.4286006,-2.512069,-1.180153,0.3584082,1.335207,0.2754397,-0.06120418,0.04493762,0.002870244,-0.3169375,0.5772731,-0.2997683,0.5041078,1.417737,0.1876326,-0.1020677,1.166117,0.2701053,287.4554,215.9097,36.70113,False
2,2.788886,0.04512807,-0.08809286,0.08199096,-1.18643,-4.634395,-1.993879,0.2340216,1.240556,0.3655598,-0.5215705,-0.03884629,70.5,30.7,-0.1578251,0.03395927,-0.02090055,-0.4296451,-2.512003,-1.178818,0.3581187,1.335104,0.2754202,-0.06534957,0.0491383,0.01677263,-0.3165055,0.5799941,-0.3014832,0.5039141,1.417772,0.1877329,-0.1020186,1.166034,0.2698696,287.5864,215.4123,37.25232,False
2,2.799997,0.05046457,-0.09018484,0.08519702,-1.18598,-4.632915,-1.995143,0.2337487,1.240343,0.3654394,-0.5217505,-0.01618692,67.9,33.2,-0.1441277,0.04792942,-0.04116151,-0.4310102,-2.513752,-1.176075,0.3578017,1.33496,0.2754374,-0.06211657,0.04699385,0.02100967,-0.3161321,0.581783,-0.3026187,0.5037286,1.417564,0.1877851,-0.1019668,1.165919,0.269691,287.6795,214.9783,37.70952,False
2,2.811108,0.05896186,-0.08376536,0.08409834,-1.18572,-4.631722,-1.996525,0.233414,1.24008,0.3653033,-0.5218022,-0.004688345,67.9,33.2,-0.1356593,0.03090373,-0.04560284,-0.4310827,-2.515532,-1.173254,0.3574137,1.334868,0.2753305,-0.05889788,0.04271523,0.0252201,-0.3159148,0.5828839,-0.3028624,0.5035528,1.417444,0.1880751,-0.101916,1.165771,0.2695864,287.7156,214.6694,38.02714,False
2,2.822219,0.06640591,-0.08159521,0.08621112,-1.185366,-4.63043,-1.997915,0.2330951,1.239846,0.3651271,-0.5215119,0.02650816,67.9,33.2,-0.1398529,0.02978352,-0.03599792,-0.4313783,-2.515558,-1.171385,0.3570001,1.334715,0.275275,-0.05455094,0.05225835,0.03696294,-0.3151138,0.586828,-0.306091,0.5031685,1.417528,0.1882417,-0.1018712,1.165608,0.2695399,287.6963,214.5152,38.21116,False
2,2.83333,0.0780777,-0.07093949,0.07763352,-1.185229,-4.629711,-1.999385,0.2326524,1.239563,0.3649144,-0.521628,-0.01089773,67.9,33.2,-0.1538149,0.05121553,-0.05279041,-0.4330673,-2.516849,-1.168013,0.3565071,1.334499,0.2751238,-0.05232559,0.0500871,0.0475883,-0.3143893,0.5892152,-0.3078662,0.5027467,1.417521,0.1882708,-0.1018406,1.165451,0.2694983,287.6653,214.4557,38.33345,False
2,2.844441,0.08232249,-0.06667338,0.07547565,-1.184929,-4.628738,-2.00078,0.2322479,1.239331,0.3646965,-0.5215423,0.00788906,67.9,33.2,-0.1346762,0.06401277,-0.05818927,-0.4345118,-2.517768,-1.166219,0.356099,1.334332,0.2750819,-0.05127413,0.05222616,0.04866071,-0.3140208,0.5922765,-0.3099131,0.5022421,1.417649,0.1884024,-0.1018225,1.165292,0.2694358,287.6544,214.3936,38.45869,False
2,2.855552,0.08337175,-0.06240453,0.07652131,-1.184774,-4.627581,-2.002152,0.2317511,1.239076,0.3645134,-0.5217505,-0.01918987,65.6,38.5,-0.1185847,0.0564279,-0.04238818,-0.4347035,-2.517156,-1.16592,0.3556127,1.334215,0.2749662,-0.04374982,0.0564607,0.05713478,-0.3134077,0.5955732,-0.3127808,0.5016956,1.417627,0.1883388,-0.101823,1.165132,0.2693446,287.6773,214.3195,38.58736,False
2,2.866663,0.08337054,-0.06135026,0.07331748,-1.184521,-4.626651,-2.003469,0.2311987,1.238719,0.364289,-0.5215237,0.02085953,65.6,38.5,-0.111351,0.02674694,-0.06607839,-0.4346923,-2.521013,-1.161422,0.3550166,1.334044,0.2748227,-0.04268074,0.05007275,0.05817772,-0.3127318,0.5977809,-0.314274,0.5011732,1.417355,0.1883733,-0.1018493,1.164962,0.2692579,287.7143,214.2944,38.64425,False
2,2.877774,0.08761849,-0.05925068,0.06371801,-1.184124,-4.626049,-2.004762,0.2306633,1.238418,0.3640697,-0.5213372,0.01681054,65.6,38.5,-0.08593304,0.02790317,-0.08438553,-0.4356761,-2.52406,-1.158439,0.3542634,1.333962,0.2745571,-0.04052933,0.04049394,0.06026697,-0.3119478,0.5997335,-0.315669,0.5005447,1.417088,0.1880188,-0.1018867,1.164794,0.2691825,287.748,214.3199,38.65058,False
2,2.888885,0.09077989,-0.05074455,0.05834522,-1.184028,-4.625534,-2.006048,0.2301021,1.238102,0.3638191,-0.5213031,0.002965576,65.6,38.5,-0.07842328,0.02891854,-0.07804752,-0.436254,-2.525132,-1.15685,0.3536094,1.3338,0.2743139,-0.04158077,0.0362273,0.06132421,-0.3113597,0.6012648,-0.3166291,0.4998394,1.416974,0.1878591,-0.1019466,1.164615,0.2691054,287.7879,214.4081,38.59566,False
2,2.899997,0.09391958,-0.03584835,0.05187586,-1.184233,-4.625234,-2.00738,0.2293214,1.237598,0.3635476,-0.521359,-0.005157065,65.4,40.8,-0.08584165,0.0544842,-0.0767505,-0.4378668,-2.525128,-1.155576,0.3527565,1.333476,0.2741356,-0.04255565,0.03938841,0.07309577,-0.3100415,0.6053924,-0.3199349,0.4990744,1.417011,0.187757,-0.1020185,1.164417,0.2690299,287.8318,214.5222,38.5068,False
2,2.911108,0.09067016,-0.02201795,0.05074381,-1.184629,-4.624792,-2.008457,0.2286989,1.237189,0.3633103,-0.521349,0.0009408461,65.4,40.8,-0.06566475,0.06730822,-0.08641819,-0.4395318,-2.526719,-1.154085,0.3519503,1.333256,0.2738745,-0.03820744,0.04467637,0.08373276,-0.3090258,0.6088088,-0.3228894,0.4982544,1.416912,0.1875839,-0.1020994,1.164226,0.2689756,287.8707,214.6765,38.36253,False
2,2.922219,0.09163512,0.002455506,0.04423124,-1.185508,-4.62488,-2.009435,0.228125,1.236843,0.3630645,-0.5214283,-0.007283079,65.4,40.8,-0.07739404,0.04387601,-0.08541746,-0.4395585,-2.529295,-1.150548,0.3513921,1.333061,0.2736881,-0.03925976,0.04252099,0.08800344,-0.3079578,0.6109903,-0.3241083,0.4973361,1.417167,0.1874223,-0.102217,1.164024,0.2689466,287.902,214.9732,38.07136,False
2,2.93333,0.08622996,0.02267991,0.04519871,-1.186549,-4.62478,-2.010256,0.2274615,1.236477,0.3628311,-0.521089,0.03102832,65.4,40.8,-0.06551931,0.05866291,-0.06837104,-0.4407521,-2.528518,-1.150871,0.3506034,1.332831,0.2734132,-0.03278691,0.04461985,0.09754361,-0.3067876,0.6143018,-0.3271265,0.4964443,1.4171,0.1871762,-0.1023652,1.163789,0.2689493,287.9137,215.4144,37.6352,False
2,2.944441,0.08621399,0.0258558,0.04198422,-1.186945,-4.624595,-2.011247,0.226802,1.236228,0.3624952,-0.5211268,-0.003748227,65.4,40.8,-0.06031483,0.05022537,-0.08231789,-0.441558,-2.531207,-1.147946,0.3497897,1.332614,0.2731338,-0.024223,0.02863481,0.1006012,-0.3055402,0.6147967,-0.3275547,0.4957872,1.417001,0.1870031,-0.1025035,1.163585,0.2689686,287.9084,215.8833,37.19153,False
2,2.955552,0.08835222,0.02369125,0.03347252,-1.18714,-4.624578,-2.012324,0.225997,1.235993,0.3621964,-0.520901,0.02072165,63.2,42.3,-0.04958238,0.07360483,-0.07479575,-0.4433513,-2.531067,-1.147739,0.3489764,1.332486,0.2727015,-0.02208561,0.01372749,0.09945667,-0.3043993,0.6146903,-0.327295,0.4948578,1.41697,0.1866777,-0.1025255,1.163488,0.2686353,287.5923,215.2245,37.92179,False
2,2.966663,0.09158685,0.01411172,0.03245352,-1.187144,-4.624172,-2.013637,0.2252523,1.235745,0.3618796,-0.5210139,-0.01048494,63.2,42.3,-0.04827493,0.1043296,-0.04903713,-0.4452283,-2.528268,-1.149806,0.3481052,1.332382,0.2722919,-0.03160854,-0.001229458,0.1058799,-0.3028557,0.6145824,-0.3263651,0.4938733,1.41716,0.1864092,-0.1027948,1.163389,0.2682294,287.5015,214.9395,38.18827,False
2,2.977774,0.1002081,-0.01254506,0.0208635,-1.186133,-4.623854,-2.015143,0.2245088,1.235609,0.3616161,-0.5211748,-0.01460754,63.2,42.3,-0.05238131,0.1180682,-0.03080399,-0.4467346,-2.526129,-1.150877,0.347102,1.332289,0.2720349,-0.02516156,-0.006563626,0.1100542,-0.3016334,0.6153398,-0.3272223,0.4928403,1.417292,0.1865427,-0.1032011,1.163275,0.2678049,287.4476,214.9683,38.13712,False
2,2.988885,0.1024868,-0.05197939,0.01359762,-1.184513,-4.623163,-2.016566,0.2236773,1.235383,0.3614483,-0.5212632,-0.007948946,63.2,42.3,-0.05891944,0.1181934,-0.04886127,-0.44843,-2.527206,-1.149038,0.3461924,1.332105,0.2716763,-0.02625566,-0.01400454,0.1057721,-0.3005068,0.6150932,-0.3266596,0.4918642,1.417297,0.1862411,-0.1037025,1.163152,0.2674091,287.367,215.2514,37.80735,False
2,2.999996,0.09832292,-0.07762881,-0.0001152419,-1.182925,-4.622721,-2.017684,0.222792,1.23526,0.3612986,-0.5214602,-0.01803963,62.4,41.3,-0.04722962,0.1352624,-0.05417596,-0.4506441,-2.527134,-1.148894,0.3452891,1.331985,0.2713943,-0.02729438,-0.01826499,0.1078997,-0.2991848,0.6160254,-0.3272452,0.4909018,1.417129,0.1860371,-0.1042034,1.163019,0.2670333,287.2387,215.5045,37.47561,False
2,3.011107,0.0899315,-0.1118026,-0.01059841,-1.18052,-4.622047,-2.018655,0.2220008,1.235201,0.3611495,-0.5212158,0.02247359,62.4,41.3,-0.01197504,0.1404737,-0.04270837,-0.4523219,-2.525621,-1.15133,0.3444584,1.331949,0.2711616,-0.01337289,-0.01721844,0.1163053,-0.2976285,0.6172341,-0.3287616,0.4899563,1.417087,0.1857793,-0.1046824,1.162872,0.2666651,287.0891,215.5886,37.24646,False
2,3.022218,0.0835684,-0.1192896,-0.01162548,-1.179033,-4.621474,-2.019544,0.2212897,1.235108,0.3610253,-0.5209479,0.02425293,62.4,41.3,0.01137779,0.09999549,-0.04742654,-0.4523448,-2.527284,-1.150623,0.3436688,1.331723,0.27104,-0.01229542,-0.01721355,0.1163003,-0.2963427,0.6183029,-0.3298493,0.4891099,1.417015,0.1855159,-0.1051747,1.162712,0.2662963,286.9283,215.6133,37.02371,False
2,3.033329,0.07815634,-0.09798992,-0.009598389,-1.178881,-4.621367,-2.020214,0.2206546,1.234895,0.3608756,-0.5206901,0.02341052,62.4,41.3,0.009156406,0.05848694,-0.05300643,-0.4519858,-2.529621,-1.148558,0.3428494,1.331604,0.2708085,0.004760154,-0.02998193,0.1160965,-0.2949467,0.6169684,-0.329179,0.4882668,1.416857,0.1851468,-0.1057112,1.162582,0.2659126,286.7768,215.676,36.73032,False
2,3.04444,0.08025371,-0.08840823,-0.01177531,-1.178181,-4.621221,-2.021312,0.2199175,1.234683,0.3606248,-0.5206512,0.003409949,62.4,41.3,-0.006902575,0.06283635,-0.0634978,-0.4532343,-2.530845,-1.146744,0.3421277,1.331428,0.2705081,0.00155782,-0.04277597,0.1160806,-0.2932886,0.6151472,-0.3270261,0.4873422,1.416811,0.1847839,-0.1062544,1.162487,0.2654798,286.649,215.6403,36.52313,False
2,3.055551,0.07590434,-0.06610006,-0.02147224,-1.177943,-4.621822,-2.021795,0.2192018,1.234559,0.3605173,-0.5206496,0.0001481213,60.3,39.7,-0.002391346,0.1106142,-0.0387198,-0.455841,-2.527227,-1.150102,0.3412617,1.331373,0.2702022,-0.005858667,-0.02577435,0.1236825,-0.2916774,0.6179042,-0.3292647,0.4863275,1.416695,0.1843438,-0.1067899,1.162409,0.2650003,286.5241,215.5373,36.40674,False
2,3.066662,0.0609896,-0.06615984,-0.02147078,-1.177102,-4.621677,-2.022069,0.2184824,1.23442,0.3604319,-0.5210912,-0.04035714,60.3,39.7,0.01577962,0.1244129,-0.03345008,-0.4576126,-2.525862,-1.152156,0.3404772,1.331194,0.2700012,-0.005862191,-0.02257849,0.1236955,-0.2903256,0.6189758,-0.3302211,0.485443,1.416626,0.1840253,-0.1073316,1.16232,0.264494,286.381,215.4774,36.28695,False
2,3.077773,0.03969461,-0.06730896,-0.02146579,-1.176228,-4.621608,-2.021975,0.2177924,1.234366,0.3602707,-0.5208243,0.02473927,60.3,39.7,0.01467642,0.09246382,-0.03471623,-0.4577995,-2.526899,-1.151438,0.3397417,1.330998,0.2697654,-0.00270997,-0.03212874,0.11617,-0.2891564,0.6179931,-0.3295198,0.4846564,1.416527,0.1836998,-0.1078918,1.162215,0.2639798,286.2304,215.4513,36.12409,False
2,3.088884,0.04404059,-0.08969992,-0.02881397,-1.174443,-4.621364,-2.022609,0.2170649,1.234371,0.3601506,-0.5203236,0.04554973,60.3,39.7,0.006034844,0.08617198,-0.04853697,-0.4588813,-2.528301,-1.14995,0.3389534,1.330818,0.2695363,-0.002794079,-0.05020335,0.1075943,-0.2876203,0.6152149,-0.3264149,0.4837932,1.416362,0.1833131,-0.1084893,1.162135,0.2635133,286.0688,215.5452,35.77914,False
2,3.099995,0.0792574,-0.1066223,-0.03193665,-1.172687,-4.621002,-2.024879,0.2164126,1.234197,0.3600585,-0.5200104,0.02832727,55.6,39.4,-0.002463557,0.09042864,-0.04631565,-0.4601857,-2.528264,-1.149641,0.3381366,1.330671,0.2692785,-0.0123878,-0.02783832,0.1066929,-0.2867958,0.6180179,-0.3290282,0.4830154,1.416531,0.183439,-0.1091089,1.162084,0.2630445,285.9104,215.6929,35.36414,False
2,3.111106,0.06006929,-0.1034965,-0.03088154,-1.171638,-4.620827,-2.024942,0.2156966,1.234126,0.3599398,-0.5207289,-0.06585936,55.6,39.4,0.01156666,0.129719,-0.02912692,-0.4627024,-2.525082,-1.15307,0.3373803,1.330609,0.2689457,-0.01877922,-0.02677254,0.1056874,-0.2856347,0.6185207,-0.3292354,0.4822432,1.416461,0.1832273,-0.1097502,1.16207,0.2625123,285.8007,215.7955,35.00026,False
2,3.122217,0.06648573,-0.1098534,-0.02872491,-1.170248,-4.620438,-2.025963,0.2149805,1.234025,0.3597486,-0.5224078,-0.1528866,55.6,39.4,0.009522386,0.1339128,-0.01844335,-0.4641922,-2.523593,-1.154432,0.3365428,1.330491,0.2687397,-0.01455773,-0.03098871,0.09496005,-0.2850706,0.6171212,-0.328571,0.4814754,1.416307,0.1831043,-0.110352,1.162035,0.2619306,285.7089,215.6394,34.87297,False
2,3.133328,0.06753223,-0.1055335,-0.01809641,-1.169409,-4.619824,-2.026978,0.2143957,1.233965,0.3595834,-0.5203987,0.1849039,55.6,39.4,0.0009867698,0.1147403,-0.01743411,-0.4648239,-2.52336,-1.154361,0.3358232,1.330369,0.268585,-0.007136188,-0.03095475,0.08956613,-0.2842456,0.6170165,-0.3287989,0.4807487,1.416235,0.1829402,-0.110845,1.161898,0.2613776,285.5302,215.1894,35.01454,False
2,3.144439,0.06425266,-0.08205105,-0.006488018,-1.169537,-4.619421,-2.027777,0.2138189,1.233727,0.3595512,-0.5210134,-0.05795211,55.6,39.4,-0.006467,0.09874724,-0.01428957,-0.4653331,-2.523287,-1.154005,0.335226,1.330405,0.2685511,-0.007074773,-0.02563955,0.09167618,-0.2837135,0.6171709,-0.3295388,0.4799737,1.415976,0.18331,-0.1114029,1.161799,0.2608251,285.354,215.0149,34.90565,False
2,3.15555,0.05987025,-0.05007795,-0.0002518874,-1.170162,-4.619496,-2.028273,0.213311,1.233566,0.3594308,-0.5210352,-0.001293393,52.4,36.6,-0.005538344,0.08499478,-0.02930172,-0.4660777,-2.524685,-1.15272,0.334569,1.330292,0.2684228,-0.009177275,-0.01713557,0.09599631,-0.2825273,0.619102,-0.3312227,0.4790754,1.416051,0.1831794,-0.1119578,1.161722,0.2602232,285.1962,214.7974,34.86913,False
2,3.166661,0.0577018,-0.04049349,-0.0002993923,-1.170036,-4.619498,-2.028832,0.2129085,1.233516,0.3594263,-0.5208946,0.01281691,52.4,36.6,-0.007704102,0.09568311,-0.03453564,-0.4675472,-2.524598,-1.152583,0.3341534,1.330181,0.2682855,-0.004859157,-0.02460878,0.1001693,-0.2814221,0.618201,-0.3305976,0.4783238,1.416335,0.183198,-0.1124799,1.161648,0.2595848,285.0506,214.4392,34.98649,False
2,3.177772,0.05344708,-0.0426305,0.001842123,-1.169545,-4.619154,-2.029391,0.2124278,1.233473,0.3594072,-0.5207748,0.01082303,52.4,36.6,0.002068527,0.125376,-0.01631472,-0.4695323,-2.521699,-1.155587,0.333621,1.330088,0.2681775,0.0004427135,-0.02778624,0.09691237,-0.280401,0.6178015,-0.3303963,0.4777359,1.416232,0.1830885,-0.1129816,1.161563,0.2589634,284.8818,214.0986,35.09599,False
2,3.188883,0.05029849,-0.05435514,0.001902666,-1.168703,-4.618628,-2.030068,0.2119925,1.233397,0.3594258,-0.5208206,-0.004249488,52.4,36.6,0.008538954,0.1199768,-0.005751397,-0.4705113,-2.519948,-1.157423,0.3331354,1.330113,0.2681451,0.01219459,-0.0352342,0.0989055,-0.2791925,0.6171346,-0.3303638,0.4771342,1.416095,0.1828139,-0.1134741,1.161506,0.2583765,284.7068,213.8189,35.13601,False
2,3.199994,0.04929742,-0.07141485,-0.0001436844,-1.167399,-4.617997,-2.030804,0.2116263,1.233386,0.3595281,-0.5207172,0.009523313,52.4,36.6,0.02656613,0.1082944,-0.01449878,-0.4713912,-2.52041,-1.157948,0.3325627,1.330094,0.2681296,0.02288886,-0.03736851,0.1030675,-0.2777869,0.6170693,-0.3309521,0.4764568,1.416117,0.1826515,-0.1139438,1.161479,0.2578212,284.5505,213.4755,35.19699,False
2,3.211105,0.05360617,-0.08317738,-0.0118059,-1.16589,-4.617856,-2.031681,0.2112618,1.233222,0.3595164,-0.5207833,-0.006107577,48.3,37.3,0.03892593,0.09156612,-0.06477974,-0.472791,-2.525289,-1.154462,0.3320733,1.33004,0.2680593,0.03354164,-0.04906274,0.09762567,-0.2762369,0.6148803,-0.3300914,0.4758137,1.416257,0.1819654,-0.1144068,1.16145,0.2572681,284.4141,213.1127,35.26647,False
2,3.222216,0.05576188,-0.0907173,-0.02987336,-1.164364,-4.618043,-2.032312,0.2110254,1.233198,0.3596501,-0.5208355,-0.004713392,48.3,37.3,0.04962797,0.1128357,-0.06152618,-0.4747319,-2.524454,-1.156006,0.3316688,1.33014,0.2679574,0.03884215,-0.05969271,0.09218835,-0.2753661,0.6116778,-0.3277022,0.4752386,1.416407,0.1818666,-0.1148214,1.161408,0.2567143,284.2839,212.5827,35.49373,False
2,3.233327,0.06532167,-0.08432108,-0.03629681,-1.163478,-4.618248,-2.033237,0.2106504,1.233275,0.3598683,-0.5211843,-0.03186019,48.3,37.3,0.05517195,0.1297146,-0.0369578,-0.4764102,-2.521858,-1.159127,0.3311828,1.330153,0.2678747,0.04742578,-0.05863542,0.09638989,-0.273838,0.611252,-0.3284482,0.4746931,1.416451,0.1816549,-0.1151847,1.161354,0.2561669,284.1586,211.88,35.88156,False
2,3.244438,0.06956856,-0.08111718,-0.03738448,-1.162539,-4.61834,-2.034087,0.2103445,1.233345,0.3600581,-0.5210986,0.008129409,48.3,37.3,0.05726004,0.1318829,-0.0433511,-0.4779783,-2.521911,-1.159811,0.3308733,1.33016,0.2678523,0.05598798,-0.06075596,0.09519775,-0.2731775,0.6089091,-0.3277856,0.4741302,1.416125,0.1815264,-0.1155046,1.161273,0.2556542,284.0153,211.0941,36.33977,False
2,3.255549,0.06850411,-0.08221266,-0.04270663,-1.161378,-4.618536,-2.034703,0.2101626,1.233448,0.3603077,-0.5213628,-0.02425293,44.8,35.9,0.07002842,0.1265494,-0.04455432,-0.4793147,-2.521954,-1.161016,0.3304957,1.330208,0.2678828,0.05269869,-0.05752687,0.08565097,-0.2724296,0.6076304,-0.3269166,0.4736517,1.4162,0.1813698,-0.1162844,1.161111,0.2559646,283.4971,215.2621,32.27811,False
2,3.26666,0.06637262,-0.08332466,-0.05016476,-1.160091,-4.618934,-2.035141,0.2099651,1.233525,0.3605509,-0.5212408,0.01131892,44.8,35.9,0.08716132,0.117924,-0.03196023,-0.4801354,-2.520784,-1.163572,0.330258,1.330347,0.2679622,0.06338585,-0.06709506,0.08444261,-0.2713692,0.6049676,-0.3258724,0.4732451,1.416431,0.1812596,-0.1167074,1.161032,0.2567089,283.1281,218.5293,28.89136,False
2,3.277771,0.06425872,-0.08871847,-0.06185518,-1.15857,-4.61939,-2.035566,0.2098936,1.233734,0.3608003,-0.5210043,0.02151361,44.8,35.9,0.08705102,0.08602563,-0.0417567,-0.4802846,-2.522655,-1.16288,0.3300671,1.330447,0.2681065,0.06760157,-0.07984889,0.07796559,-0.2702927,0.6011379,-0.3230087,0.4729201,1.416509,0.1811235,-0.1169636,1.160999,0.2573569,282.8098,220.9976,26.27964,False
2,3.288882,0.07279108,-0.09302138,-0.07780824,-1.156984,-4.62007,-2.036346,0.2098589,1.233937,0.3611104,-0.5208797,0.01122699,44.8,35.9,0.07623477,0.07124153,-0.05987661,-0.4810116,-2.525045,-1.161209,0.3298641,1.330564,0.2681549,0.0686761,-0.08410764,0.07686596,-0.2692594,0.5980274,-0.3209735,0.4725094,1.416618,0.181231,-0.1166764,1.161107,0.256743,282.7896,216.5155,29.84176,False
2,3.299993,0.07492757,-0.0940946,-0.08099809,-1.155602,-4.620481,-2.037111,0.2096625,1.2342,0.3614028,-0.5208893,-0.0009672059,44.8,35.9,0.08384612,0.09136599,-0.04382625,-0.4825467,-2.523355,-1.163915,0.3296172,1.330737,0.2681801,0.066449,-0.09045427,0.06513529,-0.2686746,0.5939513,-0.3176768,0.4723125,1.416651,0.1811683,-0.1165969,1.161183,0.2557164,283.1388,212.6213,33.18771,False
2,3.311104,0.08024336,-0.09204477,-0.101248,-1.153979,-4.621704,-2.03771,0.2093443,1.234421,0.3616912,-0.5213361,-0.04083734,41.7,32,0.08181106,0.07957263,-0.03110046,-0.4830298,-2.522352,-1.165735,0.3293162,1.330823,0.2681766,0.05570386,-0.09469061,0.05135943,-0.268208,0.5888804,-0.3133851,0.4719995,1.416719,0.1809118,-0.1172212,1.161105,0.2556633,282.7697,216.157,30.03026,False
2,3.322215,0.08137551,-0.1091506,-0.1160797,-1.151693,-4.622623,-2.038336,0.209127,1.234777,0.3620899,-0.5212398,0.009160663,41.7,32,0.08396783,0.07635692,-0.0279429,-0.4838287,-2.522246,-1.166863,0.3289149,1.331041,0.2682405,0.04389143,-0.104263,0.03972128,-0.267417,0.5830497,-0.3078367,0.471492,1.416927,0.1807084,-0.1175564,1.161074,0.256306,282.4556,219.0662,27.04575,False
2,3.333326,0.07607201,-0.1155882,-0.1213737,-1.149688,-4.623368,-2.038671,0.2089715,1.235051,0.3624527,-0.52135,-0.01023106,41.7,32,0.09901817,0.09009169,-0.01306006,-0.4850447,-2.520324,-1.170189,0.3286234,1.331246,0.2683134,0.03848424,-0.09890817,0.03126775,-0.2671023,0.5798492,-0.3049881,0.4711924,1.417029,0.1806426,-0.1178626,1.16107,0.2570041,282.1469,221.9674,23.98167,False
2,3.344437,0.06862098,-0.1177701,-0.1266893,-1.147837,-4.624286,-2.038782,0.208792,1.2353,0.3627264,-0.5212344,0.01066055,41.7,32,0.1001416,0.08471397,-0.005645394,-0.4856317,-2.519274,-1.172289,0.3284449,1.33133,0.2683995,0.03308998,-0.08930625,0.02283015,-0.2669052,0.576856,-0.3025822,0.4709255,1.417135,0.1803734,-0.1181175,1.161091,0.2576035,281.945,224.1776,21.48737,False
2,3.355548,0.05690245,-0.1189013,-0.1309429,-1.145909,-4.625174,-2.038591,0.2086988,1.235551,0.3630815,-0.5208392,0.03597734,41.1,30.2,0.08421957,0.07295477,0.002934299,-0.4857473,-2.518426,-1.173384,0.3283344,1.331376,0.2686129,0.03412034,-0.07438985,0.02181596,-0.2665968,0.5757427,-0.3018184,0.4708105,1.417149,0.1804514,-0.1178178,1.16126,0.2569248,282.1791,218.1745,26.19044,False
2,3.366659,0.04619681,-0.1050782,-0.1278122,-1.144701,-4.626114,-2.038338,0.2085962,1.235773,0.3634405,-0.5206565,0.01641322,41.1,30.2,0.08317225,0.06547945,0.006090716,-0.4861926,-2.517621,-1.175005,0.3281878,1.331537,0.2688172,0.03090694,-0.05840248,0.01973723,-0.2669473,0.5750473,-0.3016621,0.4707956,1.416627,0.180547,-0.1175999,1.161371,0.2562642,282.6929,214.7143,29.3734,False
2,3.37777,0.03548614,-0.09019449,-0.1257499,-1.143715,-4.627132,-2.037955,0.2085616,1.235924,0.3637764,-0.5203742,0.0257475,41.1,30.2,0.08628637,0.02502432,0.001537971,-0.485229,-2.518945,-1.174883,0.3281198,1.331599,0.2690518,0.02229984,-0.04560039,0.01241091,-0.2669483,0.574527,-0.3010666,0.4706273,1.416667,0.1807151,-0.1175356,1.161381,0.2560447,282.9007,213.6155,30.37464,False
2,3.388881,0.02034395,-0.03054436,-0.1153861,-1.14477,-4.628871,-2.036936,0.2085781,1.236018,0.3641477,-0.5203726,-2.249634E-05,41.1,30.2,0.07875982,0.01122587,-0.004885107,-0.485049,-2.519877,-1.174664,0.3280363,1.331748,0.2693248,0.02116498,-0.02638123,0.005019457,-0.2675481,0.5757858,-0.3027295,0.4706286,1.416903,0.1813128,-0.1176023,1.161394,0.2561615,282.8954,213.8829,29.98611,False
2,3.399992,0.01383589,0.0003561452,-0.109142,-1.145213,-4.630324,-2.036354,0.2086003,1.236125,0.3644967,-0.5203577,0.001424186,41.1,30.2,0.07448057,-0.004747979,-0.004958329,-0.4845733,-2.520545,-1.174744,0.3279521,1.33185,0.269546,0.01790617,-0.01784334,-0.0002406645,-0.2676855,0.575783,-0.3027356,0.470443,1.416996,0.1815097,-0.1177345,1.161428,0.2564335,282.81,214.7018,28.98866,False
2,3.411103,0.013705,0.03446593,-0.1050483,-1.146143,-4.632122,-2.035761,0.2085939,1.236217,0.3648589,-0.5201058,0.02310347,40.7,27.1,0.07233777,-0.0132668,-0.004995914,-0.4842149,-2.520906,-1.175142,0.3279456,1.331998,0.2697973,0.02203877,0.002436001,-0.01086042,-0.2684503,0.5769363,-0.3041098,0.4704489,1.417222,0.1817575,-0.117877,1.161476,0.2567427,282.705,215.6519,27.84888,False
2,3.422215,0.01039763,0.06324774,-0.09879803,-1.147035,-4.633784,-2.035117,0.2086919,1.236352,0.3651879,-0.5204855,-0.03481973,40.7,27.1,0.07231377,0.0006173328,-0.009173609,-0.4849371,-2.521058,-1.175759,0.3278058,1.332219,0.2700274,0.02521246,0.003513917,-0.01302025,-0.2687348,0.5767833,-0.3043066,0.4703564,1.417342,0.1818979,-0.1180344,1.161551,0.2570496,282.6101,216.7175,26.61578,False
2,3.433326,0.003946971,0.0792679,-0.08502513,-1.147975,-4.634906,-2.034476,0.2086718,1.236629,0.36551,-0.5207306,-0.02205956,40.7,27.1,0.07665534,0.001613781,0.0003807154,-0.4849062,-2.520514,-1.17727,0.3277527,1.332385,0.2702551,0.0241179,0.004590988,-0.01620227,-0.2690602,0.5767901,-0.3045429,0.4703035,1.417445,0.1820409,-0.1181768,1.161633,0.2573191,282.5429,217.626,25.54095,False
2,3.444437,-0.0003001988,0.07608699,-0.07861656,-1.148339,-4.635931,-2.033922,0.2087386,1.236812,0.3658068,-0.5206874,0.004119076,40.7,27.1,0.06812682,0.0005654767,-0.0006227931,-0.4848567,-2.520702,-1.177629,0.3277935,1.332504,0.2705472,0.03268248,-0.01137349,-0.01314653,-0.2689111,0.5752345,-0.3036014,0.4703165,1.417326,0.1820984,-0.1183077,1.16171,0.2575718,282.4848,218.4542,24.54954,False
2,3.455548,0.002920263,0.07078885,-0.07539459,-1.148521,-4.636949,-2.033702,0.2087644,1.237038,0.3661356,-0.5205026,0.01685371,40.7,27.1,0.06283139,-0.0005162209,0.003670974,-0.4848722,-2.520438,-1.178338,0.3277956,1.332702,0.2707844,0.03586617,-0.01988402,-0.01533385,-0.2689223,0.5732509,-0.3021553,0.470275,1.417427,0.18226,-0.1184323,1.161799,0.2578109,282.4335,219.2782,23.58859,False
2,3.466659,-0.003408026,0.05481639,-0.06892262,-1.148331,-4.637503,-2.033222,0.2088795,1.237245,0.3664298,-0.5205836,-0.007455563,38.6,28.3,0.05532774,-0.003669046,-0.001615625,-0.4848162,-2.520961,-1.178236,0.3278664,1.332823,0.2710416,0.04121688,-0.020974,-0.01431491,-0.2687918,0.5709639,-0.3007769,0.4702874,1.41778,0.1822674,-0.1185681,1.161912,0.2580028,282.4251,220.0408,22.70488,False
