loc,t,aDotUA,bDotUA,gDotUA,aUA,bUA,gUA,xUA,yUA,zUA,qE,qDotE,emgA,emgB,aDotSH,bDotSH,gDotSH,aSH,bSH,gSH,xSH,ySH,zSH,aDotUB,bDotUB,gDotUB,aUB,bUB,gUB,xUB,yUB,zUB,xHand,yHand,zHand,aHand,bHand,gHand,enable
1,0,0.160246,0.02259577,-0.07591581,-1.534998,-4.160448,-3.103209,0.5280424,1.404459,0.4772992,-1.10092,-0.02530174,37.8,32.26,0.1794715,-0.01966536,-0.02614201,-0.7456377,-3.483107,-0.4132369,0.5488486,1.687279,0.3840973,0.07621503,-0.1530401,0.0899757,-0.7796532,0.6450509,-0.1122727,0.7495819,1.79219,0.2571292,0.3604107,1.158975,0.2738883,319.4081,242.9655,342.4494,False
1,0.01111111,0.1517742,0.003381206,-0.07794385,-1.534013,-4.159809,-3.104631,0.5284585,1.404736,0.4770482,-1.10076,0.01482035,38.67,30.76,0.1783363,-0.03243041,-0.0367969,-0.7459866,-3.484312,-0.4141788,0.5489368,1.687401,0.3833189,0.08367488,-0.15623,0.08988666,-0.7784276,0.6428261,-0.1118751,0.7494602,1.792359,0.256109,0.3608098,1.159006,0.2739792,319.4929,243.1032,342.3217,False
1,0.02222222,0.1411435,-0.006250187,-0.08001631,-1.533058,-4.159431,-3.105822,0.5288149,1.404934,0.4767871,-1.100792,-0.003012477,39.48,29.35,0.1771522,-0.03560808,-0.05277164,-0.7468015,-3.485661,-0.415092,0.5490496,1.687493,0.3827584,0.09441446,-0.1583846,0.09722187,-0.776827,0.6404362,-0.1115923,0.749284,1.792525,0.255053,0.3613533,1.158948,0.2740539,319.5369,243.104,342.356,False
1,0.03333334,0.1368908,-0.0083759,-0.07680644,-1.532323,-4.1593,-3.107212,0.5292228,1.40516,0.4764698,-1.10052,0.02489105,40.25,28.03,0.1706771,-0.02814525,-0.06123156,-0.7476191,-3.486098,-0.4162641,0.5491725,1.68764,0.3822293,0.09548172,-0.1573175,0.09721331,-0.7756089,0.638238,-0.1111316,0.7490008,1.792693,0.254106,0.3620341,1.158802,0.2741011,319.5968,243.0289,342.4526,False
1,0.04444445,0.1315636,-0.00839595,-0.07786769,-1.531413,-4.159234,-3.108465,0.5296561,1.405341,0.4761689,-1.100325,0.01764409,41.73,27.13,0.1695508,0.00169751,-0.06438165,-0.7488703,-3.484821,-0.4189967,0.5493203,1.687725,0.3816981,0.108353,-0.1584075,0.1045267,-0.7739631,0.635918,-0.111196,0.7488508,1.792853,0.2531228,0.3628275,1.158563,0.2741127,319.6907,242.9146,342.5402,False
1,0.05555556,0.1219194,0.01720799,-0.06520625,-1.531205,-4.160305,-3.109513,0.5300529,1.40535,0.4758451,-1.100583,-0.02363869,43.11,26.29,0.1716504,0.01980811,-0.06543756,-0.7498412,-3.484215,-0.4213723,0.5495596,1.687775,0.3811476,0.1157568,-0.1551996,0.1001965,-0.7728115,0.6337426,-0.1110836,0.7487022,1.792986,0.2520621,0.363628,1.158229,0.2740723,319.8383,242.811,342.5823,False
1,0.06666667,0.1165599,0.03320949,-0.05676348,-1.530841,-4.161108,-3.11068,0.5305102,1.405486,0.4755445,-1.100542,0.003994489,44.41,25.5,0.1684317,0.03153104,-0.06646304,-0.7508814,-3.483537,-0.4235981,0.5498133,1.687832,0.3806579,0.1273485,-0.170074,0.08936642,-0.7719747,0.6304771,-0.1104205,0.7485022,1.793206,0.25102,0.3644153,1.157859,0.2740093,320.0013,242.7363,342.6071,False
1,0.07777778,0.1058498,0.05775198,-0.04303114,-1.530915,-4.162652,-3.111407,0.5310989,1.405603,0.47527,-1.100433,0.009962815,45.63,24.77,0.1674396,0.03044902,-0.05686501,-0.751193,-3.483351,-0.4254972,0.5502366,1.687942,0.3802123,0.1337518,-0.1807301,0.09032644,-0.7706943,0.627221,-0.1098027,0.7483871,1.79339,0.2499809,0.3651366,1.157469,0.2739428,320.1497,242.6791,342.6153,False
1,0.08888889,0.09621619,0.07694466,-0.03353328,-1.530886,-4.164058,-3.112102,0.5317057,1.405641,0.4749608,-1.100591,-0.01449832,46.77,24.08,0.1759665,0.01875326,-0.05907635,-0.751862,-3.483942,-0.4274573,0.5505413,1.688044,0.3796673,0.1391998,-0.1924824,0.1008862,-0.7688093,0.623767,-0.1091289,0.7483851,1.793558,0.2489548,0.3657162,1.157072,0.2738852,320.288,242.7067,342.58,False
1,0.1,0.08551174,0.09826973,-0.02404579,-1.531018,-4.165878,-3.112604,0.5323886,1.405797,0.4746902,-1.100267,0.0298309,48.4,23.63,0.1908325,-0.009979069,-0.06987845,-0.7524368,-3.486182,-0.4284824,0.5509825,1.688201,0.3794172,0.1508684,-0.197798,0.09647923,-0.767604,0.6204512,-0.1087944,0.7484176,1.793761,0.2479055,0.3662381,1.156767,0.2738993,320.3992,242.7609,342.5699,False
1,0.1111111,0.08015742,0.1089342,-0.01770649,-1.531005,-4.167313,-3.11324,0.5331147,1.406025,0.4744723,-1.100271,-0.0006284922,49.92,23.21,0.2141283,-0.04187751,-0.09353305,-0.7535473,-3.489285,-0.4293982,0.5514063,1.688405,0.3790538,0.1539021,-0.1934913,0.08154745,-0.7669691,0.6176304,-0.1085872,0.7483732,1.793945,0.2469428,0.3667092,1.15658,0.2739859,320.4809,242.8599,342.5739,False
1,0.1222222,0.07051552,0.1313274,-0.008225201,-1.531321,-4.169578,-3.113561,0.5339144,1.406213,0.4742541,-1.100192,0.007376825,51.35,22.82,0.2268841,-0.08233038,-0.1032646,-0.7539175,-3.493087,-0.4295183,0.5520033,1.688663,0.378849,0.1568743,-0.19236,0.06127634,-0.7667656,0.6146352,-0.1082719,0.7484522,1.794122,0.2460189,0.3671287,1.156499,0.2741123,320.5227,242.9732,342.6009,False
1,0.1333333,0.05341457,0.153692,0.000195602,-1.531659,-4.171983,-3.113467,0.5348219,1.406359,0.474072,-1.100393,-0.0183754,52.69,22.45,0.2397446,-0.09936881,-0.09592633,-0.7539409,-3.495881,-0.4305964,0.5525226,1.688935,0.3786154,0.1514445,-0.198727,0.05278642,-0.766233,0.6111355,-0.1070934,0.7486483,1.794347,0.2451274,0.3675399,1.156558,0.2742799,320.5525,243.0986,342.6287,False
1,0.1444445,0.04057526,0.1771466,0.011809,-1.532289,-4.174597,-3.113388,0.5356733,1.406674,0.47381,-1.100222,0.01583096,54.58,22.17,0.2494527,-0.125997,-0.08431473,-0.7534621,-3.499113,-0.4313253,0.5531097,1.689271,0.3784175,0.1514282,-0.20831,0.05169225,-0.7653317,0.6074651,-0.1060612,0.7487936,1.794526,0.2442019,0.3679779,1.156751,0.2744789,320.5502,243.2134,342.6576,False
1,0.1555556,0.02453046,0.2027019,0.01808302,-1.532786,-4.177721,-3.113007,0.5365849,1.406914,0.4736557,-1.099891,0.03018223,56.34,21.91,0.247407,-0.135598,-0.07472049,-0.7531286,-3.501829,-0.4320017,0.5537243,1.689597,0.378139,0.1513314,-0.2200065,0.04313943,-0.7647278,0.6033069,-0.1047203,0.748977,1.794759,0.2432039,0.3684041,1.15702,0.2746808,320.5225,243.3737,342.6448,False
1,0.1666667,0.01808208,0.2240237,0.02543353,-1.533363,-4.180801,-3.112861,0.5374355,1.407082,0.473465,-1.100002,-0.01023311,57.99,21.67,0.2410823,-0.130291,-0.06507747,-0.7530029,-3.503736,-0.4330721,0.5543668,1.689821,0.3779385,0.1479485,-0.2327395,0.02609063,-0.764691,0.5988117,-0.1030033,0.7493275,1.79472,0.242295,0.3688022,1.157337,0.2748612,320.5052,243.5729,342.612,False
1,0.1777778,-0.004437252,0.2826394,0.04219718,-1.534522,-4.185891,-3.11185,0.5384535,1.407241,0.4734344,-1.099866,0.01253963,59.53,21.45,0.2485724,-0.1377431,-0.06194782,-0.7528043,-3.506463,-0.4340873,0.5550081,1.690022,0.3777502,0.1434877,-0.2284195,0.008042665,-0.7649813,0.5952653,-0.1019059,0.7496576,1.794765,0.2414434,0.3691634,1.157717,0.2749984,320.5096,243.7771,342.5729,False
1,0.1888889,-0.01518629,0.3199055,0.04520948,-1.535183,-4.190497,-3.111272,0.5394535,1.40744,0.4734735,-1.100206,-0.03108924,60.97,21.24,0.2484229,-0.154755,-0.08434334,-0.7535121,-3.510539,-0.433919,0.5555038,1.690135,0.3775775,0.1411776,-0.2209094,-0.007898811,-0.765523,0.5920593,-0.1010574,0.7499762,1.79486,0.2406902,0.3694563,1.158135,0.2751057,320.4911,243.9732,342.5097,False
1,0.2,-0.04412778,0.3891511,0.0608582,-1.536626,-4.19721,-3.109561,0.5405535,1.407556,0.4736276,-1.099583,0.0573618,62.78,20.91,0.2491281,-0.209017,-0.1398113,-0.7549417,-3.518353,-0.431064,0.5560555,1.690343,0.3774176,0.1184079,-0.2069436,-0.04382456,-0.7670985,0.5892785,-0.09959263,0.7504926,1.794858,0.2399054,0.3696682,1.158566,0.2752192,320.4321,244.1894,342.3953,False
1,0.2111111,-0.08158724,0.4562304,0.07546638,-1.538288,-4.20422,-3.107219,0.5416266,1.407791,0.4738367,-1.10006,-0.04402142,64.48,20.6,0.2190299,-0.2686504,-0.1854576,-0.7562163,-3.527174,-0.4260906,0.5566487,1.690731,0.3769636,0.1140204,-0.2133003,-0.05551146,-0.7677041,0.5853189,-0.09793056,0.7510192,1.795005,0.2391036,0.3697741,1.159038,0.2754331,320.3882,244.5054,342.1917,False
1,0.2222222,-0.1168189,0.4870759,0.08492407,-1.5398,-4.210631,-3.104504,0.5426941,1.408035,0.4739566,-1.099216,0.07770022,66.07,20.31,0.2033266,-0.2591249,-0.1459287,-0.7556911,-3.530579,-0.4251348,0.557336,1.691401,0.3769381,0.1128966,-0.228197,-0.06087442,-0.7682533,0.5808504,-0.09593132,0.7516348,1.795018,0.2382841,0.3697896,1.159564,0.2758333,320.3163,244.8273,341.9976,False
1,0.2333333,-0.1690637,0.5050793,0.09232698,-1.541286,-4.216515,-3.100739,0.5437634,1.408254,0.4740148,-1.098695,0.04713122,67.56,20.04,0.2178316,-0.2219311,-0.0543775,-0.7529321,-3.530627,-0.4279439,0.5580829,1.691877,0.376754,0.1104511,-0.2440841,-0.08966374,-0.7698234,0.5760112,-0.09364473,0.7521694,1.795083,0.237493,0.3696063,1.16014,0.2764626,320.2925,245.265,341.7587,False
1,0.2444444,-0.2254885,0.4899121,0.07327352,-1.541691,-4.221303,-3.096456,0.5448841,1.408659,0.4741423,-1.098519,0.01593298,69.42,19.55,0.2277199,-0.2251567,-0.01399218,-0.7511787,-3.533617,-0.4284041,0.5587865,1.69239,0.3766482,0.1027476,-0.2514688,-0.1119755,-0.7715551,0.5714077,-0.09121273,0.7527941,1.795067,0.2367058,0.3691689,1.160829,0.2772965,320.3042,245.7739,341.5958,False
1,0.2555556,-0.2637892,0.4532512,0.007439286,-1.539857,-4.225153,-3.092088,0.5459934,1.40915,0.4742122,-1.097754,0.07000534,71.16,19.1,0.2245939,-0.2965329,-0.01618254,-0.7490007,-3.541358,-0.4251526,0.5596168,1.693029,0.3766396,0.08857919,-0.2449799,-0.14056,-0.7738278,0.5677174,-0.08901429,0.7535728,1.795096,0.2360275,0.3684932,1.161674,0.2782286,320.2656,246.2631,341.5958,False
1,0.2666667,-0.2457263,0.4746668,0.01903689,-1.540825,-4.231158,-3.089944,0.5471811,1.409531,0.4743094,-1.097502,0.02277712,72.79,18.67,0.2256109,-0.291196,-0.02151139,-0.7482343,-3.545702,-0.4244898,0.5606177,1.693479,0.376591,0.07243462,-0.236408,-0.1552629,-0.7757511,0.5642477,-0.0867823,0.754385,1.795045,0.2352417,0.3676357,1.162737,0.2791239,320.1606,246.7026,341.7066,False
1,0.2777778,-0.2468925,0.5271903,0.0826929,-1.544437,-4.238866,-3.087024,0.5485649,1.410076,0.4745674,-1.097789,-0.02606408,74.31,18.27,0.2341307,-0.2549629,-0.01621845,-0.7478065,-3.547666,-0.4258847,0.5615909,1.694145,0.3765702,0.07335918,-0.248081,-0.1681027,-0.7778188,0.5595396,-0.08428399,0.7552732,1.794997,0.234482,0.3667147,1.164104,0.2799179,319.9532,246.9833,341.8965,False
1,0.2888889,-0.3013542,0.5685278,0.06973425,-1.544999,-4.246535,-3.081415,0.5496356,1.410642,0.4748046,-1.100435,-0.2414892,75.74,17.9,0.2373907,-0.2421827,-0.005578365,-0.7466604,-3.550339,-0.4266328,0.5626611,1.694649,0.3765209,0.07849886,-0.2597409,-0.1852474,-0.7802039,0.554627,-0.08189034,0.7560587,1.794882,0.233655,0.3657381,1.165759,0.2806088,319.651,247.1279,342.0485,False
1,0.3,-0.323664,0.5504377,0.08582237,-1.546872,-4.251868,-3.076984,0.5505651,1.411255,0.4748733,-1.10016,0.027406,77.18,17.45,0.2290548,-0.2411565,0.01898908,-0.744597,-3.553219,-0.426754,0.5639847,1.695365,0.3765583,0.0961498,-0.2947594,-0.2271055,-0.7837587,0.5478137,-0.07873822,0.7572013,1.794788,0.2328093,0.3648513,1.167678,0.2813002,319.25,247.5932,341.8914,False
1,0.3111111,-0.3726398,0.5375522,0.09231296,-1.54842,-4.257241,-3.07105,0.5522411,1.411968,0.4753413,-1.097576,0.2360609,78.52,17.03,0.229419,-0.2752842,0.06050719,-0.7408861,-3.557569,-0.4261044,0.5654465,1.695959,0.3763142,0.09814426,-0.3074966,-0.2399545,-0.7864816,0.5422918,-0.07600635,0.7582719,1.794875,0.2320485,0.3640917,1.169732,0.2819703,318.8777,248.3677,341.5259,False
1,0.3222222,-0.8191644,0.6023876,0.09125197,-1.550309,-4.266296,-3.044617,0.5527694,1.41276,0.475085,-1.098692,-0.1041462,79.78,16.64,0.2348681,-0.31577,0.07000677,-0.7378165,-3.563564,-0.4244716,0.5668893,1.696655,0.3763857,0.1054249,-0.3298153,-0.2560881,-0.7895436,0.5357115,-0.07280017,0.7595004,1.79482,0.2311466,0.3631178,1.171718,0.2825002,318.6376,248.9211,341.2997,False
1,0.3333333,-0.9300974,0.6521801,0.0995985,-1.552594,-4.274979,-3.031117,0.554006,1.413196,0.4752028,-1.097701,0.09210192,80.96,16.27,0.2347079,-0.3913634,0.03690447,-0.7357537,-3.573613,-0.4196577,0.5686728,1.697322,0.3763704,0.1148435,-0.3500073,-0.2711694,-0.7925833,0.5290528,-0.06962861,0.7608303,1.794829,0.2302921,0.362161,1.1738,0.2829347,318.3428,249.2908,341.2416,False
1,0.3444445,-1.001571,0.6806562,0.08139122,-1.553818,-4.283357,-3.017583,0.5542548,1.413605,0.474649,-1.078149,1.78741,82.06,15.92,0.2454539,-0.4552633,0.03782519,-0.7323677,-3.582966,-0.4159165,0.5705346,1.698058,0.3763936,0.1178514,-0.3680615,-0.2883072,-0.7960758,0.5220633,-0.06616038,0.7621505,1.794769,0.2293572,0.3612613,1.176007,0.2833003,318.0496,249.6852,341.0903,False
1,0.3555556,-1.050608,0.6868181,0.06328556,-1.554962,-4.291115,-3.004056,0.5544938,1.414338,0.4740422,-1.090653,-1.157314,83.19,15.53,0.2502352,-0.5341526,0.09309641,-0.7263373,-3.592973,-0.4113817,0.572613,1.698969,0.3765361,0.1240529,-0.3978312,-0.3065839,-0.799743,0.5140913,-0.06226391,0.7637082,1.794559,0.228399,0.3585593,1.178524,0.2828392,318.6816,250.1815,340.8365,False
1,0.3666667,-1.083645,0.6898724,0.05264196,-1.556307,-4.298769,-2.990942,0.5549258,1.414988,0.4736238,-1.093843,-0.2788434,84.25,15.17,0.2525984,-0.5789162,0.115404,-0.7214407,-3.602471,-0.4072216,0.5744702,1.699738,0.3765607,0.1303345,-0.4265537,-0.3173937,-0.8031518,0.5059833,-0.05834506,0.7653431,1.794478,0.2274251,0.3547118,1.18232,0.2820058,318.5229,250.5564,340.7159,False
1,0.3777778,-1.16671,0.6681232,0.01020157,-1.556151,-4.305652,-2.974906,0.5546969,1.41582,0.4726248,-1.094972,-0.1013067,85.24,14.83,0.2378585,-0.6343454,0.1293034,-0.7161182,-3.613868,-0.4008172,0.5764525,1.700577,0.3765728,0.1354731,-0.4467384,-0.334562,-0.807153,0.4977775,-0.05434686,0.7670307,1.794357,0.2264545,0.3499591,1.187327,0.2809606,317.5796,251.0695,340.5268,False
1,0.3888889,-1.186926,0.6562716,-0.004633129,-1.556883,-4.312512,-2.961061,0.5550451,1.416505,0.4721086,-1.096226,-0.1134314,86.17,14.51,0.2272879,-0.6460962,0.1379171,-0.7114129,-3.623404,-0.395824,0.5784656,1.701298,0.3764024,0.1310301,-0.4530786,-0.3505156,-0.811339,0.4902752,-0.05039952,0.7686867,1.794386,0.2254968,0.3448643,1.193442,0.279954,316.0726,251.7265,340.2275,False
1,0.4,-1.241149,0.6090999,-0.03418207,-1.556485,-4.317741,-2.945184,0.5543245,1.417419,0.4709291,-1.094124,0.1936072,87.1,14.11,0.2039271,-0.6408105,0.148755,-0.7068567,-3.632143,-0.3906447,0.580404,1.702045,0.3762379,0.1285117,-0.4401806,-0.3856029,-0.8165955,0.4837436,-0.04726205,0.7705353,1.794222,0.2245967,0.3397695,1.200237,0.2790954,314.2711,252.512,339.8429,False
1,0.4111111,-1.274116,0.5812238,-0.05106089,-1.556634,-4.323573,-2.929882,0.5539342,1.418292,0.4699824,-1.096758,-0.2421452,87.97,13.74,0.1613885,-0.6099783,0.1661844,-0.7024993,-3.638794,-0.3855754,0.5824089,1.703003,0.3757734,0.1241024,-0.42842,-0.3993655,-0.8212443,0.4774075,-0.04424895,0.7723551,1.794021,0.2236254,0.3345302,1.207219,0.2782388,312.5833,253.2213,339.541,False
1,0.4222222,-1.293221,0.5545189,-0.05517244,-1.557087,-4.328933,-2.914568,0.5533328,1.419211,0.4690247,-1.095679,0.1014323,88.79,13.39,0.1201683,-0.5568217,0.2176901,-0.6970004,-3.642886,-0.3824081,0.5843208,1.703802,0.3754013,0.1164928,-0.4166571,-0.4130931,-0.8261904,0.4712986,-0.04113785,0.7741932,1.793846,0.2227242,0.3295317,1.214135,0.2775019,310.9458,253.8958,339.2704,False
1,0.4333333,-1.330379,0.5032284,-0.06553677,-1.557043,-4.333109,-2.898498,0.5524664,1.420251,0.4678149,-1.096699,-0.09391624,89.56,13.06,0.0835107,-0.5143124,0.3096572,-0.689355,-3.644474,-0.3807039,0.5863204,1.704544,0.3748574,0.1110866,-0.4155611,-0.4215499,-0.830853,0.4647931,-0.03792208,0.7761249,1.793603,0.2218482,0.3244548,1.220615,0.2766134,309.6217,254.4559,339.1171,False
1,0.4444444,-1.353732,0.4744102,-0.06537759,-1.55743,-4.337633,-2.882786,0.5516793,1.421314,0.4668841,-1.097358,-0.05898681,90.27,12.75,0.05496997,-0.4834962,0.3439993,-0.6831061,-3.648111,-0.377543,0.5881991,1.70531,0.3744276,0.09829223,-0.4240807,-0.4225018,-0.8353851,0.4578115,-0.03385677,0.7779548,1.793391,0.2209527,0.3196016,1.2267,0.2756807,308.4948,254.9516,338.9533,False
1,0.4555556,-1.385591,0.4348501,-0.07580563,-1.557233,-4.341276,-2.866299,0.5504135,1.422482,0.4657011,-1.097128,0.02184161,90.94,12.57,-0.001462817,-0.4665582,0.3540193,-0.6775668,-3.653132,-0.371552,0.5900548,1.706253,0.3743005,0.0790135,-0.4165897,-0.4318579,-0.8404116,0.4517912,-0.03003513,0.7798885,1.793248,0.2201452,0.315009,1.232398,0.2746833,307.5619,255.4404,338.7715,False
1,0.4666667,-1.403572,0.3889441,-0.08941245,-1.556692,-4.344584,-2.850284,0.5490257,1.423745,0.4645047,-1.097904,-0.07087243,91.57,12.39,-0.0111053,-0.4527432,0.3508919,-0.6725265,-3.658473,-0.367002,0.5919992,1.707028,0.3741434,0.05856836,-0.4101388,-0.4507803,-0.8458636,0.4458154,-0.0261107,0.781767,1.792991,0.2192645,0.3106319,1.237803,0.273543,306.821,255.8047,338.6599,False
1,0.4777778,-1.418381,0.3472976,-0.1009082,-1.556029,-4.347438,-2.833846,0.5474879,1.425083,0.4632413,-1.097629,0.02604294,92.16,12.23,-0.02595448,-0.4591612,0.3584555,-0.6666398,-3.664154,-0.3617196,0.5937752,1.707826,0.3737507,0.04250997,-0.4037238,-0.4580356,-0.8510872,0.4398751,-0.02217481,0.7836766,1.792705,0.2184849,0.3064655,1.243083,0.2723067,306.1831,256.0915,338.5184,False
1,0.4888889,-1.436399,0.3130898,-0.1167115,-1.55507,-4.350488,-2.817264,0.5460419,1.42644,0.4619155,-1.09844,-0.07415842,92.71,12.08,-0.03744727,-0.4613653,0.3862265,-0.6598147,-3.669664,-0.3568348,0.5955963,1.708655,0.3734512,0.01901466,-0.3781273,-0.4630313,-0.8564827,0.435418,-0.01875691,0.7857043,1.79232,0.2176607,0.3022078,1.248346,0.2708823,305.631,256.2813,338.4194,False
1,0.5,-1.448064,0.292806,-0.1187305,-1.554623,-4.353421,-2.800559,0.5445147,1.4278,0.460674,-1.098454,-0.000338827,93.02,11.97,-0.06295472,-0.4837716,0.3906574,-0.6534055,-3.676633,-0.3497471,0.5972857,1.709469,0.3730302,0.004989862,-0.355705,-0.4787841,-0.8623534,0.4310592,-0.01548389,0.7876481,1.791953,0.2169409,0.2978294,1.253773,0.269316,305.0338,256.389,338.3603,False
1,0.5111111,-1.465077,0.278897,-0.1218504,-1.554168,-4.356566,-2.783561,0.542891,1.429194,0.4594023,-1.098617,-0.01478762,93.31,11.87,-0.1140486,-0.5115429,0.3910094,-0.6470991,-3.68492,-0.3402116,0.5989863,1.710321,0.3725784,-0.009248078,-0.3225609,-0.5136681,-0.8692052,0.4277862,-0.01281753,0.7897187,1.791559,0.2164149,0.2933283,1.259503,0.2676513,304.3424,256.5022,338.2924,False
1,0.5222223,-1.481013,0.2639332,-0.1249607,-1.553659,-4.359501,-2.76647,0.5412024,1.430626,0.4581132,-1.098809,-0.01721893,93.59,11.77,-0.1629817,-0.493505,0.4031207,-0.640895,-3.689982,-0.3326775,0.6005827,1.711026,0.3720205,-0.03181976,-0.2969357,-0.5314378,-0.8756309,0.4244912,-0.009563145,0.7916843,1.791106,0.215831,0.2887813,1.265631,0.2659725,303.516,256.6598,338.1759,False
1,0.5333334,-1.489514,0.2553774,-0.1281217,-1.553112,-4.362542,-2.749376,0.5394722,1.432067,0.4568183,-1.09882,-0.0006209632,93.85,11.68,-0.205512,-0.4637624,0.4173324,-0.6345162,-3.694134,-0.3258401,0.6021945,1.711806,0.3713686,-0.0553416,-0.2670814,-0.5396045,-0.8819047,0.4218107,-0.006560697,0.7936696,1.790596,0.2151988,0.2841989,1.27217,0.2643326,302.5714,256.9171,337.9575,False
1,0.5444446,-1.495903,0.258585,-0.1259938,-1.553125,-4.365897,-2.73261,0.5378726,1.433569,0.4555302,-1.09899,-0.01538718,94.09,11.6,-0.2566258,-0.440401,0.4209499,-0.6285598,-3.698485,-0.3181753,0.6037441,1.712551,0.3706598,-0.07567748,-0.2393516,-0.5478111,-0.8881972,0.419499,-0.00365439,0.7957245,1.790175,0.2147224,0.2795368,1.279074,0.2627497,301.5366,257.2459,337.6869,False
1,0.5555557,-1.506564,0.2617565,-0.1249364,-1.553098,-4.369211,-2.71539,0.5361503,1.434999,0.4542284,-1.099257,-0.02404756,94.15,11.82,-0.2905829,-0.413834,0.4425466,-0.6220867,-3.701646,-0.3112601,0.6051504,1.713187,0.3700299,-0.09286308,-0.2137442,-0.5603225,-0.8948424,0.4175196,-0.0008098673,0.7976569,1.789611,0.2142365,0.2748111,1.286274,0.2612404,300.4222,257.6024,337.4171,False
1,0.5666668,-1.510844,0.2681458,-0.1270919,-1.553112,-4.372896,-2.698377,0.5345993,1.436416,0.4529216,-1.099826,-0.05176028,94.21,12.03,-0.3129046,-0.4042908,0.4491208,-0.6157889,-3.706101,-0.303696,0.606647,1.713912,0.3693857,-0.106838,-0.2062516,-0.5718537,-0.9014326,0.4148357,0.002420813,0.7997534,1.789051,0.2136893,0.2700906,1.293691,0.2598367,299.257,258.0119,337.1195,False
1,0.577778,-1.508675,0.2564778,-0.1185118,-1.553299,-4.375569,-2.681541,0.5328104,1.437876,0.4516056,-1.099604,0.02085389,94.26,12.23,-0.3448444,-0.3990064,0.4525672,-0.6095805,-3.710565,-0.2950695,0.6080406,1.71452,0.3688073,-0.1252071,-0.1816746,-0.5950038,-0.9087995,0.4133299,0.005325257,0.8016228,1.788379,0.2132745,0.2654831,1.301228,0.2585701,298.062,258.541,336.7396,False
1,0.5888891,-1.508645,0.247986,-0.1131462,-1.553422,-4.378265,-2.664661,0.5311856,1.4395,0.4503343,-1.099942,-0.03097837,94.3,12.41,-0.3467744,-0.396919,0.4781578,-0.6023085,-3.715058,-0.2875961,0.6095417,1.715171,0.3681357,-0.1358724,-0.1731429,-0.5969976,-0.9156065,0.4112537,0.008297611,0.8035973,1.787668,0.2127209,0.2609583,1.308763,0.2574044,296.8795,259.1336,336.3211,False
1,0.6000003,-1.489427,0.2363695,-0.1056397,-1.553735,-4.380805,-2.648679,0.5294827,1.441078,0.4489932,-1.100273,-0.0299391,94.28,12.94,-0.3361162,-0.4256636,0.4737766,-0.5958152,-3.72218,-0.2783901,0.6109465,1.715777,0.3675885,-0.1487689,-0.1592626,-0.6074604,-0.9226937,0.4096873,0.01127556,0.8055427,1.78692,0.2122507,0.2565793,1.316222,0.2563365,295.7363,259.7536,335.8951,False
1,0.6111114,-1.484103,0.2374745,-0.1045435,-1.554234,-4.383695,-2.632617,0.5279769,1.442591,0.4478202,-1.100363,-0.007857965,94.26,13.45,-0.3341456,-0.4341702,0.4503207,-0.5903786,-3.729113,-0.2691635,0.612443,1.716326,0.3669631,-0.155276,-0.1560269,-0.6180304,-0.9297814,0.4078494,0.0142322,0.8074819,1.786278,0.2118518,0.2523462,1.323554,0.2552862,294.6786,260.3813,335.4811,False
1,0.6222225,-1.478795,0.2470995,-0.09926978,-1.554927,-4.386754,-2.616559,0.5263658,1.444157,0.4465635,-1.101314,-0.08690413,94.24,13.92,-0.3291059,-0.4394651,0.4108488,-0.5860547,-3.73658,-0.2596316,0.6137831,1.716919,0.3662343,-0.1671368,-0.1517238,-0.6306646,-0.9370359,0.4061621,0.01749351,0.8092951,1.785531,0.2113798,0.2483375,1.330776,0.2542182,293.7205,260.9755,335.0903,False
1,0.6333337,-1.464956,0.2524797,-0.09291235,-1.555728,-4.389653,-2.600729,0.5247961,1.445586,0.4452977,-1.101337,-0.0013837,94.22,14.36,-0.322578,-0.4511942,0.4267651,-0.5796455,-3.743714,-0.2503129,0.6151716,1.717515,0.3657019,-0.1737831,-0.1537791,-0.6540477,-0.9452416,0.4040945,0.02080781,0.8111727,1.78475,0.2108788,0.2445729,1.337862,0.253107,292.7755,261.5661,334.6521,False
1,0.6444448,-1.445825,0.27175,-0.08556584,-1.557057,-4.393176,-2.585474,0.5234065,1.447037,0.4440732,-1.101294,0.003861025,94.2,14.77,-0.3008346,-0.4523221,0.4819865,-0.5714046,-3.749752,-0.2427743,0.616616,1.718065,0.3651502,-0.1782345,-0.156928,-0.6710477,-0.9530836,0.4019831,0.02413916,0.8129888,1.783942,0.2104762,0.2410621,1.3448,0.2519921,291.8697,262.1986,334.0944,False
1,0.655556,-1.417076,0.2782569,-0.07815799,-1.558289,-4.396244,-2.570843,0.5220434,1.448471,0.4430115,-1.10147,-0.01612223,94.22,15.38,-0.290985,-0.4736525,0.5127804,-0.56356,-3.757459,-0.2333752,0.6179904,1.718591,0.3646243,-0.1900932,-0.151561,-0.6836839,-0.9610299,0.4004356,0.02750806,0.814707,1.783065,0.2099776,0.2376501,1.351601,0.25086,291.0199,262.8665,333.4748,False
1,0.6666671,-1.388311,0.2805304,-0.06645158,-1.559811,-4.399076,-2.556376,0.5207213,1.449885,0.4419012,-1.102001,-0.04853175,94.24,15.95,-0.2848011,-0.4810859,0.4839535,-0.558043,-3.766169,-0.2230472,0.6192668,1.719076,0.3641775,-0.1933196,-0.1504997,-0.6857672,-0.9685491,0.3986559,0.03080132,0.8164629,1.782207,0.2095625,0.2343412,1.358289,0.2497469,290.1963,263.5829,332.807,False
1,0.6777782,-1.354165,0.2636478,-0.05254301,-1.561053,-4.401156,-2.542485,0.5193081,1.451347,0.440784,-1.102547,-0.04959738,94.26,16.5,-0.2892825,-0.4874476,0.454151,-0.5528589,-3.774893,-0.2123051,0.6205773,1.719565,0.3636575,-0.1997695,-0.1547441,-0.6910366,-0.9764038,0.3967167,0.03433241,0.8181227,1.781285,0.209079,0.2312178,1.364891,0.2487429,289.3944,264.3945,332.0388,False
1,0.6888894,-1.329605,0.2392086,-0.0513584,-1.561707,-4.402919,-2.528435,0.5179902,1.452909,0.4396911,-1.102585,-0.00324659,94.28,17.01,-0.2841152,-0.495941,0.4317271,-0.5477643,-3.784091,-0.2015094,0.6218991,1.720009,0.363174,-0.2083597,-0.1525999,-0.696264,-0.9843672,0.3950813,0.0378595,0.8199188,1.780362,0.2085981,0.2283106,1.371393,0.2478934,288.5907,265.2884,331.202,False
1,0.7000005,-1.291156,0.2030939,-0.05120575,-1.561867,-4.404041,-2.515501,0.5166415,1.454402,0.4385457,-1.102939,-0.03249893,94.3,17.48,-0.269027,-0.4852987,0.4561269,-0.5410505,-3.791355,-0.1928193,0.6231675,1.720473,0.3626311,-0.2147864,-0.1536553,-0.6993926,-0.9922518,0.3933876,0.04137674,0.8215772,1.779417,0.2080767,0.2255509,1.377786,0.2471498,287.8156,266.3084,330.2977,False
1,0.7111117,-1.250566,0.1648492,-0.05209109,-1.561865,-4.404925,-2.50278,0.5154119,1.455946,0.4374707,-1.102598,0.03134324,94.32,18.13,-0.2453644,-0.4416488,0.4932816,-0.5335217,-3.795607,-0.1871883,0.624478,1.720744,0.3619449,-0.2233119,-0.1504644,-0.6992729,-0.9999366,0.391914,0.04496454,0.8233196,1.778363,0.2075248,0.2229076,1.384061,0.2464292,287.0622,267.3425,329.4258,False
1,0.7222228,-1.206804,0.1319234,-0.05728668,-1.56151,-4.405804,-2.490503,0.5140829,1.457479,0.436379,-1.103429,-0.07646385,94.33,18.74,-0.2420908,-0.3777529,0.5135716,-0.5268281,-3.797338,-0.1830271,0.6258025,1.721033,0.3612766,-0.2266332,-0.1568202,-0.7109749,-1.008416,0.3900014,0.04863971,0.8250124,1.777229,0.206917,0.2203977,1.390237,0.2456661,286.3403,268.2619,328.6729,False
1,0.7333339,-1.154524,0.1000856,-0.05929637,-1.561028,-4.406325,-2.479214,0.5128776,1.458966,0.4352288,-1.103461,-0.002462732,94.33,19.31,-0.250791,-0.374549,0.491269,-0.5215029,-3.803953,-0.1742014,0.6270128,1.721364,0.3606017,-0.221593,-0.1769925,-0.7366497,-1.017412,0.3873058,0.05238891,0.8266009,1.776085,0.206321,0.2180832,1.396281,0.2448127,285.5872,269.1294,327.9399,False
1,0.7444451,-1.118253,0.08314763,-0.05922857,-1.560876,-4.407093,-2.467997,0.5117313,1.460422,0.4341455,-1.103589,-0.01195748,94.33,19.84,-0.2592451,-0.3980008,0.4955783,-0.5149707,-3.812612,-0.1635759,0.6283561,1.721798,0.360049,-0.2229813,-0.1982093,-0.7665449,-1.027124,0.3844399,0.05636527,0.8281928,1.774886,0.2056096,0.2159886,1.402166,0.2438489,284.8556,269.9877,327.1467,False
1,0.7555562,-1.060673,0.0651827,-0.06343755,-1.560369,-4.40773,-2.458329,0.5105937,1.461896,0.433049,-1.104252,-0.06072466,94.44,20.86,-0.2303128,-0.3905362,0.5188031,-0.5078611,-3.818685,-0.1567366,0.6295565,1.722134,0.3595071,-0.212257,-0.2248612,-0.7603573,-1.035514,0.3811135,0.06008358,0.8296093,1.773782,0.2048774,0.2140353,1.407866,0.2427576,284.1478,270.8047,326.3356,False
1,0.7666674,-1.023352,0.05142866,-0.06446283,-1.55986,-4.408272,-2.448247,0.5094097,1.463408,0.4319654,-1.104023,0.02117584,94.54,21.82,-0.1825062,-0.3883244,0.5014001,-0.5022562,-3.825481,-0.1504406,0.6307063,1.722451,0.3589571,-0.2078474,-0.2355536,-0.7476595,-1.043543,0.3783281,0.06362505,0.8310857,1.772675,0.2041473,0.2122833,1.41333,0.24157,283.453,271.6448,325.4652,False
1,0.7777785,-0.9647317,0.04196812,-0.06764787,-1.559359,-4.408836,-2.43955,0.508252,1.464781,0.4310346,-1.10512,-0.1008624,94.64,22.72,-0.1508371,-0.4052818,0.4606553,-0.4977954,-3.834849,-0.1416285,0.6317927,1.722778,0.3584292,-0.2031624,-0.24633,-0.7093927,-1.050363,0.3752173,0.06729835,0.832427,1.77158,0.203316,0.2106849,1.418541,0.2403231,282.8329,272.4942,324.5445,False
1,0.7888896,-0.9082871,0.04635441,-0.07196605,-1.559128,-4.409919,-2.43128,0.5071903,1.466353,0.4300578,-1.104379,0.06835736,94.73,23.56,-0.1349514,-0.4084519,0.447756,-0.4924249,-3.843475,-0.1329519,0.6330802,1.723091,0.3578122,-0.1922774,-0.2517142,-0.6892947,-1.057653,0.3724385,0.07038069,0.8339049,1.770523,0.2025919,0.209216,1.423452,0.2390616,282.2346,273.2759,323.6732,False
1,0.8000008,-0.857107,0.03158192,-0.07086293,-1.558502,-4.410251,-2.423593,0.5060955,1.46773,0.4290953,-1.105198,-0.07593056,94.81,24.35,-0.1233192,-0.4116195,0.4359446,-0.4874682,-3.852114,-0.1243896,0.6340634,1.72339,0.3571808,-0.1867505,-0.2677517,-0.6712961,-1.064625,0.368944,0.07395385,0.8350942,1.769409,0.2018116,0.2077665,1.428077,0.2378092,281.722,273.9111,322.9286,False
1,0.8111119,-0.8240309,0.01249245,-0.06974575,-1.55746,-4.410319,-2.415561,0.5050251,1.469181,0.4280272,-1.105236,-0.003160111,94.59,24.75,-0.1361569,-0.4009932,0.4296628,-0.4823523,-3.859873,-0.115594,0.6350819,1.723777,0.3563628,-0.1953959,-0.2613335,-0.6829017,-1.072892,0.3665719,0.0775374,0.8364748,1.768272,0.2010725,0.2063698,1.432404,0.2366576,281.2528,274.5117,322.2092,False
1,0.8222231,-0.7588952,-0.04487937,-0.07483412,-1.555113,-4.40916,-2.409472,0.5038742,1.470547,0.4271402,-1.105278,-0.004234388,94.38,25.13,-0.1530905,-0.3807938,0.4479315,-0.4763905,-3.866098,-0.1077419,0.6359756,1.724108,0.3555746,-0.1995945,-0.2634836,-0.6775365,-1.080417,0.3638735,0.08113214,0.8376267,1.767241,0.2002439,0.2049958,1.436461,0.2356561,280.8585,275.137,321.5181,False
1,0.8333342,-0.7311081,-0.08103936,-0.07893573,-1.552984,-4.408344,-2.402105,0.502878,1.472015,0.4261756,-1.104432,0.07704485,94.18,25.48,-0.1678703,-0.3606002,0.4683158,-0.4700426,-3.872146,-0.1000142,0.6369315,1.724524,0.3548117,-0.202588,-0.2667449,-0.6583374,-1.087292,0.360988,0.08489998,0.838883,1.766258,0.1994159,0.2036438,1.440239,0.2347717,280.4759,275.8134,320.877,False
1,0.8444453,-0.6915656,-0.1278561,-0.08937865,-1.549975,-4.406987,-2.395872,0.5019131,1.473352,0.425317,-1.105763,-0.1227475,94,25.81,-0.1623704,-0.3148223,0.4981654,-0.4632207,-3.874977,-0.09586341,0.6378509,1.724683,0.3540609,-0.1904929,-0.2796372,-0.6244189,-1.093272,0.3574886,0.08821534,0.8398753,1.76521,0.1984816,0.2023017,1.443799,0.2339054,280.1382,276.2735,320.5277,False
1,0.8555565,-0.6488663,-0.1607752,-0.090314,-1.547246,-4.40557,-2.389964,0.5009414,1.474573,0.4244814,-1.104153,0.147992,92.96,25.92,-0.1412916,-0.2764176,0.4746124,-0.4584547,-3.877875,-0.09238266,0.6385322,1.724888,0.353291,-0.1763582,-0.3074248,-0.5991012,-1.099621,0.3530766,0.09175415,0.8407674,1.764193,0.1974571,0.2011196,1.447094,0.2329995,279.7422,276.4715,320.4315,False
1,0.8666676,-0.6200744,-0.1724481,-0.09666851,-1.544742,-4.404769,-2.384035,0.500052,1.475806,0.4236419,-1.104615,-0.04403468,91.99,26.02,-0.1329604,-0.2699954,0.451122,-0.4539182,-3.883948,-0.08563634,0.6392307,1.725242,0.3526182,-0.169879,-0.3138482,-0.5917256,-1.106318,0.3496079,0.0949899,0.8417153,1.763177,0.196667,0.2000673,1.450199,0.2319805,279.439,276.3906,320.5652,False
1,0.8777788,-0.5625695,-0.1616024,-0.0882503,-1.543292,-4.404242,-2.3796,0.499313,1.476847,0.4230564,-1.104576,0.003838511,91.08,26.12,-0.1118596,-0.2560909,0.4264746,-0.4497983,-3.888668,-0.08086369,0.6398453,1.725513,0.3518732,-0.1694902,-0.3235488,-0.5566039,-1.111741,0.3457436,0.09858596,0.8424668,1.762268,0.1957009,0.1991998,1.453131,0.2308373,279.1047,276.0392,320.8951,False
1,0.8888899,-0.5359777,-0.1455417,-0.08514593,-1.541975,-4.403969,-2.374406,0.4984989,1.478025,0.4222908,-1.104123,0.04104398,90.23,26.21,-0.1013123,-0.2454166,0.4146859,-0.4452917,-3.89363,-0.07555974,0.6404859,1.725787,0.3511493,-0.173385,-0.325787,-0.5235488,-1.116933,0.3421653,0.1022875,0.8434026,1.76136,0.1946697,0.198463,1.455902,0.2295686,278.7722,275.6836,321.1483,False
1,0.900001,-0.4912793,-0.1283576,-0.08100776,-1.540833,-4.403886,-2.370486,0.4978609,1.478969,0.4215989,-1.105136,-0.09336108,89.44,26.29,-0.09621048,-0.221943,0.3891069,-0.4417976,-3.896711,-0.07193704,0.6410511,1.726022,0.3504004,-0.1716732,-0.32491,-0.4649696,-1.120282,0.3386159,0.1056987,0.8440161,1.76049,0.1936877,0.1978152,1.458552,0.2282493,278.4847,275.2709,321.3701,False
1,0.9111122,-0.4508212,-0.1186721,-0.08002274,-1.539445,-4.403583,-2.366737,0.4972373,1.479901,0.4209144,-1.104058,0.09913612,87.96,25.64,-0.09531304,-0.2059358,0.3699477,-0.4381156,-3.900212,-0.06764722,0.6416345,1.726328,0.3496861,-0.167048,-0.3314078,-0.4330831,-1.124559,0.3347165,0.1090242,0.8447443,1.759588,0.1927085,0.1972864,1.461048,0.2270223,278.1986,275.196,321.2159,False
1,0.9222233,-0.4135514,-0.1121789,-0.08115002,-1.538069,-4.403538,-2.36338,0.4966329,1.480779,0.420253,-1.104763,-0.06575397,86.58,25.03,-0.09432766,-0.2005966,0.3603585,-0.4343339,-3.904429,-0.06281438,0.6422396,1.726567,0.3489897,-0.1617168,-0.3335407,-0.4331463,-1.129792,0.3311383,0.1121526,0.8454355,1.758688,0.1917644,0.1966943,1.463444,0.2258933,277.9763,275.2092,321.0374,False
1,0.9333345,-0.3794702,-0.1089091,-0.08332176,-1.536568,-4.403353,-2.360206,0.4961514,1.481731,0.4195745,-1.104584,0.01676512,85.28,24.46,-0.06148997,-0.1845617,0.3388262,-0.4310598,-3.907919,-0.06010275,0.6429054,1.726636,0.3483169,-0.1597225,-0.3356376,-0.4459597,-1.135676,0.3275623,0.1153594,0.8461493,1.757749,0.1907997,0.1961379,1.465685,0.224941,277.7073,275.3497,320.8058,False
1,0.9444456,-0.3592423,-0.1035245,-0.08336507,-1.535238,-4.403331,-2.356884,0.4956534,1.48253,0.4189391,-1.104503,0.006880278,84.08,23.93,-0.03701234,-0.1855889,0.3343799,-0.4272818,-3.912382,-0.05650828,0.6435272,1.72688,0.3476171,-0.1619875,-0.3313397,-0.4587028,-1.141567,0.3243664,0.1185394,0.8467305,1.756853,0.1898479,0.1955942,1.467736,0.2241525,277.441,275.5405,320.5851,False
1,0.9555568,-0.3262471,-0.09175105,-0.08771904,-1.533865,-4.403596,-2.354375,0.4951914,1.483315,0.4183078,-1.104247,0.02308619,82.94,23.42,-0.01879844,-0.2239259,0.3416522,-0.4230559,-3.921103,-0.04900456,0.6440326,1.726999,0.3470178,-0.1512823,-0.3324228,-0.4535031,-1.146987,0.3209184,0.1213264,0.8472914,1.75602,0.1889451,0.1950441,1.469581,0.2235073,277.2171,275.6837,320.4567,False
1,0.9666679,-0.3049682,-0.08105402,-0.0909847,-1.532715,-4.404031,-2.351761,0.4946382,1.484046,0.4177213,-1.103682,0.05118635,81.48,22.58,-0.009171367,-0.213274,0.3479927,-0.4187027,-3.925634,-0.04503139,0.6446869,1.727082,0.346204,-0.1543241,-0.3335401,-0.4396216,-1.151842,0.3173313,0.1246349,0.8478597,1.755164,0.1880031,0.1945073,1.471234,0.2229664,277.0511,275.6636,320.5328,False
1,0.977779,-0.2719799,-0.06604095,-0.08789311,-1.531906,-4.40445,-2.349843,0.4941537,1.484793,0.4171791,-1.104079,-0.03703154,80.12,21.8,0.01432714,-0.1919504,0.3595558,-0.4142925,-3.928486,-0.04336132,0.6452536,1.727172,0.3455434,-0.1530482,-0.325079,-0.4204321,-1.156289,0.3142454,0.1275494,0.8482871,1.754333,0.1871262,0.1939441,1.47273,0.2224831,276.9274,275.5205,320.7399,False
1,0.9888902,-0.2325747,-0.0616837,-0.08901306,-1.53074,-4.40472,-2.348493,0.4936021,1.485489,0.4167118,-1.103676,0.03699762,78.84,21.07,0.02397391,-0.1844883,0.3680183,-0.4097742,-3.932518,-0.04026699,0.6457416,1.727288,0.3447936,-0.1368309,-0.3176925,-0.3982176,-1.160498,0.3111709,0.1298166,0.8487444,1.753477,0.1861715,0.1933548,1.474085,0.2220439,276.8015,275.318,320.9924,False
1,1.000001,-0.2091103,-0.07228304,-0.09217482,-1.52914,-4.404756,-2.346944,0.4930576,1.48616,0.4161987,-1.103966,-0.02710029,77.64,20.38,0.02298051,-0.1898263,0.3765423,-0.4052266,-3.937835,-0.03561658,0.64619,1.72746,0.3441262,-0.1410782,-0.3400677,-0.397177,-1.165417,0.306908,0.1332379,0.8492225,1.752629,0.1852472,0.1926971,1.47533,0.2216391,276.7109,275.1323,321.2078,False
1,1.011112,-0.1813795,-0.08819847,-0.09531156,-1.527256,-4.404539,-2.345718,0.4923881,1.486881,0.4157257,-1.104199,-0.02133673,76.38,19.61,0.01673096,-0.2143525,0.3904146,-0.4002593,-3.945883,-0.02816453,0.646603,1.727669,0.3433907,-0.1080029,-0.3667126,-0.3933742,-1.170497,0.3019335,0.135243,0.8497367,1.751809,0.1842628,0.1920392,1.476472,0.2212842,276.6326,275.0356,321.3396,False
1,1.022224,-0.1525433,-0.1169386,-0.1069074,-1.524607,-4.404106,-2.34506,0.4916518,1.487626,0.4152412,-1.103641,0.05088776,75.21,18.88,0.01242682,-0.2367247,0.380838,-0.3962831,-3.954468,-0.02029648,0.6469086,1.727744,0.3427544,-0.09934288,-0.3507723,-0.3806335,-1.174605,0.2990329,0.1371256,0.8500571,1.75111,0.1834495,0.1914021,1.47748,0.2209632,276.5236,274.8925,321.5341,False
1,1.033335,-0.1301571,-0.1297057,-0.1164316,-1.522448,-4.403883,-2.344176,0.490858,1.488424,0.4149125,-1.103544,0.008147288,74.11,18.21,0.006992102,-0.2281937,0.3681058,-0.3926165,-3.960133,-0.01494752,0.6470756,1.72785,0.3420219,-0.1023092,-0.3178186,-0.3591931,-1.178229,0.2969957,0.1392325,0.8503292,1.750422,0.1827352,0.1907592,1.478357,0.2206187,276.4267,274.4662,322.0257,False
1,1.044446,-0.1120298,-0.1350212,-0.1228083,-1.520207,-4.403749,-2.343648,0.4900683,1.489173,0.4144773,-1.103772,-0.02110725,73.09,17.58,0.001558542,-0.2068815,0.3575199,-0.389017,-3.96388,-0.01132083,0.6472123,1.727912,0.3413293,-0.1075472,-0.2944126,-0.3515992,-1.182098,0.2948898,0.1413318,0.8505971,1.749756,0.1819775,0.1900698,1.479127,0.2201986,276.347,273.6328,322.9111,False
1,1.055557,-0.08326896,-0.1349461,-0.1238911,-1.518291,-4.403693,-2.343671,0.4890807,1.49002,0.4140322,-1.103259,0.04690457,72.13,16.99,-0.01784736,-0.1653312,0.3342806,-0.3861216,-3.96508,-0.009411612,0.6470342,1.728181,0.3404312,-0.1265477,-0.2475923,-0.335266,-1.185597,0.294142,0.1436722,0.8507714,1.749421,0.1813774,0.1893503,1.479783,0.2196941,276.2713,272.3231,324.2197,False
1,1.066668,-0.06409971,-0.1306035,-0.1186027,-1.516608,-4.4036,-2.343648,0.4881817,1.490828,0.4135721,-1.103262,-0.0009124379,71.36,17.03,-0.0477204,-0.1334143,0.3324218,-0.3823639,-3.96663,-0.006598514,0.6470051,1.728446,0.3395522,-0.1335499,-0.2360133,-0.2946666,-1.187891,0.2918409,0.1461284,0.8509655,1.748863,0.180665,0.1885819,1.480366,0.2191472,276.2527,270.9016,325.5797,False
1,1.077779,-0.01619118,-0.1198296,-0.1208335,-1.514878,-4.403955,-2.345012,0.4871392,1.491857,0.4129238,-1.103532,-0.02491179,70.65,17.07,-0.1082942,-0.06747773,0.3627938,-0.3773577,-3.962621,-0.007073089,0.6468277,1.728808,0.3386099,-0.1433124,-0.2245552,-0.2135547,-1.187821,0.2895451,0.148879,0.8510778,1.748463,0.1800292,0.1877401,1.48091,0.2185793,276.256,269.5651,326.8566,False
1,1.08889,0.04130952,-0.1260835,-0.1304117,-1.513135,-4.404227,-2.346777,0.4860246,1.492866,0.4125798,-1.103219,0.02867563,69.98,17.11,-0.1411837,-0.007894397,0.3897498,-0.3721794,-3.957498,-0.009290437,0.6467873,1.729094,0.3378451,-0.1617111,-0.2088125,-0.1429858,-1.187517,0.2873985,0.1520252,0.8512371,1.747951,0.1795673,0.1867923,1.481432,0.2180128,276.2655,268.416,327.9588,False
1,1.100002,0.07435469,-0.1334548,-0.1314687,-1.510861,-4.404084,-2.348686,0.4849826,1.493992,0.4119501,-1.104272,-0.09679584,69.35,17.15,-0.1836737,0.06552456,0.4178613,-0.3665484,-3.947953,-0.01459359,0.6466804,1.729473,0.3370717,-0.1776054,-0.1886029,-0.1352919,-1.189108,0.2860022,0.1549454,0.8513484,1.747412,0.1790936,0.1857759,1.481948,0.2174632,276.3078,267.4768,328.8936,False
1,1.111113,0.098841,-0.1429994,-0.1431443,-1.508702,-4.404484,-2.350161,0.4838506,1.495312,0.4112844,-1.104414,-0.01240547,69,17.74,-0.2049156,0.0729446,0.4265664,-0.3615119,-3.945394,-0.01419412,0.6467356,1.729774,0.3364801,-0.1821883,-0.1853178,-0.1639912,-1.192185,0.2843773,0.1577345,0.8515648,1.746818,0.1785994,0.1846738,1.48244,0.2169425,276.3264,266.4136,329.9515,False
1,1.122224,0.1233821,-0.1622017,-0.1622443,-1.505348,-4.404533,-2.352376,0.4825747,1.496701,0.4105837,-1.104127,0.02600426,68.67,18.3,-0.1877892,0.02715202,0.4295781,-0.3566521,-3.949058,-0.009323727,0.6467969,1.730097,0.3359714,-0.1774929,-0.189395,-0.2215968,-1.196978,0.2826942,0.1601066,0.8517879,1.746307,0.1780515,0.1835515,1.482834,0.2165165,276.3354,265.3647,330.9892,False
1,1.133335,0.1383567,-0.1920404,-0.1716996,-1.50163,-4.403949,-2.354292,0.48136,1.49801,0.4095037,-1.103321,0.07315404,68.36,18.83,-0.1654944,-0.02926181,0.4101696,-0.3526531,-3.955457,-0.002262888,0.6468601,1.73036,0.3355827,-0.1585175,-0.1946612,-0.2399335,-1.200625,0.2807796,0.1619359,0.8518835,1.74583,0.1775806,0.1823937,1.483118,0.2161186,276.3976,264.2862,332.1345,False
1,1.144446,0.1426328,-0.1984453,-0.1769977,-1.498448,-4.403799,-2.356055,0.4801054,1.499255,0.4088218,-1.103628,-0.02885255,68.07,19.32,-0.1464771,-0.05158325,0.3854926,-0.349232,-3.95925,0.002248241,0.6468407,1.73064,0.3351717,-0.1402169,-0.2032372,-0.223116,-1.202803,0.2783599,0.1637248,0.8518534,1.745382,0.1770961,0.181098,1.483361,0.2156869,276.5493,262.844,333.6689,False
1,1.155557,0.1427166,-0.2272018,-0.1736599,-1.494686,-4.402565,-2.35772,0.4787885,1.500416,0.4079492,-1.103032,0.05449132,67.8,19.78,-0.1211367,-0.07068949,0.3522568,-0.3463984,-3.963231,0.006396913,0.6468229,1.730777,0.3346908,-0.1246594,-0.2257879,-0.1647744,-1.203273,0.2749914,0.1658271,0.8518263,1.744977,0.1766186,0.1797028,1.483564,0.2151733,276.6742,261.0255,335.6289,False
1,1.166668,0.1385101,-0.2463768,-0.1714282,-1.491012,-4.401438,-2.359213,0.4775187,1.501562,0.4073546,-1.102578,0.04086585,67.55,20.74,-0.1116597,-0.09302713,0.3340521,-0.3431446,-3.968351,0.01219541,0.646688,1.730989,0.3342705,-0.1223251,-0.2301038,-0.146706,-1.204878,0.2724198,0.1680473,0.8517973,1.744503,0.1762195,0.1783141,1.483711,0.2145018,276.7878,259.1836,337.6144,False
1,1.17778,0.1236892,-0.2773069,-0.1691246,-1.486762,-4.399606,-2.360247,0.4762075,1.502718,0.4068155,-1.102159,0.0378796,67.31,21.64,-0.1138791,-0.1068622,0.3202035,-0.3400345,-3.973408,0.01829166,0.6465513,1.731072,0.3339574,-0.1105979,-0.2109303,-0.1457083,-1.206735,0.2708796,0.1694242,0.8516724,1.744044,0.175951,0.1770094,1.48381,0.2137149,276.9068,257.458,339.3764,False
1,1.188891,0.09921265,-0.2869642,-0.1690549,-1.482919,-4.398441,-2.360666,0.4750986,1.50355,0.4063294,-1.101801,0.03232143,67.09,22.48,-0.1182665,-0.1196344,0.302115,-0.3371162,-3.978877,0.02497672,0.6462831,1.731084,0.3336115,-0.09586014,-0.1789211,-0.1606922,-1.209413,0.2703292,0.1703496,0.851619,1.743622,0.1758635,0.1758226,1.483866,0.2127765,277.0251,255.6957,341.1269,False
1,1.200002,0.08224172,-0.3125596,-0.1657134,-1.478657,-4.396614,-2.361233,0.4739334,1.50444,0.4059265,-1.101153,0.05893809,66.88,23.27,-0.116317,-0.1185385,0.2786642,-0.3347839,-3.983016,0.03011609,0.6460167,1.731127,0.3333247,-0.07261272,-0.1394457,-0.1768116,-1.212048,0.2705075,0.1704372,0.8514927,1.743146,0.1757886,0.174798,1.483899,0.2117424,277.1612,253.6627,343.0539,False
1,1.211113,0.04709356,-0.3094217,-0.1561248,-1.474982,-4.395276,-2.36082,0.472871,1.505106,0.4053123,-1.100499,0.05932144,66.25,23.78,-0.1208992,-0.1089046,0.2382331,-0.3334187,-3.985683,0.03411989,0.6456704,1.731187,0.3331592,-0.06854318,-0.1095586,-0.193809,-1.214766,0.2707223,0.171033,0.8513762,1.742764,0.175698,0.1739143,1.483948,0.2106427,277.2922,251.3938,345.1626,False
1,1.222224,0.01193616,-0.3052173,-0.1486552,-1.471708,-4.393963,-2.359955,0.4717193,1.505731,0.4050486,-1.100557,-0.005733606,65.66,24.25,-0.1221236,-0.09290501,0.2201509,-0.3316397,-3.987331,0.03709091,0.6453052,1.731138,0.3329742,-0.06013718,-0.07543068,-0.2033841,-1.217338,0.2715612,0.1712263,0.8511277,1.742351,0.1757782,0.1731592,1.484039,0.2095605,277.3959,249.2085,347.1546,False
1,1.233335,-0.02323923,-0.2924561,-0.1337807,-1.468831,-4.392699,-2.358737,0.4707344,1.506226,0.4047253,-1.099712,0.07742061,65.11,24.69,-0.1192793,-0.08325441,0.1764622,-0.3310933,-3.988972,0.03994342,0.6447684,1.73106,0.3329461,-0.05152445,-0.05094579,-0.1948822,-1.219205,0.2722,0.1713305,0.8508503,1.741996,0.1758883,0.1724624,1.484199,0.208514,277.4585,247.1459,349.0504,False
1,1.244446,-0.04989497,-0.2775729,-0.1253061,-1.466193,-4.391577,-2.357546,0.4696833,1.506665,0.4044609,-1.099307,0.0364571,64.6,25.1,-0.1067328,-0.08427734,0.1454697,-0.3304732,-3.992651,0.0442114,0.6443489,1.730933,0.3328519,-0.05129743,-0.01904988,-0.1745496,-1.220498,0.2732454,0.1714519,0.8505198,1.741522,0.1759841,0.1717298,1.484462,0.207502,277.5048,245.3592,350.6891,False
1,1.255558,-0.07343816,-0.2327842,-0.10314,-1.465098,-4.391059,-2.355913,0.4687397,1.506835,0.4042454,-1.099122,0.01676866,64.12,25.49,-0.1144264,-0.08424791,0.1146369,-0.3301542,-3.995581,0.04854756,0.643783,1.730786,0.3328383,-0.05868588,0.02779687,-0.1679238,-1.221834,0.2753531,0.171628,0.8501593,1.741078,0.1762173,0.1709536,1.48487,0.2065977,277.5394,243.7661,352.1121,False
1,1.266669,-0.1012902,-0.1677695,-0.08212793,-1.465194,-4.391324,-2.354017,0.4678346,1.507052,0.4044652,-1.099362,-0.02191537,63,25.59,-0.1230182,-0.08531487,0.1061765,-0.3292439,-3.998771,0.05327867,0.6432921,1.73063,0.3329153,-0.06288561,0.05335816,-0.1624725,-1.223302,0.2772075,0.1717435,0.8499617,1.740766,0.1765151,0.1701765,1.48544,0.2058371,277.5326,242.4204,353.3346,False
1,1.27778,-0.2122631,-0.09231035,-0.05790572,-1.466473,-4.392326,-2.347744,0.4669687,1.507017,0.4043622,-1.099227,0.01274282,61.96,25.68,-0.1337592,-0.07998925,0.09561188,-0.3286229,-4.001116,0.05732987,0.6426826,1.730379,0.3329175,-0.06202155,0.07898398,-0.1805102,-1.225529,0.2795302,0.1716093,0.8496112,1.740325,0.1768847,0.1693842,1.486154,0.2052366,277.4487,241.2198,354.4397,False
1,1.288891,-0.2551183,0.004652485,-0.03170379,-1.469319,-4.394107,-2.342815,0.4659945,1.506938,0.4045784,-1.099244,-0.001540269,60.98,25.76,-0.1476716,-0.07254702,0.08828375,-0.3276871,-4.003012,0.06114937,0.6421483,1.730144,0.3329086,-0.06451571,0.09082091,-0.2134685,-1.228675,0.2816333,0.1717068,0.849129,1.739921,0.1773014,0.168595,1.486987,0.20486,277.316,240.603,354.937,False
1,1.300002,-0.1923575,0.04106935,-0.0266194,-1.470335,-4.395321,-2.342848,0.4650308,1.506843,0.4044719,-1.095293,0.3615215,60.06,25.84,-0.1519635,-0.07574202,0.08405314,-0.3269739,-4.006068,0.06587728,0.6415313,1.729889,0.3329718,-0.06347476,0.1014808,-0.2155761,-1.230837,0.2836393,0.1717036,0.8487412,1.739517,0.1776578,0.1677561,1.487935,0.2047946,277.152,240.6153,354.8019,False
1,1.311113,-0.1434747,0.07637816,-0.02466118,-1.472157,-4.396521,-2.342506,0.4642106,1.506731,0.4048932,-1.096799,-0.1404959,59.2,25.92,-0.1435738,-0.08743339,0.06479962,-0.3270042,-4.01058,0.07139322,0.6408417,1.729473,0.3331723,-0.05681276,0.1205934,-0.191095,-1.231784,0.2860941,0.1712231,0.848411,1.739099,0.1780519,0.1665875,1.489228,0.2049418,277.105,241.6165,353.7784,False
1,1.322224,-0.130766,0.1062654,-0.02056339,-1.473641,-4.398119,-2.341326,0.4631999,1.506627,0.4048479,-1.102313,-0.5022379,57.77,25.88,-0.1246877,-0.09695117,0.02522502,-0.3281749,-4.014651,0.07596134,0.6401421,1.72914,0.3334491,-0.04061463,0.1460974,-0.170949,-1.23257,0.2888847,0.1702013,0.8478413,1.738732,0.1785142,0.165198,1.490971,0.2053568,276.9566,242.7633,352.7254,False
1,1.333336,-0.1436097,0.1318461,-0.01109287,-1.475419,-4.3996,-2.339204,0.4622661,1.506441,0.404861,-1.102545,-0.01704293,56.43,25.86,-0.1090526,-0.1203144,-0.02392121,-0.3300897,-4.020759,0.08240193,0.6393748,1.728913,0.333823,-0.03313725,0.1706002,-0.1688185,-1.233869,0.2920856,0.1692668,0.8472939,1.738314,0.1790023,0.1639873,1.492786,0.2060878,276.4319,243.0109,352.6756,False
1,1.344447,-0.1563759,0.142566,0.001670614,-1.476893,-4.40081,-2.33708,0.4613174,1.506312,0.4048586,-1.101554,0.09022632,55.17,25.84,-0.1039006,-0.1256061,-0.04740335,-0.3314911,-4.025259,0.08766434,0.6385933,1.728673,0.3340924,-0.03210492,0.1759379,-0.1720125,-1.235603,0.2945812,0.1687744,0.8467778,1.737886,0.1795225,0.162976,1.494339,0.207098,275.8074,243.7983,352.0751,False
1,1.355558,-0.1542442,0.1319025,0.007029146,-1.47791,-4.401072,-2.335148,0.4604254,1.506391,0.4048376,-1.100424,0.1024583,53.99,25.82,-0.09752271,-0.1351845,-0.05065895,-0.3321846,-4.030631,0.09366178,0.6377493,1.72843,0.3344059,-0.03752553,0.1887486,-0.1804341,-1.237437,0.2976162,0.1683773,0.8461771,1.737488,0.180099,0.1618099,1.495512,0.2081268,275.3207,245.365,350.7633,False
1,1.366669,-0.1360638,0.1096102,0.01351774,-1.478449,-4.401083,-2.334291,0.4595114,1.506255,0.4048946,-1.100317,0.009013612,52.83,26.1,-0.1112595,-0.1330919,-0.03563399,-0.3321729,-4.035061,0.09954843,0.6368716,1.728227,0.3346589,-0.03752749,0.211117,-0.1803652,-1.23895,0.3011805,0.1676364,0.8456337,1.736955,0.1807389,0.1604744,1.496297,0.2090451,275.0973,247.2575,349.1518,False
1,1.37778,-0.1125856,0.09584681,0.01782612,-1.479125,-4.401245,-2.33381,0.4584727,1.506185,0.4049134,-1.100495,-0.01623222,51.74,26.36,-0.1239888,-0.1192708,-0.02592745,-0.332109,-4.037598,0.1038409,0.6359742,1.727984,0.3349481,-0.03874397,0.228212,-0.1941446,-1.240947,0.3049433,0.1668633,0.8450248,1.736349,0.1814418,0.1590713,1.496772,0.2097557,275.1075,248.8311,347.8564,False
1,1.388891,-0.02410379,0.07263711,0.0146627,-1.479256,-4.401322,-2.336388,0.4573616,1.506132,0.4049938,-1.101599,-0.1007571,50.72,26.6,-0.1495873,-0.09693544,-0.02570355,-0.3324136,-4.038703,0.1074641,0.6349319,1.727652,0.3353343,-0.04041471,0.229459,-0.249514,-1.244919,0.3084199,0.1662481,0.844428,1.735709,0.1821644,0.1577874,1.497044,0.2101852,275.231,249.691,347.2271,False
1,1.400002,-0.009168025,0.06732942,0.01146973,-1.479612,-4.401785,-2.336691,0.456331,1.505695,0.4041169,-1.102059,-0.0412559,49.76,26.82,-0.1593387,-0.08520588,-0.04478903,-0.3335854,-4.04011,0.1109097,0.6339973,1.727348,0.3356786,-0.04529538,0.2360348,-0.3059033,-1.249704,0.3123446,0.1656862,0.8438878,1.735127,0.1829169,0.1567173,1.497132,0.2103235,275.294,249.8535,347.1556,False
1,1.411114,0.005800061,0.0482055,0.01368277,-1.4797,-4.401541,-2.337304,0.4551851,1.505607,0.4041796,-1.104939,-0.2632012,48.87,27.03,-0.1604707,-0.08307347,-0.0533018,-0.3345602,-4.042843,0.1152765,0.6331023,1.727001,0.3360908,-0.05253398,0.2469332,-0.3824905,-1.255785,0.3167284,0.1651956,0.8432878,1.734707,0.1838918,0.1557563,1.497082,0.2101877,275.331,249.8113,347.13,False
1,1.422225,0.0111787,0.03012637,0.01696527,-1.479716,-4.401161,-2.337645,0.4540268,1.505508,0.4042876,-1.102698,0.2068978,48.14,27.03,-0.1595392,-0.09902884,-0.07357005,-0.3362262,-4.047264,0.1211286,0.6322089,1.726652,0.3365035,-0.05403887,0.2715599,-0.4228764,-1.261072,0.3216095,0.1642664,0.8425961,1.734336,0.1847563,0.154881,1.496746,0.2098555,275.2045,249.6646,347.1883,False
1,1.433336,0.004864744,0.001375622,0.02137481,-1.479398,-4.40044,-2.337325,0.4529428,1.505309,0.4043791,-1.102381,0.02671536,47.45,27.03,-0.1489847,-0.117106,-0.08964968,-0.3379418,-4.052452,0.1273305,0.6312155,1.72628,0.3370383,-0.04322553,0.3077306,-0.4079533,-1.264028,0.3270046,0.1626992,0.8417645,1.734088,0.1856618,0.1538841,1.496102,0.2092482,275.1804,249.9199,346.8754,False
1,1.444447,-0.0004270468,-0.0114107,0.02357472,-1.47926,-4.399875,-2.337145,0.4518211,1.505161,0.4044924,-1.101925,0.04162278,46.8,27.03,-0.1286176,-0.1298783,-0.07597042,-0.3384931,-4.05755,0.1328843,0.630263,1.725913,0.3375075,-0.03312612,0.324617,-0.3600693,-1.265816,0.3316034,0.1614797,0.8409483,1.733965,0.1864576,0.1528873,1.495241,0.2085663,275.3677,249.3611,347.2028,False
1,1.455558,-0.004637972,-0.02844501,0.0279266,-1.478907,-4.398885,-2.337028,0.4507121,1.505019,0.4045801,-1.101079,0.07689809,46.19,27.03,-0.1190195,-0.1447789,-0.07712708,-0.3396702,-4.063478,0.1394777,0.6293569,1.72559,0.3379653,-0.01782665,0.3266349,-0.325074,-1.267653,0.3358321,0.159893,0.8401027,1.733859,0.1871805,0.1519082,1.494287,0.2079494,275.6582,248.5173,347.779,False
1,1.466669,-0.00460352,-0.03800938,0.03116783,-1.47874,-4.398213,-2.337156,0.4496088,1.504828,0.404701,-1.101104,-0.002940649,45.76,27.07,-0.08511165,-0.1585588,-0.1029689,-0.3419621,-4.069347,0.1448682,0.628327,1.725306,0.3385994,0.001075171,0.3136115,-0.2528781,-1.267633,0.3389538,0.1583425,0.8392386,1.733889,0.1878984,0.1509444,1.493391,0.2074702,275.9619,247.7904,348.3065,False
1,1.47778,-0.003555208,-0.03053332,0.03432479,-1.479021,-4.39779,-2.337198,0.4485302,1.504643,0.404814,-1.101127,-0.002012574,45.35,27.09,-0.06615534,-0.1542405,-0.1308083,-0.3445907,-4.072872,0.1482302,0.6272868,1.72502,0.3390563,0.008384883,0.2973585,-0.1699122,-1.266351,0.3416174,0.1571625,0.8381982,1.734123,0.1885011,0.1499634,1.492683,0.2071601,276.2014,247.3457,348.6375,False
1,1.488891,-0.001486804,-0.004922207,0.04164951,-1.480099,-4.397901,-2.337257,0.4474852,1.5043,0.4049904,-1.101381,-0.02316912,44.97,27.11,-0.04830604,-0.146723,-0.1628979,-0.3476948,-4.075523,0.1507573,0.626024,1.724973,0.3395269,0.02204775,0.2853784,-0.08913336,-1.264508,0.3443106,0.1558239,0.837073,1.73444,0.1890697,0.1489837,1.492219,0.2070023,276.3302,247.1179,348.8318,False
1,1.500003,-0.002604871,0.01856516,0.05218447,-1.481398,-4.397873,-2.337191,0.4464618,1.503974,0.4051776,-1.101308,0.006788759,44.62,27.13,-0.0493575,-0.1073192,-0.1543186,-0.3491116,-4.074599,0.1504934,0.6247214,1.724878,0.339802,0.03687166,0.2744377,-0.0009057038,-1.261354,0.3466719,0.1541518,0.8358536,1.734828,0.1896899,0.1480062,1.491989,0.2069846,276.3392,247.0768,348.8649,False
1,1.511114,-0.003719226,0.03885484,0.06167068,-1.482857,-4.397941,-2.337042,0.445382,1.503525,0.4054146,-1.101322,-0.001372491,44.29,27.15,-0.0513958,-0.0839044,-0.1382922,-0.3500411,-4.074782,0.1513251,0.6234906,1.724756,0.3401589,0.0415764,0.2711089,0.03951784,-1.259314,0.3494452,0.1527211,0.8347629,1.73508,0.1903841,0.1470144,1.491954,0.2070978,276.264,247.3875,348.5477,False
1,1.522225,-0.009128583,0.07298804,0.07428811,-1.485023,-4.398273,-2.33667,0.4443248,1.503039,0.4055748,-1.101153,0.01547921,43.82,30.4,-0.05775633,-0.04876956,-0.128616,-0.3510851,-4.072447,0.1499778,0.6221493,1.724616,0.340384,0.03427644,0.2721249,0.05345621,-1.257731,0.3524196,0.1516031,0.833489,1.73548,0.1910479,0.1460049,1.492039,0.2073539,276.1257,248.183,347.7523,False
1,1.533336,-0.00918111,0.09323916,0.07631596,-1.486905,-4.398804,-2.336533,0.443254,1.502631,0.4057095,-1.101039,0.01028965,43.37,33.45,-0.05780412,-0.02533256,-0.1307219,-0.3526174,-4.070545,0.1488438,0.6207576,1.72442,0.3406508,0.02242488,0.2817489,0.04189789,-1.257309,0.3560436,0.1507357,0.8322866,1.735794,0.1917617,0.144969,1.492171,0.2077192,275.968,249.2748,346.6968,False
1,1.544447,-0.002832898,0.1124737,0.08473285,-1.489,-4.399196,-2.336717,0.4420667,1.502198,0.4057436,-1.100826,0.01939101,42.95,36.3,-0.06328909,0.002376899,-0.1466267,-0.3546388,-4.066774,0.1461886,0.6192854,1.724309,0.3407903,0.01065058,0.2870892,0.03671983,-1.256598,0.3594582,0.1499575,0.8310239,1.736277,0.192363,0.1438777,1.492279,0.2081481,275.8095,250.5309,345.5009,False
1,1.555558,0.001398468,0.1231325,0.08360929,-1.490853,-4.399761,-2.336836,0.4408863,1.501787,0.4057753,-1.101062,-0.02170524,42.56,38.97,-0.07612172,0.03964289,-0.1464837,-0.3559549,-4.061502,0.1425183,0.6176491,1.724222,0.3411314,0.06513438,0.2849183,0.05102791,-1.25511,0.3624775,0.1464944,0.829685,1.736777,0.192955,0.1427089,1.492334,0.2085904,275.7032,252.1502,343.9685,False
1,1.566669,0.005674401,0.1188843,0.08469719,-1.492314,-4.399714,-2.337086,0.4397163,1.501356,0.4057074,-1.101388,-0.02964136,41.94,42.82,-0.09857704,0.06518772,-0.1526726,-0.3575746,-4.056533,0.1397267,0.616039,1.724057,0.3413527,0.1083354,0.2453347,0.1036928,-1.252069,0.3634335,0.1435449,0.8283529,1.737173,0.1934514,0.1414583,1.492316,0.2090044,275.642,253.6491,342.5698,False
1,1.577781,0.01636698,0.10827,0.08792742,-1.49352,-4.399485,-2.337743,0.438406,1.500787,0.4047298,-1.101334,0.005082302,41.11,47.74,-0.1040018,0.07797678,-0.1632692,-0.3595422,-4.05198,0.1368074,0.6144811,1.72389,0.3415332,0.1045125,0.2260298,0.1430949,-1.248856,0.3648464,0.1420706,0.8270136,1.73757,0.194011,0.1401241,1.492196,0.2093441,275.602,255.0888,341.2304,False
1,1.588892,0.01641446,0.09339871,0.09545776,-1.494837,-4.398966,-2.33792,0.4370987,1.500463,0.4045136,-1.101363,-0.002693676,40.34,52.34,-0.1029618,0.08330245,-0.165395,-0.3612088,-4.048413,0.1345309,0.6128888,1.723727,0.3417053,0.07490632,0.2238353,0.1636601,-1.24601,0.367133,0.1416674,0.8255749,1.738025,0.1946023,0.1387656,1.491952,0.2095957,275.5926,256.3698,340.0445,False
1,1.600003,0.01644192,0.07953247,0.09340174,-1.495807,-4.398457,-2.338019,0.4357897,1.499994,0.4042959,-1.101704,-0.03117161,39.61,56.65,-0.1020244,0.07906051,-0.1824495,-0.3636472,-4.045401,0.1328164,0.6111474,1.723523,0.3417916,0.06213543,0.2589813,0.1649828,-1.243525,0.371118,0.1400889,0.8241407,1.738459,0.1952302,0.1373834,1.491577,0.2096449,275.5873,257.7701,338.835,False
1,1.611114,0.01647816,0.0656784,0.09240691,-1.496708,-4.397929,-2.338229,0.4343289,1.499639,0.4040098,-1.101181,0.0480125,38.94,60.68,-0.1073911,0.08651429,-0.1866581,-0.3656573,-4.04124,0.1302949,0.6094365,1.723344,0.3419113,0.06225282,0.3015542,0.1768427,-1.240447,0.3758205,0.1379091,0.8227308,1.73894,0.1957948,0.1359452,1.491053,0.2093008,275.5969,259.0319,337.7878,False
1,1.622225,0.02292196,0.04436294,0.08718236,-1.497129,-4.397203,-2.338737,0.4328507,1.499388,0.4036715,-1.101007,0.01543121,37.24,67.68,-0.1265392,0.1024586,-0.1800959,-0.3671444,-4.036005,0.1274762,0.6077144,1.723238,0.3418844,0.06451631,0.3174906,0.1885917,-1.237348,0.379652,0.1357751,0.8213375,1.739322,0.1963565,0.1346477,1.490408,0.2086782,275.708,259.3953,337.3937,False
1,1.633336,0.04216986,0.0209721,0.08087192,-1.497475,-4.396472,-2.339535,0.4315135,1.499195,0.4033244,-1.101094,-0.00806022,35.65,74.23,-0.1520832,0.1205298,-0.1734885,-0.3686326,-4.030005,0.1244402,0.6060075,1.72318,0.3418393,0.0601759,0.3057954,0.1811469,-1.235165,0.3824724,0.1342707,0.820075,1.739707,0.1968355,0.133466,1.489703,0.2078681,275.848,259.15,337.4449,False
1,1.644447,0.04966547,0.000721518,0.07991958,-1.497443,-4.39532,-2.34076,0.4300622,1.499052,0.4029355,-1.101373,-0.02535462,34.16,80.35,-0.1637362,0.1300883,-0.1638004,-0.3699403,-4.024711,0.1216772,0.6043962,1.723111,0.3417788,0.05148111,0.300519,0.1652517,-1.23337,0.3856224,0.1329144,0.8187664,1.740039,0.1973341,0.1322736,1.489033,0.2069432,275.997,258.7096,337.6456,True
1,1.655559,0.05611387,-0.0194908,0.08214658,-1.497458,-4.393968,-2.34171,0.4286337,1.49893,0.4025478,-1.101646,-0.02484865,32.77,86.09,-0.17304,0.1374987,-0.1253639,-0.3697133,-4.019497,0.1190484,0.6028146,1.723087,0.3416145,0.03624968,0.2899649,0.1366258,-1.232399,0.3886379,0.132092,0.8174367,1.74031,0.1977577,0.1310824,1.488441,0.2059946,276.1244,258.1997,337.9501,True
1,1.66667,0.06039071,-0.02800015,0.08112238,-1.49777,-4.393024,-2.342463,0.4271941,1.498718,0.4021852,-1.101987,-0.0310748,31.47,91.46,-0.1728847,0.14387,-0.1040499,-0.3699498,-4.014249,0.1160512,0.6011908,1.723048,0.3414483,0.02539153,0.2825643,0.117546,-1.231385,0.3915185,0.1311785,0.8161314,1.740666,0.1982286,0.1299471,1.487931,0.2050995,276.2109,257.7946,338.2045,True
1,1.677781,0.06788178,-0.03860579,0.08649537,-1.49797,-4.39158,-2.343601,0.4258105,1.498539,0.4017472,-1.101633,0.03257737,29.92,100,-0.1803713,0.1534451,-0.1061082,-0.370973,-4.008534,0.1129697,0.599612,1.723013,0.3412936,-0.007697627,0.2857724,0.1115321,-1.229861,0.3947738,0.1312568,0.814945,1.741014,0.1986394,0.1288287,1.487477,0.2042568,276.2411,257.5203,338.3748,True
1,1.688892,0.0689612,-0.03857182,0.09289344,-1.498649,-4.390296,-2.344578,0.4242923,1.49837,0.4012849,-1.101342,0.02620384,28.47,100,-0.1931422,0.1555942,-0.103822,-0.3719605,-4.00286,0.1100727,0.5980726,1.723075,0.3411925,-0.01696317,0.2867728,0.1339963,-1.227425,0.3979209,0.130746,0.8137108,1.741412,0.1991034,0.1277042,1.487059,0.203459,276.255,257.4206,338.386,True
1,1.700003,0.072203,-0.05452342,0.09616781,-1.498678,-4.388685,-2.345605,0.4228705,1.498283,0.4008286,-1.101602,-0.02394672,27.11,100,-0.1962434,0.1502086,-0.09214354,-0.3723578,-3.999101,0.1090578,0.5964998,1.723083,0.341054,-0.0221803,0.2824458,0.151097,-1.224558,0.400706,0.1301639,0.8124824,1.741797,0.1994717,0.1265441,1.486664,0.2027139,276.2698,257.541,338.1891,True
1,1.711114,0.08297741,-0.09923111,0.09744994,-1.497593,-4.38603,-2.347067,0.4214463,1.498352,0.4003093,-1.101424,0.01640622,25.83,100,-0.1993089,0.1555077,-0.07400569,-0.3723861,-3.993857,0.1064825,0.5950916,1.723161,0.3410745,-0.02520528,0.2664177,0.1670634,-1.221825,0.4029425,0.1298509,0.8113674,1.742173,0.199919,0.1253689,1.486265,0.2019929,276.2858,257.8191,337.8724,True
1,1.722225,0.09803832,-0.1567214,0.09453237,-1.495791,-4.382982,-2.348778,0.4200023,1.498409,0.3999534,-1.101001,0.03791565,25.81,100,-0.1906888,0.1650901,-0.06020553,-0.3722737,-3.98794,0.1026878,0.5935252,1.723184,0.340955,-0.02845538,0.2557768,0.1617333,-1.220042,0.4052508,0.1294469,0.810293,1.742496,0.2002716,0.12413,1.485841,0.2012502,276.3156,258.2172,337.4517,True
1,1.733337,0.1098349,-0.1854471,0.0957321,-1.494403,-4.380072,-2.350604,0.4186087,1.498477,0.3994296,-1.100439,0.0501529,25.79,100,-0.1822067,0.1683025,-0.06453197,-0.3730141,-3.982362,0.09920568,0.5921151,1.723344,0.340889,-0.02651379,0.2526369,0.1446549,-1.218726,0.4079331,0.1287713,0.8092049,1.742922,0.2007325,0.1229287,1.485338,0.2004571,276.3563,258.3056,337.3734,True
1,1.744448,0.1131205,-0.220602,0.09484289,-1.492589,-4.376804,-2.352112,0.4173196,1.498504,0.3989186,-1.099185,0.1128044,25.77,100,-0.1811417,0.1715015,-0.06453769,-0.3735834,-3.976696,0.09586155,0.590753,1.723367,0.340739,-0.03001255,0.2495249,0.1169873,-1.218037,0.4106252,0.1282826,0.808117,1.743201,0.2010989,0.1218572,1.484673,0.1995407,276.3849,257.6891,337.9963,True
1,1.755559,0.1056792,-0.2281006,0.09062728,-1.491216,-4.374264,-2.353211,0.4161157,1.498484,0.3984056,-1.097168,0.1814875,25.75,100,-0.1778784,0.1704297,-0.05603997,-0.3736926,-3.971719,0.09306496,0.5894355,1.723441,0.3404968,-0.03327009,0.238891,0.1116665,-1.216637,0.4128704,0.1280397,0.8070923,1.743496,0.2013857,0.1209364,1.483746,0.1984677,276.4185,256.6062,339.0028,True
1,1.76667,0.1024397,-0.2142879,0.08523282,-1.490491,-4.372507,-2.354305,0.4149243,1.49846,0.397928,-1.094117,0.275167,25.73,100,-0.1767209,0.1693503,-0.04432864,-0.3735621,-3.966813,0.09038103,0.5880389,1.723513,0.3403602,-0.03220606,0.233569,0.1116391,-1.215043,0.4152993,0.1275401,0.8060282,1.743781,0.2017519,0.1201156,1.482495,0.197213,276.5128,255.6592,339.8174,True
1,1.777781,0.0927709,-0.1834098,0.087216,-1.490576,-4.371124,-2.355087,0.4137843,1.498312,0.3975656,-1.090443,0.3309606,27.88,100,-0.1745442,0.1650828,-0.03902556,-0.3736612,-3.962306,0.0880276,0.586699,1.723593,0.3401628,-0.02997753,0.2271465,0.1201181,-1.213134,0.4174755,0.1269795,0.804973,1.74407,0.2020824,0.1193887,1.480881,0.1957912,276.7011,254.562,340.7263,True
1,1.788892,0.08732348,-0.1354573,0.0933807,-1.49167,-4.370202,-2.355979,0.4125026,1.498131,0.3971174,-1.086567,0.3484735,29.89,100,-0.172449,0.1778727,-0.04115092,-0.373935,-3.955448,0.08353297,0.5853314,1.723621,0.3401194,-0.03196995,0.2260399,0.132922,-1.210904,0.4198255,0.1266413,0.8039411,1.744439,0.2024639,0.1186647,1.47894,0.1942762,277.0128,253.3511,341.6629,True
1,1.800003,0.0818535,-0.08220775,0.09311494,-1.493043,-4.370087,-2.356719,0.4114433,1.497883,0.3968334,-1.081723,0.4363613,31.77,100,-0.1713955,0.1640242,-0.04543034,-0.3743957,-3.95177,0.08192682,0.5840486,1.723611,0.3400047,-0.03196698,0.230304,0.1329422,-1.209056,0.4225321,0.1259729,0.8029647,1.744759,0.2028122,0.1178604,1.476729,0.1928164,277.4131,252.3274,342.3472,True
1,1.811115,0.07105909,-0.02572535,0.1034925,-1.495181,-4.370076,-2.357175,0.4104347,1.497683,0.3965051,-1.076661,0.4552537,33.52,100,-0.171431,0.1597686,-0.05076126,-0.374988,-3.947188,0.07957578,0.5827529,1.723661,0.3398781,-0.03734455,0.228185,0.1287383,-1.207385,0.424939,0.1257712,0.8019938,1.745098,0.203171,0.1169019,1.474311,0.1915523,277.8721,251.8602,342.4943,True
1,1.822226,0.06565911,0.0009087138,0.106558,-1.496603,-4.369718,-2.35769,0.4093589,1.497604,0.3963385,-1.070755,0.5317513,37.46,100,-0.1652031,0.1587355,-0.07212326,-0.3764282,-3.942146,0.07653259,0.5815753,1.723585,0.3398113,-0.04165873,0.2292699,0.1234668,-1.205818,0.427544,0.1253648,0.8010911,1.745287,0.2035234,0.1157189,1.471742,0.1905698,278.3512,251.9664,342.1644,True
1,1.833337,0.06029861,0.01475934,0.1096887,-1.498057,-4.369242,-2.358204,0.4083669,1.497441,0.3961139,-1.064054,0.6033794,41.15,100,-0.1598913,0.1544872,-0.07429977,-0.3772059,-3.937526,0.07390618,0.5803938,1.723629,0.3397274,-0.03753634,0.2250513,0.1106253,-1.204679,0.4299716,0.1247502,0.8001513,1.745508,0.2038465,0.1144312,1.469041,0.1899968,278.851,252.3874,341.6371,True
1,1.844448,0.05288305,0.003007736,0.10869,-1.498457,-4.367981,-2.358836,0.4073774,1.497407,0.3955967,-1.057031,0.6318625,44.61,100,-0.1438077,0.129994,-0.06486028,-0.3774658,-3.935848,0.07343826,0.5793963,1.723648,0.3397205,-0.03677066,0.2059709,0.08285952,-1.204461,0.4318136,0.1244407,0.7992572,1.745721,0.2041481,0.1130511,1.466267,0.1898181,279.3909,253.0899,340.9762,True
1,1.855559,0.05825367,-0.01619095,0.1013253,-1.498489,-4.366781,-2.359768,0.406469,1.497334,0.3953362,-1.049452,0.6821843,47.84,100,-0.1244734,0.1150829,-0.04691594,-0.3772943,-3.933784,0.07224863,0.5783749,1.723655,0.3397317,-0.0327112,0.1879194,0.06464718,-1.204136,0.433377,0.1241648,0.7983965,1.745914,0.2044775,0.1116227,1.463444,0.1899531,279.9229,253.6586,340.5705,True
1,1.86667,0.05194845,-0.04927079,0.09405249,-1.498006,-4.364929,-2.360345,0.4055802,1.497307,0.3950651,-1.041451,0.7198822,50.87,100,-0.1096815,0.1055343,-0.06408144,-0.3785167,-3.930988,0.07045925,0.577444,1.723654,0.3397224,-0.03481268,0.1783303,0.06677242,-1.203037,0.4351605,0.1239315,0.7976416,1.746087,0.2047224,0.110199,1.460564,0.1902424,280.4199,254.2774,340.2521,True
1,1.877781,0.04879994,-0.06847616,0.08989238,-1.497617,-4.36331,-2.360897,0.4046848,1.497262,0.3948336,-1.033274,0.7356049,56.6,100,-0.1032705,0.09701838,-0.06307507,-0.3791116,-3.928773,0.06935643,0.576497,1.723672,0.3396809,-0.03782148,0.1623004,0.08379687,-1.201436,0.4364227,0.1240463,0.796895,1.746268,0.2049468,0.1088515,1.457597,0.1904589,280.893,254.6538,340.2373,True
1,1.888893,0.047803,-0.09622084,0.08258244,-1.496686,-4.36129,-2.361545,0.4038625,1.497334,0.3947179,-1.024049,0.8309758,61.96,100,-0.1021842,0.1002143,-0.05987835,-0.3794903,-3.925246,0.06719342,0.5755545,1.723613,0.3395,-0.03885505,0.1548374,0.08698535,-1.200084,0.4379353,0.1240024,0.7960827,1.746458,0.2052152,0.107723,1.454477,0.1905211,281.3494,254.6709,340.4678,True
1,1.900004,0.04679801,-0.118605,0.0805644,-1.495853,-4.359277,-2.36223,0.4030676,1.497245,0.3943515,-1.014847,0.8280261,66.98,100,-0.09996256,0.1140492,-0.04603364,-0.3794674,-3.920548,0.06384929,0.5745362,1.723593,0.3394585,-0.04097195,0.150574,0.08806333,-1.198874,0.4394795,0.1239579,0.7952465,1.746651,0.2054613,0.1068104,1.451187,0.1903314,281.8533,254.4536,340.7955,True
1,1.911115,0.05430183,-0.1367055,0.07851845,-1.494911,-4.357212,-2.36324,0.4023028,1.497258,0.3942235,-1.005513,0.8398774,71.68,100,-0.09361468,0.1204573,-0.05033645,-0.3800661,-3.916078,0.06058105,0.573677,1.72378,0.3395002,-0.04423849,0.1548574,0.0817229,-1.19792,0.4414031,0.1238695,0.7945474,1.746911,0.2057354,0.1060814,1.447737,0.1898813,282.4214,254.0487,341.1648,True
1,1.922226,0.0574769,-0.130289,0.08168344,-1.494878,-4.355619,-2.364,0.4015901,1.497207,0.3943334,-0.9960552,0.8511692,78.6,100,-0.08921121,0.1087254,-0.03440042,-0.3798509,-3.91408,0.05952005,0.572884,1.723834,0.3394718,-0.0411609,0.1516954,0.07101991,-1.197396,0.4429905,0.12365,0.7939907,1.747092,0.2059836,0.1055418,1.444151,0.1892137,283.0316,253.4684,341.6261,True
1,1.933337,0.0638417,-0.1206897,0.08056276,-1.494781,-4.354303,-2.365012,0.4009566,1.497164,0.3941987,-0.9867874,0.8336833,85.08,100,-0.08065479,0.1161918,-0.02912607,-0.3798227,-3.909796,0.05612985,0.572113,1.723884,0.3393633,-0.0381145,0.1389607,0.05709637,-1.197037,0.4442114,0.1235161,0.7933307,1.747302,0.2062924,0.1051332,1.440447,0.1883544,283.6551,252.8619,342.0678,True
1,1.944448,0.06913947,-0.1121594,0.07839063,-1.494821,-4.353069,-2.365967,0.4002075,1.497149,0.3945279,-0.9769455,0.8863091,91.14,100,-0.0775195,0.1055544,-0.03874952,-0.3805716,-3.907339,0.05461424,0.5713104,1.723982,0.3393326,-0.0424691,0.1336562,0.0486009,-1.19665,0.4454916,0.1236721,0.7926642,1.74735,0.2065227,0.1048862,1.436651,0.1874526,284.3051,252.2039,342.4449,True
1,1.955559,0.07868602,-0.09938292,0.07192406,-1.494784,-4.352194,-2.367213,0.3996085,1.497088,0.3944244,-0.9675941,0.8411158,96.81,100,-0.07323235,0.08425391,-0.03880648,-0.3810046,-3.906825,0.054798,0.570591,1.724049,0.3393345,-0.04148713,0.1251646,0.04110866,-1.196255,0.4467073,0.1236823,0.7920562,1.747559,0.2067337,0.1047281,1.43282,0.1866596,284.995,251.7642,342.5634,True
1,1.966671,0.08608216,-0.07702781,0.06434751,-1.495062,-4.351758,-2.36852,0.3990199,1.497026,0.3944304,-0.9580477,0.8594199,100,100,-0.07319896,0.08318028,-0.03454376,-0.381126,-3.904489,0.05343739,0.5698317,1.724019,0.3392668,-0.03936344,0.1187737,0.03999956,-1.195698,0.4477764,0.1235749,0.7914441,1.747774,0.2069449,0.1045633,1.429002,0.1860589,285.6858,251.4117,342.6386,True
1,1.977782,0.08496741,-0.05786928,0.06212529,-1.495526,-4.351164,-2.369488,0.3984897,1.496751,0.3939073,-0.9490142,0.8125136,100,100,-0.07427081,0.1076818,-0.03131111,-0.3812123,-3.898641,0.04888312,0.5690947,1.724045,0.3391943,-0.04135671,0.1261886,0.05283162,-1.194424,0.4494062,0.1235254,0.7908344,1.747956,0.2070949,0.1043268,1.425245,0.1857572,286.3684,251.1327,342.7027,True
1,1.988893,0.08388199,-0.05041519,0.06208839,-1.495805,-4.350473,-2.370431,0.3979168,1.49661,0.3938537,-0.9400862,0.803578,100,100,-0.07547146,0.1098314,-0.04833969,-0.3822483,-3.89497,0.04635099,0.5683916,1.724079,0.3391199,-0.04335564,0.1304077,0.06458847,-1.193089,0.450911,0.123499,0.7902768,1.748165,0.2072868,0.1039756,1.421575,0.1857334,287.0123,251.0331,342.7617,True
1,2.000004,0.08063957,-0.0365991,0.05776751,-1.49626,-4.350028,-2.371195,0.3973636,1.496515,0.3941414,-0.9309666,0.8213702,100,100,-0.07224059,0.09704475,-0.04518037,-0.3825727,-3.893423,0.04569292,0.5676629,1.723988,0.3390546,-0.04336876,0.1378774,0.06248392,-1.19225,0.4528373,0.1231209,0.7897431,1.748198,0.2075293,0.1035041,1.418,0.1859426,287.604,251.1554,342.7635,True
1,2.011115,0.0742327,-0.03021383,0.05987209,-1.496726,-4.349427,-2.371858,0.396862,1.496381,0.3941011,-0.9225067,0.7611969,100,100,-0.0723101,0.08534101,-0.05584547,-0.3834851,-3.8916,0.0448234,0.5669354,1.724063,0.3389962,-0.0466432,0.1400383,0.05506959,-1.19168,0.4546091,0.1230612,0.7891968,1.748309,0.2077637,0.1029333,1.414521,0.1862176,288.1646,251.4246,342.7521,True
1,2.022226,0.07635054,-0.02593075,0.06303838,-1.497116,-4.348801,-2.372763,0.3963738,1.496345,0.394119,-0.9144374,0.7264324,100,100,-0.07874405,0.08640609,-0.06112045,-0.3843074,-3.888744,0.0432508,0.5662005,1.724096,0.3389449,-0.04676787,0.1411444,0.0433587,-1.191312,0.4563597,0.1228892,0.7886029,1.748443,0.2080324,0.1024369,1.411186,0.1865637,288.7441,251.5095,342.8125,True
1,2.033337,0.0731554,-0.02701549,0.06091652,-1.49729,-4.348155,-2.373476,0.3958954,1.496332,0.3940516,-0.9068298,0.6847596,100,100,-0.08297824,0.08213913,-0.05789681,-0.3848081,-3.886367,0.04215385,0.5656092,1.724191,0.3389773,-0.04361172,0.1432942,0.03906891,-1.190804,0.4581853,0.1224889,0.7881229,1.748531,0.2082696,0.102055,1.408056,0.186996,289.3226,251.5417,342.8373,True
1,2.044448,0.07743318,-0.03448863,0.05669001,-1.497151,-4.347278,-2.374576,0.3953273,1.496103,0.3933861,-0.9000627,0.6085933,100,100,-0.0829202,0.07254159,-0.05150789,-0.3850271,-3.885143,0.04197967,0.5649203,1.724277,0.3389478,-0.03940296,0.1369197,0.03367921,-1.190373,0.4595522,0.1221997,0.7876064,1.748684,0.2084961,0.1017257,1.405178,0.1874087,289.8631,251.6458,342.8409,True
1,2.055559,0.08169828,-0.0387763,0.04925036,-1.496962,-4.346658,-2.375667,0.3948597,1.496075,0.3932819,-0.8934453,0.5959994,100,100,-0.07535432,0.06401687,-0.03879237,-0.3850228,-3.883934,0.04147554,0.5644041,1.724388,0.3389838,-0.03732842,0.1230948,0.02828603,-1.190091,0.460599,0.1221432,0.7871845,1.748809,0.2086658,0.1014574,1.402577,0.1877377,290.341,251.7254,342.8835,True
1,2.06667,0.08063643,-0.0409077,0.05032833,-1.497011,-4.345812,-2.376544,0.3944374,1.495927,0.3928697,-0.8881909,0.4722517,100,100,-0.06679524,0.05976064,-0.03459658,-0.3851719,-3.882487,0.0405959,0.5638216,1.72443,0.3389699,-0.03632062,0.1103287,0.02290662,-1.189927,0.4614175,0.1222058,0.7867317,1.748946,0.2088454,0.1011673,1.400261,0.1878621,290.7391,251.8002,342.9713,True
1,2.077781,0.07851841,-0.04516914,0.05141753,-1.49699,-4.344933,-2.377399,0.3940099,1.495899,0.3927479,-0.8834099,0.4305539,100,100,-0.05728579,0.06084672,-0.04425062,-0.3858766,-3.880683,0.03926352,0.5635257,1.724364,0.3389957,-0.03100034,0.09861995,0.02174735,-1.18958,0.4622273,0.1220181,0.7864443,1.749055,0.208993,0.1008369,1.398192,0.187663,291.0346,251.7955,343.1116,True
1,2.088892,0.07535107,-0.05800483,0.04402572,-1.496348,-4.34396,-2.378212,0.393706,1.495787,0.3920994,-0.8790205,0.3953429,100,100,-0.0551751,0.06298287,-0.04639167,-0.3863879,-3.878553,0.0378539,0.5630484,1.724371,0.3389974,-0.03315724,0.09863165,0.01964481,-1.189214,0.4634707,0.1220306,0.7860078,1.749245,0.2091801,0.1006564,1.396377,0.1872753,291.2968,251.679,343.1918,True
1,2.100003,0.06685349,-0.0676045,0.04515076,-1.49607,-4.34285,-2.378725,0.3934192,1.495747,0.3921051,-0.875413,0.3245298,100,100,-0.05076823,0.04592618,-0.03046198,-0.3861392,-3.878731,0.03844513,0.562613,1.72441,0.338933,-0.0321044,0.1060874,0.01859147,-1.188884,0.4649189,0.1218157,0.7857602,1.74948,0.2093251,0.1006028,1.394804,0.1867217,291.5334,251.5756,343.182,True
1,2.111114,0.06045991,-0.07518735,0.02388978,-1.495027,-4.342343,-2.379191,0.3931063,1.495756,0.3919239,-0.8723221,0.2782883,100,100,-0.04758763,0.04486548,-0.03261939,-0.3865552,-3.877578,0.03779052,0.5621484,1.724433,0.3388665,-0.02988041,0.1103211,0.02710366,-1.188123,0.4662985,0.121556,0.7853633,1.749672,0.2094867,0.1006605,1.393472,0.1860715,291.736,251.4445,343.1763,True
1,2.122225,0.04765055,-0.06887278,0.01642131,-1.494658,-4.341893,-2.37932,0.3928201,1.495602,0.3913176,-0.869414,0.2621215,100,100,-0.05094666,0.05341017,-0.05175663,-0.3877594,-3.874836,0.03597371,0.5616443,1.724504,0.3388133,-0.02449095,0.1081763,0.03236875,-1.187394,0.4674451,0.1211472,0.785056,1.749841,0.2096062,0.1007932,1.392338,0.1853299,291.8785,251.218,343.2723,True
1,2.133336,0.004995491,-0.05085069,0.02170026,-1.495026,-4.341659,-2.377922,0.3925608,1.495551,0.391259,-0.8671764,0.2011412,100,100,-0.05412511,0.05340107,-0.049599,-0.388193,-3.873342,0.03529354,0.5612174,1.724513,0.3387048,-0.01911853,0.1028424,0.0365554,-1.18669,0.4684867,0.1207975,0.7847019,1.750005,0.2097054,0.1010182,1.391403,0.1846422,292.0074,250.9178,343.3368,True
1,2.144447,-0.0205252,-0.06364266,0.03351225,-1.494852,-4.340199,-2.376908,0.3921596,1.495593,0.3911371,-0.8649803,0.1981422,100,100,-0.05092551,0.07044387,-0.04747261,-0.3885168,-3.869782,0.03232465,0.560812,1.724597,0.3386068,-0.02238189,0.1007321,0.03019218,-1.186448,0.4696019,0.120736,0.7843423,1.750171,0.2098343,0.1011255,1.390631,0.1840285,292.0979,250.6453,343.4197,False
1,2.155558,-0.006381651,-0.1776614,0.02023003,-1.490598,-4.336095,-2.377758,0.3915497,1.496068,0.3907344,-0.8619071,0.278494,100,100,-0.05409178,0.06616933,-0.04425956,-0.3889579,-3.868349,0.03171372,0.5604553,1.724746,0.3386097,-0.01498207,0.1018196,0.02478659,-1.186239,0.4709232,0.1201301,0.7840022,1.750368,0.2099526,0.1010444,1.389997,0.1834796,292.1661,250.5478,343.4246,False
1,2.166669,0.0184285,-0.3034506,-0.008982211,-1.484603,-4.331355,-2.379194,0.3909767,1.496559,0.3904023,-0.8608242,0.09601433,100,100,-0.04649841,0.05123668,-0.02942196,-0.3888135,-3.868704,0.03231879,0.5600335,1.724853,0.3385777,-0.01608086,0.09969439,0.02159202,-1.186028,0.4719556,0.1199248,0.7837027,1.750576,0.2100623,0.1008359,1.389596,0.1830633,292.3061,250.5667,343.3328,False
1,2.17778,0.01539614,-0.3716926,-0.02141269,-1.480009,-4.327372,-2.379478,0.3905257,1.497,0.3903701,-0.8614852,-0.06167592,100,100,-0.03902818,0.04591844,-0.02842054,-0.389082,-3.867748,0.03163729,0.5596513,1.724918,0.3385382,-0.01818136,0.1039419,0.02482386,-1.185489,0.4733121,0.1197693,0.7834362,1.750723,0.2101641,0.1005394,1.389479,0.1826725,292.4076,250.422,343.5438,False
1,2.188891,-0.005691189,-0.4548689,-0.02629273,-1.474119,-4.321881,-2.37916,0.3900272,1.49744,0.3901038,-0.8611842,0.02754127,100,100,-0.03272348,0.04913559,-0.03911811,-0.3899017,-3.86586,0.03006016,0.5592345,1.725005,0.3384454,-0.01385024,0.1028572,0.03116462,-1.184808,0.4744492,0.1193615,0.7830946,1.750992,0.2102244,0.1003503,1.389539,0.1821518,292.3233,249.5788,344.5196,False
1,2.200002,0.001859922,-0.4921296,-0.0261081,-1.469538,-4.317317,-2.37979,0.3895725,1.497859,0.3901145,-0.8591927,0.1812302,100,100,-0.02850703,0.05553921,-0.04340578,-0.3905313,-3.863587,0.02819169,0.5587422,1.725013,0.3383121,-0.01272523,0.09218714,0.03644428,-1.184145,0.475051,0.1192446,0.7827577,1.751225,0.2102838,0.1004391,1.389598,0.181491,292.1185,248.3373,345.7169,False
1,2.211113,0.01136282,-0.4622977,-0.03053144,-1.466276,-4.314572,-2.380546,0.3891981,1.498053,0.3899474,-0.8575475,0.1483476,100,100,-0.0337734,0.0725637,-0.03269157,-0.3904695,-3.859942,0.02536368,0.5583215,1.725104,0.3381703,-0.01463255,0.08040967,0.0556007,-1.182822,0.4754341,0.1191948,0.7823807,1.751444,0.2103274,0.1007511,1.38958,0.1807122,291.9879,247.3392,346.52,False
1,2.222224,0.001625273,-0.4047593,-0.02335694,-1.464605,-4.312817,-2.380376,0.3888586,1.498039,0.3897214,-0.8578905,-0.03283019,100,100,-0.04760828,0.09064496,-0.02723255,-0.3904897,-3.855858,0.02266483,0.55793,1.725223,0.3379469,-0.01232205,0.08461747,0.07157078,-1.181328,0.4764315,0.1188175,0.7820795,1.751674,0.210376,0.1011754,1.389462,0.179725,291.9816,246.3451,347.2802,False
1,2.233335,-0.01785173,-0.2843202,-0.001579985,-1.46594,-4.313143,-2.379431,0.3886184,1.497916,0.3897846,-0.8577728,0.01082509,100,100,-0.06249406,0.1204404,-0.01856352,-0.3903811,-3.849612,0.01809911,0.5575432,1.725385,0.3377476,-0.01018045,0.08461774,0.07261413,-1.180368,0.4773994,0.1184923,0.7817708,1.751816,0.2103977,0.1016877,1.389247,0.1786254,292.0203,245.4035,347.8852,False
1,2.244446,-0.0437547,-0.148968,0.02439141,-1.4687,-4.314306,-2.377955,0.3884795,1.497653,0.3898528,-0.8564939,0.1165206,100,100,-0.06775399,0.1108395,-0.01107645,-0.3902655,-3.847351,0.01695741,0.5572792,1.725512,0.3375413,-0.01133823,0.08251257,0.06408978,-1.179972,0.4782388,0.11832,0.7815402,1.751963,0.2104089,0.1021201,1.388897,0.1775228,292.052,244.7595,348.1577,False
1,2.255557,-0.05890804,-0.05411683,0.03990289,-1.471388,-4.315661,-2.37661,0.3883243,1.49743,0.3899596,-0.8554755,0.09190626,100,100,-0.0611729,0.09057806,0.01016108,-0.3893153,-3.846669,0.01680881,0.5569252,1.725571,0.3373592,-0.01361308,0.07936221,0.05132311,-1.179698,0.4791086,0.1182646,0.7812443,1.752132,0.2103665,0.1023487,1.388453,0.176547,292.1479,244.5166,348.0345,False
1,2.266668,-0.1201209,0.1386774,0.06668183,-1.47808,-4.320295,-2.372738,0.3882393,1.496967,0.3901877,-0.8547367,0.06670319,100,100,-0.06335026,0.08206127,0.002711155,-0.3895283,-3.845021,0.01606978,0.5565868,1.725646,0.3372049,-0.01573203,0.0814832,0.0524145,-1.179013,0.4799989,0.1181743,0.7809718,1.752347,0.2103844,0.1023394,1.388061,0.1758935,292.3234,244.7704,347.4712,False
1,2.277779,-0.1075229,0.2176474,0.08543787,-1.482449,-4.322704,-2.371874,0.3878744,1.496967,0.3903735,-0.8546973,0.002998153,100,100,-0.05795652,0.05543035,0.006896538,-0.3894543,-3.845789,0.01727166,0.5562655,1.725827,0.3371813,-0.01123945,0.09206833,0.07371069,-1.177176,0.4813084,0.1176563,0.7806906,1.752485,0.2104459,0.102086,1.387856,0.1756477,292.5032,245.3102,346.8006,False
1,2.28889,-0.1118198,0.2325716,0.08962733,-1.485397,-4.324106,-2.370382,0.3875015,1.49688,0.3903821,-0.8524651,0.2041108,100,100,-0.07258309,0.0340655,0.04001175,-0.3877743,-3.846818,0.01953535,0.5558677,1.72587,0.3370154,-0.01534835,0.08989338,0.08759737,-1.17564,0.4821358,0.1176768,0.7805089,1.75265,0.210465,0.1015798,1.387924,0.175835,292.6148,245.9384,346.1669,False
1,2.300001,-0.146961,0.2239206,0.08330846,-1.487149,-4.325077,-2.367371,0.3870453,1.497081,0.3903394,-0.855027,-0.2359925,100,100,-0.1067464,0.02764199,0.02961403,-0.3878835,-3.846511,0.02163206,0.5554317,1.725732,0.3367884,-0.007864617,0.09201505,0.08965236,-1.174477,0.483141,0.1170592,0.7802306,1.752778,0.2105458,0.1006294,1.388447,0.1764324,292.7676,247.091,345.1462,False
1,2.311112,-0.1661056,0.2045907,0.06318624,-1.488275,-4.32618,-2.364785,0.3865919,1.497092,0.390188,-0.8545924,0.04198751,100,100,-0.1293212,0.04999201,0.008475818,-0.3884567,-3.843931,0.02115961,0.5550553,1.725676,0.3365593,-0.0004868358,0.09630124,0.08319698,-1.17359,0.484402,0.116431,0.7799158,1.752964,0.2105682,0.0994411,1.389411,0.1773406,292.6821,248.0348,344.562,False
1,2.322223,-0.1916441,0.193831,0.05580969,-1.489797,-4.327212,-2.361881,0.3861644,1.497209,0.389914,-0.8529167,0.1525943,100,100,-0.1251522,0.05641845,-0.003235921,-0.3889312,-3.840587,0.01952763,0.5545313,1.725569,0.3363407,0.006792083,0.104871,0.0671607,-1.173348,0.485887,0.1155455,0.7797167,1.753172,0.2106228,0.09817161,1.390659,0.1783304,292.4025,248.7061,344.3918,False
1,2.333334,-0.2096641,0.1478119,0.02410453,-1.489162,-4.327801,-2.358887,0.3855798,1.497574,0.3897262,-0.8532395,-0.03071818,100,100,-0.1122096,0.0361738,0.0136836,-0.3882601,-3.841493,0.02114976,0.5541285,1.725555,0.3361633,0.02072318,0.1080474,0.07447635,-1.172105,0.4871742,0.1143247,0.7793353,1.753497,0.210732,0.09684752,1.392142,0.1791546,292.1089,249.1759,344.3992,False
1,2.344445,-0.2106531,0.1060983,-0.00763832,-1.488174,-4.328407,-2.356534,0.3849058,1.497916,0.3893239,-0.8530797,0.0150908,100,100,-0.1110429,0.02338193,0.02430953,-0.3876934,-3.841874,0.02270451,0.5536701,1.725516,0.3358581,0.02720511,0.1080147,0.08291873,-1.170868,0.4882115,0.1134792,0.7788973,1.753766,0.2107606,0.09556741,1.393764,0.1796888,291.7574,249.5607,344.3799,False
1,2.355556,-0.2095753,0.09543543,-0.0139778,-1.488663,-4.329403,-2.354056,0.3841579,1.498357,0.3894451,-0.8530414,0.003419124,100,100,-0.117396,0.03188857,0.03076054,-0.3871043,-3.840198,0.0226627,0.553155,1.725558,0.3355646,0.03586157,0.09306419,0.09449074,-1.169453,0.4886319,0.1125849,0.7784326,1.754079,0.2107506,0.09440717,1.395457,0.1798584,291.4321,249.9188,344.2531,False
1,2.366668,-0.2234359,0.09857627,-0.01717591,-1.489331,-4.330472,-2.351033,0.3833175,1.498742,0.3890798,-0.8537748,-0.06699885,100,100,-0.1163406,0.03827501,0.03076109,-0.3867602,-3.838679,0.02253141,0.5525886,1.725607,0.335237,0.04338959,0.08878078,0.1007931,-1.167943,0.4893635,0.1115662,0.7779305,1.754349,0.2107491,0.09334994,1.397158,0.1796536,291.1361,249.8588,344.367,False
1,2.377779,-0.2373066,0.09959737,-0.02249528,-1.490037,-4.331817,-2.347647,0.3824276,1.499276,0.3892086,-0.8538164,-0.003170814,100,100,-0.110039,0.05320768,0.02220899,-0.3867501,-3.835859,0.02098757,0.5519472,1.725681,0.3348715,0.05630454,0.08448538,0.1123599,-1.166162,0.4900601,0.1101747,0.7772354,1.754807,0.2106478,0.0923834,1.398794,0.1791703,290.8516,249.5682,344.5147,False
1,2.38889,-0.2426044,0.08677233,-0.02775057,-1.490083,-4.332531,-2.344709,0.381466,1.499837,0.3891141,-0.853313,0.04599011,100,100,-0.1057625,0.05853402,0.02537377,-0.3863735,-3.833792,0.02015241,0.5512634,1.725861,0.3345444,0.05850335,0.08979891,0.1187443,-1.164533,0.4912844,0.1090088,0.7766277,1.755217,0.2105191,0.09146768,1.400352,0.1785993,290.636,249.5086,344.316,False
1,2.400001,-0.247848,0.05154657,-0.03928877,-1.489002,-4.332786,-2.341787,0.3803716,1.500396,0.3886178,-0.852995,0.02877053,100,100,-0.1100699,0.05427305,0.02007779,-0.3862915,-3.832669,0.0206664,0.5504842,1.726018,0.3341007,0.06734541,0.1024836,0.1474521,-1.161797,0.4926124,0.1074087,0.7759769,1.755689,0.2103724,0.09043479,1.401835,0.1779773,290.4989,249.5958,344.0129,False
1,2.411112,-0.2498529,-0.000728786,-0.05286814,-1.487009,-4.332308,-2.338977,0.3791061,1.501218,0.3884594,-0.8534611,-0.04278545,100,100,-0.1089046,0.06384579,0.0349897,-0.3854313,-3.82998,0.01940965,0.5497003,1.726199,0.3337364,0.0782098,0.1120134,0.1665345,-1.159259,0.494094,0.1055903,0.7752751,1.756184,0.2102203,0.08930761,1.403324,0.1774814,290.4268,249.5754,343.8236,False
1,2.422223,-0.2497655,-0.04021297,-0.06651058,-1.48498,-4.331932,-2.336187,0.3779677,1.502053,0.3885088,-0.8535735,-0.009828015,100,100,-0.1120577,0.06916082,0.04141221,-0.3847197,-3.827461,0.0184336,0.5488302,1.726431,0.3332725,0.08670439,0.121605,0.1643373,-1.157415,0.4956466,0.103761,0.7743884,1.756819,0.2100501,0.08802453,1.404838,0.1771086,290.3114,249.4672,343.8788,False
1,2.433334,-0.2475079,-0.094629,-0.08434508,-1.481734,-4.330972,-2.333627,0.3766297,1.502976,0.3883009,-0.8536864,-0.01023119,100,100,-0.1098507,0.08406028,0.05419589,-0.383672,-3.823815,0.0162285,0.5477985,1.726679,0.3327918,0.09311429,0.1237332,0.1664047,-1.155385,0.4970524,0.1020342,0.7734866,1.757442,0.209856,0.08655333,1.406368,0.1767764,290.1563,249.2103,344.2012,False
1,2.444445,-0.2399485,-0.1404866,-0.09903275,-1.478526,-4.330094,-2.331229,0.3753574,1.50384,0.3880951,-0.8537658,-0.007144689,100,100,-0.1076294,0.09469813,0.06803656,-0.3824496,-3.820232,0.01409292,0.5466326,1.726996,0.3322389,0.1017519,0.1311633,0.1769914,-1.152848,0.4987611,0.09995829,0.7724494,1.758157,0.2096472,0.08505209,1.407943,0.1765354,290.0098,248.7533,344.6731,False
1,2.455556,-0.2164621,-0.1660775,-0.117033,-1.475436,-4.329666,-2.329645,0.3739102,1.504693,0.387697,-0.8539761,-0.01918815,100,100,-0.1172755,0.1255779,0.06601941,-0.3817008,-3.8139,0.009856892,0.5453763,1.727228,0.3315711,0.1032774,0.1374086,0.2185452,-1.148931,0.5000965,0.09820247,0.7713296,1.758921,0.20941,0.08360562,1.409573,0.1764212,289.8553,248.2806,345.1417,False
1,2.466667,0.01479429,-0.2006423,-0.1234986,-1.471905,-4.32846,-2.337596,0.3722553,1.505659,0.3873811,-0.85417,-0.01754421,100,100,-0.1334378,0.1500775,0.04699572,-0.3818249,-3.807439,0.005911951,0.5440304,1.727499,0.3309059,0.1100072,0.141576,0.2493813,-1.144964,0.5016406,0.0961489,0.7701789,1.759657,0.2092156,0.08212012,1.411226,0.1763278,289.6685,247.7269,345.7439,False
1,2.477778,0.0009813942,-0.2188361,-0.1329753,-1.468634,-4.327662,-2.337325,0.3707781,1.506273,0.3870783,-0.8550004,-0.07580303,100,100,-0.1335314,0.169262,0.03849409,-0.3816571,-3.800826,0.001255148,0.5425885,1.727635,0.3301501,0.1310229,0.1594515,0.3195249,-1.138888,0.5035316,0.0932125,0.7687296,1.760555,0.2089179,0.08059173,1.412857,0.1761987,289.4581,247.1822,346.3616,False
1,2.488889,-0.1119316,-0.219102,-0.1253944,-1.466073,-4.326816,-2.33235,0.3692958,1.506819,0.3868184,-0.8641585,-0.8369834,100,100,-0.1400462,0.1852491,0.02577891,-0.3817721,-3.793931,-0.003351056,0.5411814,1.727791,0.3294683,0.1549947,0.1816674,0.3683416,-1.13312,0.5059353,0.08979114,0.7673631,1.761409,0.2086933,0.07896431,1.414404,0.1759759,289.2526,246.6749,346.9302,False
1,2.5,-0.1609456,-0.2138978,-0.1243058,-1.463623,-4.32639,-2.328979,0.3678092,1.507297,0.3863811,-0.8562905,0.7259926,100,100,-0.1466088,0.2268057,0.01096442,-0.3821423,-3.783323,-0.01137516,0.5396323,1.727871,0.3286507,0.1627225,0.1943636,0.3927985,-1.127923,0.5081216,0.08682171,0.7659986,1.762213,0.2084374,0.07768333,1.415306,0.1758745,288.6284,245.9731,347.6215,False
1,2.511111,-0.1907552,-0.2182064,-0.1178596,-1.461019,-4.325427,-2.325839,0.3662573,1.507593,0.3860321,-0.8502318,0.5466699,100,100,-0.1541541,0.2470453,0.003591217,-0.3823564,-3.7743,-0.01779018,0.5381097,1.727845,0.327734,0.1724514,0.2156216,0.406616,-1.122742,0.5109746,0.08349836,0.7645595,1.763068,0.2081213,0.07639655,1.415375,0.175746,288.4129,245.6403,347.9204,False
1,2.522222,-0.1917983,-0.2235047,-0.1114474,-1.458241,-4.3244,-2.324155,0.3647442,1.507933,0.3852496,-0.851526,-0.1222261,100,100,-0.1785875,0.2597852,0.01444826,-0.3818648,-3.765358,-0.02327177,0.536593,1.727849,0.3269229,0.1671461,0.2230647,0.4088299,-1.11795,0.513478,0.08076249,0.7631235,1.763906,0.2078624,0.07480512,1.415065,0.1754129,288.8491,245.3759,348.1945,False
1,2.533333,-0.1630446,-0.2148394,-0.0987395,-1.456249,-4.323393,-2.323444,0.3631908,1.508074,0.3847222,-0.852236,-0.06310396,100,100,-0.1860412,0.2619092,0.01556741,-0.3817631,-3.757287,-0.02839968,0.5347806,1.727703,0.3260865,0.1660525,0.2337203,0.4067445,-1.113337,0.5162726,0.0777667,0.7615033,1.764771,0.2075644,0.07304057,1.414805,0.1749033,289.4146,244.8513,348.7553,False
1,2.544444,-0.1205568,-0.1581776,-0.07989654,-1.456063,-4.323552,-2.323607,0.361569,1.507987,0.3838425,-0.8539277,-0.1541217,100,100,-0.1777101,0.2630059,-0.00793571,-0.3827325,-3.749655,-0.03370976,0.5331147,1.727678,0.3252859,0.178904,0.251811,0.4130543,-1.108274,0.5196741,0.07381324,0.7598565,1.765607,0.2073367,0.071256,1.414847,0.1742483,289.7997,244.2898,349.3693,False
1,2.555555,-0.006606998,-0.1408383,-0.0811801,-1.454468,-4.32349,-2.327272,0.35997,1.508203,0.3828254,-0.8551112,-0.1068793,100,100,-0.1705146,0.266248,-0.04101442,-0.3844268,-3.741643,-0.03951359,0.5312959,1.727272,0.3244681,0.1832451,0.2677736,0.4205089,-1.103172,0.5232469,0.07005712,0.7581451,1.766448,0.2071557,0.0695858,1.415255,0.1734408,289.8664,243.7636,349.9392,False
1,2.566666,-0.09196198,-0.09098318,-0.07814482,-1.454344,-4.324481,-2.323838,0.3586839,1.507684,0.3821015,-0.8561008,-0.08982282,100,100,-0.172939,0.2748087,-0.07720882,-0.3865962,-3.732982,-0.04552354,0.5294756,1.726787,0.3235323,0.194131,0.2954067,0.4417867,-1.097254,0.5276784,0.06550205,0.7562286,1.767246,0.2069099,0.06807017,1.415911,0.172532,289.6477,243.4296,350.2208,False
1,2.577777,-0.09205056,-0.05149902,-0.06449951,-1.454479,-4.325109,-2.322263,0.3570161,1.507384,0.3813107,-0.859344,-0.2960967,100,100,-0.1837216,0.2865297,-0.09202876,-0.3882862,-3.723783,-0.05165414,0.5275394,1.726234,0.3226213,0.2038087,0.3049574,0.4513004,-1.091719,0.5313377,0.06137734,0.7544274,1.768125,0.2065902,0.06656301,1.416622,0.1715051,289.3034,243.4401,350.1494,False
1,2.588888,-0.1198425,-0.0153379,-0.06145759,-1.45484,-4.326256,-2.320048,0.3556893,1.506597,0.3807411,-0.8523889,0.6381037,100,100,-0.1891801,0.3121126,-0.1047446,-0.3900562,-3.712671,-0.05972432,0.5256318,1.72563,0.3216753,0.2340993,0.3144098,0.4936168,-1.084691,0.5350902,0.05609203,0.7524947,1.769005,0.2062728,0.06523126,1.417018,0.1705164,288.7956,243.1765,350.3057,False
1,2.599999,-0.1166371,-0.01636408,-0.0550638,-1.454197,-4.326285,-2.319166,0.3542514,1.50607,0.3799078,-0.8533237,-0.09123382,100,100,-0.1850379,0.3270472,-0.1175447,-0.3920162,-3.702219,-0.06749462,0.5237244,1.724969,0.3207202,0.2690368,0.3482537,0.571107,-1.07575,0.540225,0.04965517,0.7506602,1.769825,0.2059224,0.06376233,1.417081,0.1695539,288.6416,243.1927,350.1412,False
1,2.61111,-0.08998118,-0.02373318,-0.05185967,-1.453531,-4.326268,-2.319062,0.3528407,1.505293,0.3792734,-0.85306,0.0255602,100,100,-0.1726542,0.333512,-0.1677092,-0.3958011,-3.692844,-0.07466465,0.5217577,1.724252,0.3197272,0.3028065,0.3831895,0.639033,-1.066212,0.5458977,0.04244519,0.7487938,1.770681,0.2056012,0.06208336,1.416948,0.1686535,288.6516,243.1643,350.0536,False
1,2.622221,-0.06014716,-0.02470161,-0.048694,-1.452906,-4.326365,-2.319415,0.3516104,1.504446,0.3785417,-0.854283,-0.1120943,100,100,-0.1774528,0.3421079,-0.234783,-0.4010795,-3.683311,-0.08128367,0.519737,1.723527,0.3186915,0.3019642,0.4012223,0.659336,-1.058269,0.551135,0.03664616,0.7469927,1.771426,0.2052739,0.06038327,1.416681,0.1679385,288.6862,243.17,350.0302,False
1,2.633332,-0.02920702,-0.04164872,-0.04438037,-1.45189,-4.325894,-2.319974,0.3503524,1.503442,0.3776431,-0.8551735,-0.08045159,100,100,-0.1906225,0.4134995,-0.2708288,-0.4059073,-3.666785,-0.09380586,0.5176644,1.722811,0.3176253,0.2709394,0.4119153,0.6479912,-1.05144,0.5564992,0.03219309,0.7451597,1.772192,0.2049923,0.05873579,1.416305,0.1673548,288.6723,243.0508,350.244,False
1,2.644443,-0.005762001,-0.0447816,-0.04439031,-1.451108,-4.325838,-2.320694,0.3491246,1.502624,0.3769805,-0.8556012,-0.03859404,100,100,-0.1830493,0.4198838,-0.254901,-0.4086951,-3.655051,-0.1027887,0.515717,1.722108,0.31657,0.2429261,0.4066785,0.6205895,-1.045309,0.5612325,0.02813124,0.7431575,1.772903,0.2045972,0.05725005,1.415749,0.1668982,288.5663,242.9071,350.4976,False
1,2.655554,0.02728982,-0.05426015,-0.04011669,-1.450218,-4.325447,-2.322014,0.3480126,1.501613,0.3763199,-0.8555937,0.000825018,100,100,-0.1626581,0.4081668,-0.2380421,-0.4112501,-3.645861,-0.1101185,0.5137274,1.721414,0.3153973,0.2373052,0.4078283,0.5940146,-1.039407,0.566346,0.02305605,0.741117,1.773553,0.2042515,0.05593583,1.414931,0.1664965,288.4348,242.8802,350.6671,False
1,2.666665,0.06458245,-0.05736121,-0.04120747,-1.449336,-4.32528,-2.323992,0.3469315,1.500613,0.3756621,-0.8556001,-0.0007613317,100,100,-0.1617991,0.4007418,-0.2657556,-0.4156017,-3.636668,-0.1167714,0.5118312,1.720597,0.314317,0.2454136,0.4143496,0.5555868,-1.034417,0.5718475,0.01722293,0.7391105,1.774215,0.203825,0.05472708,1.413792,0.1660258,288.3821,242.8478,350.8266,False
1,2.677776,0.09974825,-0.06584328,-0.05185621,-1.448,-4.325293,-2.32612,0.3458458,1.49947,0.3749285,-0.8559506,-0.03222719,100,100,-0.1546288,0.3730922,-0.3063382,-0.4210021,-3.630558,-0.1207115,0.50982,1.71958,0.3132815,0.259113,0.4207826,0.5416068,-1.028809,0.5773624,0.01103081,0.7370716,1.774889,0.2034075,0.05363616,1.412371,0.1654959,288.4659,242.7485,350.958,False
1,2.688887,0.1370199,-0.06472683,-0.06149102,-1.446819,-4.32552,-2.328799,0.3448176,1.498316,0.3743172,-0.8564289,-0.04360782,100,100,-0.149101,0.3645489,-0.2818928,-0.423783,-3.622141,-0.1268772,0.5079228,1.718552,0.3121057,0.2807359,0.4260364,0.5701476,-1.021491,0.5832777,0.00411485,0.7349863,1.775449,0.2028248,0.0526899,1.410681,0.1649251,288.5996,242.5967,351.0956,False
1,2.699998,0.15937,-0.05936097,-0.06580254,-1.445939,-4.325807,-2.331093,0.3437099,1.496989,0.3736982,-0.8563656,0.005918834,100,100,-0.1449018,0.3624398,-0.2893929,-0.4278097,-3.613453,-0.1332332,0.5059085,1.717381,0.3109677,0.2836803,0.4257937,0.6446882,-1.011883,0.588648,-0.001897769,0.7327853,1.776152,0.2023377,0.05183937,1.408732,0.1643296,288.7473,242.4058,351.2453,False
1,2.711109,0.1838458,-0.05186538,-0.07119453,-1.445041,-4.326308,-2.333894,0.3427117,1.495734,0.3731742,-0.856626,-0.02410914,100,100,-0.1408756,0.390173,-0.3149582,-0.4328446,-3.602454,-0.1418322,0.5040203,1.716186,0.3096831,0.2876337,0.4596609,0.7150708,-1.001784,0.5960106,-0.009016132,0.730754,1.776887,0.2019944,0.05101046,1.406524,0.1637363,288.9169,242.1563,351.4275,False
1,2.72222,0.2019459,-0.04753994,-0.06803507,-1.44439,-4.326406,-2.33659,0.3416133,1.494337,0.3725815,-0.8559826,0.05884188,100,100,-0.146185,0.4040143,-0.3095792,-0.4368703,-3.59178,-0.1496678,0.5020947,1.715176,0.3084817,0.2943806,0.4829926,0.7480929,-0.9926624,0.6034429,-0.01648736,0.728706,1.777508,0.2015603,0.05018959,1.40408,0.1632257,289.1109,241.9293,351.5637,False
1,2.733331,0.2338808,-0.0346214,-0.05854896,-1.444237,-4.326663,-2.340268,0.3407091,1.493029,0.3721938,-0.8561674,-0.0176579,100,100,-0.1587421,0.4018348,-0.2807215,-0.4396149,-3.582529,-0.1558935,0.5004057,1.714172,0.3073206,0.2900721,0.4968655,0.7449732,-0.9849967,0.6106641,-0.02335379,0.7268298,1.77798,0.2010586,0.04929896,1.40145,0.1628216,289.3669,241.8368,351.5918,False
1,2.744442,0.2636824,-0.02062996,-0.04692959,-1.444443,-4.326846,-2.344077,0.3399803,1.491778,0.3717561,-0.8557892,0.03463517,100,100,-0.1683269,0.3986258,-0.2806501,-0.4433636,-3.573702,-0.1616805,0.4986399,1.71312,0.3061869,0.2690465,0.4789736,0.6737751,-0.9799655,0.6163927,-0.02880608,0.7250658,1.778229,0.2007,0.04838397,1.398703,0.1625765,289.6544,241.7957,351.6241,False
1,2.755553,0.2946009,-0.02373479,-0.04375082,-1.443769,-4.326722,-2.348497,0.3392562,1.490397,0.3709257,-0.8564875,-0.06438704,100,100,-0.1747911,0.3869148,-0.2923348,-0.4477381,-3.566037,-0.1665075,0.4969494,1.711959,0.3050902,0.2552484,0.4366595,0.5811026,-0.9765002,0.6207509,-0.03365836,0.7231604,1.77843,0.2002821,0.04744752,1.395902,0.1624601,289.9625,241.8544,351.6256,False
1,2.766664,0.3233937,-0.03969646,-0.05541999,-1.442396,-4.32675,-2.353075,0.3386362,1.489167,0.3703799,-0.8564103,0.007458017,100,100,-0.1597792,0.3581614,-0.2850277,-0.4511507,-3.56027,-0.1704189,0.4954171,1.710912,0.304168,0.2609496,0.4049915,0.5148449,-0.9731159,0.6260917,-0.03991492,0.7214609,1.778566,0.1997099,0.04668033,1.393101,0.1625209,290.2549,242.0241,351.5571,False
1,2.777775,0.3425877,-0.05034521,-0.06497513,-1.441082,-4.326893,-2.357354,0.3380305,1.488014,0.3699136,-0.8566548,-0.02270033,100,100,-0.1256405,0.3432919,-0.2810517,-0.4547039,-3.553861,-0.1759055,0.4938588,1.709795,0.3032184,0.2757443,0.3943658,0.5039933,-0.9679605,0.631209,-0.04633554,0.7196731,1.778976,0.1992521,0.04608738,1.390308,0.1626639,290.5163,242.2984,351.4813,False
1,2.788886,0.3489812,-0.05679025,-0.07879844,-1.439518,-4.327234,-2.361435,0.3374555,1.486792,0.3694153,-0.8565418,0.01028922,100,100,-0.08651876,0.3093033,-0.3250735,-0.4601692,-3.550793,-0.1790235,0.4925437,1.708597,0.3022625,0.2984094,0.3868339,0.5303538,-0.9612967,0.6366951,-0.05358174,0.717926,1.779448,0.1989243,0.04560631,1.387458,0.1627297,290.7222,242.3887,351.6213,False
1,2.799997,0.358593,-0.07068149,-0.09258615,-1.437686,-4.327406,-2.365617,0.3369651,1.485463,0.368705,-0.8559426,0.054492,100,100,-0.08127365,0.2880185,-0.3379188,-0.4647083,-3.547019,-0.181504,0.491136,1.707478,0.3013976,0.299943,0.3856232,0.5729511,-0.9538852,0.6422381,-0.06009663,0.7162219,1.779723,0.198386,0.04528686,1.384532,0.1627425,290.9573,242.2365,351.8604,False
1,2.811108,0.3618748,-0.1047886,-0.09774216,-1.435153,-4.326645,-2.369888,0.3365136,1.484337,0.3682969,-0.8554585,0.04364327,100,100,-0.07890871,0.2752039,-0.3102553,-0.46765,-3.542207,-0.1849954,0.4899286,1.706511,0.3004379,0.2769263,0.3620588,0.6125569,-0.9459191,0.6469206,-0.06506103,0.714642,1.780071,0.1977439,0.04503862,1.381552,0.1627203,291.2542,242.051,352.0255,False
1,2.822219,0.368313,-0.1207255,-0.09234301,-1.433261,-4.325835,-2.374301,0.3361343,1.483208,0.3676996,-0.8552976,0.01421676,100,100,-0.06913656,0.259224,-0.2901069,-0.4706727,-3.537766,-0.1885265,0.4887866,1.705604,0.2995427,0.2673891,0.3364634,0.6168447,-0.9391307,0.650991,-0.07015086,0.7131505,1.780295,0.1971734,0.04477198,1.378539,0.1626716,291.5614,241.8866,352.1806,False
1,2.83333,0.3833222,-0.1515242,-0.08154933,-1.430903,-4.324162,-2.379402,0.3357694,1.482187,0.3672745,-0.8550899,0.01879802,100,100,-0.05638349,0.2517914,-0.2955395,-0.4746382,-3.533608,-0.1920259,0.487588,1.70463,0.2986271,0.2425233,0.2929545,0.5796675,-0.9341362,0.6543431,-0.07428781,0.7118813,1.78016,0.1963348,0.04452782,1.375508,0.1626014,291.8564,241.6913,352.4188,False
1,2.844441,0.4078709,-0.1706145,-0.07828616,-1.428598,-4.322911,-2.384893,0.3356023,1.481202,0.3669338,-0.8550595,0.002504003,100,100,-0.04256138,0.2528812,-0.2977794,-0.4786409,-3.528777,-0.1962009,0.4865774,1.703707,0.2977788,0.2053174,0.2751735,0.4894499,-0.931717,0.6583992,-0.07787163,0.7108097,1.78021,0.1958361,0.04443083,1.372504,0.1625403,292.1772,241.424,352.7325,False
1,2.855552,0.4249471,-0.1822808,-0.07718147,-1.426408,-4.321838,-2.390207,0.3352558,1.480109,0.366436,-0.8554787,-0.0384365,100,100,-0.04250365,0.2645912,-0.2881784,-0.4821078,-3.522941,-0.200837,0.4856262,1.702683,0.2969825,0.1995324,0.2710259,0.4479571,-0.928133,0.6622246,-0.08225599,0.7095485,1.780413,0.1953297,0.04448986,1.369557,0.162435,292.5048,241.228,352.9946,False
1,2.866663,0.4313255,-0.1769325,-0.07615049,-1.424522,-4.320985,-2.395412,0.3351554,1.479046,0.366029,-0.8557919,-0.02839105,100,100,-0.03275728,0.2635166,-0.2680153,-0.4850122,-3.517871,-0.2052807,0.4847819,1.701728,0.2961895,0.209998,0.261538,0.4286192,-0.9242128,0.6664731,-0.0876646,0.7084118,1.78049,0.1948991,0.04479164,1.36666,0.1622898,292.8028,240.9557,353.2832,False
1,2.877774,0.4270189,-0.1577724,-0.07730061,-1.423235,-4.320621,-2.400098,0.3348807,1.47775,0.3650784,-0.8554665,0.02982076,100,100,-0.03066272,0.2390324,-0.2765793,-0.4886837,-3.515464,-0.2070906,0.4838647,1.700768,0.2954011,0.2143076,0.2508646,0.4327971,-0.9194766,0.6699439,-0.09227906,0.7070305,1.780661,0.1944549,0.04528589,1.363761,0.1621236,293.0585,240.6355,353.5451,False
1,2.888885,0.4194423,-0.1162808,-0.08389583,-1.422423,-4.321401,-2.404384,0.3349064,1.47664,0.3646824,-0.8551639,0.02726826,100,100,-0.02961385,0.2209293,-0.2819346,-0.492313,-3.513217,-0.208771,0.4831161,1.699877,0.2947192,0.2101609,0.2497999,0.4424258,-0.914481,0.6744078,-0.09720911,0.7059901,1.780688,0.1938577,0.04576538,1.3608,0.1619091,293.3111,240.3661,353.7221,False
1,2.899997,0.4172249,-0.08433612,-0.08405648,-1.421743,-4.321985,-2.408815,0.3348343,1.475524,0.3638082,-0.8545503,0.0557859,100,100,-0.02203229,0.2198676,-0.2660123,-0.4951605,-3.508934,-0.2125538,0.4823438,1.699084,0.2940185,0.1984667,0.2476612,0.4446775,-0.9098344,0.6783805,-0.1013937,0.7048426,1.780797,0.1933751,0.04619574,1.357765,0.161673,293.5839,240.2267,353.818,False
1,2.911108,0.4075275,-0.04497154,-0.08743978,-1.421501,-4.323368,-2.41282,0.3349639,1.474497,0.3634903,-0.8541753,0.03375515,100,100,-0.01443291,0.207074,-0.2501088,-0.4978055,-3.506117,-0.2151102,0.4816617,1.698325,0.2933743,0.1749136,0.2391585,0.434273,-0.9055104,0.6818743,-0.1046745,0.7039139,1.780994,0.1930742,0.04644302,1.354661,0.1613576,293.9065,240.2201,353.8269,False
1,2.922219,0.4010846,-0.02577873,-0.08435676,-1.420981,-4.324234,-2.416854,0.3350758,1.473364,0.3626003,-0.8542217,-0.004500838,100,100,-0.01220492,0.2006732,-0.2373446,-0.5003174,-3.50294,-0.2177147,0.4809629,1.69743,0.2926939,0.1575559,0.2307118,0.4056706,-0.9023519,0.6850185,-0.1077819,0.7031564,1.780976,0.1926918,0.04668757,1.351612,0.1611477,294.2983,240.2828,353.7346,False
1,2.93333,0.3914266,0.004060423,-0.0759736,-1.421305,-4.325451,-2.420701,0.3352399,1.472312,0.3623226,-0.8539075,0.02879992,100,100,-0.0143339,0.1814985,-0.2405452,-0.5032852,-3.501483,-0.2187781,0.4803695,1.696626,0.2920387,0.1462649,0.229853,0.3482689,-0.9005681,0.6889139,-0.1114237,0.7023685,1.780918,0.192214,0.0468251,1.348927,0.1610388,294.5961,240.5139,353.5082,False
1,2.944441,0.3860506,0.02324072,-0.07179603,-1.421463,-4.326479,-2.424562,0.3352486,1.471395,0.362402,-0.8538275,0.007032707,100,100,-0.01660749,0.1825936,-0.2586442,-0.5073524,-3.498657,-0.2209585,0.4797175,1.695914,0.291435,0.1447752,0.2256925,0.3099238,-0.8987098,0.6919482,-0.1148952,0.7015089,1.78091,0.1918612,0.04705682,1.347957,0.1613004,294.3086,241.1306,352.9546,False
1,2.955552,0.3731982,0.05092364,-0.06766114,-1.422072,-4.3281,-2.427956,0.3354734,1.47039,0.3621755,-0.8537093,0.01081922,100,100,-0.01770166,0.1772646,-0.2629119,-0.510822,-3.496577,-0.2224879,0.479058,1.69532,0.290894,0.1455214,0.2257902,0.2800875,-0.896796,0.6955897,-0.1189211,0.7007332,1.780937,0.1915247,0.04737631,1.347408,0.1615872,293.9558,241.7392,352.4197,False
1,2.966663,0.3560892,0.07541188,-0.06350569,-1.422817,-4.329739,-2.431075,0.3356442,1.469453,0.3618884,-0.8537146,-0.0005656887,100,100,-0.008022785,0.1495757,-0.2555699,-0.5136482,-3.496277,-0.2228568,0.4786336,1.69459,0.2904465,0.1486977,0.2257916,0.2789921,-0.894013,0.6992055,-0.1228777,0.7000877,1.781041,0.1912305,0.04773658,1.34698,0.1619392,293.5508,242.0727,352.0774,False
1,2.977774,0.3411642,0.07963826,-0.06137798,-1.422943,-4.330863,-2.434214,0.3358112,1.46862,0.3616171,-0.8533838,0.030292,100,100,-0.003640801,0.1453168,-0.2406993,-0.5162293,-3.493932,-0.2249905,0.478099,1.693869,0.2898862,0.1487266,0.2183183,0.2810978,-0.8910958,0.702403,-0.1265835,0.6994364,1.781086,0.1908472,0.04803257,1.346567,0.1623846,293.1481,242.5257,351.5679,False
1,2.988885,0.3092412,0.06893308,-0.05489457,-1.422925,-4.3314,-2.436441,0.3361478,1.467882,0.3615203,-0.8531463,0.02152364,100,100,0.008415848,0.1250458,-0.2014015,-0.5172807,-3.493032,-0.2262875,0.4777646,1.693355,0.2891819,0.1401576,0.2002288,0.2757976,-0.8886074,0.7049297,-0.1294874,0.6988673,1.78123,0.1903317,0.04827068,1.346121,0.1628394,292.7904,243.3624,350.7292,False
1,2.999996,0.2954088,0.06680225,-0.04848013,-1.42306,-4.332156,-2.43926,0.3364703,1.46702,0.3612211,-0.853165,-0.001819873,100,100,0.01380458,0.1197242,-0.193991,-0.5194091,-3.49152,-0.2278657,0.4775196,1.692814,0.2887201,0.130511,0.1799896,0.2705171,-0.8860049,0.7068505,-0.1317889,0.6983706,1.781119,0.1899438,0.04847673,1.345684,0.1632241,292.4881,244.265,349.8576,False
1,3.011107,0.2538544,0.07311969,-0.04100695,-1.423562,-4.333092,-2.440598,0.3368144,1.466197,0.3610981,-0.8523021,0.07904847,100,100,0.0245118,0.1250533,-0.1855594,-0.521717,-3.489356,-0.2302913,0.477158,1.692449,0.2883353,0.1195735,0.1534493,0.243915,-0.8843953,0.7083066,-0.1337192,0.6979847,1.780951,0.1895738,0.04874124,1.34529,0.1635246,292.1788,244.8877,349.268,False
1,3.022218,0.1675189,0.09745986,-0.0282408,-1.425023,-4.334441,-2.439509,0.3372653,1.465327,0.3610773,-0.8529892,-0.06339489,100,100,0.02991691,0.1218585,-0.1760196,-0.5236728,-3.48749,-0.2324236,0.4769931,1.691931,0.2879782,0.1171036,0.1343623,0.2140605,-0.8829993,0.7096717,-0.1357506,0.6975275,1.780869,0.18926,0.04900269,1.344944,0.1636533,291.7928,245.9868,348.269,False
1,3.033329,0.0555902,0.1324072,-0.01018088,-1.427204,-4.336226,-2.435644,0.3376741,1.464537,0.360992,-0.8518099,0.1085551,100,100,0.02697559,0.08986325,-0.1493999,-0.5244068,-3.488166,-0.232022,0.4768513,1.691498,0.2874913,0.1167157,0.1152967,0.1788482,-0.8822797,0.7106692,-0.1376806,0.6972032,1.780773,0.1889608,0.04935542,1.344604,0.1638162,291.4613,246.2631,348.0435,False
1,3.04444,0.1471612,0.1507733,-0.008254906,-1.428602,-4.338115,-2.440455,0.3379637,1.463846,0.3604519,-0.8496027,0.2009973,100,100,0.02404086,0.06746192,-0.1195774,-0.5248169,-3.488192,-0.2321222,0.476761,1.690993,0.2871215,0.12272,0.1036848,0.1435821,-0.8819638,0.711747,-0.139976,0.6969882,1.780645,0.1886649,0.04966286,1.344303,0.1639844,291.1691,246.5211,347.8245,False
1,3.055551,0.1951585,0.1285214,-0.0113937,-1.428827,-4.338892,-2.444404,0.3382297,1.463294,0.3602521,-0.8472048,0.2180368,100,100,0.02520152,0.05359584,-0.1089621,-0.525929,-3.488482,-0.2320833,0.4765342,1.69062,0.2869747,0.1235688,0.0952201,0.1243744,-0.8812522,0.7128755,-0.1420501,0.696686,1.78066,0.1883111,0.04980403,1.344117,0.1641217,291.0281,246.9444,347.4485,False
1,3.066662,0.1973516,0.1050912,-0.0112761,-1.428987,-4.339293,-2.44669,0.3385128,1.462754,0.3600183,-0.8561248,-0.8168941,100,100,0.03669345,0.04831634,-0.1378316,-0.5285219,-3.488936,-0.2323736,0.4764179,1.690243,0.2869287,0.1170295,0.08673719,0.1116383,-0.8804421,0.7139666,-0.1437018,0.6964194,1.780634,0.1879458,0.04968332,1.344131,0.1640718,291.1647,247.4222,347.059,False
1,3.077773,0.1792362,0.1039865,-0.011257,-1.42968,-4.340428,-2.447646,0.338919,1.461924,0.3595884,-0.8561664,0.003454889,100,100,0.03325333,0.05048479,-0.1687011,-0.5315952,-3.488837,-0.2327027,0.4762794,1.689824,0.2867241,0.1053221,0.07606974,0.1128015,-0.8791638,0.7146885,-0.1449061,0.6962588,1.780588,0.1876719,0.04992913,1.343786,0.1644394,290.8576,248.8998,345.7239,False
1,3.088884,0.1441177,0.09218915,-0.007958974,-1.430062,-4.340859,-2.44793,0.3393098,1.461355,0.3594244,-0.8541423,0.184123,100,100,0.03217566,0.05474985,-0.168694,-0.5336314,-3.488092,-0.2335568,0.4760956,1.689535,0.2864532,0.09260371,0.07285605,0.1182529,-0.8778306,0.7158896,-0.14635,0.6960844,1.780473,0.1874998,0.05026322,1.343525,0.1644371,290.6143,248.341,346.2595,False
1,3.099995,0.1249685,0.08257185,-0.004695892,-1.430514,-4.341415,-2.448592,0.339667,1.460773,0.3591383,-0.8526605,0.1338861,100,100,0.03025622,0.03768694,-0.1442007,-0.5344341,-3.488481,-0.2334295,0.4761426,1.689235,0.2861907,0.08279142,0.07823951,0.09813702,-0.8775515,0.7172492,-0.1478198,0.6959496,1.780406,0.1873186,0.05065063,1.343198,0.1644812,290.2802,248.2445,346.4009,False
1,3.111106,0.1239013,0.08471597,-0.001509709,-1.431216,-4.342153,-2.449846,0.3399652,1.460353,0.3589721,-0.8518872,0.06979372,100,100,0.03262283,0.03872316,-0.1133333,-0.5349204,-3.48778,-0.2344,0.4761212,1.689006,0.2857099,0.06967446,0.08472286,0.0684734,-0.8778903,0.7186974,-0.1490766,0.6957957,1.780476,0.186981,0.05098145,1.342894,0.1645619,290.0115,248.5786,346.1684,False
1,3.122217,0.1228269,0.08788613,-0.006851796,-1.43175,-4.343262,-2.451196,0.3401688,1.459906,0.3586769,-0.852431,-0.05004369,100,100,0.01902595,0.04080621,-0.08019841,-0.5349337,-3.486409,-0.2353353,0.4760858,1.688778,0.2854295,0.06210877,0.08474639,0.05896918,-0.8776485,0.7198645,-0.1502454,0.6956059,1.780411,0.1867547,0.05121968,1.342703,0.164616,289.8361,248.9178,345.9294,False
1,3.133328,0.118568,0.09219591,0.004849497,-1.432876,-4.343884,-2.452258,0.3403769,1.459512,0.3585672,-0.8533024,-0.07899523,100,100,0.01270273,0.04718032,-0.06949347,-0.5356075,-3.485156,-0.2362472,0.4760331,1.688455,0.2850668,0.0526537,0.08471058,0.07078988,-0.8766237,0.7213179,-0.1514668,0.695511,1.780451,0.1864693,0.05130705,1.342546,0.164454,289.6204,250.0922,344.8699,False
1,3.144439,0.1047132,0.0975427,0.01548756,-1.434097,-4.344556,-2.452809,0.3406773,1.4593,0.3585625,-0.8536448,-0.03062565,100,100,0.01771843,0.03125393,-0.1121619,-0.5380981,-3.486541,-0.2353923,0.4761475,1.688167,0.2847846,0.04528756,0.08681472,0.07939309,-0.8756948,0.7228963,-0.1527155,0.6955038,1.780429,0.1862903,0.05144478,1.342416,0.1644456,289.5031,250.1311,344.8627,False
1,3.15555,0.09726784,0.09754971,0.02082546,-1.435087,-4.34515,-2.453657,0.3409264,1.459009,0.3584237,-0.8533812,0.02433166,100,100,0.01992129,0.02698668,-0.103661,-0.5390078,-3.486654,-0.235584,0.4761045,1.687981,0.2844999,0.02923726,0.08257408,0.07316962,-0.8751483,0.7240773,-0.1532716,0.6954238,1.780439,0.1860943,0.05157125,1.342253,0.1644934,289.3854,250.3165,344.7065,False
1,3.166661,0.09194477,0.09002584,0.01128205,-1.435378,-4.34582,-2.454324,0.3410839,1.458706,0.3581123,-0.8529252,0.04150366,100,100,0.0115693,0.03548065,-0.08015147,-0.5393642,-3.48526,-0.2366568,0.4760645,1.687911,0.2842011,0.01415887,0.07728812,0.05840036,-0.875185,0.7248772,-0.1534407,0.6953908,1.780451,0.1859565,0.05171061,1.342101,0.1646042,289.2608,250.6879,344.378,False
1,3.177772,0.08772715,0.0708076,0.004991055,-1.435342,-4.34607,-2.455151,0.3412066,1.45852,0.3575737,-0.8532726,-0.0319753,100,100,0.006396189,0.04290641,-0.05986284,-0.5395346,-3.483911,-0.2377835,0.4760714,1.687706,0.2839446,0.001150429,0.07841006,0.03830861,-0.8755552,0.7259055,-0.1536593,0.6953632,1.78047,0.1857996,0.05184283,1.342,0.1647057,289.1608,251.1073,344.0212,False
1,3.188883,0.08137526,0.05264252,-0.002365413,-1.435112,-4.346208,-2.455818,0.3413466,1.45839,0.3573575,-0.8532475,0.002643842,100,100,0.004381262,0.04927859,-0.04385833,-0.5396677,-3.482477,-0.239007,0.4760942,1.687467,0.2834153,0.008618094,0.08267084,0.03930273,-0.8752586,0.7273915,-0.154964,0.6953775,1.780533,0.1856642,0.05196923,1.341895,0.1647352,289.0739,251.4004,343.7962,False
1,3.199994,0.07397161,0.03452301,-0.0001291076,-1.435101,-4.345912,-2.456466,0.3414836,1.458239,0.3565011,-0.8534302,-0.01666889,100,100,-0.00614392,0.05564211,-0.02566339,-0.5396475,-3.480637,-0.2400962,0.476172,1.687525,0.2831004,0.01723827,0.07730782,0.04877542,-0.8745352,0.7282794,-0.155923,0.6953727,1.780585,0.1854744,0.05206821,1.341787,0.1646742,289.0219,251.55,343.722,False
1,3.211105,0.06977072,0.01106495,-0.002134379,-1.434594,-4.345417,-2.457175,0.3415973,1.45823,0.3562622,-0.8533556,0.007017946,100,100,-0.0134125,0.04602151,-0.003243603,-0.5390164,-3.479943,-0.240338,0.4762343,1.687474,0.2827892,0.02255358,0.06772494,0.04762259,-0.8741011,0.7289219,-0.1567385,0.6953816,1.780627,0.1852274,0.05217998,1.341702,0.1645435,288.9755,251.4707,343.88,False
1,3.222216,0.06443575,0.01209507,-0.006384453,-1.434707,-4.345608,-2.457698,0.3417771,1.458131,0.355906,-0.8533455,0.0009298068,100,100,-0.01230517,0.03856167,0.0009983703,-0.5389674,-3.479584,-0.2405338,0.4764042,1.687373,0.2824533,0.01604226,0.04856894,0.03804459,-0.8740026,0.7286148,-0.1562296,0.6955192,1.780627,0.1850109,0.05231328,1.341623,0.164449,288.9224,251.5829,343.8745,False
1,3.233327,0.06654471,0.0173937,-0.0128058,-1.434654,-4.346121,-2.458443,0.3419286,1.458092,0.3556688,-0.8534563,-0.01009378,100,100,-0.01009751,0.0364235,0.01056525,-0.5386744,-3.478779,-0.2412137,0.476474,1.6874,0.2821543,0.007379536,0.04115087,0.02533288,-0.8741986,0.728809,-0.1561222,0.6955775,1.78064,0.1847942,0.05254333,1.341468,0.1643711,288.8214,251.9518,343.6823,False
1,3.244438,0.06652492,0.02378586,-0.01283637,-1.434922,-4.346633,-2.459112,0.341962,1.458104,0.3557389,-0.8534483,0.0009001506,100,100,-0.01212984,0.03747229,0.02335996,-0.5382329,-3.477552,-0.2420632,0.4764313,1.687545,0.2819288,-0.006599454,0.03691954,0.01375487,-0.8745192,0.7289845,-0.1556482,0.6956187,1.78064,0.1846049,0.05270929,1.341428,0.1642682,288.7555,251.9725,343.7765,False
1,3.255549,0.06437722,0.02909635,-0.01499213,-1.435061,-4.347188,-2.45967,0.342092,1.458074,0.3555763,-0.8537695,-0.02935463,100,100,-0.008972566,0.02683551,0.01586176,-0.538357,-3.477659,-0.2420446,0.4764163,1.687612,0.2816556,-0.009863952,0.04118968,0.008476384,-0.8746678,0.7296445,-0.155751,0.6956501,1.78066,0.1844363,0.05277489,1.341403,0.1641629,288.7502,252.0016,343.8266,False
1,3.26666,0.05158046,0.03547914,-0.01075122,-1.435466,-4.347699,-2.459709,0.3422886,1.457963,0.3552365,-0.8537689,0.0003214676,100,100,-0.007114023,0.02581049,-0.01930967,-0.5397519,-3.477882,-0.2418294,0.4764838,1.687537,0.2813859,-0.01096145,0.04865623,0.006385507,-0.8746998,0.7307615,-0.1561829,0.6957408,1.780688,0.184242,0.05277851,1.341375,0.1641472,288.751,252.0251,343.8133,False
1,3.277771,0.0409136,0.04184037,-0.0118462,-1.43567,-4.348463,-2.45977,0.342565,1.457984,0.3549957,-0.8536901,0.007196628,100,100,-0.009325173,0.02795047,-0.0299434,-0.5405008,-3.477344,-0.2421865,0.4765776,1.687685,0.2810857,-0.01104806,0.04867683,-0.001068276,-0.8749906,0.7313398,-0.1563907,0.6958266,1.780764,0.1840367,0.05275489,1.341352,0.1642246,288.7377,252.1049,343.6949,False
1,3.288882,0.01742382,0.06202389,-0.01085735,-1.436458,-4.349591,-2.459025,0.3429297,1.457929,0.3548889,-0.8532086,0.0439807,100,100,-0.0209824,0.0236591,-0.02240284,-0.5405077,-3.47731,-0.2415194,0.4767306,1.687642,0.2808826,-0.01207883,0.04227538,0.002116567,-0.8749261,0.7316693,-0.1564024,0.695959,1.780778,0.1837192,0.0527784,1.341311,0.1642691,288.7123,252.2997,343.513,False
1,3.299993,0.007812429,0.06834924,-0.01940091,-1.436684,-4.350694,-2.458745,0.343175,1.457997,0.3549459,-0.8532912,-0.007867686,100,100,-0.01549226,0.03323485,-6.27581E-05,-0.5399075,-3.475534,-0.2431154,0.4769701,1.687689,0.2805667,-0.0151949,0.03479105,0.009583227,-0.8745986,0.7318571,-0.1561907,0.6961522,1.780843,0.1834192,0.05285627,1.341272,0.1642231,288.6917,252.4784,343.4153,False
1,3.311104,0.0003257627,0.07574791,-0.02688755,-1.436939,-4.351877,-2.458339,0.3435309,1.45806,0.3548582,-0.8526595,0.05796596,100,100,-0.01004678,0.04174338,0.01694662,-0.5393775,-3.473778,-0.2446771,0.4771723,1.687757,0.2803652,-0.01186316,0.01984218,0.02121521,-0.873953,0.7316198,-0.1561108,0.6963766,1.780873,0.1831415,0.05295837,1.341275,0.1641568,288.6613,252.5088,343.4664,False
1,3.322215,-0.001811066,0.07891235,-0.0332923,-1.437174,-4.353052,-2.458277,0.343788,1.458181,0.3546724,-0.8531767,-0.0477177,100,100,0.009031888,0.04178651,0.004010497,-0.5399452,-3.473063,-0.2461174,0.4773643,1.687841,0.280091,-0.009694586,0.00917048,0.02435149,-0.8735472,0.7312171,-0.1558549,0.6965913,1.78086,0.182831,0.05301882,1.341328,0.1641315,288.6436,252.4481,343.5629,False
1,3.333326,-0.00606634,0.07353587,-0.04071914,-1.437122,-4.354057,-2.457879,0.3441139,1.458311,0.3545797,-0.8532448,-0.005654756,100,100,0.01111431,0.04180565,-0.001336699,-0.5402324,-3.472212,-0.2471323,0.4776115,1.687893,0.2797692,-0.01097456,0.00602782,0.005178111,-0.8741416,0.7309576,-0.1554929,0.696939,1.780915,0.1824358,0.05303052,1.34141,0.1641633,288.6347,252.3699,343.6276,False
1,3.344437,-0.008183659,0.06603113,-0.04918928,-1.436812,-4.354825,-2.45772,0.3444266,1.458625,0.3544712,-0.853671,-0.03891671,100,100,0.002558134,0.03966712,-0.006604988,-0.540757,-3.471548,-0.2473129,0.4779775,1.688001,0.2794631,-0.001528835,0.002874374,-0.007723261,-0.8746641,0.7307901,-0.1556714,0.6972743,1.781065,0.1820812,0.05300905,1.341458,0.1642195,288.6662,252.6173,343.4015,False
1,3.355548,-0.01349676,0.05958605,-0.05660183,-1.436499,-4.355677,-2.457342,0.3448976,1.458813,0.3542094,-0.8534222,0.02310113,100,100,0.003725585,0.06202614,0.01045004,-0.5405178,-3.468411,-0.2500892,0.4783691,1.68828,0.2791524,0.005978458,-0.0131212,-0.003595685,-0.8744479,0.7298892,-0.1554192,0.6976804,1.781149,0.1816733,0.0530327,1.341508,0.1642587,288.6552,252.6906,343.3388,False
1,3.366659,-0.01562894,0.05741698,-0.06298001,-1.436136,-4.356709,-2.456955,0.345456,1.459135,0.3542361,-0.8536539,-0.0213527,100,100,0.005993918,0.0747878,0.03068515,-0.5398813,-3.465696,-0.2525524,0.4788857,1.688551,0.2788575,0.007060386,-0.02697678,-0.001515985,-0.8741879,0.728963,-0.1547848,0.6980553,1.781334,0.1812096,0.05305003,1.341571,0.164254,288.6641,252.8094,343.257,False
1,3.37777,-0.01672416,0.063756,-0.07366519,-1.435886,-4.358234,-2.456539,0.3460554,1.459601,0.3542387,-0.8535293,0.01160759,100,100,0.01790289,0.07371084,0.05510001,-0.5386115,-3.463603,-0.2549279,0.4794642,1.688822,0.2785842,0.00492128,-0.05467168,-0.002639715,-0.8739557,0.7269835,-0.1535099,0.6984577,1.781415,0.1807113,0.05310909,1.341677,0.1642332,288.6586,252.8074,343.3095,False
