loc,t,aDotUA,bDotUA,gDotUA,aUA,bUA,gUA,xUA,yUA,zUA,qE,qDotE,emgA,emgB,aDotSH,bDotSH,gDotSH,aSH,bSH,gSH,xSH,ySH,zSH,aDotUB,bDotUB,gDotUB,aUB,bUB,gUB,xUB,yUB,zUB,xHand,yHand,zHand,aHand,bHand,gHand,enable
2,0,-0.5019375,-0.9026905,0.1730612,-1.313928,-4.256888,3.044952,0.6652366,1.224038,0.4268563,-1.428006,-0.01211483,0,45.9,-0.4991443,0.2401344,0.1240756,-0.7093367,-3.601147,-0.7032461,0.6603527,1.409067,0.3149052,-0.1375366,0.1922651,-0.06223652,-0.6687672,-0.0673383,-0.04949245,0.7660292,1.477142,0.1469402,0.4626864,1.035826,0.2839136,309.8952,235.5242,1.743508,False
2,0.01111111,-0.5137408,-0.8739284,0.1825232,-1.317032,-4.248115,3.048835,0.6633669,1.223474,0.4258621,-1.427722,0.02619265,0,45.9,-0.4840972,0.2443453,0.1378151,-0.7097447,-3.595683,-0.7025696,0.6596886,1.409016,0.3146224,-0.1439288,0.1869526,-0.06114358,-0.6695219,-0.06429856,-0.0501175,0.7660676,1.477167,0.1472528,0.4614866,1.03594,0.2806918,309.9245,234.6817,2.095234,False
2,0.02222222,-0.5256355,-0.817433,0.1993336,-1.32048,-4.240936,3.053294,0.6614442,1.222851,0.424917,-1.427897,-0.01623943,0,45.9,-0.4765321,0.2389621,0.1483629,-0.7098198,-3.590798,-0.7012657,0.6590889,1.408942,0.31441,-0.1439184,0.191219,-0.06111481,-0.6701999,-0.06059424,-0.05142165,0.7660551,1.477045,0.1474454,0.4605853,1.036181,0.2767354,309.7734,234.1139,1.971335,False
2,0.03333334,-0.5290128,-0.7577214,0.2150512,-1.323887,-4.23444,3.05757,0.6596571,1.222286,0.4239981,-1.427893,0.00074135,0,45.8,-0.4636838,0.2027618,0.1490836,-0.7092019,-3.587816,-0.698858,0.6585058,1.40885,0.314204,-0.1427973,0.1901217,-0.05474043,-0.6707629,-0.0573035,-0.05254949,0.7661614,1.476882,0.1476247,0.4599042,1.036561,0.2722001,309.5298,233.6008,1.572644,False
2,0.04444445,-0.5238444,-0.7075927,0.2244131,-1.327191,-4.228365,3.061769,0.6579753,1.221701,0.4230614,-1.427876,0.001579463,0,45.8,-0.449007,0.1699497,0.1189054,-0.7094416,-3.586565,-0.6952957,0.6579829,1.408738,0.3140576,-0.1395862,0.1858374,-0.0515909,-0.6713259,-0.05425352,-0.05348826,0.7661812,1.476818,0.1478012,0.4594592,1.037128,0.267375,309.2268,233.0557,1.054179,False
2,0.05555556,-0.5092219,-0.6126157,0.2516806,-1.331137,-4.224638,3.06608,0.656341,1.22109,0.4222138,-1.428372,-0.04530221,0,45.8,-0.4342568,0.1583756,0.09952131,-0.709962,-3.584345,-0.6926475,0.6573115,1.408617,0.3138409,-0.1396008,0.1783821,-0.05162356,-0.6719848,-0.05151965,-0.05413594,0.7661754,1.476782,0.1480365,0.4590551,1.037864,0.2625369,308.8835,232.5425,0.4529755,False
2,0.06666667,-0.5012054,-0.5452905,0.2712484,-1.33494,-4.219895,3.070366,0.654815,1.220524,0.4213657,-1.428712,-0.03067512,0,45.8,-0.3993104,0.1330227,0.07346015,-0.7104062,-3.583791,-0.6898445,0.6567742,1.408522,0.3137493,-0.1406412,0.185834,-0.05051465,-0.6726266,-0.04789762,-0.05531758,0.7661785,1.476759,0.1482394,0.4586165,1.038762,0.257969,308.4949,232.0667,359.9069,False
2,0.07777778,-0.4935573,-0.5090879,0.2863689,-1.339097,-4.215986,3.074725,0.653325,1.219924,0.4204595,-1.429248,-0.04871133,0,45.8,-0.3643323,0.1097871,0.05061831,-0.7107817,-3.58309,-0.6875078,0.6561089,1.408389,0.3135464,-0.1469174,0.192184,-0.03870997,-0.6727358,-0.04415974,-0.05643638,0.7661343,1.476747,0.1483846,0.4580406,1.039756,0.2538605,308.082,231.6757,359.4305,False
2,0.08888889,-0.4820036,-0.4535726,0.305277,-1.343185,-4.21283,3.07899,0.6520208,1.219257,0.4195509,-1.429092,0.01458615,1.2,44.6,-0.3324743,0.09606609,0.03744966,-0.7111359,-3.5823,-0.6854601,0.6555629,1.408244,0.3133674,-0.1458103,0.1910874,-0.0334001,-0.6730948,-0.04092626,-0.05738659,0.7661023,1.476701,0.1485183,0.4572224,1.040781,0.2503572,307.6569,231.4828,358.9834,False
2,0.1,-0.4800071,-0.4130444,0.3146946,-1.347189,-4.209485,3.083567,0.6505367,1.218672,0.4186537,-1.429192,-0.009223039,1.2,44.6,-0.3123312,0.09509954,0.02660415,-0.711799,-3.580969,-0.6837038,0.6550623,1.408209,0.3131747,-0.1457739,0.1900024,-0.02913618,-0.6733121,-0.03765617,-0.0583962,0.7659698,1.476652,0.1486478,0.456213,1.041783,0.2474547,307.2669,231.4112,358.7023,False
2,0.1111111,-0.4716471,-0.3607991,0.3218955,-1.35102,-4.207391,3.087981,0.6493972,1.218016,0.4177682,-1.429456,-0.02409299,1.2,44.6,-0.2889275,0.09409279,0.02212213,-0.7122454,-3.579548,-0.6824502,0.6545041,1.408077,0.3129191,-0.1446959,0.1889229,-0.0270194,-0.673636,-0.03440312,-0.05933256,0.7659056,1.476559,0.148689,0.4550298,1.042706,0.2450304,306.9177,231.4697,358.517,False
2,0.1222222,-0.4696834,-0.3107468,0.3227357,-1.354789,-4.205317,3.092702,0.6482213,1.217379,0.4168565,-1.429105,0.03222399,1.2,44.6,-0.2654979,0.09838778,0.0219268,-0.712843,-3.577838,-0.6816145,0.6540067,1.407924,0.3127589,-0.142595,0.1857401,-0.03024232,-0.674159,-0.03122863,-0.06035948,0.7656941,1.476514,0.1487749,0.4537447,1.043518,0.2429506,306.6073,231.6166,358.3745,False
2,0.1333333,-0.4613025,-0.2670785,0.3172067,-1.358206,-4.203627,3.097143,0.6471279,1.216751,0.4159791,-1.429478,-0.03442977,3.3,43.5,-0.2615263,0.09859416,-0.009002544,-0.7144292,-3.577554,-0.6790515,0.6534965,1.40784,0.3126261,-0.1372738,0.1761237,-0.02820211,-0.674534,-0.02872699,-0.06096748,0.7655841,1.476426,0.1488817,0.4523856,1.044217,0.2410422,306.3644,231.792,358.2417,False
2,0.1444445,-0.4624914,-0.2297969,0.3170437,-1.361801,-4.202459,3.10215,0.6459658,1.216103,0.415097,-1.429191,0.02658028,3.3,43.5,-0.2467286,0.1018859,-0.02084132,-0.7157,-3.576678,-0.6774184,0.6529123,1.407702,0.3125339,-0.1350995,0.1696946,-0.02079354,-0.6746117,-0.02591495,-0.06168813,0.7655116,1.476437,0.1489725,0.4510886,1.044854,0.2392329,306.1282,231.9874,358.0924,False
2,0.1555556,-0.4596003,-0.1424685,0.3123943,-1.365135,-4.203497,3.107586,0.6450804,1.21543,0.4144306,-1.42948,-0.02680546,3.3,43.5,-0.2283463,0.09321347,0.006631956,-0.7153597,-3.57475,-0.6768293,0.6523657,1.407542,0.312464,-0.1210621,0.1759558,-0.0006436976,-0.6741521,-0.02234046,-0.06364822,0.765368,1.476372,0.149111,0.4498623,1.045447,0.2374039,305.9158,232.1766,357.9178,False
2,0.1666667,-0.4674102,-0.034902,0.311924,-1.368436,-4.206561,3.113672,0.6440775,1.214803,0.4138525,-1.42903,0.04139566,3.3,43.5,-0.2088312,0.08769388,0.04156821,-0.714654,-3.572236,-0.6769748,0.6518021,1.407424,0.3123934,-0.1103556,0.1812243,0.004618363,-0.6741095,-0.01886423,-0.06539898,0.7652435,1.4763,0.1491358,0.4487198,1.046025,0.2354976,305.704,232.3209,357.7095,False
2,0.1777778,-0.4719124,0.03431547,0.3116238,-1.37192,-4.208949,3.119751,0.6431526,1.214171,0.4132493,-1.428989,0.00340419,3.3,43.5,-0.1979381,0.08861411,0.06703652,-0.7141804,-3.569536,-0.677077,0.6511558,1.407334,0.3122847,-0.1049896,0.1843907,0.007787898,-0.6740626,-0.01540825,-0.06713936,0.7651184,1.476257,0.1492059,0.4475916,1.046619,0.233498,305.4937,232.4588,357.4004,False
2,0.1888889,-0.4989155,0.14608,0.3111528,-1.375244,-4.21437,3.127321,0.6421652,1.213554,0.4128046,-1.428752,0.02165117,8.2,40.9,-0.1731336,0.08844647,0.09876066,-0.7130427,-3.566217,-0.6785524,0.6506124,1.407214,0.3122082,-0.09964147,0.1822294,0.01092777,-0.6739939,-0.01233123,-0.06861342,0.7649426,1.476175,0.1492348,0.4464151,1.047306,0.23156,305.2613,232.6032,356.9641,False
2,0.2,-0.4989155,0.14608,0.3111528,-1.375244,-4.21437,3.127321,0.6421652,1.213554,0.4128046,-1.428614,0.01239223,8.2,40.9,-0.1731336,0.08844647,0.09876066,-0.7130427,-3.566217,-0.6785524,0.6506124,1.407214,0.3122082,-0.09964147,0.1822294,0.01092777,-0.6739939,-0.01233123,-0.06861342,0.7649426,1.476175,0.1492348,0.4449832,1.048135,0.2298253,305.0089,232.814,356.4816,False
2,0.2111111,-0.5193603,0.2056352,0.3066494,-1.378533,-4.218435,3.134619,0.6411769,1.213081,0.4123485,-1.434074,-0.4993747,8.2,40.9,-0.1292788,0.09051758,0.1175446,-0.7121223,-3.562964,-0.681186,0.6502527,1.407094,0.3121819,-0.08997676,0.178956,0.02149031,-0.6734234,-0.009290304,-0.07031091,0.7648524,1.476146,0.1492429,0.4435858,1.049246,0.228494,304.7045,232.9585,356.2484,False
2,0.2222222,-0.5599762,0.2394601,0.276705,-1.380485,-4.222384,-3.140141,0.6398567,1.212811,0.4119713,-1.427929,0.565935,8.2,40.9,-0.1057171,0.1255917,0.1356587,-0.7121255,-3.557683,-0.6848319,0.6499733,1.407007,0.312155,-0.06871957,0.1522583,0.02331813,-0.6732072,-0.008011853,-0.07131998,0.7646414,1.476114,0.149209,0.4427254,1.050567,0.227865,304.2116,232.8063,356.3019,False
2,0.2333333,-0.6239221,0.238009,0.2394779,-1.381913,-4.224665,-3.130618,0.6385328,1.212522,0.4114912,-1.427122,0.06853974,8.2,40.9,-0.05854756,0.1020492,0.162763,-0.710353,-3.554474,-0.6881502,0.649776,1.407194,0.3120961,-0.0400096,0.1159391,0.02823939,-0.67274,-0.007875367,-0.0719176,0.7644041,1.476103,0.1491604,0.4411296,1.051677,0.2274457,303.8975,233.2455,355.9,False
2,0.2444444,-0.7059513,0.2204313,0.1820815,-1.382089,-4.226309,-3.119685,0.6372595,1.212431,0.410805,-1.426188,0.08546184,12.7,38,-0.04336821,0.04229489,0.1814216,-0.7073345,-3.553648,-0.6887049,0.649461,1.407121,0.3119802,-0.0272936,0.08820036,0.0290699,-0.6723741,-0.007895473,-0.07197406,0.7641972,1.476014,0.1490567,0.4387603,1.05274,0.2271062,303.716,233.7844,355.6234,False
2,0.2555556,-0.7581467,0.2083496,0.1384985,-1.382175,-4.228198,-3.109008,0.6358073,1.212351,0.4101813,-1.425022,0.1062215,12.7,38,-0.05492123,-0.04829729,0.1852173,-0.7032993,-3.555853,-0.6860596,0.6491438,1.407252,0.3119721,-0.01891216,0.05625457,0.02140267,-0.6722591,-0.00867285,-0.07147631,0.7638559,1.475984,0.1490135,0.4357679,1.053967,0.2267655,303.5708,234.1104,355.6579,False
2,0.2666667,-0.8605237,0.2193321,0.05224854,-1.38009,-4.230895,-3.095577,0.634012,1.212541,0.4098012,-1.423863,0.105444,12.7,38,-0.05795944,-0.06649544,0.1989847,-0.7005781,-3.554535,-0.6862292,0.6487471,1.407396,0.3119369,-0.01466726,0.04238877,0.02343463,-0.6719267,-0.008433432,-0.07163477,0.7634951,1.476012,0.1490412,0.4324972,1.055594,0.2263269,303.3367,234.2904,355.9252,False
2,0.2777778,-0.9192364,0.2477557,0.01807866,-1.379326,-4.234716,-3.082821,0.6323926,1.212669,0.4092782,-1.424622,-0.06982305,12.7,38,-0.04623599,-0.05583952,0.2010715,-0.6986329,-3.552584,-0.6876087,0.6483835,1.407506,0.3118892,-0.01036198,0.03915133,0.02978146,-0.6712971,-0.007873769,-0.0721216,0.7631809,1.475963,0.1490178,0.4291797,1.057797,0.2256413,302.9889,234.3202,356.3032,False
2,0.2888889,-0.9961408,0.2941312,-0.03425533,-1.377695,-4.239591,-3.068329,0.630482,1.212814,0.4088931,-1.422751,0.1722289,12.7,38,-0.05150012,-0.03566422,0.210836,-0.6969333,-3.549495,-0.6892506,0.6479685,1.407618,0.3117754,-0.005147897,0.0199948,0.02219649,-0.671212,-0.008554872,-0.0716678,0.7628242,1.475978,0.1489918,0.4258631,1.060622,0.2246466,302.4509,234.1423,356.6532,False
2,0.3,-1.135193,0.4424455,-0.1157509,-1.37431,-4.253708,-3.037163,0.6263492,1.2134,0.40817,-1.424092,-0.123664,13.9,35.8,-0.08612192,-0.03926501,0.2665522,-0.6904203,-3.543125,-0.6912655,0.6472136,1.408006,0.3115089,0.007426353,-0.004454358,0.004934778,-0.6714958,-0.009690444,-0.07119908,0.762156,1.475966,0.1488986,0.4223516,1.06408,0.2233907,301.817,233.7364,356.9803,False
2,0.3111111,-1.190696,0.4687938,-0.1403253,-1.372608,-4.260036,-3.021104,0.6241822,1.213779,0.4077229,-1.409852,1.303997,13.9,35.8,-0.1068908,-0.03113747,0.3243321,-0.6860905,-3.537549,-0.6936387,0.6468794,1.408251,0.3113496,0.01268291,-0.0182966,0.0005643426,-0.6715848,-0.01073094,-0.07070826,0.7618488,1.475932,0.1488116,0.4180963,1.068066,0.221873,301.0523,233.2624,357.1464,False
2,0.3222222,-1.247267,0.4918764,-0.1765987,-1.370246,-4.266435,-3.004413,0.6221685,1.214054,0.4074028,-1.422348,-1.153562,13.9,35.8,-0.1127307,-0.03683859,0.3818909,-0.6810486,-3.531875,-0.6965916,0.6466631,1.408503,0.3112547,0.01907522,-0.02898028,0.003656702,-0.6713776,-0.01174374,-0.0703522,0.7615495,1.475891,0.1487453,0.4116054,1.072886,0.2199626,300.5997,232.8567,357.2183,True
2,0.3333333,-1.333763,0.5403447,-0.2353341,-1.366607,-4.27492,-2.984882,0.6194928,1.214677,0.4069536,-1.423617,-0.1052502,13.5,30.2,-0.1147905,-0.04646915,0.388238,-0.677155,-3.528441,-0.6979261,0.646322,1.408725,0.3111732,0.02751272,-0.03535409,-0.004966892,-0.6717296,-0.01277865,-0.07018735,0.7611944,1.475877,0.1486886,0.4050583,1.079099,0.2187936,299.3659,232.2569,357.9821,True
2,0.3444445,-1.41273,0.5664805,-0.2843849,-1.363195,-4.282525,-2.965257,0.616671,1.215495,0.406446,-1.422001,0.1464186,13.5,30.2,-0.1126894,-0.1007273,0.3772254,-0.6723438,-3.528198,-0.6969314,0.6460384,1.409085,0.3111262,0.03382363,-0.0427952,-0.01251439,-0.6721286,-0.01400596,-0.06981264,0.7609357,1.475875,0.1486697,0.3991917,1.086144,0.2185076,297.5627,231.7207,359.0799,True
2,0.3555556,-1.438324,0.5695012,-0.3003439,-1.360825,-4.289397,-2.94729,0.6141171,1.216067,0.4058895,-1.417989,0.363938,13.5,30.2,-0.1063608,-0.1294142,0.3663311,-0.6680492,-3.527237,-0.6967146,0.6456274,1.409271,0.3110762,0.03377808,-0.04597327,-0.0167904,-0.6724151,-0.01508015,-0.06929359,0.7605811,1.475861,0.1485956,0.3938681,1.093301,0.2188222,295.653,231.0064,0.413716,True
2,0.3666667,-1.474644,0.5894567,-0.3408747,-1.357284,-4.297657,-2.928078,0.6110859,1.216899,0.4053557,-1.415632,0.2108485,13.5,30.2,-0.0978996,-0.1666121,0.3542947,-0.6633365,-3.527542,-0.6957181,0.6450803,1.409533,0.3110256,0.02847915,-0.04917826,-0.01249841,-0.6723304,-0.01608403,-0.06864431,0.7600674,1.475872,0.1485074,0.3883204,1.100095,0.2193397,294.1158,230.1387,1.800956,True
2,0.3777778,-1.491762,0.6031376,-0.3664918,-1.354063,-4.305866,-2.909222,0.6081656,1.217731,0.4047463,-1.414932,0.06066632,13.5,30.2,-0.1149536,-0.1793999,0.3511904,-0.6588394,-3.526298,-0.6948744,0.6445498,1.40984,0.3108356,0.02640218,-0.04920674,-0.006086609,-0.6720865,-0.01703637,-0.06812952,0.7596294,1.475932,0.1484218,0.3825029,1.106406,0.2199212,292.9157,229.3384,3.176017,True
2,0.3888889,-1.51635,0.621047,-0.3974342,-1.350665,-4.314682,-2.889689,0.6048671,1.218688,0.4040809,-1.411541,0.3075121,13.1,26.3,-0.1500232,-0.1667347,0.3622586,-0.6546055,-3.523537,-0.6942502,0.6438,1.410102,0.3106182,0.01688616,-0.0513597,0.003569729,-0.6716572,-0.01805264,-0.06714868,0.7591227,1.475933,0.1483736,0.3767007,1.112138,0.220488,291.8702,228.6347,4.504107,True
2,0.4,-1.521738,0.6380205,-0.4113506,-1.347789,-4.323607,-2.870761,0.6018485,1.219544,0.4034038,-1.408822,0.2435164,13.1,26.3,-0.1753994,-0.1488007,0.384992,-0.6500318,-3.519397,-0.6947607,0.6429892,1.410413,0.3103967,0.007323043,-0.04494961,0.004743279,-0.6715779,-0.01849339,-0.06657264,0.7586066,1.475977,0.1483533,0.3708157,1.117273,0.2209347,291.0748,227.8418,5.814358,True
2,0.4111111,-1.518637,0.6646156,-0.4221297,-1.345121,-4.333209,-2.851826,0.5985953,1.220502,0.4026949,-1.405097,0.3362669,13.1,26.3,-0.2007188,-0.1011054,0.4185623,-0.6459124,-3.512473,-0.6971266,0.6420323,1.410707,0.3100941,-0.006495543,-0.03533293,0.005967202,-0.671491,-0.0186091,-0.06590764,0.758005,1.476013,0.1483228,0.364962,1.121935,0.2212905,290.4728,227.0439,7.041157,True
2,0.4222222,-1.500622,0.689155,-0.4254545,-1.342918,-4.342989,-2.833364,0.5955238,1.221536,0.4019544,-1.4022,0.2594801,13.1,26.3,-0.2357046,-0.05336925,0.4437134,-0.6420919,-3.504832,-0.6994231,0.6410549,1.411091,0.3097742,-0.02450217,-0.03001586,0.01679219,-0.6709323,-0.01893148,-0.06480669,0.7573892,1.476075,0.1483212,0.3590679,1.126308,0.2215586,290.0195,226.286,8.163104,True
2,0.4333333,-1.484692,0.7041199,-0.4287246,-1.340844,-4.35284,-2.814955,0.5923419,1.222603,0.4013684,-1.398708,0.3144333,13.1,26.3,-0.2515005,-0.02478397,0.4674827,-0.6378478,-3.497696,-0.7018127,0.6401635,1.41138,0.3094559,-0.03827465,-0.02895546,0.02543733,-0.6702921,-0.0193741,-0.06365833,0.7566867,1.476099,0.1483181,0.3533044,1.13058,0.221839,289.5898,225.5749,9.229437,True
2,0.4444444,-1.441067,0.7213317,-0.4267032,-1.339234,-4.362828,-2.798109,0.5891171,1.223779,0.4007168,-1.395296,0.3064766,12.1,23.7,-0.2596441,0.01752427,0.5136402,-0.6333817,-3.487621,-0.7066996,0.6388727,1.41173,0.3091061,-0.05527929,-0.02039998,0.02774808,-0.6699193,-0.01924746,-0.06253955,0.7559544,1.476145,0.14832,0.3475897,1.134904,0.2221546,289.1615,224.883,10.26851,True
2,0.4555556,-1.413392,0.725686,-0.4246151,-1.33768,-4.372319,-2.781004,0.5859413,1.22488,0.4000776,-1.391403,0.3506311,12.1,23.7,-0.2606034,0.03874272,0.5276434,-0.6292741,-3.479255,-0.7105654,0.6378472,1.412091,0.3087833,-0.07224831,-0.009727515,0.03219927,-0.669458,-0.01892056,-0.06164233,0.7552419,1.476122,0.1483028,0.3419925,1.139401,0.2225778,288.6887,224.1401,11.36932,True
2,0.4666667,-1.370732,0.713068,-0.4182042,-1.336227,-4.38114,-2.765065,0.5826754,1.226011,0.3994887,-1.388899,0.2231139,12.1,23.7,-0.2831172,0.04732123,0.5140633,-0.6258269,-3.47227,-0.7122981,0.6365286,1.41241,0.3084259,-0.09458157,-0.001160249,0.0345524,-0.6690361,-0.01849126,-0.0601965,0.7544447,1.476203,0.14833,0.3364367,1.144137,0.2231317,288.1599,223.2968,12.5685,True
2,0.4777778,-1.34082,0.6897784,-0.4117214,-1.334878,-4.389359,-2.749355,0.5795355,1.22709,0.3989031,-1.384512,0.3964038,12.1,23.7,-0.3001338,0.0600521,0.5185691,-0.6220777,-3.46457,-0.7147202,0.6351969,1.412666,0.3081,-0.1030501,0.00202857,0.03996194,-0.6684406,-0.01830537,-0.0589528,0.7536346,1.476222,0.1483481,0.3309208,1.149092,0.2238477,287.5178,222.3166,13.95634,True
2,0.4888889,-1.280965,0.6346681,-0.3902232,-1.333591,-4.395736,-2.735494,0.5762786,1.228207,0.3983254,-1.381718,0.2497697,11,21.1,-0.3054547,0.07494277,0.5219072,-0.6184712,-3.456065,-0.7180148,0.6338661,1.412981,0.3077917,-0.1094172,0.0009625405,0.04320367,-0.6678771,-0.01831656,-0.05752082,0.7527081,1.476236,0.1483443,0.3254622,1.154186,0.2246941,286.8202,221.2296,15.52351,True
2,0.5,-1.238265,0.6125071,-0.3773719,-1.332562,-4.403278,-2.721096,0.5732153,1.229321,0.3978426,-1.378613,0.2800392,11,21.1,-0.3064241,0.06955662,0.530418,-0.6141346,-3.447968,-0.7211603,0.6324061,1.413387,0.3076131,-0.1125451,-0.002267286,0.05173529,-0.6670387,-0.01853227,-0.05611414,0.7517509,1.476274,0.1483686,0.3201284,1.159332,0.2256108,286.0945,219.9831,17.29149,True
2,0.5111111,-1.203071,0.6041538,-0.3656492,-1.331867,-4.411047,-2.706831,0.5701167,1.230393,0.3973191,-1.377101,0.1340445,11,21.1,-0.2935222,0.06416619,0.5419871,-0.6094745,-3.439775,-0.7250499,0.6309998,1.413799,0.3072252,-0.123137,-0.01188479,0.06243246,-0.6659314,-0.0193448,-0.05372608,0.7507223,1.476325,0.1483431,0.3150191,1.164434,0.2265085,285.3868,218.6665,19.15611,True
2,0.5222223,-1.146589,0.6033625,-0.3486389,-1.331731,-4.418766,-2.694233,0.5672945,1.231392,0.3968818,-1.374372,0.2469131,11,21.1,-0.2819388,0.05788663,0.5269209,-0.6057994,-3.433067,-0.7278491,0.6294739,1.414154,0.3069642,-0.1252111,-0.01724586,0.07094706,-0.6648624,-0.01985147,-0.05188131,0.7496417,1.476388,0.14834,0.3102095,1.169379,0.2272619,284.7115,217.1912,21.12306,True
2,0.5333334,-1.110396,0.6130983,-0.3412506,-1.331663,-4.426878,-2.681361,0.5644406,1.232388,0.3964915,-1.372216,0.1937039,11,21.1,-0.2736299,0.06122786,0.5055561,-0.6026946,-3.426364,-0.7305685,0.6278943,1.41442,0.3065829,-0.1219841,-0.01941499,0.07624164,-0.6638014,-0.02029662,-0.05022988,0.7485497,1.476468,0.1483529,0.3056406,1.174122,0.2278469,284.1296,215.6461,23.01882,True
2,0.5444446,-1.013535,0.6465893,-0.3105825,-1.333153,-4.435748,-2.67124,0.5617441,1.233332,0.3961954,-1.371835,0.03202473,9.4,14.9,-0.2685187,0.06989342,0.484255,-0.5999292,-3.419525,-0.7334141,0.626321,1.414727,0.3063641,-0.1145317,-0.02796613,0.07827085,-0.6628587,-0.02124071,-0.04845968,0.7473475,1.476557,0.1483645,0.30123,1.17869,0.2282996,283.6261,214.1113,24.80488,True
2,0.5555557,-0.9645719,0.6649546,-0.2915266,-1.334405,-4.444293,-2.660115,0.5589026,1.234353,0.3958018,-1.369964,0.1697946,9.4,14.9,-0.2665747,0.07108754,0.4650708,-0.5970845,-3.412911,-0.7359342,0.6247859,1.414971,0.3060102,-0.11343,-0.03440301,0.08569122,-0.6615984,-0.02227335,-0.04631743,0.7461609,1.476649,0.1483459,0.2970757,1.183065,0.2287475,283.1366,212.4888,26.62274,True
2,0.5666668,-0.8793766,0.6813563,-0.2596959,-1.336614,-4.452493,-2.651465,0.5562209,1.235183,0.3956032,-1.371091,-0.1056284,9.4,14.9,-0.2476429,0.07021233,0.4393155,-0.5946721,-3.407222,-0.7385843,0.6231587,1.415225,0.3058031,-0.1080834,-0.03336123,0.08778284,-0.6605348,-0.02268987,-0.04502367,0.7448642,1.47674,0.1484246,0.2930398,1.187267,0.2292649,282.7005,210.9621,28.30337,True
2,0.577778,-0.8449223,0.5749799,-0.2528761,-1.335638,-4.456256,-2.642255,0.5536243,1.235957,0.3953497,-1.368641,0.224073,9.4,14.9,-0.2200497,0.06606376,0.4283738,-0.5917288,-3.400846,-0.7422104,0.6214273,1.41543,0.3055756,-0.1101143,-0.02167789,0.09638079,-0.6591403,-0.02224059,-0.04404735,0.7434371,1.476776,0.148494,0.289101,1.191267,0.2300024,282.2248,209.532,29.90583,True
2,0.5888891,-1.002856,0.6575713,-0.2477779,-1.338258,-4.46653,-2.623514,0.5517353,1.236223,0.395308,-1.369299,-0.06335846,8.4,16.1,-0.192612,0.05456814,0.3992739,-0.5893357,-3.396351,-0.7447474,0.6197236,1.415596,0.3053796,-0.1162889,-0.02285201,0.1230597,-0.656825,-0.0225647,-0.04228727,0.7419578,1.476931,0.1485662,0.2850739,1.195069,0.230959,281.8,208.3795,31.32549,True
2,0.6000003,-1.013575,0.6896673,-0.2106178,-1.341725,-4.475262,-2.609683,0.5494298,1.236648,0.3951371,-1.366517,0.2542418,8.4,16.1,-0.1677602,0.05507737,0.3244706,-0.5889469,-3.394241,-0.7454302,0.6178745,1.415879,0.3052278,-0.127722,-0.01445132,0.1551522,-0.6540127,-0.02220011,-0.04077087,0.7404361,1.477005,0.1485364,0.2812038,1.198577,0.2321827,281.335,207.052,33.07745,True
2,0.6111114,-0.9358358,0.7028003,-0.1883499,-1.344783,-4.483175,-2.6002,0.5471253,1.237054,0.3950448,-1.357306,0.8392342,8.4,16.1,-0.1447672,0.08308509,0.2818257,-0.5888856,-3.389244,-0.7486492,0.616028,1.416036,0.3049431,-0.1320331,-0.02082238,0.1508801,-0.6527621,-0.02310998,-0.03848454,0.7390522,1.477059,0.1485152,0.277647,1.201675,0.2334732,280.973,205.4852,35.12159,True
2,0.6222225,-0.7951112,0.6777876,-0.1681257,-1.347064,-4.489654,-2.594985,0.5448427,1.237446,0.3948209,-1.360513,-0.3003063,8.4,16.1,-0.1193593,0.1247348,0.2711944,-0.5888931,-3.382288,-0.7539595,0.6142629,1.416071,0.3047264,-0.1299277,-0.02721445,0.1497674,-0.65112,-0.02389668,-0.03645228,0.7374817,1.477127,0.14851,0.2740125,1.204859,0.2347723,280.7956,205.6272,35.33183,True
2,0.6333337,-0.7012886,0.6557528,-0.1606404,-1.349095,-4.496026,-2.589129,0.5426086,1.237905,0.3947072,-1.364776,-0.3865534,8.4,16.1,-0.1067744,0.1472368,0.2541812,-0.5887035,-3.376201,-0.7581085,0.6126093,1.415988,0.3044953,-0.1234877,-0.02406944,0.1561253,-0.6491327,-0.02411652,-0.03499047,0.735913,1.477245,0.148526,0.2703206,1.208529,0.2360831,280.5218,205.6238,35.70823,True
2,0.6444448,-0.5561948,0.5934206,-0.1498431,-1.350291,-4.500741,-2.586453,0.5405902,1.238231,0.3945549,-1.368316,-0.3212636,10,32,-0.1113551,0.1410573,0.2200908,-0.5886758,-3.372749,-0.7595288,0.6108111,1.415934,0.3043606,-0.1147288,-0.01035738,0.1806206,-0.6462805,-0.02335606,-0.03462749,0.7341981,1.477351,0.1485758,0.2668904,1.212537,0.237461,279.9985,203.9846,37.78114,True
2,0.655556,-0.5081624,0.5669631,-0.1444425,-1.351973,-4.506279,-2.580979,0.5385386,1.238513,0.3944182,-1.366871,0.1337072,10,32,-0.1190773,0.1316423,0.1913465,-0.5884947,-3.369641,-0.7604433,0.608926,1.415816,0.3042002,-0.1048678,0.005469307,0.209378,-0.6430112,-0.02206908,-0.03472522,0.7324914,1.477404,0.1486235,0.2638942,1.216424,0.2388788,279.2943,200.4422,41.7634,True
2,0.6666671,-0.4568917,0.5266688,-0.138983,-1.353251,-4.51093,-2.576477,0.5365855,1.238613,0.3944349,-1.368281,-0.1311853,10,32,-0.1099292,0.1191779,0.1432396,-0.5891243,-3.368518,-0.7604473,0.6070204,1.415692,0.3040502,-0.1005244,0.01500741,0.2168447,-0.6403821,-0.02122273,-0.03438247,0.7307402,1.477512,0.1486361,0.2612022,1.21982,0.2402615,278.6646,196.4445,46.15472,True
2,0.6777782,-0.4109189,0.4799742,-0.1345469,-1.354305,-4.515089,-2.572449,0.5347558,1.238605,0.3944342,-1.364718,0.3261502,10,32,-0.08030444,0.1353239,0.1238851,-0.5899743,-3.364767,-0.7637144,0.6051954,1.415478,0.3038406,-0.1005301,0.01287486,0.2168318,-0.6380635,-0.02103844,-0.03340137,0.7290027,1.477634,0.1485708,0.2587998,1.222389,0.2415434,278.1874,192.534,50.40313,True
2,0.6888894,-0.3713525,0.4343058,-0.1322463,-1.354975,-4.51871,-2.568803,0.5328395,1.238691,0.3943686,-1.364137,0.04950402,10.8,47,-0.06751841,0.170463,0.1293129,-0.5909576,-3.358566,-0.7685305,0.6033696,1.41527,0.3036244,-0.1005007,0.01285993,0.2200258,-0.6355314,-0.02067612,-0.03260854,0.7272453,1.477748,0.1485729,0.2563247,1.224109,0.2426411,277.9345,190.58,52.60061,True
2,0.7000005,-0.2869434,0.3632683,-0.1192255,-1.355135,-4.520696,-2.568013,0.531159,1.238594,0.3944614,-1.363708,0.03851299,10.8,47,-0.0538334,0.2387058,0.1221624,-0.593518,-3.350503,-0.7750185,0.6016306,1.414887,0.3033838,-0.08442076,0.02130054,0.2295232,-0.6326365,-0.01952603,-0.03314703,0.7253956,1.47781,0.1485429,0.2538269,1.225069,0.2435873,277.8479,190.1801,53.18728,True
2,0.7111117,-0.2378029,0.3251184,-0.1105784,-1.355749,-4.52346,-2.566215,0.5295209,1.238557,0.3945796,-1.363218,0.04401232,10.8,47,-0.04671504,0.2612922,0.09027397,-0.5960538,-3.3462,-0.7782066,0.5998676,1.414646,0.3032217,-0.06622875,0.02441284,0.2379124,-0.6297827,-0.01864506,-0.03377581,0.7235372,1.478037,0.1484978,0.25134,1.225416,0.244392,277.8694,191.0303,52.50774,True
2,0.7222228,-0.2196124,0.3017598,-0.1062326,-1.356277,-4.526178,-2.563829,0.527814,1.238599,0.3945913,-1.364951,-0.1593154,10.8,47,-0.03020008,0.2542181,0.03360678,-0.5990174,-3.344931,-0.7794641,0.5981938,1.414395,0.3031769,-0.05440958,0.01259021,0.25374,-0.6265012,-0.01889206,-0.03338725,0.7217035,1.478184,0.1484189,0.2489106,1.225352,0.2450481,277.9691,192.5829,51.11668,True
2,0.7333339,-0.2078034,0.2773095,-0.1018748,-1.356698,-4.52861,-2.561401,0.5261503,1.238622,0.3945398,-1.363548,0.1291368,10.8,47,-0.007132471,0.2012798,-0.01275812,-0.6003734,-3.346354,-0.7788969,0.5965375,1.414256,0.3031783,-0.05118683,0.005107056,0.2579422,-0.6235222,-0.01899366,-0.03294969,0.719932,1.478237,0.1483054,0.2468072,1.224926,0.2456079,278.0691,193.8295,49.96962,True
2,0.7444451,-0.1810263,0.2358851,-0.09320011,-1.356731,-4.530065,-2.559999,0.5245498,1.238635,0.3945599,-1.362081,0.1324385,9.4,73.4,0.02356307,0.1439828,-0.04217867,-0.6011682,-3.348301,-0.7785184,0.594841,1.414204,0.303144,-0.05118135,0.0008353628,0.260053,-0.6205719,-0.01907755,-0.03229562,0.7181232,1.478351,0.1481586,0.2448189,1.224321,0.2460813,278.1926,195.4508,48.3715,True
2,0.7555562,-0.1681862,0.2199686,-0.08887984,-1.357133,-4.532251,-2.558068,0.5228906,1.238693,0.3945415,-1.361299,0.07010841,9.4,73.4,0.03959385,0.1131092,-0.04145786,-0.6016544,-3.34815,-0.7795743,0.593095,1.414179,0.3030136,-0.04489347,-0.01832521,0.2535191,-0.6179391,-0.02032285,-0.03095259,0.716354,1.478372,0.1481085,0.2427579,1.223791,0.2464744,278.3515,197.2682,46.58028,True
2,0.7666674,-0.1404212,0.1998349,-0.08561372,-1.357376,-4.53409,-2.557018,0.5212319,1.238738,0.3945439,-1.361105,0.01615046,9.4,73.4,0.03238823,0.09270966,-0.01808046,-0.6014494,-3.34706,-0.7806103,0.5913696,1.414171,0.3028653,-0.04394735,-0.03746641,0.244897,-0.6154746,-0.02210903,-0.02904284,0.7145761,1.478427,0.1479778,0.240676,1.223492,0.2468181,278.4861,198.6241,45.28798,True
2,0.7777785,-0.1126808,0.1882346,-0.08132245,-1.357779,-4.536127,-2.556219,0.5195848,1.238711,0.3946049,-1.359377,0.1566303,9.4,73.4,0.002930939,0.111581,0.02387837,-0.6015644,-3.342314,-0.7835739,0.5895737,1.414058,0.3026257,-0.04291457,-0.03638556,0.2406375,-0.6128317,-0.02260012,-0.02819515,0.7127827,1.478465,0.1479247,0.2386941,1.223432,0.2471376,278.541,199.0917,44.88531,True
2,0.7888896,-0.08700424,0.1564088,-0.06948636,-1.35791,-4.536961,-2.555774,0.5179111,1.238748,0.3946061,-1.358174,0.1069296,9.4,73.4,-0.003434002,0.1296478,0.02938086,-0.6026872,-3.339165,-0.7859353,0.5878215,1.413958,0.3024631,-0.03970665,-0.03853136,0.2427351,-0.6100162,-0.02320519,-0.0273528,0.7109636,1.478609,0.1478345,0.2367297,1.223591,0.2474612,278.5204,198.9883,45.02977,True
2,0.8000008,-0.08700424,0.1564088,-0.06948636,-1.35791,-4.536961,-2.555774,0.5179111,1.238748,0.3946061,-1.356107,0.1860874,13.5,90.5,-0.003434002,0.1296478,0.02938086,-0.6026872,-3.339165,-0.7859353,0.5878215,1.413958,0.3024631,-0.03970665,-0.03853136,0.2427351,-0.6100162,-0.02320519,-0.0273528,0.7109636,1.478609,0.1478345,0.2348074,1.223846,0.2478479,278.434,198.2525,45.7991,True
2,0.8111119,-0.05371051,0.07772385,-0.0606611,-1.356751,-4.537342,-2.555396,0.5145892,1.238837,0.3946178,-1.353509,0.2335614,13.5,90.5,-0.02262586,0.2147678,0.04076302,-0.606846,-3.328793,-0.7933543,0.5844481,1.413692,0.302141,-0.03554733,-0.04274736,0.2309598,-0.6052002,-0.02487313,-0.02545236,0.7075105,1.478827,0.1477585,0.2332572,1.223964,0.2484073,278.3009,197.6817,46.49035,True
2,0.8222231,-0.03646678,0.01705862,-0.06041739,-1.35517,-4.536101,-2.555831,0.5129429,1.238914,0.3945601,-1.3497,0.3436688,13.5,90.5,-0.0173535,0.2169397,0.03539945,-0.6084833,-3.325481,-0.7960433,0.5827405,1.413654,0.3019979,-0.03890584,-0.04051317,0.2107517,-0.6036294,-0.02548419,-0.02436686,0.7057822,1.479037,0.1475966,0.232124,1.223779,0.2490104,278.2055,197.1365,47.21015,True
2,0.8333342,-0.01179445,-0.03825193,-0.06126637,-1.353503,-4.534831,-2.556577,0.5113389,1.238894,0.3945074,-1.345932,0.3385445,13.5,90.5,-0.01517406,0.2030772,0.03849201,-0.6092732,-3.322633,-0.7982889,0.5810131,1.413505,0.301837,-0.04214089,-0.03941429,0.206525,-0.6013892,-0.02593453,-0.02333568,0.7040243,1.479051,0.1474967,0.2298122,1.223428,0.2493091,278.1705,196.4281,47.93848,True
2,0.8444453,0.01073841,-0.08718435,-0.06107853,-1.351564,-4.533076,-2.557762,0.5097706,1.238947,0.3944335,-1.341789,0.3724632,36.6,100,-0.005534202,0.1987927,0.04369357,-0.6102868,-3.319565,-0.8010245,0.5793716,1.413523,0.3018322,-0.04955822,-0.04795269,0.2140034,-0.5987558,-0.02726411,-0.02142167,0.7023031,1.47913,0.1474037,0.2274349,1.222616,0.2495718,278.2136,196.843,47.60337,True
2,0.8555565,0.02465389,-0.1052382,-0.05887691,-1.350256,-4.531964,-2.558777,0.5081761,1.238887,0.3944352,-1.337089,0.4227915,36.6,100,-0.003467023,0.2009687,0.03729635,-0.6118383,-3.316431,-0.8036214,0.5777181,1.413399,0.3017626,-0.05269974,-0.05117878,0.221466,-0.5961167,-0.02848344,-0.01975426,0.7006416,1.479178,0.147331,0.2252965,1.221237,0.2497618,278.366,198.0425,46.53787,True
2,0.8666676,0.04280829,-0.1179424,-0.05457468,-1.348998,-4.530792,-2.560086,0.5066801,1.238885,0.3944454,-1.331823,0.473685,36.6,100,0.002964646,0.1860463,0.03926842,-0.6125995,-3.314023,-0.80586,0.5761086,1.413302,0.3017299,-0.04840271,-0.04373386,0.2225289,-0.5936479,-0.02877133,-0.01922776,0.6989985,1.479308,0.1474028,0.2234538,1.219275,0.2498263,278.613,199.824,44.84076,True
2,0.8777788,0.05560745,-0.119999,-0.04818463,-1.348014,-4.529901,-2.561365,0.5052254,1.23878,0.394537,-1.325681,0.5530555,36.6,100,-0.007797569,0.1701397,0.02542189,-0.6136594,-3.312549,-0.806619,0.5745398,1.413167,0.3016658,-0.04315278,-0.03623705,0.2118607,-0.5917293,-0.02891541,-0.01868447,0.6972973,1.479251,0.1474786,0.2218047,1.216793,0.2497312,278.9582,202.0441,42.59267,True
2,0.8888899,0.04601154,-0.11466,-0.03754306,-1.347409,-4.528966,-2.561753,0.5038598,1.238672,0.3946378,-1.319255,0.5779539,36.6,100,-0.00274682,0.1756463,-0.00229346,-0.6158565,-3.311221,-0.8077959,0.5729741,1.413029,0.301652,-0.03777331,-0.03094796,0.2161036,-0.5891514,-0.02929397,-0.01817501,0.6955676,1.479402,0.1474822,0.2201781,1.213908,0.2495311,279.3782,204.6131,39.87887,True
2,0.900001,-0.1064768,-0.06612498,-0.03016611,-1.347821,-4.529813,-2.555116,0.5029001,1.238351,0.3947606,-1.31213,0.6414227,72.2,100,0.005629897,0.1853339,-0.01616163,-0.6179705,-3.309199,-0.8097658,0.5714464,1.412885,0.3016295,-0.03665882,-0.02884506,0.2214311,-0.5865111,-0.02963925,-0.01752493,0.6939566,1.479469,0.1474497,0.218536,1.210739,0.249329,279.8668,207.2778,37.02731,True
2,0.9111122,-0.1534989,-0.01614084,-0.01328983,-1.349136,-4.530907,-2.551423,0.5016512,1.238093,0.3948426,-1.303657,0.7638642,72.2,100,0.01090062,0.188566,-0.02152066,-0.6197959,-3.3072,-0.811694,0.5698923,1.412724,0.3015566,-0.0356331,-0.02668972,0.2161047,-0.5843529,-0.02994125,-0.01687432,0.6925231,1.479489,0.1472902,0.2168692,1.207393,0.2492392,280.385,209.8818,34.24653,True
2,0.9222233,-0.002457522,0.06438261,0.0181956,-1.352159,-4.533222,-2.556244,0.5004942,1.237836,0.3948677,-1.289268,1.30372,72.2,100,0.02993067,0.1791083,-0.03774537,-0.6217288,-3.306421,-0.8132511,0.5685475,1.412653,0.3015277,-0.03148653,-0.02343476,0.201171,-0.5826533,-0.03016323,-0.01647698,0.6910585,1.479519,0.1472626,0.2152028,1.204007,0.2493448,280.9154,212.5158,31.49246,True
2,0.9333345,0.0795241,0.07954937,0.015936,-1.352869,-4.534102,-2.559947,0.4993143,1.237597,0.3948703,-1.283913,0.4732711,72.2,100,0.0351714,0.1482948,-0.05077771,-0.6227562,-3.307052,-0.8132079,0.5670612,1.412425,0.3016021,-0.02945043,-0.02552106,0.1904859,-0.5809425,-0.03080518,-0.01566525,0.6895288,1.47956,0.1472242,0.2133657,1.201016,0.2496441,281.5603,215.768,28.21494,True
2,0.9444456,0.09869153,0.08282153,0.01910201,-1.353718,-4.534833,-2.561551,0.4981759,1.237447,0.3949249,-1.284944,-0.1033946,100,100,0.02442314,0.1291861,-0.06358103,-0.6241251,-3.307541,-0.812727,0.5656307,1.412277,0.301636,-0.02413373,-0.02233461,0.1883308,-0.5788264,-0.03110532,-0.01532383,0.6880466,1.479577,0.1472743,0.211399,1.198752,0.250159,282.0625,218.4191,25.62335,True
2,0.9555568,0.1125986,0.0690437,0.02554355,-1.354312,-4.534688,-2.563129,0.4970303,1.237304,0.3950207,-1.275546,0.8539034,100,100,0.006084979,0.1207988,-0.089031,-0.626261,-3.30864,-0.8112897,0.5642105,1.412159,0.3016851,-0.02094865,-0.009538,0.1830393,-0.5768817,-0.03056324,-0.0156245,0.6865143,1.479687,0.1472557,0.209729,1.196855,0.2510822,282.0622,219.624,24.56803,True
2,0.9666679,0.1031058,0.04025445,0.02674166,-1.35435,-4.534029,-2.564048,0.4960501,1.237151,0.3950865,-1.263981,1.043119,100,100,0.008277968,0.1441753,-0.07931147,-0.6283191,-3.306449,-0.8132862,0.5629527,1.411999,0.3016231,-0.01888546,-0.008438108,0.1745048,-0.5752305,-0.03060704,-0.01545273,0.6850901,1.479733,0.1472485,0.2082852,1.194788,0.2523447,281.9171,220.2425,24.21776,True
2,0.977779,0.09359186,0.01785085,0.0257763,-1.354222,-4.533492,-2.564862,0.4949616,1.236991,0.3951719,-1.254405,0.8606185,100,100,0.02554893,0.1632107,-0.05271397,-0.629909,-3.302967,-0.8169729,0.5616682,1.411949,0.3016388,-0.01367241,-0.01479329,0.1627171,-0.5737866,-0.03137697,-0.01482555,0.6836194,1.479835,0.1473079,0.2068249,1.192343,0.2537604,281.9587,221.4417,23.34749,True
2,0.9888902,0.08518627,-0.01840548,0.0238055,-1.353558,-4.532135,-2.565807,0.4940103,1.236856,0.3952305,-1.244777,0.8673497,100,100,0.04173234,0.147137,-0.0338017,-0.6305934,-3.301427,-0.8191835,0.5604668,1.411883,0.3016133,-0.003142059,-0.02541502,0.1508631,-0.5724768,-0.03247658,-0.01423326,0.682283,1.479948,0.147403,0.2053505,1.189465,0.2551502,282.2455,223.266,21.8944,True
2,1.000001,0.08848801,-0.04712887,0.03031536,-1.353196,-4.530555,-2.567362,0.4930661,1.236688,0.3953671,-1.236106,0.7800583,100,100,0.04501047,0.1311211,-0.02754281,-0.6313465,-3.30055,-0.8204824,0.5592656,1.411813,0.3017132,-0.005366191,-0.03069034,0.1402096,-0.5711394,-0.03348858,-0.01333791,0.680896,1.480065,0.1473942,0.2039304,1.186217,0.2563465,282.7631,225.3322,20.17292,True
2,1.011112,0.1013255,-0.05878867,0.0367557,-1.353268,-4.529193,-2.569377,0.49218,1.236487,0.3954656,-1.227805,0.7470757,100,100,0.04372129,0.1014709,-0.0554246,-0.6326398,-3.302456,-0.8193194,0.5581446,1.411751,0.3018985,-0.0001370087,-0.02532041,0.1274108,-0.57008,-0.03370776,-0.01323138,0.6797623,1.480082,0.1473727,0.2025718,1.182745,0.2572452,283.4145,227.2625,18.48351,True
2,1.022224,0.1098576,-0.05979449,0.04420994,-1.353506,-4.528175,-2.571096,0.4913124,1.236304,0.3955586,-1.220412,0.6645015,100,100,0.04557595,0.07292154,-0.08865015,-0.6339697,-3.305261,-0.8176205,0.5570248,1.411602,0.3020105,0.001980886,-0.01998436,0.1242224,-0.5687985,-0.03376742,-0.01326947,0.6784729,1.48013,0.1474082,0.2014176,1.179194,0.2578046,284.1176,228.8872,16.97996,True
2,1.033335,0.1151737,-0.05337236,0.04737582,-1.353864,-4.527543,-2.572767,0.4904969,1.236093,0.3956604,-1.213383,0.6322805,100,100,0.04332586,0.07938614,-0.1003125,-0.6358968,-3.305739,-0.8176482,0.5558804,1.411456,0.3021066,-0.002263658,-0.02104004,0.126387,-0.56724,-0.03401256,-0.01287612,0.6773363,1.480132,0.1474218,0.2005053,1.17569,0.2580391,284.786,230.2337,15.61222,True
2,1.044446,0.1151364,-0.03948315,0.05690483,-1.3547,-4.52704,-2.57415,0.4896718,1.235831,0.3957736,-1.205932,0.6712624,96.9,100,0.04319973,0.09756318,-0.1108497,-0.6382697,-3.305777,-0.8180925,0.5547828,1.411307,0.3021746,-0.009667873,-0.02105121,0.13284,-0.5655425,-0.03441803,-0.01218103,0.6761687,1.48017,0.1474221,0.1997962,1.172318,0.2580183,285.3861,231.357,14.35709,True
2,1.055557,0.1076194,-0.01924397,0.06108472,-1.355614,-4.52708,-2.575087,0.4889766,1.235583,0.3957198,-1.199086,0.6159818,96.9,100,0.04336705,0.1006502,-0.09271807,-0.6394718,-3.304588,-0.8195322,0.5537094,1.411196,0.3021572,-0.006498165,-0.0199776,0.1296246,-0.5641789,-0.03471817,-0.01193043,0.6749714,1.480122,0.1474314,0.1991851,1.169154,0.2578465,285.9426,232.2734,13.23665,True
2,1.066668,0.1043682,-0.003287334,0.05782418,-1.356325,-4.527242,-2.5761,0.4882112,1.235376,0.3957849,-1.192881,0.5587781,96.9,100,0.02989627,0.09931502,-0.05317939,-0.6397009,-3.302467,-0.8211207,0.5526816,1.411119,0.3021929,-0.002325915,-0.01353669,0.1168364,-0.5633406,-0.03456304,-0.01216399,0.6738809,1.480134,0.1474702,0.1985982,1.166278,0.257651,286.4482,233.0388,12.24535,True
2,1.077779,0.1011449,0.004140252,0.05247118,-1.356836,-4.527294,-2.577123,0.4873781,1.235036,0.3959203,-1.187434,0.4905263,96.9,100,0.02040002,0.09073067,-0.04461674,-0.6404088,-3.301773,-0.8215644,0.5517481,1.411049,0.3022301,-0.001320817,-0.01457665,0.1104364,-0.5622754,-0.03495772,-0.01180206,0.6728348,1.480103,0.1474771,0.1979756,1.163765,0.2575268,286.8838,233.8014,11.31487,True
2,1.08889,0.09258119,0.01580882,0.04817114,-1.357523,-4.527523,-2.577786,0.486644,1.234813,0.3959155,-1.183161,0.3841605,96.9,100,0.01828009,0.08752894,-0.04461274,-0.6413521,-3.301465,-0.8220502,0.5507452,1.410932,0.3023143,0.003965273,-0.01563114,0.1061303,-0.5611696,-0.03525732,-0.01172803,0.6717693,1.480133,0.1475353,0.1973045,1.161682,0.2575255,287.2495,234.4872,10.55098,True
2,1.100002,0.08402707,0.02428648,0.04388195,-1.358148,-4.527821,-2.578368,0.4858311,1.234596,0.3960149,-1.17945,0.3341576,91.8,100,0.02348807,0.09080433,-0.05635658,-0.642846,-3.301469,-0.8224686,0.5498302,1.410764,0.3024423,0.009304136,-0.01992326,0.1092594,-0.5598641,-0.03595467,-0.01139194,0.6707014,1.480159,0.1475613,0.19656,1.160042,0.2576868,287.5007,234.9305,10.0696,True
2,1.111113,0.07228247,0.02956314,0.04067375,-1.358717,-4.528078,-2.578665,0.4851593,1.234426,0.3960965,-1.175952,0.3152051,91.8,100,0.03085748,0.08875411,-0.0660218,-0.6442698,-3.301465,-0.8230981,0.5489117,1.410656,0.3025103,0.01567491,-0.01672117,0.106025,-0.5588052,-0.03586732,-0.01179647,0.6696395,1.48025,0.147553,0.1957457,1.158786,0.258023,287.6207,235.263,9.761948,True
2,1.122224,0.06056946,0.02738527,0.03856221,-1.359154,-4.528101,-2.578936,0.4843915,1.234316,0.3961861,-1.173149,0.2521605,91.8,100,0.04149101,0.0802673,-0.06937336,-0.6453356,-3.301826,-0.8236401,0.5480298,1.410603,0.3026214,0.018822,-0.02203567,0.1017129,-0.5578241,-0.03666134,-0.01145639,0.6686549,1.480265,0.1475627,0.1948889,1.157859,0.2584939,287.6787,235.6322,9.499352,True
2,1.133335,0.05206934,0.02094742,0.03434213,-1.35945,-4.527905,-2.579386,0.4836794,1.234222,0.3962512,-1.170558,0.2334972,91.8,100,0.04480333,0.05890664,-0.05995114,-0.6455321,-3.302268,-0.8238369,0.5472376,1.410651,0.3026979,0.01874743,-0.0262666,0.09423617,-0.5570284,-0.03755696,-0.01085451,0.6677999,1.480263,0.1475916,0.1940107,1.157195,0.2590525,287.693,235.9572,9.316195,True
2,1.144446,0.0499735,0.009204341,0.03013228,-1.359465,-4.527549,-2.579931,0.4829256,1.234158,0.3963227,-1.168516,0.1837497,91.8,100,0.04386577,0.03966253,-0.04941074,-0.6455087,-3.302745,-0.8239189,0.546392,1.41061,0.3027675,0.0155221,-0.02410798,0.09001141,-0.5561889,-0.03788986,-0.01062655,0.6668811,1.48029,0.1476045,0.1931759,1.156732,0.2596391,287.6895,236.2516,9.187398,True
2,1.155557,0.04150952,-0.01002952,0.02169963,-1.359111,-4.526988,-2.580289,0.4819964,1.234143,0.3964026,-1.166996,0.1365717,97.8,92.6,0.04186223,0.02893896,-0.03773969,-0.6455668,-3.302635,-0.8243778,0.5455409,1.41059,0.3027909,0.01332457,-0.01872247,0.08046992,-0.5555881,-0.03763313,-0.01088248,0.6658732,1.480264,0.1477163,0.1923604,1.156413,0.260168,287.674,236.4824,9.11965,True
2,1.166668,0.03623437,-0.02711467,0.01645283,-1.358722,-4.526234,-2.58067,0.4811875,1.23417,0.3965049,-1.165659,0.1203517,97.8,92.6,0.03874638,0.03952436,-0.02805254,-0.6461415,-3.301636,-0.8255296,0.5447541,1.410504,0.3028171,0.01434545,-0.02190052,0.07618628,-0.5548691,-0.03831077,-0.0104814,0.6650033,1.48028,0.1477311,0.1916029,1.15617,0.2605749,287.6427,236.6188,9.118236,True
2,1.17778,0.02560117,-0.034621,0.0132965,-1.358431,-4.52567,-2.580686,0.4804398,1.234328,0.396553,-1.164217,0.1300956,97.8,92.6,0.03768824,0.04803483,-0.02585593,-0.6469468,-3.300864,-0.8264961,0.5439484,1.410398,0.3028967,0.01540682,-0.02189432,0.07511166,-0.5540786,-0.03864966,-0.01045184,0.6640708,1.480256,0.1477418,0.1908556,1.155933,0.2608105,287.6164,236.6289,9.176657,True
2,1.188891,0.005386065,-0.04430874,0.005898952,-1.357836,-4.525012,-2.580172,0.4796567,1.234348,0.3966262,-1.163142,0.09661853,97.8,92.6,0.03865978,0.05235723,-0.03542321,-0.6479535,-3.300938,-0.8269773,0.5431553,1.410338,0.3029497,0.01852973,-0.02079352,0.06656934,-0.5536211,-0.03891518,-0.01044918,0.6632434,1.480258,0.1477571,0.1900629,1.155664,0.2608615,287.6302,236.5541,9.24289,True
2,1.200002,-0.008451074,-0.05076324,0.0006059483,-1.357242,-4.524532,-2.579645,0.4788928,1.234343,0.3967705,-1.16195,0.1077087,100,100,0.04504506,0.0449317,-0.03766365,-0.6485948,-3.301203,-0.8275437,0.5424133,1.410319,0.30299,0.01957317,-0.01971448,0.06336975,-0.5530054,-0.03922277,-0.01044998,0.6623797,1.48026,0.1477594,0.1893298,1.155363,0.2607704,287.6965,236.5065,9.230626,True
2,1.211113,-0.02656475,-0.04977204,-0.003640644,-1.356901,-4.524211,-2.578916,0.4781686,1.23442,0.3968902,-1.160663,0.1164498,100,100,0.04840986,0.02780191,-0.02288696,-0.6482241,-3.301075,-0.8283491,0.5416707,1.410335,0.3030193,0.01527297,-0.01755356,0.05808708,-0.5525356,-0.03960054,-0.01014478,0.6616128,1.480203,0.1476643,0.1886604,1.155072,0.2605735,287.801,236.4681,9.181577,True
2,1.222224,-0.04684088,-0.03810655,-0.0004768167,-1.356971,-4.524118,-2.577724,0.4774581,1.234467,0.3970084,-1.160077,0.05226705,100,100,0.04638826,0.02240486,-0.01224827,-0.6481106,-3.300739,-0.8290823,0.5409657,1.41028,0.3030562,0.01741497,-0.01649865,0.05913977,-0.5518517,-0.03988576,-0.01018047,0.6608082,1.480181,0.1476846,0.188005,1.154826,0.2603084,287.8942,236.3192,9.208755,True
2,1.233335,-0.06926062,-0.02114851,-0.004780079,-1.35711,-4.524463,-2.576366,0.4767483,1.234417,0.3971567,-1.159473,0.05463259,100,100,0.03902305,0.02553852,-0.002574064,-0.6483918,-3.299899,-0.8300109,0.5402572,1.410256,0.3030887,0.02060839,-0.01756465,0.05910464,-0.5512397,-0.04015288,-0.01029578,0.6600267,1.480099,0.1476448,0.1873564,1.154664,0.2600454,287.9648,236.1429,9.236089,True
2,1.244446,-0.09810776,0.003242231,-0.009114863,-1.357421,-4.525242,-2.574209,0.476032,1.23446,0.3972964,-1.158694,0.07056393,100,100,0.03165679,0.03398269,0.008203579,-0.6485628,-3.298664,-0.8311446,0.5395912,1.410195,0.3031509,0.02375723,-0.02181116,0.05480004,-0.5507327,-0.04082799,-0.0100798,0.6592749,1.480119,0.1477396,0.1866964,1.154629,0.2598409,288.0195,236.0551,9.194987,True
2,1.255558,-0.1130768,0.02023938,-0.01024326,-1.357672,-4.526057,-2.572353,0.4753342,1.234492,0.3974175,-1.158315,0.03387748,100,100,0.0306635,0.03286716,0.01566916,-0.6484664,-3.297739,-0.8322128,0.5390019,1.410114,0.3032475,0.02372616,-0.02712888,0.05264357,-0.5502266,-0.04179232,-0.00951148,0.6586096,1.480074,0.1477556,0.1859832,1.154758,0.2597257,288.0334,236.0235,9.139155,True
2,1.266669,-0.1333856,0.04041208,-0.01136934,-1.358238,-4.527073,-2.569998,0.4746049,1.234632,0.3975363,-1.157426,0.08101219,100,100,0.03600041,0.03180205,0.01667512,-0.6485713,-3.297174,-0.833236,0.538412,1.410113,0.3033476,0.02679266,-0.02706358,0.03663661,-0.5504009,-0.04238448,-0.009430253,0.6579697,1.480046,0.147794,0.1851865,1.15506,0.2597319,287.9918,235.9733,9.135284,True
2,1.27778,-0.1429764,0.04357785,-0.01137456,-1.358434,-4.527609,-2.568117,0.4738313,1.234765,0.3975718,-1.157552,-0.01223484,100,100,0.04131085,0.02118487,0.01336355,-0.6485325,-3.297106,-0.8339409,0.5377718,1.410111,0.3034418,0.0288451,-0.02808868,0.02703477,-0.5502959,-0.04297423,-0.009367669,0.6572127,1.480048,0.147804,0.1842769,1.155567,0.2598747,287.9336,235.9613,9.142931,True
2,1.288891,-0.1579166,0.05205105,-0.01032908,-1.358851,-4.528343,-2.565682,0.4730585,1.234939,0.3975611,-1.157071,0.04406972,100,100,0.04776176,-0.0001362637,0.01636893,-0.6477175,-3.29747,-0.8343707,0.5372381,1.410188,0.3034887,0.03414857,-0.03555463,0.02695787,-0.5499161,-0.04408903,-0.008926117,0.6565014,1.480114,0.1478217,0.1833014,1.156277,0.2601515,287.8289,235.9387,9.217918,True
2,1.300002,-0.1717737,0.05411423,-0.01565957,-1.358828,-4.529166,-2.563184,0.4723347,1.235263,0.3974679,-1.157352,-0.02611163,100,100,0.05211563,-0.008706614,0.02479582,-0.6470688,-3.297212,-0.8352949,0.5367181,1.410293,0.3035393,0.03726119,-0.04405008,0.01943513,-0.5499364,-0.04558107,-0.008164187,0.6559155,1.48009,0.1478062,0.1822584,1.157187,0.2605192,287.6918,235.9699,9.303236,True
2,1.311113,-0.1728415,0.05409881,-0.01778335,-1.35898,-4.529733,-2.561155,0.4716098,1.235476,0.39746,-1.156859,0.04535994,100,100,0.05329157,-0.01729879,0.03539076,-0.6461612,-3.296728,-0.8362781,0.5362329,1.410394,0.3036075,0.04038692,-0.04722206,0.01194385,-0.5499433,-0.04684594,-0.007623565,0.6553693,1.479982,0.1477184,0.1811927,1.15824,0.2608965,287.4983,235.9226,9.518586,True
2,1.322224,-0.1685882,0.05623884,-0.01886126,-1.359149,-4.530471,-2.559255,0.4709103,1.235719,0.3973701,-1.156758,0.008746945,100,100,0.05236864,-0.02484532,0.04920132,-0.6451055,-3.296113,-0.8373303,0.5357136,1.410566,0.3036001,0.04029718,-0.05143835,0.00233677,-0.5502421,-0.04818324,-0.006939133,0.6548225,1.479976,0.1476521,0.1801214,1.159393,0.261206,287.3039,235.8886,9.725023,True
2,1.333336,-0.162196,0.05520064,-0.01673031,-1.359388,-4.530971,-2.557508,0.4702622,1.235793,0.3973079,-1.157183,-0.03879449,100,100,0.04822561,-0.02598491,0.06095447,-0.644232,-3.29499,-0.8386686,0.5352139,1.410787,0.3035624,0.03487957,-0.05990436,-0.007244319,-0.5505905,-0.05001843,-0.005679724,0.6543061,1.479994,0.1475797,0.1790969,1.160623,0.261402,287.1211,235.7398,10.00577,True
2,1.344447,-0.1419776,0.06273893,-0.01357871,-1.359926,-4.531774,-2.55645,0.4697134,1.235983,0.3971565,-1.157381,-0.01779516,100,100,0.03562723,-0.01335538,0.08246046,-0.6433648,-3.292779,-0.8403887,0.5346993,1.411061,0.3035076,0.0305692,-0.06733848,-0.01042959,-0.550648,-0.05193018,-0.00420593,0.6536837,1.480008,0.1474845,0.1781662,1.161865,0.2614773,286.8987,235.508,10.30542,True
2,1.355558,-0.1270889,0.07240804,-0.005109973,-1.360698,-4.532569,-2.555323,0.4691789,1.236081,0.3970163,-1.157457,-0.006830983,100,100,0.02931259,-0.001705492,0.09218505,-0.6427609,-3.290662,-0.8422287,0.5341362,1.411257,0.3034644,0.02414376,-0.07370409,-0.01253722,-0.5508701,-0.05388507,-0.002608833,0.653128,1.480038,0.1473722,0.1773281,1.163039,0.2614364,286.6525,235.2358,10.60387,True
2,1.366669,-0.09518116,0.08958583,0.001189794,-1.361866,-4.533737,-2.555085,0.4687309,1.236189,0.3968635,-1.158141,-0.06255724,100,100,0.01777432,0.007736415,0.1125963,-0.6417947,-3.287856,-0.8442607,0.533619,1.411491,0.3033488,0.02197913,-0.08008857,-0.01361685,-0.551048,-0.05601227,-0.0008519453,0.6525782,1.480103,0.1472385,0.1766006,1.164063,0.2612984,286.4177,234.9992,10.83816,True
2,1.37778,-0.0707156,0.09925747,0.002191149,-1.362646,-4.534915,-2.554782,0.4682689,1.236358,0.396667,-1.158029,0.01061911,100,100,0.01047604,-0.005144157,0.1275014,-0.6402192,-3.285842,-0.8457358,0.5331602,1.4116,0.3032479,0.01665502,-0.07580901,-0.0146184,-0.5512392,-0.05735384,0.0002790993,0.6520451,1.480117,0.147141,0.1759888,1.164885,0.2610972,286.2333,234.868,10.94644,True
2,1.388891,-0.005739225,0.1016104,0.005325366,-1.363455,-4.535799,-2.556581,0.4678783,1.236232,0.3965814,-1.158818,-0.07232775,100,100,-0.002319071,-0.01686149,0.1243545,-0.6389147,-3.284948,-0.846042,0.5326583,1.411677,0.3030977,0.009187497,-0.06724839,-0.01771758,-0.551603,-0.05811497,0.001136371,0.6515867,1.480054,0.1470795,0.1754428,1.165478,0.2608682,286.1152,234.8801,10.89169,True
2,1.400002,0.03802973,0.07622696,0.01498262,-1.363885,-4.535583,-2.558425,0.4674564,1.236124,0.3965719,-1.158651,0.01573511,100,100,-0.01012576,0.008907512,0.09156746,-0.6396689,-3.284046,-0.8463467,0.5321609,1.411434,0.3030298,0.00288339,-0.05021267,-0.01225931,-0.5515699,-0.0580906,0.001293497,0.6510389,1.480066,0.1469891,0.1749527,1.165837,0.2606711,286.0496,234.9996,10.7248,True
2,1.411114,0.05511431,0.06564863,0.01927015,-1.364348,-4.535786,-2.559394,0.4670868,1.236068,0.396518,-1.160395,-0.1598318,100,100,0.005488432,0.02194376,0.05527575,-0.6405424,-3.283945,-0.8470144,0.5315815,1.411401,0.3030105,-0.006593564,-0.03850828,-0.002540822,-0.5512956,-0.05803614,0.001604022,0.6504661,1.480058,0.1469574,0.1744778,1.165965,0.2605474,286.0336,235.1006,10.59016,True
2,1.422225,0.06798095,0.04228566,0.02681474,-1.364643,-4.5352,-2.560711,0.4668154,1.235796,0.3965688,-1.16006,0.03173617,100,100,0.0165739,0.03089581,-0.009760618,-0.6425276,-3.286044,-0.8459105,0.5310098,1.411251,0.3029795,-0.01598032,-0.01725695,0.01467819,-0.5506453,-0.05705183,0.001152084,0.6498911,1.480038,0.1468651,0.1741287,1.165772,0.2605609,285.9608,235.113,10.55947,True
2,1.433336,0.08192518,0.0178613,0.0354307,-1.364913,-4.534296,-2.562268,0.4666048,1.235623,0.3966296,-1.158859,0.109181,100,100,0.02140828,0.03016663,-0.06201436,-0.6441451,-3.288658,-0.8441994,0.5304726,1.411248,0.3030272,-0.01697193,-0.006630022,0.02006415,-0.5502576,-0.05671335,0.001039964,0.6493441,1.480043,0.1467423,0.1738676,1.165186,0.26068,285.9651,235.2891,10.40243,True
2,1.444447,0.09581468,0.00511867,0.03440936,-1.365039,-4.533798,-2.563849,0.4664771,1.235281,0.3966019,-1.158651,0.01781843,100,100,0.03399913,0.02179797,-0.08349524,-0.6451753,-3.290628,-0.8434237,0.5299262,1.411162,0.3029501,-0.01377522,-0.007715324,0.02109871,-0.5500343,-0.05717714,0.001542503,0.6487479,1.480013,0.1465757,0.1736252,1.16427,0.2608573,286.1198,235.6636,10.07729,True
2,1.455558,0.1117763,0.01048153,0.03117316,-1.365344,-4.533965,-2.565581,0.4661884,1.235095,0.3965533,-1.158606,0.003980216,81.4,100,0.02866427,0.01860067,-0.08453114,-0.6458166,-3.291641,-0.8427075,0.5292955,1.411062,0.3028753,-0.01052086,-0.006689168,0.02746995,-0.5495118,-0.05732188,0.001618936,0.6481818,1.480026,0.1464481,0.1734792,1.163116,0.2610496,286.3538,236.1034,9.701106,True
2,1.466669,0.1308806,0.02967769,0.02149362,-1.36589,-4.534796,-2.567496,0.4661221,1.234732,0.3965366,-1.158512,0.008391867,81.4,100,0.01795835,0.02820111,-0.08862863,-0.6470427,-3.292245,-0.8420662,0.5287633,1.410913,0.3027983,-0.01470232,-0.003519555,0.03604254,-0.5488109,-0.05714278,0.001760349,0.6475732,1.480026,0.1463768,0.1734468,1.161835,0.261196,286.6278,236.5563,9.309284,True
2,1.47778,0.1446737,0.04676406,0.0214095,-1.366666,-4.535564,-2.569393,0.4659829,1.234317,0.3965752,-1.158594,-0.007712367,81.4,100,0.01253494,0.04422317,-0.09592909,-0.6487093,-3.292595,-0.8416846,0.5280902,1.410881,0.3026891,-0.01241881,0.003857,0.05203916,-0.5477014,-0.05660868,0.001316667,0.6469522,1.480008,0.1462653,0.1734452,1.160519,0.2612588,286.9005,236.9505,8.936436,True
2,1.488891,0.1627073,0.07134107,0.02555514,-1.367959,-4.536681,-2.571605,0.4658903,1.23399,0.3966408,-1.158723,-0.01186181,81.4,100,0.009221874,0.06238804,-0.105372,-0.6507056,-3.293081,-0.8412747,0.5274836,1.410703,0.3025899,-0.01548187,0.01339467,0.0648968,-0.5465494,-0.05566073,0.000726244,0.6463636,1.479959,0.1461864,0.1733668,1.159268,0.2612679,287.1564,237.2934,8.549097,True
2,1.500003,0.1861378,0.07571658,0.03403206,-1.368982,-4.537219,-2.574373,0.4658054,1.233697,0.3965802,-1.158502,0.02015808,81.4,100,0.02084685,0.08163096,-0.1128165,-0.6528926,-3.293173,-0.8419208,0.5269905,1.41061,0.302506,-0.02089785,0.009191848,0.05533352,-0.5462463,-0.05569296,0.001156078,0.6457688,1.479944,0.1460619,0.1732966,1.158117,0.261331,287.3243,237.5773,8.194358,True
2,1.511114,0.2053451,0.06942776,0.04256609,-1.36994,-4.537337,-2.577312,0.4655906,1.233488,0.3966756,-1.158661,-0.0148662,61.8,90.8,0.03356073,0.0891525,-0.1192782,-0.6548079,-3.293589,-0.8424314,0.5264786,1.410463,0.3024089,-0.01873997,0.01237557,0.05852316,-0.5455656,-0.05502291,0.0008034757,0.645141,1.480011,0.1459558,0.1732047,1.157073,0.2615039,287.4367,237.9184,7.802677,True
2,1.522225,0.2267427,0.04180467,0.04372943,-1.370162,-4.536681,-2.580692,0.4653758,1.233335,0.3966897,-1.158911,-0.02286789,61.8,90.8,0.03893051,0.08700231,-0.1150817,-0.6562716,-3.293978,-0.8427289,0.5259447,1.410434,0.3023174,-0.01551352,0.00381534,0.06484866,-0.544618,-0.05550254,0.00128391,0.6445363,1.480036,0.1458404,0.1731154,1.156137,0.2618175,287.5218,238.3753,7.374028,True
2,1.533336,0.2353931,0.001324233,0.03643382,-1.36965,-4.535573,-2.583776,0.4651731,1.233199,0.3966956,-1.158798,0.0104002,61.8,90.8,0.02528667,0.07514645,-0.09585654,-0.6569816,-3.294142,-0.8424665,0.5254433,1.410328,0.3023186,-0.01443551,0.001663882,0.06695712,-0.5438308,-0.05577618,0.001623197,0.6440188,1.480011,0.1458375,0.1730478,1.155262,0.2622213,287.5876,238.8023,7.056726,True
2,1.544447,0.2333922,-0.04026046,0.02915621,-1.368853,-4.534029,-2.586612,0.4648943,1.233042,0.3966765,-1.158841,-0.004220503,61.8,90.8,0.01695406,0.07181592,-0.07662039,-0.6576394,-3.293671,-0.8427472,0.5249058,1.410276,0.3022926,-0.01661109,0.00595941,0.06060473,-0.543336,-0.05541679,0.001635181,0.6434512,1.479989,0.1457906,0.172979,1.154395,0.2626482,287.6578,239.1627,6.82324,True
2,1.555558,0.2302607,-0.06160407,0.02178776,-1.368144,-4.532959,-2.589294,0.4647151,1.232788,0.396699,-1.158252,0.05374359,38.9,84.6,0.01808871,0.06858174,-0.07025865,-0.6585491,-3.293638,-0.8430796,0.5244256,1.410043,0.3022916,-0.01445907,0.01128043,0.06060664,-0.5427485,-0.05480892,0.001080977,0.643016,1.480008,0.1458087,0.1729564,1.153469,0.2630135,287.7367,239.363,6.759787,True
2,1.566669,0.2185815,-0.07444967,0.01758415,-1.367432,-4.531824,-2.591574,0.4644409,1.232455,0.3966022,-1.157693,0.050549,38.9,84.6,0.019012,0.06761396,-0.08518894,-0.6600794,-3.294658,-0.8425171,0.5238653,1.409866,0.3023183,-0.02181058,0.01976894,0.07136137,-0.5415405,-0.05391436,0.000860201,0.6424448,1.480008,0.1458225,0.1729821,1.152437,0.2632385,287.8554,239.4195,6.80271,True
2,1.577781,0.2015446,-0.07770616,0.01654329,-1.367055,-4.530945,-2.593398,0.4642861,1.232273,0.3966308,-1.157478,0.01914674,38.9,84.6,0.01229868,0.07846648,-0.1170166,-0.6626387,-3.296149,-0.8412119,0.523212,1.409701,0.3023546,-0.03974113,0.02717791,0.09072341,-0.5398371,-0.05299651,0.001085238,0.6418585,1.480026,0.1457975,0.1730309,1.151293,0.2632712,288.0162,239.417,6.828821,True
2,1.588892,0.1908541,-0.0660186,0.01756829,-1.367092,-4.530545,-2.595243,0.4640659,1.231964,0.3965495,-1.156993,0.04418153,38.9,84.6,0.01214215,0.08814933,-0.1318694,-0.6649487,-3.297089,-0.8405999,0.5226441,1.409552,0.3023639,-0.03968911,0.02394496,0.09817342,-0.5384358,-0.05278425,0.001321993,0.6412805,1.479974,0.1457524,0.1731079,1.150052,0.263138,288.1911,239.4144,6.777602,True
2,1.600003,0.1651358,-0.01921529,0.01951851,-1.36803,-4.531709,-2.596024,0.4640347,1.231704,0.3965533,-1.156535,0.04153764,38.9,84.6,0.006827772,0.1168731,-0.1263063,-0.6674122,-3.295992,-0.8413948,0.5221274,1.409447,0.3023205,-0.03655886,0.01543961,0.09278113,-0.5375782,-0.05296055,0.001797101,0.6407814,1.479975,0.1457331,0.1731643,1.148755,0.2628627,288.4072,239.4584,6.631471,True
2,1.611114,0.1480191,0.006322144,0.02688465,-1.368909,-4.532056,-2.597166,0.4637516,1.231421,0.3964777,-1.156153,0.03397367,25.6,90,0.005830809,0.1221487,-0.1188011,-0.6691267,-3.295591,-0.8418135,0.5216881,1.409258,0.3022645,-0.03233968,0.01011633,0.0895288,-0.5366594,-0.05311568,0.002169145,0.6402533,1.479885,0.1457355,0.1732313,1.147485,0.2625241,288.6543,239.5548,6.38989,True
2,1.622225,0.1234087,0.03925919,0.02570033,-1.369855,-4.533219,-2.597502,0.4636269,1.231219,0.396421,-1.154508,0.1491584,25.6,90,0.005107358,0.1251125,-0.08255281,-0.670037,-3.293463,-0.8434977,0.5213468,1.409261,0.302269,-0.0248959,0.001570288,0.09049296,-0.5356384,-0.0536832,0.002665025,0.6397842,1.479874,0.1457303,0.1732597,1.146279,0.2622083,288.86,239.7126,6.069098,True
2,1.633336,0.1073873,0.05307217,0.02885363,-1.370787,-4.533909,-2.598051,0.4633967,1.231073,0.396383,-1.153193,0.1175292,25.6,90,0.008525841,0.1058167,-0.06246816,-0.6704721,-3.293011,-0.8441312,0.520929,1.409247,0.3023124,-0.02488323,-0.004843468,0.09472316,-0.5344325,-0.05424966,0.003520965,0.6393158,1.479947,0.1457527,0.1732085,1.145185,0.2620476,289.0366,240.0214,5.619371,True
2,1.644447,0.0881478,0.07325039,0.02985016,-1.371855,-4.534987,-2.598156,0.4632398,1.230988,0.3963683,-1.150686,0.2267212,25.6,90,0.01927353,0.07277422,-0.05745434,-0.6704881,-3.293935,-0.8440149,0.5206051,1.409263,0.3023536,-0.02490345,-0.005898759,0.0925877,-0.5334786,-0.05443701,0.003967843,0.6389142,1.479933,0.1457527,0.1730107,1.144192,0.2620676,289.1596,240.3409,5.256668,True
2,1.655559,0.06785595,0.08809391,0.02873511,-1.372789,-4.536129,-2.597991,0.4630852,1.230856,0.3963702,-1.148314,0.2129283,26,92.6,0.0245621,0.05685102,-0.06400146,-0.6713712,-3.294916,-0.8437214,0.5203743,1.40917,0.302362,-0.02501047,-0.01437575,0.08189715,-0.5329635,-0.05548976,0.005118862,0.6384963,1.480039,0.1457133,0.1727277,1.143285,0.2623015,289.2746,240.6949,4.939232,True
2,1.66667,0.05506629,0.09126995,0.0340602,-1.373838,-4.536765,-2.598047,0.4629077,1.230741,0.3962712,-1.145073,0.2922273,26,92.6,0.02348108,0.06005191,-0.06503762,-0.672502,-3.294979,-0.8438644,0.5200545,1.409214,0.3024085,-0.02400769,-0.02607328,0.07757061,-0.5322785,-0.05670882,0.006376673,0.6380835,1.480111,0.145673,0.1723887,1.142433,0.2627271,289.3754,241.0832,4.655345,True
2,1.677781,0.03375784,0.09119406,0.03194535,-1.374592,-4.53753,-2.597592,0.4627621,1.230655,0.3962886,-1.141354,0.3348615,26,92.6,0.02037016,0.06531394,-0.05538373,-0.6733744,-3.294257,-0.8445441,0.5196926,1.409203,0.3023937,-0.01766691,-0.03566194,0.07427755,-0.531585,-0.05816224,0.007617972,0.637705,1.480153,0.1455922,0.1720391,1.141594,0.2633189,289.4684,241.5165,4.370904,True
2,1.688892,0.02526937,0.08158512,0.03412355,-1.375256,-4.537774,-2.597569,0.4625813,1.230628,0.3962913,-1.137551,0.3418503,26,92.6,0.01208915,0.0832365,-0.02748988,-0.6740871,-3.291735,-0.8463446,0.5194069,1.40925,0.302346,-0.0124355,-0.0420139,0.06354646,-0.5313219,-0.05936945,0.008493886,0.6373004,1.480157,0.1455276,0.1716821,1.140711,0.2640233,289.5546,241.9831,4.103902,True
2,1.700003,0.007182172,0.07514451,0.03629513,-1.375966,-4.538092,-2.596975,0.4623736,1.23063,0.3962641,-1.132646,0.4422793,26,92.6,0.01234381,0.08945466,0.0002485253,-0.6744328,-3.289205,-0.8484418,0.5191097,1.4094,0.3023043,0.000230141,-0.05371428,0.05273417,-0.5311211,-0.06141942,0.009796971,0.6369457,1.480185,0.1454704,0.1713496,1.139716,0.2647461,289.6482,242.4686,3.850359,True
2,1.711114,-0.0002559787,0.06763589,0.02994604,-1.376361,-4.538413,-2.596667,0.4622038,1.230629,0.396229,-1.128002,0.4171619,27.4,94.8,0.01571046,0.07870552,0.01613268,-0.674282,-3.287738,-0.8499628,0.5188591,1.409415,0.3022442,0.01189844,-0.05691054,0.04729576,-0.5307616,-0.06277164,0.01042468,0.6366324,1.48013,0.1455395,0.1710613,1.13856,0.2654272,289.8016,242.9218,3.592415,True
2,1.722225,-0.0151486,0.05797497,0.02360656,-1.376566,-4.538698,-2.595883,0.4619555,1.23068,0.3962014,-1.122023,0.5390946,27.4,94.8,0.01049793,0.04775949,0.02344143,-0.6735161,-3.287751,-0.8499047,0.518716,1.409283,0.3023841,0.01191912,-0.04198659,0.04523489,-0.5303366,-0.06272916,0.01024225,0.6363192,1.48016,0.1455736,0.1708264,1.137211,0.2660125,290.0095,243.3557,3.312574,True
2,1.733337,-0.01940694,0.05582806,0.02362061,-1.377097,-4.539008,-2.595445,0.4617307,1.230732,0.3961689,-1.116305,0.5138317,27.4,94.8,0.0146067,0.035097,0.005208297,-0.6739475,-3.288569,-0.8496184,0.5184332,1.409265,0.3024583,0.01089742,-0.03135148,0.04849074,-0.5296505,-0.06284221,0.01043107,0.6359959,1.48011,0.1455309,0.1706125,1.135664,0.266469,290.2899,243.7973,2.979941,True
2,1.744448,-0.02688767,0.06218188,0.02040433,-1.377644,-4.539731,-2.594738,0.4615721,1.230706,0.3961847,-1.109497,0.613555,27.4,94.8,0.02713777,0.02570388,-0.02267088,-0.6747199,-3.290169,-0.8491135,0.5182197,1.409205,0.3025031,0.001352105,-0.02174978,0.05074481,-0.5289767,-0.0626281,0.01059166,0.6357361,1.48011,0.1455019,0.1704377,1.133926,0.26681,290.616,244.1585,2.6699,True
2,1.755559,-0.03645,0.05256148,0.02045497,-1.377982,-4.539772,-2.593924,0.461423,1.230709,0.3961768,-1.102953,0.5881218,27.4,94.8,0.02915074,0.03430002,-0.03434882,-0.6756807,-3.290269,-0.8494895,0.5181108,1.409208,0.3024998,-0.00406101,-0.02702654,0.04330139,-0.5288708,-0.06366953,0.01188888,0.635458,1.48008,0.1454749,0.1702575,1.132029,0.2670657,291.0035,244.5064,2.322572,True
2,1.76667,-0.03538724,0.05362621,0.0204543,-1.37853,-4.540106,-2.593541,0.4613406,1.230701,0.396174,-1.095519,0.6696006,40.3,98.1,0.03033002,0.04912484,-0.02041583,-0.6762789,-3.288888,-0.8509449,0.5179217,1.409245,0.3024998,-0.009422028,-0.03445847,0.04117945,-0.5284921,-0.06493878,0.01326414,0.6352057,1.480072,0.1454201,0.1701137,1.130006,0.2672967,291.4007,244.8809,1.921866,True
2,1.777781,-0.03327335,0.05791187,0.02363114,-1.379282,-4.540667,-2.59308,0.4613414,1.230672,0.3962033,-1.087599,0.7129757,40.3,98.1,0.0294522,0.06070757,0.0009762775,-0.6765782,-3.286808,-0.8528587,0.5178365,1.4093,0.302424,-0.01055565,-0.03868392,0.03477748,-0.5282998,-0.06605199,0.01443886,0.635041,1.480062,0.1453633,0.1700302,1.12787,0.2675749,291.799,245.2687,1.511968,True
2,1.788892,-0.03010495,0.06644158,0.02359222,-1.380017,-4.541396,-2.592726,0.4613225,1.230595,0.3961146,-1.080074,0.6764064,40.3,98.1,0.02422351,0.06276247,0.01169112,-0.6768366,-3.285469,-0.853977,0.5176725,1.409384,0.3024585,-0.00527717,-0.04506555,0.03044296,-0.5281219,-0.06732178,0.01535579,0.6348491,1.48006,0.1453588,0.1700228,1.125643,0.2679143,292.2238,245.6583,1.14082,True
2,1.800003,-0.01946075,0.07076458,0.0288897,-1.380951,-4.542014,-2.592778,0.4613528,1.230494,0.3960767,-1.071682,0.7556996,40.3,98.1,0.02744564,0.06381182,0.01486665,-0.6771769,-3.284384,-0.8552151,0.5175232,1.409479,0.3024116,-0.009492103,-0.04187623,0.0347548,-0.5275744,-0.06795175,0.01611639,0.6346878,1.480081,0.1452973,0.1701188,1.123333,0.2683379,292.6473,246.0744,0.7613226,True
2,1.811115,-0.008824193,0.07720904,0.03311369,-1.381926,-4.542692,-2.592906,0.4614118,1.230381,0.3960457,-1.063017,0.7796316,51.1,86.4,0.02114036,0.05842701,0.02341401,-0.6772642,-3.283246,-0.856087,0.5174897,1.409487,0.3024876,-0.01490314,-0.04181348,0.02414331,-0.5277075,-0.0689551,0.01729643,0.6346118,1.479971,0.1453152,0.1702918,1.120927,0.2688628,293.0736,246.5511,0.3497694,True
2,1.822226,-0.001398287,0.08898745,0.04158016,-1.38327,-4.543509,-2.592988,0.4614943,1.230218,0.3959959,-1.054281,0.7858001,51.1,86.4,0.01266482,0.05412684,0.02772911,-0.677301,-3.282207,-0.8567357,0.5174048,1.409496,0.3025174,-0.005429459,-0.02470319,0.004969685,-0.5283078,-0.06833591,0.01649509,0.6345305,1.479947,0.1454258,0.1704837,1.118399,0.2694744,293.5087,247.0562,359.9536,True
2,1.833337,0.004935851,0.107149,0.04682036,-1.384746,-4.544794,-2.592936,0.4615602,1.230008,0.3959403,-1.045099,0.8265067,51.1,86.4,0.001842003,0.02229947,0.005258596,-0.6771598,-3.283845,-0.8551381,0.5174072,1.40932,0.3026028,-0.0001186579,-0.007642458,-0.001386915,-0.5285091,-0.06739835,0.01561438,0.634413,1.480023,0.1453876,0.1707328,1.115729,0.2701627,293.9599,247.5862,359.5548,True
2,1.844448,0.00809348,0.1199608,0.0510249,-1.386282,-4.545954,-2.592914,0.4616569,1.229764,0.3958886,-1.035652,0.8503142,51.1,86.4,-0.001586562,0.009680958,-0.02141949,-0.677644,-3.285476,-0.8538063,0.5173311,1.4092,0.302659,-0.001109648,0.0008525129,0.005053121,-0.528221,-0.06681285,0.01515765,0.6342487,1.480034,0.1454263,0.1710453,1.112902,0.2709068,294.4482,248.1498,359.1363,True
2,1.855559,0.01019666,0.1306657,0.05949724,-1.388034,-4.547123,-2.592853,0.4617304,1.229442,0.3958006,-1.026078,0.8617615,51.1,86.4,0.0001254715,0.003577938,-0.06622487,-0.6790677,-3.288433,-0.8515745,0.5172382,1.409002,0.3027766,-0.00197681,0.00928256,0.02640785,-0.5270928,-0.06597342,0.0144876,0.6340539,1.479987,0.145438,0.1713958,1.109928,0.2716796,294.9801,248.7653,358.6743,True
2,1.86667,0.02188516,0.1413711,0.06370082,-1.389711,-4.548308,-2.593298,0.4618561,1.22916,0.3957512,-1.016489,0.8629322,79.8,94,0.009479735,0.004810613,-0.0908086,-0.6803167,-3.290514,-0.8504123,0.5171379,1.408822,0.3028002,-0.007191632,0.004964965,0.04134523,-0.5260835,-0.06621883,0.01497842,0.6339315,1.479956,0.145422,0.1717516,1.106837,0.27247,295.549,249.3926,358.1987,True
2,1.877781,0.03465717,0.1446189,0.06580614,-1.39126,-4.549354,-2.593876,0.4619784,1.228828,0.395618,-1.006932,0.8602009,79.8,94,0.009500921,0.010119,-0.08758216,-0.6811338,-3.291171,-0.8499708,0.5170644,1.408758,0.3027744,-0.006211672,0.007148419,0.03069266,-0.5261927,-0.06579619,0.01470038,0.6339025,1.479912,0.1454363,0.1721321,1.103674,0.2732628,296.136,250.0119,357.7415,True
2,1.888893,0.0431734,0.1478595,0.07004381,-1.392893,-4.550382,-2.594457,0.4620874,1.228595,0.3955886,-0.9979727,0.8055775,79.8,94,0.005352415,0.01003771,-0.07582413,-0.6814646,-3.291551,-0.849592,0.5169835,1.408676,0.3027894,-0.003089746,0.01678504,0.01899599,-0.5264388,-0.06461947,0.01359703,0.6338211,1.479915,0.1454926,0.1725441,1.100485,0.2740282,296.7295,250.6266,357.2951,True
2,1.900004,0.05384105,0.1425591,0.06899202,-1.394258,-4.551186,-2.595229,0.4622732,1.228367,0.3954844,-0.9888275,0.8232577,79.8,94,-0.004091991,0.007804263,-0.06083417,-0.6816031,-3.291657,-0.8490903,0.5169295,1.408629,0.3027201,-0.01257012,0.03062208,0.02765957,-0.5258231,-0.06286312,0.0124833,0.63385,1.479853,0.1455009,0.1730461,1.097312,0.2747579,297.3065,251.192,356.8896,True
2,1.911115,0.06028517,0.1266004,0.06905741,-1.395377,-4.551498,-2.596014,0.462345,1.228155,0.3954306,-0.9796838,0.8230224,100,100,-0.009303702,0.02368716,-0.04682671,-0.6821889,-3.290838,-0.8495049,0.5168695,1.408494,0.3027027,-0.01790355,0.02957063,0.0276982,-0.5254998,-0.06231664,0.01245134,0.6337847,1.479743,0.1454692,0.1736296,1.094165,0.275431,297.8751,251.7104,356.5125,True
2,1.922226,0.06356497,0.09998114,0.06916829,-1.39616,-4.551297,-2.596799,0.4624324,1.22802,0.3953431,-0.970948,0.785975,100,100,-0.0093171,0.03433705,-0.04675686,-0.683047,-3.290655,-0.8495564,0.5167842,1.408367,0.3026574,-0.02112671,0.01892854,0.0276763,-0.5252036,-0.06255632,0.01301141,0.6337057,1.479667,0.1455343,0.1742916,1.091084,0.2760504,298.4568,252.1952,356.1386,True
2,1.933337,0.06470317,0.07652585,0.06500486,-1.396666,-4.551014,-2.597584,0.46245,1.227778,0.3953247,-0.962264,0.7817774,100,100,-0.01781659,0.05559923,-0.04121023,-0.684238,-3.289513,-0.8499542,0.5166799,1.40829,0.3026898,-0.01797485,0.02108809,0.02126772,-0.5251647,-0.06177974,0.01235281,0.6335979,1.479726,0.1456265,0.1750264,1.088091,0.2766058,299.0221,252.6096,355.8275,True
2,1.944448,0.06481289,0.04134462,0.05876126,-1.396634,-4.550102,-2.598467,0.4624623,1.227663,0.3952312,-0.9538921,0.7535833,100,100,-0.0199854,0.05030214,-0.0465462,-0.6849432,-3.289906,-0.8494267,0.5166236,1.408218,0.3026578,-0.01377283,0.02537839,0.01273058,-0.5252968,-0.06092647,0.01162363,0.6335242,1.479709,0.1456299,0.1757738,1.085197,0.277073,299.5757,252.9474,355.5776,True
2,1.955559,0.0585057,0.01357268,0.04610282,-1.396365,-4.549425,-2.599077,0.462396,1.227525,0.3951144,-0.9459212,0.7173138,100,100,-0.02106301,0.03860616,-0.04980815,-0.6854486,-3.290671,-0.8486144,0.5165824,1.408146,0.3026247,-0.004191114,0.01362631,0.01579736,-0.5249543,-0.061278,0.01164174,0.6334096,1.479744,0.1455445,0.1765254,1.082422,0.2774299,300.1034,253.1928,355.393,True
2,1.966671,0.05216864,-0.005663736,0.03660595,-1.396178,-4.548769,-2.599566,0.4623616,1.227491,0.3950949,-0.938369,0.6796946,100,100,-0.01353343,0.03005176,-0.0435432,-0.6856473,-3.291016,-0.8484631,0.5165634,1.408109,0.3026106,-0.003059685,0.001850668,0.02745174,-0.5242252,-0.06212409,0.0123608,0.6333181,1.47972,0.1455007,0.177245,1.079763,0.2776819,300.5907,253.362,355.2445,True
2,1.977782,0.04368247,-0.0174177,0.03347144,-1.396249,-4.548157,-2.599913,0.4623459,1.22737,0.3951349,-0.9310858,0.6557935,100,100,-0.00385204,0.02787227,-0.03405893,-0.6858433,-3.290803,-0.8488935,0.5165566,1.408084,0.3025815,-0.002008867,-0.006681026,0.0284697,-0.5237996,-0.06293249,0.01312006,0.6333078,1.479647,0.1454458,0.177943,1.077237,0.2778291,301.0657,253.4518,355.1552,True
2,1.988893,0.03945396,-0.03023661,0.02820769,-1.396117,-4.547428,-2.600311,0.4623657,1.227444,0.3950887,-0.9243422,0.606932,100,100,0.001537517,0.02570803,-0.02773342,-0.6861123,-3.290719,-0.8491425,0.5165358,1.408115,0.3026218,-0.003183321,-0.009812815,0.01568421,-0.5240483,-0.06322385,0.01339144,0.6333317,1.479661,0.1453943,0.178577,1.074867,0.2778981,301.5345,253.4998,355.0631,True
2,2.000004,0.03307606,-0.03560188,0.02397451,-1.39594,-4.546851,-2.600569,0.4623397,1.227468,0.3950827,-0.91848,0.5277039,100,100,0.002665473,0.01715579,-0.02247054,-0.6861278,-3.290908,-0.8490682,0.5165621,1.408169,0.302609,-6.896909E-05,-0.01084128,0.006065726,-0.5243391,-0.06355008,0.01355016,0.6332924,1.479649,0.1453478,0.1791784,1.072727,0.2779469,301.9887,253.5493,354.9336,True
2,2.011115,0.0245457,-0.03777366,0.01972893,-1.395819,-4.54647,-2.600484,0.4623889,1.227557,0.3951097,-0.9135985,0.4392336,100,100,0.007018369,0.002205017,-0.01515161,-0.6858023,-3.291295,-0.8489971,0.5166041,1.408153,0.3026292,0.004159458,-0.02576606,0.005961148,-0.5242448,-0.06515091,0.01467109,0.6332673,1.479679,0.1453159,0.1797442,1.070878,0.2780099,302.3987,253.6285,354.7959,True
2,2.022226,0.01391228,-0.04530423,0.01230636,-1.395215,-4.545806,-2.600453,0.4623473,1.227596,0.3950434,-0.9092948,0.3875094,100,100,0.01557196,0.00433058,-0.01201985,-0.685952,-3.291104,-0.8496616,0.5166065,1.408162,0.3025537,0.00847676,-0.03327865,0.01547949,-0.5237431,-0.06643122,0.01553741,0.6332132,1.479702,0.1452198,0.1802715,1.069378,0.2780847,302.7563,253.6807,354.7254,True
2,2.033337,0.005408884,-0.05492383,0.009152777,-1.394727,-4.545145,-2.600207,0.4622651,1.227693,0.3950813,-0.9053895,0.351834,100,100,0.02203584,0.01280839,-0.003506169,-0.6861603,-3.290342,-0.8507662,0.5165898,1.408181,0.3025281,0.01592522,-0.04182195,0.01645012,-0.5234198,-0.06783351,0.01629908,0.6330796,1.47962,0.1451604,0.1807068,1.068233,0.2781719,303.0229,253.7022,354.6889,True
2,2.044448,-0.01478781,-0.07101712,-0.001418447,-1.393633,-4.544142,-2.599546,0.462135,1.227834,0.3950784,-0.9023109,0.2768568,100,100,0.02424595,0.01488777,0.005013756,-0.6860883,-3.289666,-0.8516328,0.5165473,1.408155,0.3025389,0.02438731,-0.04394417,0.009980171,-0.523529,-0.06892513,0.01671427,0.6330388,1.479657,0.145113,0.1810326,1.067438,0.2782757,303.196,253.712,354.6801,True
2,2.055559,-0.02328542,-0.07956746,-0.002443701,-1.392973,-4.543247,-2.599155,0.4619894,1.228041,0.3951337,-0.8995018,0.2531076,100,100,0.02542321,0.0148144,0.01672108,-0.6858375,-3.288801,-0.8526286,0.5165772,1.408172,0.3025084,0.02122566,-0.04395675,0.01427473,-0.5231263,-0.0699173,0.01747273,0.6329291,1.47971,0.1449718,0.1812005,1.066934,0.2783713,303.2729,253.6645,354.7425,True
2,2.06667,-0.03605282,-0.08603974,-0.009864567,-1.391984,-4.542341,-2.598519,0.4618857,1.228184,0.3950722,-0.8968083,0.2429291,100,100,0.02758168,0.01373711,0.01882672,-0.6857256,-3.288347,-0.8534364,0.5166968,1.408209,0.3024905,0.01804837,-0.04289031,0.0164393,-0.5228174,-0.07068056,0.01807594,0.6328943,1.479749,0.1449094,0.1812296,1.06667,0.278453,303.2928,253.5892,354.8253,True
2,2.077781,-0.05310226,-0.0882528,-0.01730189,-1.391057,-4.541746,-2.597397,0.4618183,1.228399,0.3951466,-0.8951944,0.1445476,100,100,0.03717315,0.0105546,0.01871469,-0.6856005,-3.288062,-0.8543855,0.516787,1.408277,0.3024843,0.01695013,-0.04713199,0.01323475,-0.5227386,-0.07191467,0.01894866,0.6329755,1.479655,0.1448543,0.181143,1.066607,0.2785037,303.296,253.4686,354.9478,True
2,2.088892,-0.06161221,-0.09255937,-0.02047226,-1.390131,-4.540854,-2.596618,0.4617462,1.228626,0.3951628,-0.8934053,0.1615156,100,100,0.04787127,-0.0001005232,0.02173958,-0.6851887,-3.287994,-0.8553264,0.5169157,1.408407,0.3024995,0.02425429,-0.05346818,-0.002828943,-0.5232318,-0.07354026,0.0199287,0.6329757,1.479655,0.1447606,0.1810082,1.066717,0.2785217,303.257,253.3634,355.0587,True
2,2.100003,-0.08188459,-0.08413544,-0.02794822,-1.389295,-4.540543,-2.595107,0.4617084,1.228916,0.3952177,-0.8916173,0.1613804,100,100,0.04377545,-0.0172461,0.03658432,-0.6840558,-3.287686,-0.8559277,0.517036,1.408527,0.3024778,0.03267804,-0.05770094,-0.01357133,-0.5237303,-0.07512312,0.02066187,0.6329806,1.479659,0.1447265,0.1808707,1.066937,0.2784968,303.1837,253.2379,355.1841,True
2,2.111114,-0.09255343,-0.07885978,-0.03115315,-1.388608,-4.540117,-2.59391,0.4615714,1.229049,0.3951976,-0.890747,0.0776227,100,100,0.04068822,-0.02902566,0.04612786,-0.6830273,-3.287326,-0.8565418,0.5171192,1.408627,0.3024662,0.0306185,-0.0481346,-0.008183753,-0.5236249,-0.0756134,0.02080435,0.6329859,1.479614,0.1445351,0.1807522,1.067244,0.2784516,303.1252,253.1043,355.2832,True
2,2.122225,-0.1086167,-0.05334534,-0.03124692,-1.388437,-4.540557,-2.592061,0.4615072,1.229262,0.3952475,-0.8892199,0.1385055,100,100,0.04064608,-0.02793315,0.04187379,-0.6825905,-3.287223,-0.8570742,0.5172504,1.408664,0.3024428,0.03384868,-0.04496174,-0.004999401,-0.5235876,-0.07641062,0.02101234,0.6330024,1.479601,0.1444407,0.1806609,1.067608,0.2783904,303.0693,252.9673,355.3794,True
2,2.133336,-0.1246506,-0.0384928,-0.03342529,-1.388115,-4.540814,-2.590076,0.4615495,1.229398,0.3952754,-0.8886691,0.04877794,100,100,0.04592906,-0.0183183,0.03869101,-0.6825085,-3.286644,-0.8582345,0.5174562,1.408721,0.3023958,0.03277635,-0.05135057,-0.003952571,-0.5235738,-0.07787709,0.0219567,0.6330816,1.479612,0.1443484,0.1805278,1.068012,0.2783277,303.0343,252.8558,355.4492,True
2,2.144447,-0.1396454,-0.01404538,-0.03457799,-1.388101,-4.541542,-2.587927,0.4614938,1.229616,0.3953876,-0.8875656,0.1001794,100,100,0.04060113,-0.02471056,0.0376357,-0.6818917,-3.286696,-0.8584766,0.5175816,1.408774,0.3023722,0.03273529,-0.04705536,-0.01032255,-0.5239109,-0.07857005,0.02220011,0.6331451,1.479658,0.1443422,0.1802983,1.068428,0.2782632,302.9771,252.7752,355.4981,True
2,2.155558,-0.1439586,0.001898594,-0.03996592,-1.387877,-4.542323,-2.586122,0.4613407,1.229857,0.3953965,-0.8868204,0.06696622,100,100,0.04708431,-0.03328054,0.0460423,-0.6808617,-3.286521,-0.8593342,0.5177681,1.408907,0.3023906,0.03156404,-0.03845322,-0.02625152,-0.5247163,-0.07873023,0.02196708,0.6332171,1.479634,0.1442912,0.1800181,1.06889,0.2782374,302.9271,252.7578,355.4895,True
2,2.166669,-0.03942451,-0.04039431,-0.04520497,-1.386341,-4.541086,-2.589312,0.4609114,1.230246,0.3953757,-0.8863117,0.04576055,100,100,0.04297656,-0.03019328,0.0620765,-0.6799551,-3.28537,-0.8606423,0.5179147,1.409036,0.3023608,0.03051987,-0.03525908,-0.02516499,-0.5249863,-0.07924848,0.02205603,0.6332879,1.479657,0.1442404,0.1797296,1.069424,0.2782659,302.8706,252.7359,355.4982,True
2,2.17778,0.177079,-0.1163977,-0.04827134,-1.383864,-4.538069,-2.599532,0.4605954,1.230773,0.3952303,-0.8863122,-0.0005819343,100,100,0.04619096,-0.03658731,0.06307027,-0.6790134,-3.285083,-0.8614919,0.5180779,1.40915,0.3023219,0.03049295,-0.04271021,-0.02626356,-0.5252931,-0.08074544,0.02300705,0.6333219,1.479666,0.1441281,0.1793606,1.070047,0.2783605,302.8249,252.7371,355.4927,True
2,2.188891,0.05045169,-0.1755941,-0.09479118,-1.379566,-4.536245,-2.595824,0.4607305,1.231261,0.3951342,-0.8905211,-0.385076,100,100,0.0323833,-0.0557959,0.06521259,-0.6775332,-3.2855,-0.8610093,0.5180897,1.40926,0.3022516,0.0304644,-0.04589694,-0.02840366,-0.5255914,-0.08201258,0.02380466,0.6333892,1.479674,0.1439543,0.1788777,1.070753,0.278502,302.7576,252.6853,355.5956,True
2,2.200002,-0.1552472,-0.1442853,-0.09048663,-1.378711,-4.536399,-2.587564,0.4608054,1.231588,0.3950944,-0.8968195,-0.5731482,100,100,0.01528195,-0.02598147,0.06343631,-0.6775774,-3.284058,-0.8618042,0.5182283,1.409411,0.3021348,0.02402968,-0.0426552,-0.03472852,-0.526206,-0.0826757,0.02432425,0.6335235,1.479607,0.14381,0.1785893,1.071377,0.2786613,302.5073,252.3973,355.9817,True
2,2.211113,-0.1904993,-0.1124062,-0.0820681,-1.378062,-4.536579,-2.58425,0.4608029,1.231825,0.3951449,-0.8828304,1.282917,100,100,0.01110453,0.008010613,0.0775457,-0.6776088,-3.281204,-0.8639697,0.5185245,1.409545,0.3020613,0.01854719,-0.05002405,-0.05176337,-0.5273001,-0.0843214,0.02568539,0.6337469,1.479558,0.1437063,0.1790309,1.071432,0.2788683,302.0148,251.8851,356.5465,True
2,2.222224,-0.2183739,-0.05599664,-0.07269404,-1.378328,-4.537971,-2.580579,0.4608554,1.232018,0.3952348,-0.8768783,0.5325943,100,100,0.02533266,0.03757608,0.1212785,-0.6768083,-3.276356,-0.8685889,0.5187705,1.409777,0.3020422,0.01741405,-0.05744725,-0.0581776,-0.5281006,-0.08599866,0.0269195,0.6338878,1.47956,0.1436746,0.1795698,1.070805,0.2790363,302.2584,251.6075,356.7879,True
2,2.233335,-0.2143074,0.008008193,-0.05484818,-1.379496,-4.539711,-2.578441,0.4608202,1.23229,0.3953459,-0.88186,-0.4584979,100,100,0.03614006,0.01832844,0.1349047,-0.6751795,-3.274397,-0.8708462,0.5190918,1.40993,0.3020358,0.01953427,-0.06491457,-0.05716456,-0.5287509,-0.08787446,0.0282572,0.6340212,1.479554,0.1435633,0.1796196,1.070183,0.279057,303.0743,251.7178,356.6442,True
2,2.244446,-0.1973849,0.04754353,-0.04011943,-1.380372,-4.541194,-2.576511,0.4608005,1.232579,0.395318,-0.8827537,-0.07703149,100,100,0.04124311,-0.01238053,0.1069604,-0.6741297,-3.275503,-0.8706023,0.519348,1.410056,0.3020267,0.02381597,-0.06066803,-0.05611468,-0.5293288,-0.08879764,0.02862445,0.6341517,1.479588,0.1435072,0.1793058,1.070106,0.2789622,303.6331,251.7731,356.5378,True
2,2.255557,-0.1741062,0.09988657,-0.0243805,-1.382216,-4.543583,-2.574983,0.4608477,1.232838,0.3952355,-0.8845141,-0.1606117,100,100,0.04290009,-0.07911177,0.04792303,-0.6727384,-3.280628,-0.867092,0.5195844,1.410276,0.3020763,0.02913101,-0.05427212,-0.05932053,-0.5300245,-0.08936317,0.02863644,0.6342605,1.479588,0.143429,0.1787534,1.070753,0.2788431,303.7795,251.868,356.3783,True
2,2.266668,-0.1582398,0.1340347,-0.02347882,-1.38328,-4.545925,-2.573247,0.4609478,1.233062,0.3950949,-0.8848502,-0.02940007,100,100,0.05337471,-0.1119726,0.02417569,-0.6712716,-3.2837,-0.8656759,0.5198302,1.410469,0.3020799,0.02270451,-0.05103997,-0.06458203,-0.5309842,-0.09034082,0.02945483,0.6344416,1.479517,0.1432359,0.1780901,1.072083,0.2787756,303.5217,251.986,356.2382,True
2,2.277779,-0.155122,0.1563936,-0.02890234,-1.384191,-4.548323,-2.571191,0.4610626,1.233264,0.394932,-0.8853274,-0.04362116,100,100,0.06745604,-0.1184927,0.04743989,-0.6692428,-3.283684,-0.8669639,0.5200596,1.410707,0.3019488,0.02579912,-0.05845884,-0.07423143,-0.5321971,-0.09205842,0.03058135,0.6347357,1.479574,0.1431174,0.1774066,1.073879,0.2787782,303.0286,252.0999,356.1794,True
2,2.28889,-0.1487836,0.1691614,-0.03854399,-1.384827,-4.550621,-2.569242,0.4611589,1.233546,0.3949008,-0.8850201,0.02835389,100,100,0.06765423,-0.1005351,0.0709912,-0.6678675,-3.28201,-0.8689519,0.5201688,1.410852,0.3018982,0.02259588,-0.05844601,-0.07527394,-0.5330999,-0.09324872,0.03145326,0.6349256,1.479517,0.143013,0.1767491,1.075879,0.2788644,302.429,252.2723,356.1162,True
2,2.300001,-0.1349646,0.1777201,-0.04072251,-1.385609,-4.552878,-2.567808,0.4612991,1.233759,0.3947487,-0.8845455,0.04299506,100,100,0.04542908,-0.07192634,0.09056318,-0.6669424,-3.279686,-0.8704928,0.5203457,1.411037,0.3017161,0.01837317,-0.06059075,-0.06992256,-0.5337028,-0.09467245,0.03263171,0.6350826,1.479539,0.1428764,0.1761314,1.077813,0.2790348,301.8499,252.3902,356.1302,True
2,2.311112,-0.1104456,0.174627,-0.03646686,-1.386432,-4.554573,-2.567149,0.4614212,1.233974,0.3946512,-0.8845018,0.003607456,100,100,0.02090013,-0.05171957,0.0909296,-0.6663426,-3.278482,-0.8708505,0.5205446,1.411225,0.3016055,0.01302035,-0.05842243,-0.0741315,-0.5347015,-0.09558285,0.03338113,0.6352484,1.479585,0.1427569,0.1755513,1.079502,0.279287,301.3958,252.4762,356.1629,True
2,2.322223,-0.07418989,0.1630554,-0.03113154,-1.38699,-4.556031,-2.56708,0.4615906,1.234139,0.3944676,-0.8849295,-0.03917834,100,100,0.01216427,-0.0377517,0.07085948,-0.6663218,-3.278334,-0.8708246,0.5206575,1.411424,0.3015103,0.004514076,-0.05201223,-0.07403275,-0.535543,-0.09628872,0.03422455,0.6354095,1.479574,0.1426041,0.1750382,1.080868,0.2796318,301.09,252.5727,356.1796,True
2,2.333334,-0.05280977,0.1407588,-0.0299905,-1.387164,-4.556857,-2.567079,0.4617026,1.234353,0.3943167,-0.8855282,-0.05443875,100,100,0.01094962,-0.02807303,0.05708307,-0.6662568,-3.278075,-0.8710859,0.5209429,1.411473,0.3014419,-0.004011445,-0.04985801,-0.07502432,-0.5365204,-0.09723055,0.03535719,0.6356111,1.479579,0.1424892,0.1746428,1.081872,0.2800433,300.8909,252.7329,356.1792,True
2,2.344445,-0.02074186,0.1078439,-0.0288063,-1.387048,-4.556962,-2.56791,0.4618673,1.234524,0.394155,-0.8859522,-0.03845455,100,100,0.0139492,-0.02580511,0.03682507,-0.6662755,-3.278585,-0.8709741,0.5210372,1.41175,0.3013415,-0.01789323,-0.04233636,-0.08126725,-0.5376304,-0.0974894,0.03627705,0.635766,1.479574,0.1423166,0.1744287,1.082489,0.2804672,300.7776,252.9194,356.1833,True
2,2.355556,0.004896833,0.08555643,-0.02873721,-1.386866,-4.557327,-2.568721,0.4621463,1.234669,0.393991,-0.8857226,0.0210917,100,100,0.01291139,-0.0311466,0.03893156,-0.6655676,-3.2785,-0.8711522,0.5211378,1.411942,0.3011806,-0.02638929,-0.04340319,-0.07693861,-0.5383202,-0.09854748,0.03783153,0.6358637,1.479514,0.1421154,0.1744196,1.082705,0.2808378,300.7574,253.0795,356.2073,True
2,2.366668,0.0273253,0.06747749,-0.0382546,-1.386485,-4.557793,-2.569699,0.4624279,1.23473,0.3939061,-0.8861583,-0.04023149,100,100,0.009830426,-0.03335723,0.05066678,-0.6645775,-3.277775,-0.8717306,0.5212742,1.412136,0.3009293,-0.03486605,-0.04340962,-0.07154559,-0.5390158,-0.09956121,0.03930506,0.6359965,1.479532,0.1419048,0.1745877,1.082558,0.2810952,300.8609,253.1765,356.246,True
2,2.377779,0.05078598,0.05901412,-0.04250036,-1.386161,-4.558472,-2.570941,0.4627393,1.234724,0.393908,-0.885989,0.01567382,100,100,-0.002925331,-0.007849207,0.057344,-0.664546,-3.275893,-0.8727272,0.5212725,1.412227,0.3007214,-0.04218587,-0.02746641,-0.05969219,-0.5393088,-0.0991435,0.03965047,0.6360092,1.479523,0.1417425,0.1749643,1.082117,0.281205,301.0309,253.2123,356.2817,True
2,2.38889,0.06782636,0.06014603,-0.03932672,-1.386259,-4.559278,-2.572016,0.4630848,1.234737,0.3938546,-0.8858995,0.007854599,100,100,-0.002088887,0.01571604,0.03724959,-0.6653503,-3.27514,-0.8733003,0.5212933,1.412167,0.3005168,-0.05264858,-0.008337617,-0.04354037,-0.5393322,-0.0981014,0.03951279,0.6360946,1.479504,0.1415145,0.1755116,1.081461,0.2811866,301.2521,253.226,356.2509,True
2,2.400001,0.09017906,0.06877017,-0.03191735,-1.386836,-4.560151,-2.573584,0.4633899,1.234533,0.3939939,-0.8859559,-0.005377264,100,100,0.004891921,0.03520495,-0.009573717,-0.6671607,-3.276152,-0.8727254,0.5212233,1.412152,0.3003292,-0.06310357,0.0107796,-0.02525433,-0.5389977,-0.09667181,0.03931358,0.6360931,1.479485,0.14133,0.176135,1.08066,0.2811107,301.4906,253.2024,356.1679,True
2,2.411112,0.1008346,0.06773533,-0.03298748,-1.386891,-4.560997,-2.57491,0.4637023,1.234469,0.394042,-0.8855884,0.03343131,100,100,0.01100456,0.04284351,-0.03728011,-0.6684374,-3.277034,-0.8722934,0.5211167,1.412128,0.3001785,-0.069466,0.01184679,-0.0230664,-0.5392236,-0.09655304,0.04005048,0.6361521,1.479423,0.1412075,0.1767764,1.079791,0.2810744,301.7282,253.2062,356.0342,True
2,2.422223,0.1178813,0.06887488,-0.0276791,-1.387201,-4.561687,-2.576654,0.4640173,1.234356,0.394037,-0.885834,-0.02286487,100,100,0.02248587,0.06004714,-0.0596526,-0.670356,-3.277499,-0.8725725,0.5209613,1.412164,0.3000133,-0.0769249,0.007599376,-0.02195964,-0.5394505,-0.09665065,0.04127953,0.6360996,1.479386,0.1410048,0.1773793,1.078932,0.2811348,301.9538,253.2824,355.8703,True
2,2.433334,0.1285152,0.07529832,-0.02878116,-1.387477,-4.5628,-2.578257,0.464213,1.234309,0.3940122,-0.8854137,0.03847653,100,100,0.03953443,0.06006147,-0.05875135,-0.6711251,-3.277493,-0.873508,0.5207415,1.412255,0.2999215,-0.07690448,0.004383683,-0.01877361,-0.5395122,-0.09699565,0.04235997,0.6359884,1.479321,0.1408162,0.1779149,1.078106,0.2813359,302.1154,253.4009,355.7141,True
2,2.444445,0.1434149,0.07960157,-0.02987418,-1.38773,-4.563818,-2.580185,0.4644781,1.234217,0.3939312,-0.885557,-0.01358577,100,100,0.05024881,0.04406986,-0.05469454,-0.6713483,-3.278162,-0.8739285,0.5205632,1.412341,0.2997398,-0.07787354,0.004331633,-0.0070471,-0.5391586,-0.09692588,0.04318529,0.6358232,1.479281,0.1405962,0.1783914,1.077349,0.2816793,302.2718,253.5148,355.6448,True
2,2.455556,0.1572509,0.08176343,-0.03416069,-1.387765,-4.565007,-2.582136,0.4647108,1.23425,0.3938026,-0.8853322,0.02056394,100,100,0.05563707,0.02806843,-0.05058105,-0.6712961,-3.278882,-0.8741381,0.5203078,1.41248,0.2994528,-0.08095601,-0.003202081,0.008919924,-0.5385785,-0.09779554,0.04489051,0.6356097,1.479303,0.1402721,0.1788093,1.07667,0.2821265,302.4029,253.6548,355.6165,True
2,2.466667,0.1721399,0.09140244,-0.0320708,-1.388336,-4.566133,-2.584372,0.4648055,1.234182,0.3937058,-0.8854366,-0.009847569,100,100,0.05997527,0.03121566,-0.04207944,-0.6717515,-3.278607,-0.8751664,0.5200971,1.412562,0.2992134,-0.07773818,-0.0117572,0.01418028,-0.5382398,-0.09866732,0.04638587,0.6354233,1.47926,0.1400213,0.1791315,1.076067,0.2826389,302.519,253.8211,355.595,True
2,2.477778,0.1774722,0.08820169,-0.03738847,-1.388281,-4.567201,-2.586308,0.4649145,1.234169,0.3935523,-0.8853322,0.00951039,100,100,0.05692759,0.06516773,-0.02158931,-0.6728956,-3.275944,-0.8777369,0.519763,1.41256,0.2988987,-0.07875785,-0.02564546,0.02264476,-0.5377806,-0.1003413,0.04855475,0.6352386,1.479105,0.1398692,0.1794315,1.075531,0.2831785,302.6007,253.9863,355.5991,True
2,2.488889,0.1785392,0.08818982,-0.04164816,-1.388328,-4.568369,-2.588153,0.465079,1.234305,0.3935182,-0.8854206,-0.008298998,100,100,0.04954273,0.07893831,-0.01184129,-0.6737084,-3.274507,-0.879143,0.5195992,1.412584,0.2986858,-0.08619618,-0.02671201,0.02482462,-0.5375729,-0.1011916,0.05044666,0.6351528,1.479086,0.1395888,0.1797047,1.075038,0.2837069,302.678,254.1441,355.6029,True
2,2.5,0.1711381,0.07112081,-0.04156981,-1.388065,-4.568796,-2.589778,0.4650081,1.234293,0.3933754,-0.8849626,0.04185841,100,100,0.04539262,0.08737286,0.001036715,-0.6744072,-3.272608,-0.8809984,0.5192583,1.412623,0.298327,-0.09154329,-0.02455319,0.02168255,-0.5374514,-0.1015929,0.05201686,0.6349025,1.479005,0.1392872,0.1799192,1.074533,0.2841858,302.7326,254.3192,355.5785,True
2,2.511111,0.1669146,0.05831457,-0.04364309,-1.387722,-4.569323,-2.591409,0.4650769,1.234235,0.3933101,-0.8847106,0.02255598,100,100,0.03386037,0.0946812,0.02143503,-0.6747486,-3.270271,-0.8828707,0.5190334,1.412499,0.2979794,-0.09260923,-0.03521948,0.024827,-0.5372698,-0.1031209,0.05437722,0.6345741,1.47888,0.1389141,0.1801334,1.074006,0.2846029,302.8206,254.4376,355.5724,True
2,2.522222,0.155283,0.0316396,-0.04458605,-1.386967,-4.569135,-2.592782,0.4648812,1.234252,0.3932095,-0.8842515,0.0417892,100,100,0.01587115,0.1116051,0.03663035,-0.6755566,-3.267278,-0.8847604,0.5186728,1.412449,0.2976253,-0.09356356,-0.0363468,0.03867905,-0.5364363,-0.1041228,0.05630402,0.6342057,1.478836,0.1386292,0.1803656,1.073482,0.2849721,302.9418,254.5216,355.5625,True
2,2.533333,0.142595,0.002841773,-0.04339165,-1.386093,-4.568612,-2.594047,0.4647284,1.23422,0.3930368,-0.8841817,0.005999188,100,100,0.01905185,0.125459,0.03668222,-0.6768376,-3.265072,-0.8868697,0.5182712,1.412479,0.29725,-0.09345703,-0.03320178,0.05040933,-0.5355271,-0.1045806,0.05768513,0.6338821,1.47876,0.138268,0.1805208,1.07293,0.2852562,303.051,254.558,355.6001,True
2,2.544444,0.1267415,-0.03556077,-0.04321634,-1.384766,-4.567309,-2.595134,0.4644135,1.234302,0.3928249,-0.8837785,0.03683778,100,100,0.01787384,0.141498,0.02720771,-0.6785308,-3.262924,-0.8886889,0.5177897,1.412483,0.2969301,-0.0911987,-0.03114624,0.06531521,-0.5342829,-0.1052433,0.05917251,0.6334682,1.478735,0.1379724,0.1806555,1.072364,0.2854599,303.1456,254.5602,355.6449,True
2,2.555555,0.1161975,-0.06861423,-0.04306433,-1.383506,-4.56602,-2.596357,0.464022,1.234399,0.3926389,-0.8835846,0.01740823,100,100,0.02092876,0.1373425,0.01116542,-0.6799018,-3.262285,-0.8896282,0.5172868,1.412328,0.2965481,-0.09652195,-0.03113534,0.06642587,-0.5335542,-0.1060254,0.06116562,0.6329699,1.478685,0.1377289,0.1806996,1.07178,0.2855556,303.2651,254.5132,355.7289,True
2,2.566666,0.1077299,-0.08570049,-0.04724388,-1.382238,-4.565144,-2.59753,0.4636077,1.234493,0.392379,-0.8833002,0.02594917,100,100,0.02308209,0.1277511,0.01214887,-0.6806454,-3.260999,-0.8909717,0.5168118,1.41235,0.2961717,-0.1028954,-0.03433011,0.06965926,-0.5326876,-0.1071299,0.06349562,0.6325513,1.478629,0.13744,0.1806979,1.071214,0.2855161,303.3937,254.4255,355.8516,True
2,2.577777,0.09814226,-0.08573195,-0.04723548,-1.381311,-4.564582,-2.598392,0.4631902,1.234562,0.392092,-0.8834781,-0.0164226,100,100,0.010575,0.1115862,0.03880102,-0.6802384,-3.258712,-0.8924671,0.5160534,1.412371,0.2957251,-0.1188717,-0.0268237,0.06770075,-0.5319701,-0.1073,0.06549432,0.6320245,1.478638,0.1371126,0.1806325,1.070702,0.2853039,303.5461,254.2718,356.0017,True
2,2.588888,0.08743806,-0.0708647,-0.05048342,-1.380662,-4.564745,-2.598981,0.4627969,1.234576,0.3917916,-0.8835948,-0.0104352,100,100,-0.000974685,0.1231595,0.05815889,-0.6808185,-3.255473,-0.8945981,0.5154606,1.412412,0.295321,-0.1199311,-0.02148813,0.06666921,-0.5312766,-0.1074468,0.06693242,0.6315281,1.478643,0.1368945,0.1805013,1.070277,0.2849337,303.6761,254.0934,356.1099,True
2,2.599999,0.07140325,-0.05062297,-0.03777111,-1.380772,-4.564849,-2.599188,0.4622099,1.234556,0.3915265,-0.8834121,0.01682147,100,100,-0.03059569,0.144267,0.08308048,-0.681504,-3.250918,-0.8967686,0.5147435,1.412362,0.2948251,-0.1241266,-0.01510291,0.07205603,-0.5303307,-0.1072378,0.0681897,0.6310833,1.478604,0.1366506,0.180303,1.069951,0.2844641,303.7599,253.9293,356.1597,True
2,2.61111,0.04364291,-0.02829258,-0.02719271,-1.380995,-4.565254,-2.598707,0.4615957,1.234527,0.3912005,-0.8833237,0.007945811,100,100,-0.06024748,0.1653946,0.1048071,-0.6823152,-3.246213,-0.8988155,0.5140136,1.41229,0.294353,-0.1283062,-0.009804562,0.07957053,-0.5292111,-0.107392,0.06977616,0.6306183,1.478555,0.1364019,0.1800339,1.069724,0.2839656,303.8031,253.8102,356.1524,True
2,2.622221,0.01590707,-0.01558208,-0.02296103,-1.381036,-4.565533,-2.597908,0.4608116,1.234518,0.3909202,-0.8830137,0.02836118,100,100,-0.08011074,0.1576644,0.1433007,-0.6817319,-3.241179,-0.9011847,0.5131797,1.412193,0.2938764,-0.1345388,0.01145732,0.09250513,-0.5276654,-0.1058447,0.07017349,0.6299284,1.478532,0.1362603,0.1796551,1.069582,0.2835121,303.8171,253.7558,356.0932,True
2,2.633332,-0.01930554,0.003493706,-0.01981846,-1.38119,-4.56618,-2.596562,0.4599555,1.234557,0.3905592,-0.8824778,0.04883528,100,100,-0.09917207,0.1501068,0.1540883,-0.6814699,-3.237393,-0.9024803,0.5124503,1.412024,0.2934947,-0.1418063,0.02310708,0.1117892,-0.5258891,-0.1047857,0.07102624,0.6292382,1.478521,0.13606,0.1790854,1.069509,0.283126,303.8274,253.7905,356.0027,True
2,2.644443,-0.04810264,0.01297348,-0.02302939,-1.381115,-4.566775,-2.59495,0.4590931,1.234562,0.3902233,-0.8822584,0.01981757,100,100,-0.1131012,0.1650423,0.1479248,-0.6823988,-3.23332,-0.9039221,0.5116176,1.411901,0.2930465,-0.1448897,0.02945203,0.1235629,-0.5240888,-0.103938,0.07199296,0.6285864,1.47848,0.1358676,0.1783066,1.069526,0.2828026,303.8446,253.8434,355.9502,True
2,2.655554,-0.09931057,0.03517506,-0.02520494,-1.381514,-4.567988,-2.591954,0.4579251,1.234598,0.389945,-0.8819804,0.02542419,100,100,-0.1140429,0.1809302,0.1629462,-0.6831743,-3.228073,-0.906788,0.5105264,1.41197,0.292628,-0.1543694,0.04008244,0.1343435,-0.5222437,-0.1025693,0.07293599,0.6279014,1.478405,0.1356909,0.1773022,1.069667,0.28253,303.8578,253.8696,355.9484,True
2,2.666665,-0.1291608,0.04038119,-0.03052771,-1.381397,-4.56883,-2.589258,0.4567835,1.234636,0.3895888,-0.8819185,0.00566356,100,100,-0.1213009,0.1690793,0.1821162,-0.6826667,-3.223215,-0.9089465,0.509508,1.411917,0.2921743,-0.1671396,0.0486417,0.1334229,-0.520713,-0.101121,0.0740215,0.6272574,1.478331,0.1355715,0.1761065,1.069983,0.2822983,303.8412,253.8978,355.9693,True
2,2.677776,-0.1845524,0.03909974,-0.04006333,-1.380933,-4.569647,-2.585313,0.4550734,1.234752,0.389195,-0.8809353,0.09007885,100,100,-0.1636045,0.136888,0.2100189,-0.6808361,-3.218474,-0.9093822,0.5084052,1.411694,0.2917223,-0.1884236,0.07535921,0.1283958,-0.5193228,-0.0976472,0.0738918,0.6264703,1.478296,0.1355417,0.1747344,1.070491,0.2820987,303.7709,253.915,355.9945,True
2,2.688887,-0.227158,0.03467144,-0.04533136,-1.380494,-4.570097,-2.581362,0.4535096,1.234912,0.388762,-0.8813902,-0.04213466,100,100,-0.1997758,0.1527779,0.2168567,-0.681105,-3.213107,-0.9102898,0.5072134,1.411537,0.2912107,-0.202256,0.09245659,0.1243284,-0.5179859,-0.09482118,0.07401297,0.6257793,1.478307,0.1354966,0.1730628,1.071212,0.2819173,303.6892,253.9732,355.9872,True
2,2.699998,-0.2793738,0.03983118,-0.04424278,-1.380441,-4.570862,-2.576488,0.4518251,1.23509,0.3883512,-0.8805641,0.07624672,100,100,-0.2167287,0.1686585,0.2288395,-0.6812057,-3.207137,-0.9119702,0.5060716,1.411405,0.2907443,-0.2043616,0.09884863,0.1254408,-0.5164855,-0.09241582,0.07425372,0.625053,1.478289,0.1354723,0.1711191,1.072162,0.2817253,303.5391,253.9611,356.0761,True
2,2.711109,-0.3134845,0.04394545,-0.05169875,-1.37994,-4.571888,-2.571836,0.4502348,1.235347,0.3878896,-0.8807836,-0.02046297,100,100,-0.2302784,0.187598,0.2631848,-0.6809362,-3.199359,-0.915121,0.5048374,1.41129,0.2903278,-0.2075109,0.1052159,0.130823,-0.5147608,-0.0901998,0.07486518,0.6242327,1.478173,0.1353858,0.1687642,1.073328,0.2814704,303.3765,253.9019,356.2218,True
2,2.72222,-0.3539751,0.04701315,-0.05061153,-1.379863,-4.572733,-2.566423,0.4482933,1.235625,0.3874636,-0.880375,0.0378924,100,100,-0.2416413,0.1809584,0.2994735,-0.6796153,-3.191938,-0.9178614,0.5035756,1.411148,0.2898881,-0.2126998,0.1179529,0.1437092,-0.512634,-0.08704702,0.07461831,0.6233352,1.478151,0.1354351,0.1662435,1.074783,0.2811284,303.1354,253.8282,356.3867,True
2,2.733331,-0.3187416,0.0225877,-0.0590575,-1.37884,-4.57276,-2.564145,0.4461597,1.235858,0.3870242,-0.8810142,-0.05846686,100,100,-0.2468105,0.1776551,0.3154796,-0.6786799,-3.185294,-0.9202015,0.5023409,1.410929,0.2894008,-0.2093521,0.1253302,0.1596905,-0.5103256,-0.0840471,0.07414107,0.6224412,1.478104,0.1355257,0.1636317,1.076539,0.2806789,302.8337,253.7736,356.5096,True
2,2.744442,-0.2216787,-0.0143838,-0.06005113,-1.377505,-4.571911,-2.565179,0.4440914,1.236212,0.3866019,-0.8806994,0.02961254,100,100,-0.2447301,0.1617265,0.3079002,-0.6778059,-3.180084,-0.9216061,0.5009468,1.410789,0.2889459,-0.2049088,0.1316166,0.1799249,-0.5075207,-0.08098993,0.07357755,0.6214603,1.478083,0.1355681,0.1609992,1.078562,0.2801382,302.4564,253.6567,356.6459,True
2,2.755553,-0.07017519,-0.09611087,-0.1067081,-1.373077,-4.570095,-2.570296,0.4419248,1.236768,0.3862009,-0.8839298,-0.2954893,100,100,-0.2509957,0.09352678,0.3107192,-0.6748269,-3.176898,-0.9212487,0.4994135,1.410532,0.2883871,-0.2240546,0.1391252,0.1801147,-0.5055122,-0.07765471,0.07362522,0.6204795,1.478064,0.1355999,0.1581804,1.080754,0.2794964,302.0466,253.502,356.79,False
2,2.766664,-0.3118952,-0.133258,-0.1383022,-1.369637,-4.569315,-2.558297,0.439541,1.237189,0.3857143,-0.8874462,-0.3189135,100,100,-0.2751627,0.06453288,0.3416608,-0.6716487,-3.171014,-0.9220045,0.4978613,1.410299,0.2878292,-0.2389532,0.1519559,0.1781662,-0.5034679,-0.0735894,0.07321429,0.619481,1.47801,0.1357353,0.1553654,1.082942,0.2787899,301.4822,253.1662,357.0868,False
2,2.777775,-0.5517046,-0.1043188,-0.1627188,-1.36737,-4.570525,-2.544158,0.4371322,1.237551,0.3855202,-0.8912604,-0.3465628,100,100,-0.3543404,0.128869,0.425924,-0.6698356,-3.157904,-0.9257281,0.4960998,1.409809,0.2870502,-0.2812187,0.2276151,0.198036,-0.5003797,-0.06330813,0.06881794,0.6183369,1.477946,0.1361938,0.152914,1.084803,0.2780968,300.8206,252.6374,357.5352,False
2,2.788886,-0.6870347,-0.08981501,-0.1541353,-1.366051,-4.570876,-2.532594,0.4347046,1.237913,0.3852553,-0.8744996,1.534984,100,100,-0.3915246,0.2085791,0.4480961,-0.6705744,-3.145925,-0.9296216,0.4944552,1.409407,0.2865098,-0.2960443,0.2617427,0.1983191,-0.4978929,-0.05541093,0.06558167,0.6172917,1.477863,0.1364827,0.1508754,1.085821,0.2775453,300.2139,251.8349,358.1535,False
2,2.799997,-0.7947733,-0.04108398,-0.1350712,-1.365953,-4.572434,-2.519745,0.4313631,1.238441,0.385102,-0.8715456,0.2570683,100,100,-0.4082876,0.3350237,0.4959406,-0.6728636,-3.129061,-0.9376266,0.4927042,1.408923,0.2860556,-0.3012995,0.2862526,0.1995421,-0.4953938,-0.04722118,0.06193421,0.6162398,1.477768,0.1368582,0.1481777,1.086169,0.2770282,300.5952,251.5605,358.2792,False
2,2.811108,-0.8225397,-0.01446902,-0.1181157,-1.365677,-4.57344,-2.510059,0.4282873,1.238912,0.3849421,-0.8751568,-0.329982,100,100,-0.3634021,0.3679827,0.5149068,-0.6731433,-3.116006,-0.9454345,0.4910789,1.408633,0.2857676,-0.2905969,0.2840713,0.205828,-0.4928132,-0.04108898,0.05934668,0.6150545,1.477686,0.1372192,0.1446436,1.08688,0.276527,301.3895,251.4903,358.2619,False
2,2.822219,-0.8599027,0.01425195,-0.09902871,-1.365981,-4.574649,-2.498944,0.4249667,1.239693,0.3844891,-0.8757395,-0.04937731,100,100,-0.3314514,0.2339249,0.4945671,-0.6689749,-3.111114,-0.9466515,0.4894829,1.408474,0.2855353,-0.2683499,0.2734172,0.193877,-0.4908813,-0.03560233,0.05678339,0.6138826,1.477564,0.1375489,0.1404441,1.088654,0.2759841,301.8443,251.4277,358.3309,False
2,2.83333,-0.8503442,0.02172945,-0.1022593,-1.365223,-4.575735,-2.489862,0.4217311,1.24071,0.3839214,-0.8797289,-0.3639436,100,100,-0.320752,0.08596843,0.4775442,-0.6627979,-3.109088,-0.9451281,0.4879052,1.408324,0.285296,-0.2545348,0.2712658,0.1905584,-0.4887673,-0.02978599,0.05400305,0.6126826,1.477446,0.1378291,0.1354856,1.091789,0.275352,301.7521,251.3469,358.4391,False
2,2.844441,-0.9355948,0.01265955,-0.166066,-1.361978,-4.577884,-2.476576,0.418622,1.241594,0.3832686,-0.8794594,0.02819294,100,100,-0.3075174,-0.09206027,0.498653,-0.6532404,-3.107811,-0.9432935,0.4863269,1.40824,0.2849667,-0.2332333,0.2594793,0.1935246,-0.4864115,-0.02482093,0.05146426,0.6113555,1.477358,0.1381216,0.1303648,1.096261,0.2746648,300.9518,251.0912,358.7628,False
2,2.855552,-1.018883,0.06880113,-0.1779515,-1.361925,-4.581487,-2.461852,0.4154374,1.242238,0.3829067,-0.8818679,-0.2204453,100,100,-0.2993924,-0.146773,0.5600159,-0.6459897,-3.09958,-0.9468145,0.4844812,1.408007,0.2845767,-0.2106335,0.2550299,0.222081,-0.4828806,-0.01934467,0.04819656,0.6099615,1.477071,0.1384711,0.1252174,1.101774,0.2738631,299.8192,250.7989,359.1854,False
2,2.866663,-1.063726,0.0952601,-0.1854833,-1.361369,-4.584527,-2.448172,0.4117615,1.243201,0.3824253,-0.8786141,0.2997692,100,100,-0.3000032,-0.1289841,0.6102076,-0.6403592,-3.088822,-0.952058,0.4826919,1.407763,0.2841003,-0.2030458,0.2549366,0.2379985,-0.479557,-0.01358385,0.04507586,0.6085694,1.476919,0.138792,0.1202608,1.107893,0.2729498,298.4262,250.1048,359.9611,False
2,2.877774,-1.104403,0.1504547,-0.2016596,-1.361452,-4.589071,-2.433615,0.4079608,1.244149,0.3819017,-0.877673,0.0836622,100,88.4,-0.3208405,-0.07823175,0.6661345,-0.6361631,-3.074826,-0.9590408,0.4805467,1.407405,0.2834795,-0.216756,0.2644942,0.252005,-0.4761136,-0.006932741,0.04198394,0.6070641,1.476724,0.1392164,0.1153033,1.114203,0.2720054,297.0914,249.1344,0.8565766,False
2,2.888885,-1.131169,0.1908122,-0.2103367,-1.361589,-4.593388,-2.419348,0.4041279,1.245084,0.3812971,-0.879248,-0.1438485,100,88.4,-0.355674,-0.06572169,0.7017053,-0.6307026,-3.06258,-0.9637495,0.478431,1.407122,0.2828798,-0.2306248,0.280543,0.2447363,-0.4734376,0.0009321064,0.03806642,0.6056141,1.476526,0.1396406,0.1101037,1.12054,0.2711425,295.9046,248.5069,1.364648,False
2,2.899997,-1.15146,0.2056505,-0.2125124,-1.361622,-4.597236,-2.404899,0.4001791,1.246151,0.3807929,-0.8795025,-0.02149951,100,88.4,-0.4158186,-0.06086755,0.7630385,-0.6241507,-3.048012,-0.9687589,0.4761084,1.406768,0.2821996,-0.2562757,0.2987919,0.2290517,-0.471265,0.009539843,0.03421044,0.6041034,1.476269,0.1401751,0.1045489,1.126782,0.2703918,294.849,247.9573,1.883529,False
2,2.911108,-1.162011,0.1714773,-0.2240779,-1.360029,-4.599782,-2.390917,0.3958975,1.247384,0.3802943,-0.8802956,-0.07205595,100,88.4,-0.4465227,-0.03656375,0.7869239,-0.6190507,-3.034362,-0.9737012,0.4737031,1.406278,0.2815897,-0.2786393,0.3255149,0.2219025,-0.4689257,0.01947397,0.02929956,0.6025419,1.476023,0.1407797,0.09871578,1.132875,0.2698155,293.8876,247.465,2.435376,False
2,2.922219,-1.175713,0.1223617,-0.2398392,-1.357502,-4.601827,-2.376673,0.391409,1.248656,0.3797829,-0.8805811,-0.02518575,100,88.4,-0.4260315,0.00480485,0.8189539,-0.6145191,-3.018266,-0.9826239,0.4712191,1.405872,0.2810364,-0.2988548,0.3522227,0.2168663,-0.4665134,0.03010011,0.02386192,0.6008994,1.475752,0.141418,0.09284726,1.138806,0.2694278,292.9798,246.982,3.065077,False
2,2.93333,-1.189363,0.05727803,-0.2555394,-1.354035,-4.603104,-2.362622,0.387175,1.249772,0.3793311,-0.8812155,-0.05755689,100,72.5,-0.4160293,-0.006103814,0.8624774,-0.6081307,-3.002637,-0.9911713,0.4688749,1.405465,0.2804592,-0.3084311,0.3597063,0.2159057,-0.4641299,0.03928282,0.01936544,0.5992893,1.475586,0.142107,0.08704243,1.144573,0.2691726,292.1694,246.4297,3.811873,False
2,2.944441,-1.204089,-0.003554791,-0.2680587,-1.350242,-4.604085,-2.348543,0.3826496,1.25091,0.3786166,-0.8812874,-0.005857463,100,72.5,-0.4340516,-0.04130983,0.866686,-0.6014041,-2.989749,-0.9963687,0.4663473,1.405065,0.2799284,-0.315799,0.3671422,0.2245236,-0.4612755,0.04888525,0.01453447,0.5975704,1.475314,0.1427886,0.08124747,1.15017,0.2689292,291.453,245.5841,4.864004,False
2,2.955552,-1.204012,-0.03024033,-0.2807303,-1.346901,-4.605753,-2.334913,0.3782123,1.252067,0.3780856,-0.8816522,-0.03313937,100,72.5,-0.4586223,-0.08173698,0.8538847,-0.5944921,-2.978602,-0.9995871,0.4636849,1.404544,0.2793872,-0.3295252,0.3831088,0.2343023,-0.4581878,0.05918729,0.009226788,0.5955368,1.475095,0.1435306,0.07549154,1.155621,0.2686014,290.7872,244.4797,6.148189,False
2,2.966663,-1.200736,-0.06013957,-0.2933691,-1.343176,-4.607015,-2.321227,0.3735314,1.253347,0.3774526,-0.8819005,-0.0222125,100,72.5,-0.4897355,-0.09335077,0.8306696,-0.5885719,-2.967243,-1.002347,0.4608654,1.404005,0.2787924,-0.3454507,0.3756529,0.2429197,-0.4551592,0.06813045,0.005562012,0.5934937,1.474802,0.1442835,0.06992609,1.160936,0.2681142,290.1249,243.1913,7.594279,False
2,2.977774,-1.196459,-0.07411754,-0.3274042,-1.339044,-4.609608,-2.307402,0.368782,1.254315,0.3769217,-0.8827692,-0.07907266,100,57.3,-0.5080534,-0.05066252,0.8151376,-0.5846235,-2.95341,-1.0075,0.4578744,1.403272,0.2782252,-0.3590551,0.3787492,0.27181,-0.451172,0.07803821,0.001068993,0.5914205,1.474449,0.1450548,0.06441024,1.166134,0.2673625,289.5146,241.839,9.045935,False
2,2.988885,-1.194358,-0.06234854,-0.3168053,-1.336804,-4.611988,-2.293522,0.3642831,1.255172,0.3764718,-0.8829034,-0.01141663,100,57.3,-0.4986766,-0.006870806,0.7993476,-0.5814293,-2.939084,-1.014164,0.4548996,1.402558,0.2776508,-0.3727529,0.3829679,0.2889782,-0.4474776,0.08823559,-0.003520965,0.5893795,1.474084,0.1458402,0.05895485,1.171259,0.2663805,288.9451,240.4249,10.42842,False
2,2.999996,-1.195555,-0.02078388,-0.3116526,-1.335437,-4.615359,-2.279264,0.3596748,1.255889,0.3759813,-0.883206,-0.02758489,100,57.3,-0.5020388,0.04219568,0.7890401,-0.5789211,-2.923713,-1.021396,0.4517504,1.401525,0.2770433,-0.3992344,0.3904173,0.3052102,-0.4434792,0.09897678,-0.007834221,0.5871365,1.473493,0.1467149,0.05341221,1.176346,0.2652091,288.4006,238.758,11.96984,False
2,3.011107,-1.192484,0.0197477,-0.3022379,-1.334777,-4.618846,-2.265296,0.3552815,1.256629,0.3754869,-0.8832523,-0.003885257,100,57.3,-0.522292,0.05068076,0.7903665,-0.574617,-2.908884,-1.02729,0.4491343,1.400727,0.2764344,-0.4044514,0.3978365,0.31594,-0.4397848,0.1099322,-0.01315202,0.5850559,1.473043,0.1475446,0.04781417,1.1814,0.264021,287.8108,236.8451,13.66521,False
2,3.022218,-1.181994,0.07094313,-0.2960703,-1.334809,-4.622985,-2.251564,0.350771,1.257269,0.3749814,-0.8832076,0.004195087,100,57.3,-0.5359559,0.06543922,0.8118989,-0.5707117,-2.892276,-1.034789,0.4462418,1.399661,0.2759089,-0.3926453,0.408425,0.32335,-0.4360266,0.1217119,-0.01983522,0.5828635,1.472434,0.1485393,0.04232196,1.186439,0.262962,287.1736,235.1918,15.1351,False
2,3.033329,-1.16079,0.1019178,-0.2940897,-1.334424,-4.626927,-2.238435,0.3465542,1.257869,0.3744371,-0.8836054,-0.03638335,100,46.8,-0.5530368,-0.01648474,0.7913045,-0.5640485,-2.882068,-1.037135,0.4432429,1.398902,0.2758904,-0.3862304,0.412668,0.3243828,-0.4325767,0.1331506,-0.02625184,0.5806512,1.47182,0.1495578,0.03688211,1.191484,0.2621084,286.5329,233.7381,16.50224,False
2,3.04444,-1.133126,0.1105004,-0.2994658,-1.33332,-4.630484,-2.226052,0.3419592,1.258645,0.3738568,-0.8840874,-0.04372741,100,46.8,-0.541323,-0.07606941,0.782288,-0.5573847,-2.87136,-1.040694,0.4402022,1.397974,0.2755141,-0.3915027,0.4371879,0.3234752,-0.4292446,0.1468956,-0.03427515,0.5783267,1.471136,0.1506548,0.03156596,1.196559,0.2614983,285.8998,232.3415,17.91351,False
2,3.055551,-1.111774,0.09671358,-0.302628,-1.331679,-4.633689,-2.213849,0.3373424,1.259401,0.3732667,-0.8846808,-0.05389456,100,46.8,-0.5380321,-0.1750891,0.7741915,-0.5486144,-2.862482,-1.042868,0.436874,1.397185,0.2750604,-0.398854,0.4456694,0.3342455,-0.4252445,0.159495,-0.04098765,0.5759847,1.470534,0.1513507,0.02632659,1.201654,0.2611364,285.2387,230.8652,19.48971,False
2,3.066662,-1.076471,0.05100609,-0.3078475,-1.328397,-4.636365,-2.202245,0.3323936,1.260046,0.3725381,-0.8853141,-0.0575983,100,46.8,-0.5591992,-0.2319872,0.6728173,-0.5427682,-2.859621,-1.038134,0.4333673,1.396081,0.2745628,-0.430787,0.4436055,0.3376961,-0.4215134,0.171671,-0.04623301,0.5733939,1.469771,0.152462,0.02122876,1.206707,0.2609855,284.5782,229.142,21.39748,False
2,3.077773,-1.043286,0.001028299,-0.3119272,-1.324933,-4.638301,-2.191352,0.3273428,1.260618,0.3718793,-0.8853375,-0.001806367,100,38,-0.5799544,-0.2050626,0.6231166,-0.5388587,-2.852219,-1.037397,0.4297401,1.394828,0.2739906,-0.4606928,0.4469002,0.3294395,-0.4183165,0.1841021,-0.05137877,0.5708938,1.469026,0.1535332,0.01605712,1.211656,0.2609369,283.9626,227.1198,23.65127,False
2,3.088884,-1.018621,-0.05217797,-0.3202503,-1.320948,-4.640172,-2.180568,0.3225721,1.26133,0.3711925,-0.8856385,-0.02766367,100,38,-0.6015601,-0.1601818,0.6001775,-0.5358019,-2.842044,-1.03874,0.4263406,1.393728,0.2733643,-0.4630026,0.4384754,0.3123761,-0.4156401,0.195828,-0.05676741,0.5684115,1.468238,0.1542952,0.0107614,1.216419,0.2608826,283.3982,224.7666,26.27204,False
2,3.099995,-0.9926476,-0.1864893,-0.3601906,-1.312292,-4.640564,-2.170279,0.3174718,1.26172,0.3703012,-0.8860081,-0.03370972,100,38,-0.6763586,-0.0395028,0.7050062,-0.5333055,-2.819644,-1.048067,0.4225256,1.392251,0.2723658,-0.4948978,0.432119,0.3221965,-0.4120342,0.2076447,-0.06099172,0.5658139,1.467333,0.1554108,0.005279112,1.220889,0.2606954,282.9045,221.9316,29.3718,False
2,3.111106,-0.9722025,-0.2503719,-0.3716773,-1.306001,-4.641866,-2.159872,0.3127508,1.262252,0.3696036,-0.8859112,0.008930695,100,38,-0.7400985,0.008236945,0.7314954,-0.5301682,-2.802747,-1.052356,0.4191166,1.390962,0.2716825,-0.5031937,0.4469872,0.345776,-0.4076117,0.2228736,-0.06893539,0.5631871,1.466302,0.156332,-0.000200429,1.224966,0.2603049,282.5132,219.0669,32.43791,False
2,3.122217,-0.9164547,-0.3653615,-0.4000052,-1.296423,-4.641877,-2.151629,0.3077382,1.262789,0.368762,-0.8857961,0.01026754,100,38,-0.8227915,0.1047236,0.7872325,-0.5286971,-2.781178,-1.059176,0.4154481,1.389447,0.2707138,-0.522341,0.4587614,0.3449209,-0.4042785,0.2372111,-0.0758905,0.5605793,1.465237,0.1575787,-0.005489681,1.228593,0.2596612,282.2834,215.935,35.74066,False
2,3.133328,-0.8639445,-0.4664807,-0.4220158,-1.286595,-4.641872,-2.143752,0.3030348,1.263295,0.3678942,-0.8856773,0.01055534,100,41.6,-0.8352581,0.1374252,0.8269551,-0.5256734,-2.761192,-1.066885,0.4117658,1.388137,0.2701006,-0.5575784,0.4813425,0.3282788,-0.4016558,0.2543637,-0.08422566,0.5579402,1.464272,0.1590407,-0.0106187,1.231692,0.2586731,282.2845,212.2175,39.5386,False
2,3.144439,-0.8317188,-0.5592473,-0.4674622,-1.275438,-4.642641,-2.135085,0.298166,1.263691,0.3671117,-0.8872385,-0.1429057,100,41.6,-0.9344369,0.1341655,0.8161601,-0.5224632,-2.743713,-1.068237,0.4079095,1.385923,0.269155,-0.5917264,0.5145439,0.3137969,-0.3992393,0.2736514,-0.09396724,0.5552133,1.463042,0.1607385,-0.01552846,1.234356,0.2574057,282.4174,209.1737,42.50663,False
2,3.15555,-0.8004868,-0.6624964,-0.4713093,-1.263653,-4.641324,-2.127674,0.2932669,1.264135,0.3666766,-0.8874159,-0.01530952,100,41.6,-0.9637265,-0.2671801,0.9299905,-0.5020874,-2.734157,-1.065114,0.4042897,1.383871,0.2684669,-0.6066028,0.5358972,0.3118874,-0.3965394,0.2916229,-0.1032894,0.5525095,1.461828,0.1620746,-0.02029696,1.236585,0.2558869,282.69,205.9197,45.63107,False
2,3.166661,-0.7553669,-0.7816391,-0.4644354,-1.250695,-4.638222,-2.121489,0.2886857,1.264448,0.3659298,-0.8864614,0.08699477,100,41.6,-0.9213328,-0.02573204,0.8309797,-0.5070291,-2.71565,-1.072736,0.4007352,1.382128,0.2678905,-0.6203476,0.5774927,0.3122002,-0.3939156,0.3134114,-0.1161799,0.5495699,1.46053,0.1637506,-0.02491285,1.238379,0.2542042,283.0809,202.7702,48.57545,False
2,3.177772,-0.7328526,-0.8306539,-0.4844899,-1.238272,-4.637627,-2.114419,0.284183,1.264583,0.3654125,-0.88666,-0.01911737,100,41.6,-0.8771601,-0.08170295,0.7630825,-0.5015755,-2.707419,-1.071963,0.3969506,1.38018,0.2673547,-0.6213977,0.6073576,0.3048899,-0.391824,0.334451,-0.1287026,0.5466799,1.45914,0.1651459,-0.029572,1.239827,0.2524837,283.6106,199.9063,51.13821,False
2,3.188883,-0.6977207,-0.8295878,-0.512249,-1.227055,-4.639037,-2.107451,0.2798744,1.264444,0.3650043,-0.88701,-0.03214906,100,49.1,-0.8587381,-0.08330452,0.6851172,-0.4982545,-2.69941,-1.070008,0.3934156,1.377999,0.2667534,-0.6128271,0.644593,0.3007599,-0.3897238,0.3565927,-0.1428735,0.5438126,1.457884,0.1667597,-0.03413025,1.24098,0.2508032,284.1861,197.4264,53.37426,False
2,3.199994,-0.6595695,-0.774157,-0.5338193,-1.218029,-4.641593,-2.100723,0.2759537,1.263938,0.3647463,-0.8865754,0.03966221,100,49.1,-0.802744,-0.007348657,0.6467142,-0.4978135,-2.68655,-1.074312,0.3899698,1.375911,0.2660174,-0.5905007,0.6445621,0.2952496,-0.3877808,0.3763003,-0.1554386,0.541046,1.456463,0.1680284,-0.03841224,1.24181,0.2490966,284.7915,195.1493,55.51438,False
2,3.211105,-0.6373562,-0.7261722,-0.5393672,-1.209485,-4.643827,-2.093674,0.2719243,1.263622,0.3642414,-0.8869482,-0.03443894,100,49.1,-0.7577217,0.0404312,0.6828123,-0.4957783,-2.667698,-1.083989,0.3865394,1.373921,0.2653215,-0.5671806,0.6211084,0.285417,-0.3856997,0.3931393,-0.1657701,0.5383731,1.454867,0.1691842,-0.0425648,1.242404,0.2474672,285.4373,193.077,57.31264,False
2,3.222216,-0.5610318,-0.6011273,-0.5026695,-1.205392,-4.646577,-2.089194,0.2686532,1.262715,0.3639894,-0.8872763,-0.02986086,100,49.1,-0.7339532,0.0498116,0.7199269,-0.4922145,-2.649037,-1.093072,0.3834299,1.371835,0.2646568,-0.5353268,0.5730808,0.2870591,-0.3832965,0.4067416,-0.1736155,0.5357279,1.453353,0.1701918,-0.04661202,1.242861,0.2461904,286.0296,191.1772,58.82579,False
2,3.233327,-0.5175743,-0.5348763,-0.4901927,-1.199504,-4.649224,-2.083741,0.2649477,1.262107,0.3634863,-0.8865221,0.06894913,100,63.2,-0.6789944,0.06720769,0.6779478,-0.4906592,-2.636639,-1.097915,0.3801449,1.369904,0.2640398,-0.5088079,0.5431922,0.2814198,-0.3809588,0.4213065,-0.1823227,0.5329995,1.452002,0.1710665,-0.05056492,1.243253,0.2454937,286.4806,189.6561,60.07944,False
2,3.244438,-0.4517942,-0.4537173,-0.49485,-1.194871,-4.653425,-2.079574,0.2617863,1.261222,0.3631623,-0.8887821,-0.2076514,100,63.2,-0.6774971,0.03891021,0.60744,-0.4882304,-2.62892,-1.097167,0.3770363,1.36806,0.2635028,-0.4876417,0.4920158,0.279947,-0.3785098,0.432905,-0.1883902,0.530198,1.450518,0.171766,-0.05448601,1.243685,0.2453543,286.8124,188.7271,61.02805,False
2,3.255549,-0.3827936,-0.3714008,-0.4771519,-1.190976,-4.657094,-2.07625,0.2586861,1.260438,0.3627577,-0.8875741,0.1120395,100,63.2,-0.6398306,-0.01379943,0.527908,-0.4849446,-2.624843,-1.094911,0.3740008,1.366123,0.2631629,-0.4748535,0.4802464,0.2840616,-0.3761177,0.4481394,-0.1977362,0.5274291,1.44889,0.172739,-0.05810342,1.244078,0.2457484,286.9168,187.794,62.20466,False
2,3.26666,-0.3445913,-0.3167987,-0.4422579,-1.187734,-4.65978,-2.072736,0.2554869,1.259342,0.3624964,-0.8887475,-0.10888,100,63.2,-0.5507833,-0.05705822,0.4767105,-0.4813648,-2.618925,-1.096572,0.3707796,1.363976,0.262996,-0.4374804,0.4566491,0.303835,-0.3731696,0.4627406,-0.2075316,0.5244642,1.447209,0.1735878,-0.06176167,1.244427,0.2464444,287.0703,186.9787,63.4113,False
2,3.277771,-0.2842137,-0.1970706,-0.3874228,-1.187971,-4.662971,-2.070165,0.2528507,1.257545,0.3621857,-0.8890052,-0.02285943,100,63.2,-0.5246328,-0.1163016,0.4174864,-0.4771245,-2.616937,-1.093315,0.3678146,1.361935,0.2627347,-0.3937177,0.4596907,0.3130763,-0.3704937,0.478883,-0.219604,0.5217275,1.445683,0.1743579,-0.06525499,1.244644,0.2474101,287.2257,186.1448,64.61662,False
2,3.288882,-0.2555692,-0.1510347,-0.3546177,-1.186123,-4.665625,-2.067135,0.2498468,1.256155,0.3618996,-0.8878947,0.1011714,100,77,-0.4774079,-0.1274736,0.3392199,-0.4748347,-2.615572,-1.090623,0.3652047,1.359806,0.2622364,-0.3670722,0.4607106,0.3128347,-0.3685202,0.4955633,-0.2317927,0.5190784,1.444154,0.1750777,-0.06865121,1.244669,0.2485358,287.3104,185.4411,65.70701,False
2,3.299993,-0.2152465,-0.1008022,-0.3474051,-1.184935,-4.669356,-2.064771,0.2476154,1.254403,0.3616724,-0.8883672,-0.04445639,100,77,-0.4663352,-0.06319058,0.2798895,-0.4753519,-2.611413,-1.089485,0.3627532,1.357704,0.2618742,-0.3118661,0.3977341,0.3088908,-0.3658166,0.5041768,-0.2382339,0.5166055,1.442696,0.1757138,-0.07194666,1.244408,0.2496633,287.2831,184.8478,66.72041,False
2,3.311104,-0.1876084,-0.07607596,-0.316646,-1.183432,-4.671862,-2.062448,0.2454062,1.252831,0.3613472,-0.8872864,0.09897184,100,77,-0.4257826,0.04536653,0.3046927,-0.4771916,-2.599085,-1.096854,0.3603923,1.355655,0.261389,-0.2800622,0.3625274,0.3020774,-0.3634677,0.5140061,-0.2452388,0.514248,1.441224,0.1764734,-0.07499727,1.243743,0.2506825,287.1331,184.3482,67.62579,False
2,3.322215,-0.1408734,-0.02571987,-0.2849371,-1.183727,-4.674574,-2.061497,0.2434293,1.251093,0.3611917,-0.8877684,-0.04534498,100,77,-0.4109397,0.1135511,0.3071221,-0.4788843,-2.588773,-1.101959,0.3580096,1.353726,0.2610121,-0.2515057,0.3369679,0.2846774,-0.3616903,0.5233219,-0.2522261,0.5120741,1.439738,0.1769934,-0.07798114,1.242695,0.2514601,287.1463,184.1938,68.09094,False
2,3.333326,-0.0620839,-0.003996894,-0.2456761,-1.183537,-4.676169,-2.062605,0.241461,1.249368,0.361167,-0.886994,0.07100742,100,88.9,-0.3890658,0.1468696,0.2602851,-0.4801685,-2.583412,-1.103117,0.3558939,1.351813,0.2608008,-0.2260625,0.3049602,0.2800574,-0.3595875,0.5318101,-0.2584004,0.5098619,1.438339,0.1775401,-0.08058308,1.241257,0.2520677,287.2436,184.2503,68.20914,False
2,3.344437,0.005019158,0.004835278,-0.2244631,-1.183021,-4.678001,-2.064276,0.2394812,1.247567,0.3611214,-0.8879224,-0.08590168,100,88.9,-0.3521674,0.1535696,0.2205574,-0.4814718,-2.579684,-1.103898,0.3537175,1.349971,0.2605889,-0.2238871,0.2857266,0.2916695,-0.3566702,0.5414783,-0.2649912,0.507613,1.436978,0.1780148,-0.08290547,1.239566,0.2524835,287.3443,184.6736,67.87936,False
2,3.355548,0.09661167,0.01587646,-0.2032845,-1.182575,-4.679812,-2.067634,0.237767,1.245407,0.3611281,-0.8891783,-0.1143149,100,88.9,-0.3538234,0.1038971,0.1521104,-0.4805211,-2.580808,-1.09886,0.3515498,1.347995,0.2604451,-0.2079918,0.2580023,0.2892736,-0.354194,0.5490437,-0.2703588,0.50528,1.43552,0.1785266,-0.08495613,1.237708,0.2527741,287.3756,185.0129,67.53777,False
2,3.366659,0.1392061,0.02675866,-0.1820596,-1.182579,-4.681341,-2.070133,0.2359423,1.24336,0.3612835,-0.8893514,-0.01536959,100,88.9,-0.3188244,0.06679648,0.1302228,-0.4796087,-2.580009,-1.097174,0.3491517,1.346096,0.2604809,-0.2048163,0.2569389,0.2871118,-0.3519889,0.5592088,-0.2777688,0.5029964,1.434102,0.1791008,-0.08684497,1.235649,0.2530099,287.3987,184.9815,67.5215,False
2,3.37777,0.1646166,0.0802162,-0.154608,-1.184426,-4.683528,-2.071736,0.2343504,1.240919,0.3618443,-0.8903453,-0.09134033,100,88.9,-0.2552253,0.0841234,0.1020064,-0.4810889,-2.578544,-1.097635,0.3467424,1.343894,0.2605519,-0.1898782,0.2718114,0.2881256,-0.3498962,0.5724747,-0.2883783,0.5005651,1.43247,0.1797564,-0.08868612,1.233302,0.2532906,287.4431,184.7317,67.71117,False
2,3.388881,0.1506806,0.1122195,-0.1312957,-1.185974,-4.685314,-2.072073,0.2326093,1.238624,0.3621516,-0.8887858,0.1428757,100,99.3,-0.151333,0.08003421,-0.06414331,-0.4849765,-2.591218,-1.088715,0.3447855,1.341747,0.260952,-0.1790428,0.3026186,0.3009641,-0.3475702,0.5885749,-0.3019708,0.4982592,1.431012,0.1803412,-0.09044477,1.230512,0.2537617,287.4725,184.4693,67.90186,False
2,3.399992,0.1280215,0.2103313,-0.08907817,-1.191123,-4.687805,-2.071764,0.2311137,1.236252,0.3624785,-0.8873493,0.1295394,100,99.3,-0.09702714,0.06522864,-0.06901675,-0.4857457,-2.59223,-1.088477,0.3426888,1.340021,0.2610273,-0.1235817,0.2768463,0.316364,-0.3443526,0.5984817,-0.3120487,0.4961128,1.429604,0.1806397,-0.09229223,1.227296,0.2545103,287.4825,184.8512,67.43291,False
2,3.411103,0.1237013,0.2284507,-0.07956904,-1.193165,-4.689797,-2.0722,0.2296953,1.234061,0.3626347,-0.8853865,0.1781978,100,99.3,-0.08573937,0.02401938,-0.1173505,-0.4858106,-2.598289,-1.081414,0.3409775,1.338184,0.2612255,-0.08303916,0.2308444,0.3371176,-0.3405741,0.6049494,-0.3185154,0.4941622,1.428322,0.1809344,-0.09423346,1.223784,0.2556311,287.4387,185.936,66.32055,False
2,3.422215,0.1671832,0.2958477,-0.04686586,-1.198465,-4.692104,-2.074663,0.228489,1.231936,0.3627124,-0.8845796,0.07222383,100,99.3,-0.0680802,0.02751534,-0.1643345,-0.4869691,-2.604035,-1.07636,0.3395819,1.336148,0.2612777,-0.05644682,0.1945289,0.3431225,-0.3370108,0.611178,-0.3247184,0.4922303,1.427104,0.181246,-0.09637348,1.22026,0.2570263,287.3787,187.8847,64.5286,False
2,3.433326,0.2012545,0.3013111,-0.03734122,-1.200972,-4.693945,-2.077348,0.2272164,1.229788,0.3627632,-0.884954,-0.03477032,100,99.3,-0.114728,0.0389916,-0.1371925,-0.4880632,-2.604088,-1.073056,0.3378171,1.334512,0.2611253,-0.03437048,0.1668979,0.3161822,-0.3348611,0.6164847,-0.3299252,0.490354,1.426054,0.1814601,-0.09852153,1.217022,0.2585865,287.241,190.2115,62.51564,False
2,3.444437,0.2397128,0.272757,-0.01807741,-1.20295,-4.694699,-2.081036,0.226018,1.227767,0.362735,-0.8869647,-0.183632,96.7,100,-0.1402775,0.1283132,-0.1203473,-0.4918246,-2.600454,-1.073815,0.3359258,1.332927,0.2610073,-0.03560236,0.1787014,0.2981462,-0.3328568,0.6266983,-0.3384116,0.488519,1.424736,0.1816628,-0.1004647,1.214206,0.2601427,287.1583,192.1133,61.02023,False
2,3.455548,0.2366125,0.2450903,-0.004118845,-1.20437,-4.695196,-2.083251,0.2246741,1.225793,0.3628459,-0.8869328,0.004322076,96.7,100,-0.152878,0.2026542,-0.08778299,-0.4960782,-2.595621,-1.075733,0.3342245,1.331363,0.2610521,-0.03996179,0.1638325,0.2906556,-0.3304994,0.6338475,-0.3445806,0.4867766,1.423611,0.1820805,-0.1020621,1.21181,0.2616076,286.9286,193.2215,60.28204,False
2,3.466659,0.2091223,0.1865021,0.01852135,-1.204956,-4.694465,-2.084774,0.2234,1.223753,0.3627486,-0.8871389,-0.01934813,96.7,100,-0.1817075,0.2015884,-0.09391358,-0.4984426,-2.596243,-1.072127,0.3324752,1.329818,0.2612951,-0.02727953,0.1339658,0.2925557,-0.3272487,0.6393311,-0.349228,0.4851009,1.422398,0.182137,-0.1033889,1.209648,0.2628849,286.7043,193.4151,60.42626,False
