loc,t,aDotUA,bDotUA,gDotUA,aUA,bUA,gUA,xUA,yUA,zUA,qE,qDotE,emgA,emgB,aDotSH,bDotSH,gDotSH,aSH,bSH,gSH,xSH,ySH,zSH,aDotUB,bDotUB,gDotUB,aUB,bUB,gUB,xUB,yUB,zUB,xHand,yHand,zHand,aHand,bHand,gHand,enable
3,0,-0.3543146,-1.398057,0.33619,-1.423736,-4.335613,-3.025084,0.6948547,1.207123,0.4283738,-1.285877,-0.0110384,4.1,8.6,-0.7414185,0.3698822,0.1337249,-0.61619,-3.752964,-0.6276453,0.7129201,1.407913,0.3357718,-0.2725179,0.4464003,-0.06668801,-0.7790263,-0.1531119,-0.09476113,0.8061886,1.466395,0.1569204,0.4689685,1.042247,0.2781796,304.3827,249.305,351.2141,False
3,0.01111111,-0.3382466,-1.42149,0.3235094,-1.425017,-4.318548,-3.024367,0.692281,1.206832,0.4274123,-1.285895,-0.001650662,4.9,8.6,-0.7328101,0.3592051,0.1431888,-0.6169138,-3.746092,-0.6254197,0.7119493,1.407719,0.3355627,-0.2735792,0.4410626,-0.06244373,-0.7800569,-0.1464293,-0.09639072,0.8067342,1.466223,0.1573164,0.4680422,1.042467,0.2741382,304.2738,247.0921,352.8104,False
3,0.02222222,-0.3254398,-1.425799,0.3021899,-1.425676,-4.302155,-3.023579,0.689913,1.20666,0.4264665,-1.285668,0.02070071,4.9,8.6,-0.7104215,0.3400658,0.1418694,-0.6174678,-3.740135,-0.6231318,0.711225,1.407625,0.3353429,-0.2789338,0.4368353,-0.06455242,-0.7812766,-0.1397515,-0.09786478,0.8072313,1.466074,0.157649,0.467831,1.042544,0.2690293,304.1944,245.8925,352.9895,False
3,0.03333334,-0.3095098,-1.414078,0.2893672,-1.426607,-4.286595,-3.022925,0.6876214,1.206538,0.4256899,-1.28602,-0.03240624,4.9,8.6,-0.6689407,0.3188818,0.1276258,-0.6183338,-3.735393,-0.6211653,0.7103553,1.407512,0.3352418,-0.2789706,0.4261689,-0.06246916,-0.7823323,-0.1338001,-0.09891753,0.8077213,1.466059,0.1578882,0.4681748,1.042453,0.2630567,304.1716,244.8801,352.6031,False
3,0.04444445,-0.3011316,-1.371519,0.2679039,-1.427223,-4.272474,-3.021842,0.6855553,1.206527,0.4248915,-1.285989,0.003019375,4.9,8.6,-0.6220602,0.2933827,0.1239668,-0.6186683,-3.730776,-0.6194843,0.709673,1.407526,0.334928,-0.2833453,0.4049091,-0.066787,-0.783617,-0.1283536,-0.09947705,0.8082277,1.465883,0.1581533,0.4690679,1.042273,0.2565927,304.1901,243.7129,352.1212,False
3,0.05555556,-0.2960223,-1.311957,0.2410327,-1.427446,-4.259701,-3.020469,0.6834673,1.206634,0.4241655,-1.286123,-0.01230026,4.9,8.6,-0.5836052,0.2529109,0.1309516,-0.6180824,-3.72708,-0.617333,0.7089859,1.407575,0.3347178,-0.2824424,0.3836441,-0.07753623,-0.7851713,-0.1235946,-0.0997479,0.8087211,1.465735,0.1583552,0.4704054,1.04209,0.250078,304.2476,242.4451,351.5958,False
3,0.06666667,-0.2813421,-1.245975,0.2120067,-1.42737,-4.248023,-3.01953,0.6816434,1.20672,0.4233043,-1.285799,0.02954364,5.1,8.6,-0.5567691,0.2229793,0.1540452,-0.6167764,-3.722843,-0.6155668,0.7085223,1.407699,0.3344469,-0.2740832,0.3676857,-0.09045543,-0.7870275,-0.1188148,-0.1003689,0.8094026,1.465681,0.1585548,0.4719498,1.041968,0.2439273,304.3212,241.24,351.0179,False
3,0.07777778,-0.2772783,-1.185407,0.1702158,-1.426467,-4.236918,-3.01823,0.6798835,1.206911,0.422662,-1.285568,0.0207936,5.1,8.6,-0.5298062,0.189791,0.1941719,-0.6143492,-3.717982,-0.6146935,0.7080656,1.407856,0.3341351,-0.2699919,0.3464121,-0.1022927,-0.7888725,-0.1147334,-0.1004073,0.8099487,1.465533,0.1586776,0.4733905,1.041953,0.2384527,304.4157,240.145,350.5071,False
3,0.08888889,-0.2753316,-1.130145,0.1359154,-1.425645,-4.22584,-3.01683,0.6781086,1.207077,0.4220192,-1.286044,-0.04376274,5.1,8.6,-0.4997831,0.1811228,0.2216259,-0.6123049,-3.71242,-0.6146022,0.7075262,1.407852,0.3338406,-0.2637775,0.3240703,-0.1152264,-0.7909706,-0.1109566,-0.1003751,0.8105874,1.465337,0.1587746,0.4744192,1.042085,0.2338449,304.4979,239.1805,350.1733,False
3,0.1,-0.2669578,-1.085452,0.1165609,-1.424928,-4.215207,-3.015706,0.67638,1.20725,0.421428,-1.285712,0.03068971,5.1,8.6,-0.4687955,0.1768372,0.2341646,-0.6109462,-3.70695,-0.6148893,0.7071717,1.407958,0.3334882,-0.2585667,0.3048964,-0.1206708,-0.7927639,-0.1074134,-0.10017,0.8111469,1.465197,0.1588783,0.4749758,1.04239,0.230199,304.4896,238.3574,350.0904,False
3,0.1111111,-0.2671453,-1.031256,0.08754721,-1.423635,-4.205183,-3.014161,0.6749371,1.20747,0.420826,-1.285474,0.02150733,6.5,9.2,-0.450627,0.168309,0.2393195,-0.6095166,-3.702051,-0.6146001,0.7072354,1.408046,0.3332183,-0.2480754,0.2675697,-0.1208973,-0.7941808,-0.1050891,-0.09930555,0.8117611,1.465078,0.1589799,0.4750697,1.042852,0.2274865,304.4178,237.6421,350.235,False
3,0.1222222,-0.2705335,-0.9707199,0.04466056,-1.421498,-4.196498,-3.012369,0.6735719,1.207769,0.4202743,-1.285707,-0.02155244,6.5,9.2,-0.4143494,0.1480994,0.2432234,-0.6077296,-3.697851,-0.6147804,0.7069915,1.408192,0.3329234,-0.2407139,0.2441112,-0.1221137,-0.795769,-0.1024245,-0.09880301,0.8123268,1.464961,0.1590621,0.4747454,1.043431,0.2255064,304.3062,237.0848,350.5334,False
3,0.1333333,-0.2729019,-0.9111461,0.02630967,-1.42006,-4.188221,-3.010284,0.672122,1.208074,0.4197197,-1.285324,0.03512032,6.5,9.2,-0.3758785,0.1193428,0.2534573,-0.6054505,-3.694141,-0.614888,0.7068733,1.408384,0.3326402,-0.2364959,0.2334411,-0.1221837,-0.7972833,-0.0994387,-0.09839155,0.8128327,1.464821,0.1591053,0.4741837,1.044092,0.2240249,304.1571,236.6508,350.9362,False
3,0.1444445,-0.2806704,-0.8154397,-0.009257108,-1.41783,-4.182583,-3.007836,0.6710078,1.208353,0.4192238,-1.285165,0.01417578,6.5,9.2,-0.360851,0.107583,0.2671307,-0.603321,-3.689431,-0.6151436,0.706604,1.408609,0.3323374,-0.2312427,0.2121047,-0.1212436,-0.7987262,-0.09733334,-0.09750738,0.8133097,1.464661,0.1590993,0.4735846,1.0448,0.222808,304.0096,236.2124,351.4264,False
3,0.1555556,-0.2820919,-0.7132924,-0.03842627,-1.415771,-4.178163,-3.005209,0.6699185,1.208632,0.4187944,-1.284889,0.0251647,6.5,9.2,-0.3308737,0.07559279,0.2816741,-0.6002147,-3.68604,-0.6152688,0.7065191,1.408744,0.332027,-0.2206372,0.1928691,-0.1171388,-0.800036,-0.09538911,-0.0967577,0.8138485,1.464471,0.1590827,0.4729797,1.045521,0.2216509,303.8975,235.724,351.8969,False
3,0.1666667,-0.289915,-0.6026496,-0.06763047,-1.413686,-4.175063,-3.002233,0.668842,1.208849,0.4184418,-1.284883,0.0003881125,9.2,11.4,-0.3105426,0.05427724,0.2910078,-0.5973822,-3.682383,-0.6153372,0.7062125,1.408835,0.3317554,-0.2121888,0.1758018,-0.1193938,-0.801466,-0.09347043,-0.0961268,0.8143446,1.464256,0.1591773,0.4723665,1.046251,0.2203948,303.8107,235.2653,352.243,False
3,0.1777778,-0.3009748,-0.4813159,-0.08622777,-1.411907,-4.174012,-2.998677,0.668004,1.20907,0.4181423,-1.284897,-0.001309612,9.2,11.4,-0.2614861,0.03408235,0.2948135,-0.5944521,-3.679482,-0.6163705,0.7062266,1.408955,0.3315377,-0.2026654,0.1640541,-0.121642,-0.8030539,-0.09159064,-0.09542426,0.8148355,1.463981,0.1590493,0.4717647,1.047018,0.2190724,303.7052,234.7787,352.4948,False
3,0.1888889,-0.3150905,-0.4068329,-0.09824613,-1.41012,-4.171933,-2.994867,0.6670829,1.209379,0.4179111,-1.284762,0.01242145,9.2,11.4,-0.241252,0.03306088,0.2936001,-0.5920985,-3.675441,-0.6176547,0.7061837,1.408982,0.3312359,-0.1973375,0.1608292,-0.1195672,-0.804518,-0.0893902,-0.09489962,0.8152258,1.463866,0.1589446,0.4711066,1.047831,0.2177535,303.5759,234.2985,352.6577,False
3,0.2,-0.3581852,-0.2612217,-0.1478336,-1.40716,-4.174406,-2.989005,0.6665598,1.209735,0.4178061,-1.284516,0.02238783,9.2,11.4,-0.2093973,0.0427576,0.2806398,-0.5903408,-3.671444,-0.6197155,0.7062988,1.408993,0.3309467,-0.1813341,0.1500794,-0.1112058,-0.8056355,-0.08765835,-0.09465407,0.8156577,1.46365,0.1588085,0.4703155,1.048697,0.2165425,303.4241,233.8669,352.7575,False
3,0.2111111,-0.3775994,-0.1910597,-0.1640959,-1.404844,-4.174522,-2.984062,0.6658802,1.21014,0.4175215,-1.284135,0.03466832,12.9,13.1,-0.1730636,0.05551082,0.2985677,-0.5877512,-3.6655,-0.623859,0.7065064,1.409051,0.3305237,-0.1696107,0.1350685,-0.1007023,-0.8065042,-0.08645726,-0.09385779,0.8160497,1.463581,0.1585734,0.4693732,1.049661,0.2155716,303.2661,233.5402,352.8411,False
3,0.2222222,-0.4258488,-0.09548259,-0.199656,-1.401698,-4.177178,-2.97736,0.6652853,1.210584,0.4173422,-1.282905,0.112246,12.9,13.1,-0.1398544,0.07776856,0.3293332,-0.5848643,-3.658295,-0.629411,0.7067628,1.409211,0.330363,-0.1409266,0.112581,-0.09993865,-0.8076883,-0.08589094,-0.0937438,0.8165396,1.46332,0.1584427,0.4682802,1.050761,0.214877,303.11,233.2004,353.0194,False
3,0.2333333,-0.4899854,-0.02876493,-0.2425524,-1.397905,-4.179498,-2.969371,0.6646769,1.211208,0.4171722,-1.283514,-0.05637675,12.9,13.1,-0.06082202,0.06391377,0.3542795,-0.5812424,-3.652243,-0.6364305,0.7075666,1.409504,0.3301399,-0.1113495,0.07523423,-0.1141561,-0.8093719,-0.08668602,-0.09292036,0.8169976,1.463145,0.1582294,0.4668844,1.052076,0.2145519,302.9698,232.9001,353.2507,False
3,0.2444444,-0.5316401,0.006133962,-0.2725394,-1.394094,-4.181387,-2.961792,0.6639365,1.211812,0.4169028,-1.282495,0.0938559,12.9,13.1,-0.0299613,0.005443513,0.3388522,-0.5776199,-3.651692,-0.6373413,0.7081289,1.409636,0.3299761,-0.09020694,0.05282599,-0.1250636,-0.8112175,-0.08694223,-0.09238612,0.8176512,1.462954,0.1580749,0.4651876,1.053649,0.2145243,302.7632,232.6563,353.6183,False
3,0.2555556,-0.6351671,0.06729613,-0.3388611,-1.38877,-4.184961,-2.950624,0.6631586,1.212801,0.4167664,-1.281354,0.1036998,12.9,13.1,0.004119255,-0.09241343,0.3178834,-0.5727969,-3.655091,-0.6357213,0.7089105,1.409836,0.3298519,-0.04893576,0.01331044,-0.1415042,-0.8131973,-0.08883426,-0.09191075,0.8181388,1.462724,0.1578126,0.4631325,1.055503,0.2147368,302.5168,232.4142,354.0739,False
3,0.2666667,-0.6939073,0.1116972,-0.3742005,-1.384302,-4.188526,-2.940401,0.6623801,1.213635,0.4166501,-1.281975,-0.05730759,13.1,14,0.03078757,-0.1264504,0.3164557,-0.5686904,-3.65466,-0.6371821,0.7095647,1.410037,0.329721,-0.02357073,-0.01229567,-0.1556388,-0.8152405,-0.09024641,-0.09147905,0.8185596,1.462487,0.1576266,0.4607306,1.057719,0.2150961,302.2418,232.1345,354.6691,False
3,0.2777778,-0.795375,0.1942654,-0.4203706,-1.379182,-4.194807,-2.926919,0.6614227,1.214708,0.4166455,-1.279262,0.2490393,13.1,14,0.1012997,-0.1605519,0.3381611,-0.5632985,-3.654062,-0.6412511,0.7107493,1.410322,0.329648,0.003861412,-0.0325402,-0.1814876,-0.8180555,-0.09211501,-0.09122472,0.818992,1.462278,0.1573553,0.4580551,1.060322,0.2154884,301.8755,231.7826,355.373,False
3,0.2888889,-0.9064685,0.2852972,-0.4697747,-1.373892,-4.202119,-2.911888,0.6605867,1.21586,0.4164326,-1.280493,-0.1143311,13.1,14,0.1387778,-0.1638163,0.3645079,-0.558499,-3.651064,-0.6464965,0.7117624,1.410619,0.3294878,0.03140004,-0.05071807,-0.1934778,-0.8204145,-0.09399188,-0.09111473,0.8193876,1.462081,0.1569765,0.4550553,1.063415,0.2158523,301.5236,231.3359,356.1201,False
3,0.3,-1.027106,0.3667211,-0.5212753,-1.368229,-4.210518,-2.895069,0.6595469,1.217301,0.4162326,-1.278595,0.1752391,13.1,14,0.2106129,-0.1587128,0.4300849,-0.5520248,-3.645092,-0.6562117,0.712967,1.410945,0.3293097,0.07385886,-0.08710191,-0.1949984,-0.82239,-0.09715784,-0.09119782,0.819748,1.461918,0.1566534,0.4518004,1.067068,0.2162022,301.0053,230.8698,356.85,False
3,0.3111111,-1.16794,0.4341374,-0.5886961,-1.361666,-4.219363,-2.87598,0.6584758,1.218877,0.4161143,-1.277807,0.07101354,13.1,14,0.2686307,-0.2292212,0.4857889,-0.543304,-3.643755,-0.6623476,0.7143093,1.411528,0.3292596,0.1291194,-0.1374325,-0.1849515,-0.8237813,-0.1015422,-0.09135947,0.820178,1.461807,0.1562915,0.4481142,1.071317,0.2165487,300.425,230.4017,357.5605,False
3,0.3222222,-1.26603,0.4623976,-0.6335811,-1.355159,-4.227629,-2.857073,0.6571679,1.220506,0.4159813,-1.277098,0.06496119,7.8,12.6,0.2805441,-0.3208742,0.4958977,-0.5346684,-3.647494,-0.6625359,0.715598,1.412035,0.3292294,0.1575935,-0.1704794,-0.2066012,-0.8265504,-0.1057074,-0.09106652,0.8205538,1.461727,0.1559031,0.4439718,1.076261,0.216928,299.7638,229.8883,358.4038,False
3,0.3333333,-1.392853,0.4798095,-0.6965347,-1.347517,-4.236093,-2.8355,0.6556738,1.222282,0.4158905,-1.275895,0.1102092,7.8,12.6,0.2826551,-0.4687869,0.4642577,-0.5251743,-3.658584,-0.6561307,0.7171308,1.412586,0.3292053,0.1774732,-0.1917052,-0.2451845,-0.83024,-0.1099937,-0.09078024,0.8209877,1.461585,0.1555176,0.4393784,1.081995,0.217378,299.0046,229.238,359.4438,False
3,0.3444445,-1.478147,0.5028202,-0.7318027,-1.340755,-4.245203,-2.814332,0.6540273,1.22417,0.4157252,-1.27694,-0.09576684,7.8,12.6,0.2847416,-0.4996158,0.4523748,-0.5178032,-3.662575,-0.6558423,0.7186611,1.412949,0.329071,0.20174,-0.2076833,-0.2688607,-0.8335742,-0.1140753,-0.09093416,0.8214272,1.461381,0.1552374,0.4344157,1.088591,0.2179311,298.104,228.3931,0.7465272,False
3,0.3555556,-1.626128,0.4785622,-0.8041782,-1.331813,-4.253201,-2.789703,0.6516817,1.226623,0.4154978,-1.275585,0.1255382,7.8,12.6,0.2954912,-0.5049899,0.465058,-0.5099229,-3.664959,-0.6573808,0.7199863,1.413552,0.3290422,0.2388277,-0.2280068,-0.2851909,-0.836975,-0.1188436,-0.09163111,0.8217939,1.461239,0.1548886,0.4292187,1.095996,0.2185672,296.9752,227.3191,2.344041,False
3,0.3666667,-1.689952,0.447299,-0.8370778,-1.323805,-4.260569,-2.76744,0.6500306,1.228958,0.4153085,-1.277103,-0.1392082,4.1,8.8,0.3085164,-0.5434488,0.493564,-0.5004431,-3.668317,-0.6581576,0.7213195,1.414319,0.3289521,0.255857,-0.2302028,-0.286387,-0.8398119,-0.122635,-0.09241062,0.8221591,1.461021,0.1544306,0.4238152,1.104109,0.2192066,295.755,226.0126,4.191588,False
3,0.3777778,-1.783566,0.4116384,-0.8838317,-1.314595,-4.268121,-2.742545,0.6477294,1.231695,0.4150584,-1.274758,0.2166104,4.1,8.8,0.2969899,-0.576605,0.513702,-0.4907742,-3.672666,-0.6572871,0.722533,1.414994,0.3288281,0.2675337,-0.229158,-0.2928578,-0.8430135,-0.1264147,-0.09328814,0.8225335,1.460893,0.1540923,0.4182407,1.11282,0.2197855,294.4658,224.4756,6.264492,False
3,0.3888889,-1.854904,0.3983976,-0.9317218,-1.305486,-4.276779,-2.717602,0.6457555,1.23445,0.4148605,-1.27784,-0.283063,4.1,8.8,0.2408593,-0.5971298,0.5544771,-0.4803661,-3.675387,-0.6556593,0.7238474,1.41571,0.3286269,0.2758769,-0.2301572,-0.3163606,-0.8470642,-0.1303577,-0.09383328,0.8230033,1.460807,0.1537173,0.4125032,1.122092,0.2201796,293.2839,222.5506,8.729658,False
3,0.4,-1.910326,0.4087319,-0.9648041,-1.296902,-4.286485,-2.692184,0.6434338,1.237355,0.4146838,-1.276726,0.1051847,4.1,8.8,0.2156658,-0.5836009,0.6122499,-0.4699446,-3.674102,-0.6583287,0.7250122,1.416477,0.3284552,0.2841577,-0.2407273,-0.3430938,-0.851289,-0.1348663,-0.09417763,0.8234178,1.460628,0.1534085,0.4071838,1.131845,0.2205012,291.9967,220.2156,11.60727,False
3,0.4111111,-1.964796,0.4478446,-0.9905314,-1.289215,-4.297683,-2.665762,0.6413407,1.240191,0.414644,-1.27782,-0.1004902,4.1,8.8,0.1700352,-0.5582438,0.6425278,-0.4602464,-3.672409,-0.6601816,0.725952,1.417202,0.3281906,0.273341,-0.2416551,-0.3653925,-0.8557642,-0.1389944,-0.09414461,0.8237623,1.460474,0.1531451,0.402087,1.141935,0.2205838,290.7896,217.3973,14.83506,False
3,0.4222222,-1.995734,0.4615362,-1.004442,-1.281664,-4.308453,-2.639751,0.6391147,1.243092,0.4144552,-1.27874,-0.08245563,5.3,4.3,0.1531068,-0.5423852,0.6629612,-0.4507288,-3.671257,-0.662293,0.7268306,1.418048,0.3280675,0.2605512,-0.2319837,-0.3727186,-0.859899,-0.1424544,-0.09442264,0.8241439,1.460326,0.1528547,0.39729,1.152296,0.220524,289.6389,214.0612,18.42623,False
3,0.4333333,-2.03635,0.4996486,-1.025902,-1.274502,-4.320797,-2.612317,0.63692,1.246129,0.4143775,-1.279109,-0.03240553,5.3,4.3,0.1256807,-0.5117596,0.7080514,-0.4403409,-3.666477,-0.6672167,0.7276096,1.418725,0.327781,0.2371994,-0.2159253,-0.3692839,-0.8636104,-0.1453965,-0.09434807,0.8244531,1.460314,0.1525235,0.3926165,1.162849,0.2204134,288.5479,210.2998,22.31667,False
3,0.4444444,-2.049192,0.5155121,-1.039817,-1.267392,-4.332782,-2.58568,0.6347682,1.249169,0.414186,-1.280224,-0.1011873,5.3,4.3,0.07452846,-0.4990433,0.7084777,-0.4310065,-3.66473,-0.6680353,0.7284945,1.419396,0.3274174,0.2255207,-0.2116367,-0.3649263,-0.8673266,-0.1488414,-0.09420453,0.8248001,1.460205,0.1522126,0.3880697,1.173535,0.2204443,287.5223,206.1983,26.57072,False
3,0.4555556,-2.051464,0.5580513,-1.055969,-1.261091,-4.346544,-2.558603,0.6321971,1.252365,0.4139972,-1.280084,0.01400493,5.3,4.3,0.02113444,-0.4798658,0.6940352,-0.4224018,-3.662932,-0.6680793,0.7288909,1.420085,0.3271658,0.1915104,-0.1997989,-0.3603719,-0.8709943,-0.1517411,-0.09333554,0.8250801,1.460066,0.1519961,0.3836026,1.184279,0.2206668,286.6129,201.6731,31.34681,False
3,0.4666667,-2.043041,0.5782949,-1.05601,-1.255442,-4.359457,-2.532112,0.6298689,1.255535,0.4138904,-1.281398,-0.1198643,5.1,2.9,0.006135643,-0.4627968,0.686768,-0.4138265,-3.660546,-0.6699318,0.7294533,1.420724,0.3269019,0.1617768,-0.1869094,-0.3547804,-0.8746449,-0.1542432,-0.09264578,0.8253868,1.459902,0.1518569,0.3791829,1.195072,0.221141,285.882,196.8899,36.46584,False
3,0.4777778,-2.025038,0.609302,-1.042283,-1.251003,-4.372724,-2.506415,0.6275061,1.258689,0.4138522,-1.282184,-0.07056209,5.1,2.9,-0.03636745,-0.4033282,0.7139938,-0.4054247,-3.651627,-0.6762517,0.7294479,1.421392,0.3266816,0.1235717,-0.1494652,-0.3554146,-0.8785236,-0.1551423,-0.09208252,0.8255959,1.459788,0.1517632,0.374794,1.205901,0.221854,285.2982,191.785,41.98374,False
3,0.4888889,-2.006993,0.6253933,-1.029551,-1.246795,-4.385866,-2.480799,0.6251733,1.261754,0.4137125,-1.283015,-0.0750809,5.1,2.9,-0.06091213,-0.3767177,0.7143091,-0.3971977,-3.645352,-0.680505,0.7297641,1.422047,0.3263953,0.08546332,-0.1078132,-0.345381,-0.8820326,-0.1554399,-0.09170222,0.8259081,1.459647,0.1517458,0.3702891,1.216785,0.2227936,284.8416,186.5128,47.69981,False
3,0.5,-1.964467,0.6491321,-0.9912914,-1.244087,-4.398903,-2.456222,0.6228219,1.264828,0.4136171,-1.284297,-0.116523,5.1,2.9,-0.09078598,-0.356499,0.7124889,-0.3890356,-3.639323,-0.6840401,0.7297202,1.422731,0.3261356,0.05478001,-0.08005273,-0.3322667,-0.8853834,-0.1560602,-0.09108011,0.8260553,1.459445,0.1516905,0.3659399,1.22766,0.2240297,284.471,181.1498,53.60426,False
3,0.5111111,-1.91447,0.6643623,-0.9529963,-1.241746,-4.411758,-2.432117,0.620631,1.267971,0.4133742,-1.284649,-0.03112465,5.1,2.9,-0.1110777,-0.3341427,0.709554,-0.3809306,-3.632402,-0.6886042,0.7297705,1.423497,0.3258274,0.02515897,-0.06296867,-0.3128073,-0.888225,-0.1565466,-0.09011205,0.826158,1.459323,0.1516397,0.3618289,1.238448,0.2255136,284.178,175.6044,59.77045,False
3,0.5222223,-1.880425,0.6730967,-0.9274408,-1.239693,-4.424663,-2.407873,0.6184742,1.270955,0.4131739,-1.285739,-0.09952835,2.5,3.1,-0.1258973,-0.2884732,0.7333182,-0.3728687,-3.620614,-0.6976292,0.7295116,1.424259,0.3254519,-0.003492534,-0.05437269,-0.3019125,-0.8912141,-0.1573057,-0.08868513,0.8263104,1.45921,0.1515448,0.3579668,1.249063,0.2271203,284.0096,170.0424,66.00069,False
3,0.5333334,-1.837827,0.677671,-0.889084,-1.238578,-4.436944,-2.384739,0.6162742,1.273813,0.4130118,-1.286238,-0.04470728,2.5,3.1,-0.1310975,-0.2757968,0.753659,-0.3641702,-3.60996,-0.7059215,0.7292557,1.425064,0.3251486,-0.03735992,-0.03087771,-0.2834575,-0.8937973,-0.1570368,-0.08724383,0.8263488,1.459176,0.1514757,0.3543699,1.259453,0.228744,283.9386,164.702,72.00211,False
3,0.5444446,-1.805863,0.6736397,-0.8602819,-1.237565,-4.44882,-2.361884,0.6142648,1.276735,0.4130082,-1.286049,0.01736436,2.5,3.1,-0.1439382,-0.2789665,0.7452212,-0.3558974,-3.602354,-0.7110853,0.7291738,1.425864,0.3247573,-0.06490061,-0.01270904,-0.2714638,-0.896444,-0.1568454,-0.08584966,0.8265517,1.459029,0.1513796,0.3510615,1.269569,0.2302791,284.0059,159.6338,77.71109,False
3,0.5555557,-1.747249,0.6644266,-0.8197358,-1.237194,-4.460072,-2.340673,0.6124483,1.279454,0.4127607,-1.286788,-0.06789118,2.5,3.1,-0.1791611,-0.3013152,0.7315097,-0.3473119,-3.596733,-0.7131991,0.7288388,1.426714,0.3244576,-0.09907168,-0.002911866,-0.2882237,-0.9002081,-0.1568519,-0.08359955,0.8266402,1.458905,0.1513519,0.3480242,1.279397,0.23166,284.2137,154.8177,83.07841,False
3,0.5666668,-1.675876,0.6660131,-0.7632397,-1.238187,-4.470833,-2.320969,0.6108449,1.281893,0.4127183,-1.286837,-0.003965408,0.2,4.3,-0.2069227,-0.3342973,0.7166272,-0.3384793,-3.593046,-0.7135133,0.7285385,1.427418,0.3241255,-0.1321528,0.01647547,-0.3070766,-0.9042353,-0.1563294,-0.08151856,0.8268797,1.458749,0.1513951,0.3452845,1.288915,0.2328884,284.5098,150.2749,88.05931,False
3,0.577778,-1.59601,0.6728836,-0.7121168,-1.239698,-4.481212,-2.302606,0.6091416,1.284096,0.412605,-1.288013,-0.1077983,0.2,4.3,-0.2272251,-0.3268299,0.7093497,-0.3304732,-3.585592,-0.7173249,0.7281634,1.428181,0.3238311,-0.153443,0.03150225,-0.3132532,-0.9079952,-0.1556243,-0.07952918,0.8269594,1.458653,0.1514118,0.342905,1.29811,0.234004,284.8817,146.2134,92.50465,False
3,0.5888891,-1.521529,0.6936599,-0.6429111,-1.242815,-4.491082,-2.284797,0.6076777,1.286317,0.4125848,-1.28912,-0.1004534,0.2,4.3,-0.2517793,-0.2895532,0.7075834,-0.3233983,-3.5736,-0.7250611,0.727775,1.428918,0.3236306,-0.1713486,0.05815274,-0.2980707,-0.910497,-0.153791,-0.07815553,0.8271276,1.458582,0.1515777,0.3409562,1.306929,0.2350308,285.2963,142.3482,96.73717,True
3,0.6000003,-1.471499,0.7035511,-0.6099172,-1.245364,-4.501287,-2.266834,0.6060905,1.288394,0.4124908,-1.289934,-0.07396927,0.2,4.3,-0.2413782,-0.232973,0.6854106,-0.3177034,-3.560883,-0.7347363,0.7270769,1.429602,0.3232522,-0.1838178,0.08257869,-0.2680512,-0.9126504,-0.151879,-0.07692035,0.8271468,1.458433,0.1515822,0.3394282,1.315275,0.236029,285.7421,138.5107,100.8684,True
3,0.6111114,-1.38954,0.7297198,-0.5450206,-1.24984,-4.510753,-2.251245,0.6046677,1.290224,0.4123437,-1.289797,0.01269261,0.2,4.3,-0.2256246,-0.2029928,0.6588144,-0.3122327,-3.549875,-0.7432464,0.7265913,1.430244,0.3229885,-0.190064,0.09213299,-0.2487218,-0.913983,-0.149976,-0.0754881,0.8273306,1.458251,0.1515801,0.3381029,1.3231,0.2370004,286.2087,134.942,104.664,True
3,0.6222225,-1.293753,0.7547908,-0.4875759,-1.254809,-4.519867,-2.237226,0.6033658,1.291832,0.4122274,-1.289123,0.0610016,0.2,5.4,-0.2172344,-0.17094,0.6429413,-0.3067312,-3.536868,-0.7536261,0.726082,1.430728,0.322736,-0.1921246,0.08997205,-0.2391308,-0.916406,-0.1490911,-0.07394081,0.8273282,1.458191,0.1516581,0.3368221,1.33044,0.2379833,286.6402,131.9682,107.8356,True
3,0.6333337,-1.206428,0.7585007,-0.4278991,-1.259876,-4.52764,-2.224358,0.6021347,1.293423,0.4120488,-1.290567,-0.1329871,0.2,5.4,-0.2133435,-0.1515178,0.5940041,-0.3025069,-3.528053,-0.7598009,0.7255911,1.43118,0.3225429,-0.2016762,0.09211713,-0.2369632,-0.9195778,-0.1483153,-0.07192692,0.8267161,1.457952,0.1517608,0.3354171,1.337394,0.2389971,287.0673,129.5721,110.4545,True
3,0.6444448,-1.144607,0.7471017,-0.3990848,-1.264017,-4.535622,-2.21116,0.6008368,1.295028,0.4119346,-1.291488,-0.08339413,0.2,5.4,-0.1999953,-0.1788331,0.520259,-0.2980802,-3.528054,-0.7579396,0.7251934,1.431784,0.3223259,-0.1983589,0.1005746,-0.2263254,-0.9222116,-0.1468948,-0.07079694,0.826647,1.457805,0.1517472,0.3340172,1.343934,0.2401584,287.4147,127.2702,113.0238,True
3,0.655556,-1.058229,0.7145489,-0.3509984,-1.26813,-4.541767,-2.200412,0.5997238,1.296447,0.4116886,-1.291489,-0.0001066557,0.2,5.4,-0.2044242,-0.1882999,0.4946754,-0.2930484,-3.523131,-0.760218,0.7246945,1.432272,0.3221347,-0.1897511,0.1122357,-0.221011,-0.9245941,-0.1450561,-0.07006057,0.8265274,1.457699,0.151804,0.3326926,1.349974,0.2415195,287.7081,125.0343,115.5989,True
3,0.6666671,-0.9707171,0.6638896,-0.3028257,-1.271673,-4.546626,-2.191083,0.5985651,1.297757,0.4115777,-1.290408,0.09823176,0.2,5.4,-0.2066648,-0.2031306,0.4775791,-0.2875964,-3.517975,-0.7626969,0.7241889,1.432861,0.3219314,-0.1865479,0.1132976,-0.2220944,-0.9271657,-0.1436011,-0.06913114,0.8264104,1.457702,0.1519921,0.3313964,1.355509,0.2429911,287.9656,123.0959,117.9425,True
3,0.6777782,-0.8884889,0.6035538,-0.2759343,-1.274187,-4.551185,-2.182813,0.5973756,1.298932,0.4113631,-1.29141,-0.09304995,3.9,2.6,-0.208969,-0.2551643,0.4432481,-0.2817262,-3.521007,-0.757464,0.7235136,1.43321,0.3216219,-0.1853584,0.1260223,-0.2114035,-0.9293228,-0.1416104,-0.06829197,0.826305,1.457734,0.1520183,0.3300641,1.360625,0.2444678,288.1981,121.6343,119.8383,True
3,0.6888894,-0.8383138,0.5718168,-0.264076,-1.277071,-4.556645,-2.173503,0.5963061,1.300222,0.4113011,-1.291779,-0.03333574,3.9,2.6,-0.221758,-0.2264448,0.4466819,-0.2769064,-3.512228,-0.763091,0.722911,1.433522,0.3213687,-0.1905568,0.1238356,-0.1932643,-0.9309229,-0.1402292,-0.0669572,0.8262283,1.457733,0.1521764,0.3288718,1.365271,0.245866,288.3946,120.2444,121.6778,True
3,0.7000005,-0.7689162,0.5252863,-0.2372426,-1.279537,-4.560443,-2.166468,0.5950945,1.301206,0.4111128,-1.291928,-0.01401389,3.9,2.6,-0.2230088,-0.1337194,0.43756,-0.2748425,-3.496135,-0.7760254,0.7221276,1.433826,0.3211031,-0.1977804,0.1269311,-0.1623047,-0.93179,-0.138409,-0.0656597,0.8259925,1.457736,0.152281,0.3278274,1.369399,0.247054,288.6111,118.8889,123.4304,True
3,0.7111117,-0.7016471,0.4787754,-0.2050803,-1.282056,-4.563707,-2.159958,0.5939281,1.302208,0.4110036,-1.290346,0.1441113,3.9,2.6,-0.2287492,-0.08236147,0.3888478,-0.2733991,-3.487323,-0.7818034,0.7213937,1.434088,0.3208447,-0.2007981,0.1332293,-0.1398913,-0.9327775,-0.136557,-0.0643726,0.8258104,1.457639,0.1523802,0.3268372,1.373007,0.2479367,288.8674,117.8349,124.7508,True
3,0.7222228,-0.6396739,0.4226112,-0.1824726,-1.283729,-4.566499,-2.153992,0.5927348,1.303195,0.4108655,-1.291203,-0.08013017,9.2,2.1,-0.2279599,-0.07471603,0.3505308,-0.2709197,-3.482219,-0.7842104,0.7206221,1.434391,0.3206055,-0.1995962,0.1331428,-0.1207259,-0.9336095,-0.1348243,-0.06321572,0.8256013,1.457556,0.1523821,0.3257932,1.37626,0.2485566,289.0651,117.2181,125.487,True
3,0.7333339,-0.6001114,0.3801723,-0.1748229,-1.285272,-4.569629,-2.147702,0.59156,1.304136,0.4107742,-1.290948,0.02357368,9.2,2.1,-0.2312893,-0.06930298,0.3335357,-0.2681505,-3.47526,-0.788134,0.7199054,1.434596,0.3204265,-0.2070608,0.1299616,-0.1196249,-0.9350859,-0.1334324,-0.06141889,0.8253727,1.457538,0.1523941,0.3247472,1.379174,0.2489686,289.2475,116.5678,126.2113,True
3,0.7444451,-0.5551955,0.3282073,-0.1533091,-1.286283,-4.571618,-2.142425,0.5906669,1.304926,0.4105778,-1.290575,0.03337154,9.2,2.1,-0.2325712,-0.07235107,0.3047692,-0.2657014,-3.470587,-0.7898268,0.7193042,1.434975,0.3201251,-0.2070994,0.1171694,-0.1175475,-0.936426,-0.1324733,-0.05964522,0.8251637,1.457423,0.1523545,0.3237063,1.381773,0.2492096,289.3946,115.9916,126.8359,True
3,0.7555562,-0.4985539,0.2741246,-0.1392313,-1.286742,-4.573253,-2.138267,0.5896669,1.305669,0.4103541,-1.289628,0.0857513,9.2,2.1,-0.2175722,-0.06281239,0.3185603,-0.2626111,-3.461392,-0.7967206,0.7185775,1.435363,0.3198547,-0.2167289,0.09907231,-0.1132959,-0.9376639,-0.132121,-0.05711708,0.8248729,1.457316,0.152446,0.3226566,1.384104,0.2493055,289.5494,115.6132,127.2382,True
3,0.7666674,-0.4697449,0.2582607,-0.1338337,-1.288133,-4.575853,-2.133038,0.5887948,1.306436,0.4101954,-1.289608,0.0007382015,9.2,2.1,-0.2121843,-0.05540667,0.3302755,-0.259443,-3.450909,-0.8045516,0.7179661,1.435807,0.3196056,-0.226262,0.09480757,-0.1036556,-0.9384932,-0.1310318,-0.05496978,0.8246737,1.457311,0.1525624,0.3216404,1.386234,0.2493362,289.6755,115.4109,127.4512,True
3,0.7777785,-0.4282034,0.2594863,-0.1263776,-1.289922,-4.578429,-2.12896,0.5879213,1.307154,0.4100761,-1.290047,-0.04051494,11.5,1.6,-0.1951808,-0.02874736,0.3292223,-0.2572768,-3.438934,-0.8145672,0.7172862,1.436108,0.3193753,-0.2335756,0.1075675,-0.09076603,-0.9391211,-0.129057,-0.05328959,0.8244349,1.457277,0.1526949,0.3208133,1.388149,0.2493361,289.7863,115.1924,127.7287,True
3,0.7888896,-0.4058338,0.2606822,-0.1125248,-1.292006,-4.580649,-2.124721,0.5871711,1.307822,0.4099452,-1.288723,0.1210159,11.5,1.6,-0.1846894,-0.006271809,0.3111473,-0.255885,-3.429624,-0.8217743,0.7166932,1.436522,0.319247,-0.2336064,0.1097247,-0.09715752,-0.940637,-0.1275854,-0.05173217,0.8241553,1.457185,0.1528125,0.3201024,1.389892,0.249277,289.9321,114.9344,128.0168,True
3,0.8000008,-0.3792594,0.276832,-0.09234345,-1.294894,-4.582855,-2.120889,0.5864687,1.308399,0.4097891,-1.289187,-0.04390411,11.5,1.6,-0.1614906,0.01627613,0.2812663,-0.2552235,-3.420916,-0.8292178,0.7161155,1.436854,0.3191254,-0.2219056,0.1011471,-0.09514765,-0.9416863,-0.126599,-0.05028581,0.8239162,1.45712,0.1528516,0.3193932,1.391606,0.2492191,290.0378,114.7697,128.1339,True
3,0.8111119,-0.3517154,0.3239001,-0.06909338,-1.299203,-4.585667,-2.117222,0.5858204,1.308794,0.4095905,-1.288509,0.06220103,11.5,1.6,-0.1520589,-0.0166178,0.2543921,-0.2528836,-3.419575,-0.8290743,0.7154901,1.437183,0.3189249,-0.2092284,0.08727193,-0.1016959,-0.9431266,-0.1261017,-0.04861467,0.8236513,1.457065,0.1529412,0.3186839,1.39335,0.2492781,290.14,114.507,128.3402,True
3,0.8222231,-0.3422192,0.3516803,-0.05854568,-1.303105,-4.588543,-2.112909,0.5850397,1.309303,0.4093704,-1.288369,0.01184047,10,1.9,-0.1477971,-0.04109279,0.2499799,-0.2501475,-3.415239,-0.831784,0.7149506,1.437522,0.3188152,-0.1976093,0.07233366,-0.1071683,-0.9445252,-0.1257818,-0.046951,0.8234131,1.456998,0.1529648,0.3180006,1.395136,0.2495102,290.2051,114.1105,128.7505,True
3,0.8333342,-0.3316731,0.3826742,-0.04268998,-1.307695,-4.591358,-2.108803,0.5843464,1.309691,0.4092145,-1.288263,0.009342022,10,1.9,-0.141576,-0.07609345,0.2209954,-0.2475967,-3.41585,-0.8296399,0.714399,1.437573,0.3187525,-0.1794865,0.06584084,-0.1020014,-0.9455628,-0.1252588,-0.04586789,0.8231049,1.456986,0.1530561,0.3173529,1.396974,0.2499336,290.2556,113.5151,129.4265,True
3,0.8444453,-0.3285521,0.4029611,-0.0321172,-1.31191,-4.593987,-2.104546,0.5835916,1.310088,0.4091032,-1.287236,0.09357317,10,1.9,-0.1438917,-0.0770396,0.1965175,-0.2459206,-3.413234,-0.8303065,0.7139297,1.437801,0.3186171,-0.1538581,0.06144184,-0.09155038,-0.946276,-0.1244022,-0.04553926,0.8227873,1.456964,0.1531122,0.3166848,1.398877,0.2505624,290.3114,112.7248,130.3479,True
3,0.8555565,-0.3317429,0.4008715,-0.0193256,-1.315803,-4.596143,-2.100217,0.5828437,1.310485,0.4088924,-1.286995,0.02100315,10,1.9,-0.1248295,-0.07587086,0.1804104,-0.2443429,-3.411067,-0.8316581,0.7133847,1.438091,0.3185236,-0.1262071,0.03360243,-0.0833411,-0.9469322,-0.1250205,-0.04470462,0.8223263,1.45695,0.1529877,0.3159113,1.400889,0.2513525,290.368,111.952,131.3057,True
3,0.8666676,-0.3328239,0.4040592,-0.01827383,-1.319521,-4.598589,-2.09587,0.5821208,1.310897,0.4087794,-1.286528,0.04239956,10,1.9,-0.1046129,-0.06413904,0.1813933,-0.2426278,-3.405596,-0.8363175,0.7128661,1.438315,0.3184848,-0.1028423,-0.0006247461,-0.07406022,-0.9473599,-0.126489,-0.04343136,0.8218383,1.456973,0.1528816,0.315118,1.402961,0.2523003,290.4241,111.123,132.3531,True
3,0.8777788,-0.3274671,0.3945414,-0.00545074,-1.323169,-4.600311,-2.092052,0.5814766,1.311278,0.4085722,-1.286084,0.04014945,5.7,5.5,-0.07805513,-0.03425087,0.17603,-0.2419604,-3.39822,-0.8435725,0.7123479,1.43858,0.3183863,-0.08362445,-0.04450761,-0.04348613,-0.9467229,-0.1288978,-0.04174399,0.8213021,1.457021,0.1527715,0.3143274,1.405065,0.2533373,290.4879,110.2624,133.4844,True
3,0.8888899,-0.3274396,0.3881434,-0.008615166,-1.326651,-4.602615,-2.08793,0.5808547,1.311754,0.408432,-1.285942,0.01258099,5.7,5.5,-0.08026992,-0.03420495,0.1643276,-0.2406219,-3.39526,-0.8454008,0.7120275,1.438962,0.3182533,-0.07187876,-0.06165326,-0.03086106,-0.9466776,-0.1303122,-0.04052053,0.8209683,1.457105,0.1528342,0.3135821,1.40717,0.254352,290.5602,109.4282,134.6208,True
3,0.900001,-0.3284445,0.3700515,-0.003215656,-1.329729,-4.604221,-2.083889,0.580225,1.312251,0.4082584,-1.286142,-0.01843127,5.7,5.5,-0.07796907,-0.0343237,0.1888138,-0.2384248,-3.387226,-0.8524001,0.7115957,1.439244,0.3182423,-0.05055856,-0.05427307,-0.03311325,-0.9470968,-0.1307395,-0.04048964,0.8205472,1.45716,0.1529777,0.3129348,1.409242,0.2552812,290.6478,108.6497,135.6703,True
3,0.9111122,-0.3262496,0.3519618,4.288554E-05,-1.332551,-4.60585,-2.080007,0.5796856,1.312714,0.4080827,-1.285873,0.02463179,5.7,5.5,-0.06083035,-0.04500733,0.2003578,-0.2360743,-3.381088,-0.8582564,0.7111944,1.439373,0.3181639,-0.01862417,-0.03943327,-0.04606758,-0.948211,-0.1305344,-0.04155996,0.8201194,1.457234,0.1531014,0.3124252,1.411243,0.2560582,290.7456,107.8786,136.6659,True
3,0.9222233,-0.3187299,0.3327989,-0.001997277,-1.335237,-4.607358,-2.076349,0.5790764,1.313199,0.4078891,-1.285635,0.02146589,5.7,5.5,-0.03549929,-0.06396541,0.1628012,-0.2346783,-3.383115,-0.8568135,0.7107947,1.439505,0.3181524,-0.001545284,-0.04379365,-0.03874979,-0.9483809,-0.1313117,-0.04164305,0.8195767,1.457348,0.1531777,0.3119982,1.413206,0.2566575,290.862,107.2298,137.4641,True
3,0.9333345,-0.324002,0.3167973,-0.002998769,-1.337852,-4.608877,-2.07219,0.5784498,1.31369,0.4077413,-1.285683,-0.004588212,4.7,29.9,-0.01777209,-0.06154509,0.1083459,-0.2348391,-3.387972,-0.8524457,0.710494,1.43977,0.3182311,-0.004597068,-0.06522857,-0.00579405,-0.9472992,-0.1331563,-0.04031546,0.8189368,1.457497,0.1530912,0.3116539,1.415135,0.2570663,290.9907,106.6365,138.1599,True
3,0.9444456,-0.321845,0.3082709,-0.006154731,-1.340645,-4.61061,-2.06822,0.5778966,1.314097,0.4076107,-1.285797,-0.01039795,4.7,29.9,0.004478052,-0.06568827,0.09006014,-0.2339438,-3.389311,-0.8519971,0.7100464,1.440047,0.3182356,-0.01509654,-0.07595515,0.02193363,-0.9460618,-0.1346225,-0.03888082,0.8183913,1.457569,0.1530082,0.311402,1.417012,0.2573008,291.1477,106.0898,138.7625,True
3,0.9555568,-0.3207398,0.2965521,-0.007172465,-1.34314,-4.61213,-2.064312,0.5773118,1.314578,0.4074895,-1.285227,0.05210803,4.7,29.9,0.02897602,-0.08799991,0.08552416,-0.2320093,-3.390903,-0.8516334,0.7096448,1.440293,0.3180981,-0.02446549,-0.07177363,0.05078678,-0.9443867,-0.1352821,-0.03781609,0.8177948,1.457594,0.1530187,0.3111769,1.418852,0.2573893,291.334,105.5703,139.2813,True
3,0.9666679,-0.3206566,0.2730745,-0.01667094,-1.344831,-4.613707,-2.060442,0.5768151,1.314961,0.4074461,-1.285347,-0.01147578,4.7,29.9,0.0279543,-0.08058639,0.09408751,-0.2306724,-3.388202,-0.8543503,0.7092454,1.440539,0.3181272,-0.01702605,-0.0482961,0.03485204,-0.944669,-0.1348127,-0.03821849,0.8173305,1.457615,0.153044,0.3109454,1.420671,0.2573982,291.5151,105.112,139.6927,True
3,0.977779,-0.3142389,0.2656219,-0.02090095,-1.347038,-4.615365,-2.056814,0.5762784,1.315399,0.4073834,-1.285337,0.00102005,7.2,57.7,0.02169104,-0.0647205,0.1155161,-0.2292161,-3.381873,-0.8605214,0.708824,1.440796,0.3180301,-0.00455457,-0.04069013,-0.01314512,-0.9464422,-0.1351253,-0.03842568,0.8168899,1.45769,0.1531315,0.3107283,1.422458,0.2574246,291.6931,104.6826,140.0653,True
3,0.9888902,-0.3035117,0.246485,-0.01975292,-1.348898,-4.61652,-2.053658,0.5757858,1.315872,0.4073989,-1.285338,-0.0001366702,7.2,57.7,0.02297167,-0.04678372,0.1496781,-0.2274723,-3.372867,-0.8696377,0.708462,1.441027,0.3179717,-0.000456024,-0.04166902,-0.03555547,-0.9476571,-0.135696,-0.03824219,0.8163723,1.457827,0.1532197,0.3105216,1.424212,0.2575248,291.8759,104.2908,140.4339,True
3,1.000001,-0.302399,0.2326314,-0.02182734,-1.350644,-4.617838,-2.050029,0.5752374,1.316346,0.4073625,-1.285547,-0.01920092,7.2,57.7,0.03695721,-0.03196311,0.1720264,-0.2258435,-3.363209,-0.8799065,0.7080837,1.441146,0.3179433,-0.007769704,-0.03638392,-0.01843587,-0.9472555,-0.1359702,-0.03772687,0.8158919,1.45793,0.1533239,0.3103553,1.425893,0.2577366,292.0719,103.9563,140.7799,True
3,1.011112,-0.2905838,0.2028384,-0.02063683,-1.351652,-4.618489,-2.047011,0.5746971,1.316921,0.4073904,-1.285858,-0.02827435,7.2,57.7,0.04954942,-0.02117472,0.1474898,-0.2254377,-3.360671,-0.8832555,0.707828,1.44116,0.3179638,-0.01077846,-0.03007089,0.006115041,-0.9461945,-0.1358686,-0.03734631,0.8153261,1.458003,0.1534081,0.3101703,1.427543,0.2580698,292.2382,103.5831,141.1856,True
3,1.022224,-0.2862035,0.1677115,-0.01729821,-1.352168,-4.618828,-2.043922,0.5741722,1.317527,0.4073579,-1.28537,0.04473007,7.2,57.7,0.05136002,-0.02520136,0.1005826,-0.2254952,-3.363886,-0.8807702,0.7076226,1.441276,0.3179324,0.002162047,-0.02701159,0.02627691,-0.9451671,-0.1360456,-0.03773566,0.8148284,1.458117,0.1534505,0.309963,1.429148,0.258508,292.3897,103.1794,141.664,True
3,1.033335,-0.2742578,0.1006514,-0.01382766,-1.351068,-4.61825,-2.041416,0.5737655,1.318257,0.4072945,-1.285703,-0.03082667,7.8,75.3,0.06305919,-0.06243324,0.09178273,-0.2235676,-3.367941,-0.8777872,0.7074622,1.441511,0.3179879,0.02565017,-0.03887745,0.03990821,-0.9442493,-0.1370062,-0.03835991,0.8144345,1.458323,0.15341,0.3096872,1.430744,0.2589901,292.5187,102.8194,142.1444,True
3,1.044446,-0.265485,0.02608676,-0.02098535,-1.348886,-4.617757,-2.038771,0.5733913,1.318941,0.4070714,-1.285537,0.0154507,7.8,75.3,0.06941807,-0.09007509,0.08201373,-0.2216773,-3.371744,-0.8750953,0.7073109,1.441778,0.3179352,0.03082335,-0.05160832,0.02702764,-0.9445082,-0.1378937,-0.03819559,0.8140584,1.458394,0.1533015,0.3093978,1.432301,0.2594418,292.64,102.5097,142.6037,True
3,1.055557,-0.2482577,-0.02715812,-0.03035503,-1.346607,-4.617322,-2.036699,0.5730987,1.319577,0.4068294,-1.285321,0.0187683,7.8,75.3,0.05793117,-0.1200826,0.112841,-0.2181907,-3.37117,-0.8756441,0.7073199,1.442121,0.3178031,0.0304956,-0.06850018,-0.009262539,-0.9458216,-0.1396542,-0.03749012,0.8137245,1.458466,0.1532242,0.3091441,1.433767,0.2597607,292.7555,102.25,143.0358,True
3,1.066668,-0.2279082,-0.05905083,-0.0323506,-1.345154,-4.617012,-2.034906,0.572848,1.320016,0.4066937,-1.284167,0.1043532,7.8,75.3,0.06135218,-0.09682155,0.1502194,-0.2162572,-3.360875,-0.8864055,0.7071961,1.442397,0.3176451,0.02909925,-0.09285311,-0.03918834,-0.9472315,-0.1416208,-0.03634309,0.8134251,1.458388,0.1531284,0.3090027,1.435035,0.2598104,292.8996,102.1156,143.3504,True
3,1.077779,-0.2108604,-0.06004527,-0.02914794,-1.344431,-4.616894,-2.033176,0.5727336,1.320402,0.4065006,-1.283096,0.09546993,10,100,0.06156066,-0.07461981,0.1844188,-0.2141933,-3.348961,-0.8987308,0.7071639,1.442572,0.3174741,0.04065315,-0.1013466,-0.05741721,-0.9484332,-0.1434034,-0.03613164,0.8131632,1.458464,0.15309,0.3089532,1.436033,0.2594771,293.0762,102.1498,143.4226,True
3,1.08889,-0.1928059,-0.04292751,-0.02495305,-1.344501,-4.61704,-2.03161,0.5725069,1.320729,0.4063787,-1.281181,0.1722505,10,100,0.04978643,-0.04691333,0.1814453,-0.2134609,-3.340747,-0.90689,0.7071604,1.442687,0.317322,0.04384023,-0.1024117,-0.05531716,-0.9488843,-0.1443781,-0.0358805,0.812843,1.458528,0.1530666,0.308966,1.436683,0.2587815,293.2609,102.2778,143.2213,True
3,1.100002,-0.1705164,-0.01936782,-0.01332607,-1.345172,-4.617077,-2.030517,0.5724372,1.320932,0.406244,-1.278339,0.2558442,10,100,0.05066438,-0.009539761,0.1624402,-0.2136201,-3.33392,-0.914003,0.707173,1.442739,0.3173852,0.05026976,-0.1024603,-0.05003653,-0.9492241,-0.1457885,-0.03582617,0.8125373,1.458602,0.1530514,0.3089612,1.436939,0.2578671,293.3943,102.4117,142.8398,True
3,1.111113,-0.1492764,-0.001090817,0.01003987,-1.34611,-4.616524,-2.029669,0.5723142,1.321156,0.4062262,-1.274988,0.3013855,10,100,0.05582201,-0.01047782,0.1378849,-0.213152,-3.332764,-0.9159394,0.7072074,1.442924,0.3174078,0.0600088,-0.08762272,-0.03620221,-0.9492406,-0.1459382,-0.036619,0.8122039,1.458674,0.1530812,0.3088068,1.43685,0.2568991,293.4273,102.6065,142.327,True
3,1.122224,-0.1269687,0.01503605,0.02809077,-1.347041,-4.615982,-2.028972,0.5722465,1.321433,0.4061077,-1.271231,0.3376866,10,100,0.06298028,-0.02834801,0.09087436,-0.21268,-3.337917,-0.9118989,0.7072989,1.443018,0.3174851,0.0632513,-0.08552776,-0.03088977,-0.9493524,-0.1470241,-0.03679823,0.8119417,1.458708,0.1530404,0.3083849,1.436484,0.2560596,293.36,102.8405,141.7831,True
3,1.133335,-0.1034973,0.004493145,0.03559458,-1.347071,-4.615244,-2.028754,0.572272,1.321505,0.4060454,-1.266462,0.4293161,13.7,100,0.08395993,-0.04936913,0.04055817,-0.2125176,-3.345535,-0.9060087,0.7075334,1.443032,0.3175309,0.06857455,-0.09621955,-0.02459512,-0.9495991,-0.1486366,-0.03671674,0.8118051,1.458754,0.1529653,0.3077218,1.435831,0.2555062,293.1803,103.0558,141.346,True
3,1.144446,-0.08640277,-0.009293355,0.03778335,-1.346713,-4.614538,-2.028487,0.5723581,1.321619,0.4059696,-1.260965,0.4946727,13.7,100,0.09120743,-0.0619816,0.007424853,-0.212222,-3.352262,-0.9007609,0.7076433,1.443049,0.3174977,0.06644414,-0.09939893,-0.0214111,-0.9499102,-0.149781,-0.03659903,0.8116835,1.458778,0.1529031,0.3067943,1.434933,0.255286,292.8813,103.2454,141.0629,True
3,1.155557,-0.07246668,-0.03481723,0.03682358,-1.345727,-4.613598,-2.028384,0.5725057,1.321554,0.4059191,-1.255104,0.5268807,13.7,100,0.07939596,-0.08108582,-0.00963765,-0.2114358,-3.359801,-0.893882,0.7078053,1.443101,0.317343,0.06541919,-0.09514703,-0.01818973,-0.9499612,-0.1509524,-0.0366443,0.8116479,1.458735,0.1528544,0.3056565,1.433799,0.2553698,292.5082,103.4783,140.8969,True
3,1.166668,-0.04899311,-0.04644904,0.034754,-1.345113,-4.613218,-2.028433,0.5726002,1.321612,0.4058261,-1.248115,0.6293743,13.7,100,0.07298355,-0.05659743,-0.008408569,-0.2116062,-3.358831,-0.8954197,0.7078632,1.443111,0.3172719,0.0600595,-0.0886907,-0.0255804,-0.950463,-0.1516933,-0.036619,0.8114167,1.458741,0.1528966,0.3044401,1.432329,0.2556901,292.1231,103.7873,140.7637,True
3,1.17778,-0.01914177,-0.05274893,0.03583349,-1.344518,-4.612297,-2.029654,0.5728473,1.321365,0.4058261,-1.240515,0.683866,29.5,100,0.07079577,-0.01504873,-0.009252919,-0.2126934,-3.355533,-0.8993649,0.7079374,1.443068,0.3172364,0.05047383,-0.07904129,-0.03079784,-0.9509626,-0.1523809,-0.03646294,0.8113779,1.458717,0.1528997,0.3031672,1.430521,0.2561278,291.7038,104.193,140.578,True
3,1.188891,0.001072111,-0.04628037,0.03900618,-1.344459,-4.61165,-2.03037,0.5729697,1.321242,0.4058619,-1.232472,0.7235827,29.5,100,0.07174324,0.01269877,-0.02191059,-0.2137688,-3.355738,-0.9000944,0.7081218,1.442932,0.3171778,0.041979,-0.07367273,-0.02964901,-0.951214,-0.1530112,-0.03625974,0.811216,1.458709,0.1529562,0.3018436,1.428378,0.2565629,291.2491,104.7104,140.2684,True
3,1.200002,0.0287247,-0.03337239,0.0464163,-1.344847,-4.610969,-2.031812,0.5731926,1.321016,0.405863,-1.224643,0.7032605,29.5,100,0.07270512,0.03938284,-0.03243758,-0.2151536,-3.354795,-0.901896,0.708244,1.442883,0.3171778,0.0314391,-0.05554199,-0.02417028,-0.9512944,-0.1530015,-0.03625494,0.8111856,1.458698,0.1529932,0.3004206,1.42597,0.2569287,290.7468,105.3432,139.7866,True
3,1.211113,0.05208329,-0.0119719,0.05166299,-1.345641,-4.610456,-2.033151,0.5734724,1.320783,0.4059184,-1.214777,0.8893083,29.5,100,0.08529586,0.03314127,-0.06132684,-0.21623,-3.360763,-0.8974014,0.7084708,1.442732,0.3171871,0.0304588,-0.04062246,-0.01879095,-0.9515885,-0.152558,-0.03663578,0.8112552,1.458628,0.1529438,0.2989904,1.423205,0.2572356,290.2344,105.9795,139.2323,True
3,1.222224,0.06056235,0.0008320138,0.04948229,-1.346281,-4.610237,-2.034177,0.5737188,1.320623,0.4058867,-1.20537,0.8453472,29.5,100,0.08086322,0.0258031,-0.0869051,-0.2173326,-3.367595,-0.891422,0.708673,1.442679,0.3171723,0.03156443,-0.03637934,-0.01558472,-0.9516492,-0.1528621,-0.03684803,0.811241,1.458629,0.1529319,0.2974205,1.420186,0.2574732,289.6423,106.7307,138.5061,True
3,1.233335,0.07443518,-0.005566398,0.03566022,-1.345963,-4.610214,-2.035429,0.5740206,1.320557,0.4058199,-1.19486,0.9464562,57.9,100,0.06269851,-0.001852982,-0.09970126,-0.2175819,-3.376014,-0.8832927,0.7088731,1.442623,0.3171291,0.04328527,-0.04068209,-0.01250881,-0.9518921,-0.1533483,-0.03745417,0.8113459,1.458634,0.1528027,0.2957689,1.416912,0.2576991,288.9916,107.5926,137.6506,True
3,1.244446,0.08515333,-0.02263878,0.01974945,-1.345104,-4.610115,-2.036768,0.5743111,1.320435,0.4057343,-1.183709,1.003957,57.9,100,0.04686822,-0.01049288,-0.07938656,-0.2173273,-3.377103,-0.8822099,0.7091181,1.442559,0.3170915,0.05278767,-0.05027519,-0.02007999,-0.9524156,-0.1543937,-0.03783819,0.8113952,1.458688,0.1526177,0.2940365,1.413437,0.2579654,288.2808,108.6176,136.637,True
3,1.255558,0.08520646,-0.03760008,0.008091543,-1.344169,-4.609971,-2.037766,0.5745362,1.320384,0.4056995,-1.17276,0.9847984,57.9,100,0.03843868,-0.01163529,-0.06656219,-0.2174695,-3.379319,-0.8802426,0.7093009,1.44257,0.3169901,0.06123865,-0.04919936,-0.03078863,-0.9530963,-0.1550631,-0.03840838,0.8114783,1.458696,0.1525686,0.292204,1.409864,0.2582869,287.5381,109.9039,135.4145,True
3,1.266669,0.09059168,-0.05574692,-0.005684244,-1.34287,-4.60987,-2.038882,0.5748596,1.320417,0.4057128,-1.161404,1.022073,57.9,100,0.02780212,-0.01059688,-0.06436405,-0.217902,-3.382635,-0.8770514,0.7095026,1.442537,0.3169854,0.06229271,-0.04278925,-0.03609527,-0.9536897,-0.1553733,-0.03896071,0.8115389,1.458697,0.1525126,0.290352,1.406222,0.2586733,286.8303,111.4601,133.9781,True
3,1.27778,0.08956767,-0.06749447,-0.01202883,-1.341688,-4.609662,-2.039888,0.5751058,1.320383,0.4057493,-1.149505,1.071471,57.9,100,0.03423203,0.01279955,-0.0547042,-0.2188069,-3.380739,-0.8794911,0.7096524,1.442539,0.3169672,0.0611499,-0.03525443,-0.05204437,-0.9550314,-0.1554404,-0.03963316,0.8117154,1.458661,0.1525147,0.2885324,1.402517,0.2591135,286.1641,113.1404,132.4328,True
3,1.288891,0.083161,-0.06327815,-0.01737643,-1.341035,-4.609718,-2.040562,0.5754082,1.320334,0.4057624,-1.137986,1.036384,78.7,100,0.05019632,0.01282347,-0.05696212,-0.2194764,-3.383862,-0.8775609,0.7098466,1.442555,0.3170073,0.05157441,-0.02667514,-0.05513824,-0.9557185,-0.1554185,-0.03979775,0.8117691,1.458643,0.1525757,0.2867481,1.39881,0.2595884,285.4976,114.9722,130.7232,True
3,1.300002,0.080994,-0.05263263,-0.01741987,-1.340735,-4.609791,-2.041373,0.575704,1.320323,0.4058001,-1.126215,1.059676,78.7,100,0.05128743,0.009613045,-0.05378959,-0.2197806,-3.385625,-0.8764546,0.7100608,1.442551,0.3169956,0.04409935,-0.02556542,-0.05827648,-0.9564487,-0.1557534,-0.03982198,0.8118746,1.458644,0.1525588,0.2850603,1.395127,0.2601003,284.8621,116.9802,128.8298,True
3,1.311113,0.0755979,-0.03134152,-0.01644059,-1.341015,-4.610059,-2.042019,0.5761286,1.32032,0.4059179,-1.114364,1.066858,78.7,100,0.05559909,0.01277127,-0.04529814,-0.2202184,-3.386528,-0.8762625,0.7103503,1.442497,0.3171284,0.0462473,-0.02878889,-0.05404978,-0.9569686,-0.1563662,-0.04009762,0.8119481,1.458645,0.1524825,0.2834648,1.391505,0.2606436,284.2618,119.0182,126.8967,True
3,1.322224,0.06488664,-0.01433348,-0.01651128,-1.341328,-4.610435,-2.042265,0.5764811,1.320397,0.4059894,-1.103131,1.010586,78.7,100,0.06957665,0.003116019,-0.02839719,-0.2197353,-3.386303,-0.8778117,0.7106904,1.442533,0.3171597,0.04840316,-0.03842843,-0.04451967,-0.957106,-0.157334,-0.0401112,0.8120596,1.458593,0.152401,0.2819613,1.387995,0.2612227,283.6694,121.0993,124.9163,True
3,1.333336,0.03499986,0.005781893,-0.02192534,-1.341747,-4.611171,-2.041618,0.5767649,1.320491,0.4060736,-1.091879,1.012834,86.1,100,0.08360025,-0.01084191,-0.005135984,-0.2187249,-3.386199,-0.8793111,0.7111903,1.442545,0.3172915,0.0485148,-0.05451088,-0.01796193,-0.9564258,-0.158506,-0.03979721,0.8122299,1.458563,0.1523902,0.2805711,1.384632,0.2618547,283.0969,123.2262,122.8802,True
3,1.344447,0.005162109,0.008863798,-0.02513547,-1.341729,-4.611512,-2.040709,0.5769771,1.320689,0.4061179,-1.080647,1.011363,86.1,100,0.08995184,-0.0257017,-0.01271164,-0.2185635,-3.389643,-0.877008,0.7115927,1.442511,0.317436,0.05171765,-0.05986693,-0.01268752,-0.956518,-0.1593873,-0.03982331,0.8123356,1.458547,0.1523824,0.2793198,1.381447,0.2625691,282.5453,125.3908,120.8067,True
3,1.355558,-0.01505153,0.001307535,-0.03256589,-1.341238,-4.611954,-2.039791,0.5773219,1.320888,0.4061644,-1.069385,1.014529,86.1,100,0.09420829,-0.03420821,-0.01491389,-0.2181928,-3.392547,-0.8753728,0.7119478,1.442532,0.3174946,0.05379267,-0.06411396,-0.01804713,-0.9568647,-0.1604581,-0.03986539,0.8125322,1.45853,0.1523342,0.2781217,1.37852,0.2633456,282.0411,127.5935,118.7198,True
3,1.366669,-0.04911353,-0.005234535,-0.04106465,-1.34067,-4.612446,-2.03814,0.5776089,1.321113,0.4062293,-1.058959,0.9383266,86.1,100,0.08684748,-0.06940363,-0.008651029,-0.2166119,-3.398909,-0.8700313,0.7124809,1.442498,0.3173804,0.06223869,-0.06944324,-0.02453262,-0.9575278,-0.1615238,-0.04011013,0.8127512,1.458574,0.1522808,0.2769234,1.375928,0.2641627,281.5868,129.821,116.6379,True
3,1.37778,-0.08319333,-0.007528868,-0.05278021,-1.340112,-4.613263,-2.035907,0.5779991,1.321415,0.4062741,-1.049417,0.8584287,86.1,100,0.0869196,-0.07158204,0.0009324085,-0.2157405,-3.399637,-0.8703397,0.7129387,1.442456,0.3173606,0.06429909,-0.07902123,-0.02884971,-0.9579609,-0.1630225,-0.04002545,0.8129436,1.458555,0.1522331,0.2757874,1.373687,0.2649734,281.1962,132.0015,114.6487,True
3,1.388891,-0.1194655,0.008312758,-0.05604906,-1.340336,-4.614203,-2.033321,0.5784183,1.321701,0.4063342,-1.039585,0.8858958,85.7,100,0.09235045,-0.05780761,0.01907908,-0.2151419,-3.396395,-0.8746652,0.7134307,1.442418,0.3174131,0.07913771,-0.0833065,-0.03644346,-0.9587817,-0.1642656,-0.04063265,0.8131045,1.458552,0.1522136,0.2748446,1.371737,0.2657476,280.9016,133.9949,112.8511,True
3,1.400002,-0.1439964,0.01675127,-0.05608791,-1.340464,-4.614997,-2.030739,0.5788213,1.32204,0.4063778,-1.030375,0.8291267,85.7,100,0.0913341,-0.05571534,0.02655384,-0.2143717,-3.396028,-0.8760042,0.7139852,1.442436,0.3174443,0.09616642,-0.09618317,-0.03129279,-0.9589047,-0.1661284,-0.04122839,0.8133471,1.458524,0.1521432,0.2740789,1.370077,0.2664476,280.6633,135.8427,111.1623,True
3,1.411114,-0.182386,0.02832114,-0.06040335,-1.340744,-4.616081,-2.027155,0.5792613,1.322489,0.4064107,-1.021943,0.7589305,85.7,100,0.09678464,-0.09411553,0.03805061,-0.2120388,-3.400158,-0.873197,0.7147925,1.442401,0.3174536,0.1089739,-0.1090565,-0.02079328,-0.9587849,-0.1679288,-0.04184226,0.8135886,1.458399,0.1520789,0.2734959,1.368734,0.2670702,280.4567,137.613,109.505,True
3,1.422225,-0.2239678,0.03989312,-0.06152245,-1.341204,-4.617074,-2.023219,0.5797496,1.323085,0.4064453,-1.014311,0.6867346,85.7,100,0.111727,-0.1271212,0.03671404,-0.2099892,-3.406857,-0.8683218,0.7156304,1.442601,0.3172929,0.1142907,-0.1133392,-0.02084857,-0.9589531,-0.1696371,-0.04239753,0.8138649,1.458363,0.1520107,0.2730747,1.367739,0.2676314,280.2659,139.0713,108.127,True
3,1.433336,-0.2708399,0.03972006,-0.06472672,-1.341245,-4.618044,-2.01845,0.5803257,1.323731,0.4064589,-1.006348,0.7180071,81.2,100,0.1396033,-0.1548909,0.05769086,-0.2072099,-3.410032,-0.8676009,0.7165633,1.442676,0.3172934,0.1195374,-0.1122515,-0.03260558,-0.959742,-0.1712518,-0.04293708,0.8142636,1.458274,0.1519079,0.2727799,1.367095,0.2681298,280.1183,140.1761,107.0979,True
3,1.444447,-0.313437,0.03531341,-0.0647172,-1.341124,-4.618774,-2.013648,0.5809984,1.324442,0.4064355,-0.9993491,0.6297613,81.2,100,0.1503527,-0.1836896,0.06705607,-0.2044072,-3.415599,-0.8640879,0.7175211,1.442767,0.3172705,0.1343113,-0.121831,-0.04765427,-0.9604712,-0.1732112,-0.04384895,0.8145525,1.458157,0.1518455,0.2725696,1.366833,0.2685682,279.9901,141.2076,106.1342,True
3,1.455558,-0.3453734,0.02880396,-0.06682771,-1.340864,-4.619564,-2.008565,0.5816512,1.325142,0.406379,-0.992403,0.6260816,81.2,100,0.1579869,-0.2285126,0.08489143,-0.200356,-3.423049,-0.8588178,0.718693,1.442839,0.3171642,0.1458956,-0.1303421,-0.06162217,-0.9615284,-0.1753935,-0.04461807,0.8149928,1.458031,0.1517427,0.2724737,1.366976,0.2689575,279.8881,142.0575,105.3559,True
3,1.466669,-0.3911355,0.01582531,-0.07637187,-1.340117,-4.62051,-2.002464,0.5824155,1.325948,0.4063013,-0.986658,0.5166066,81.2,100,0.1582418,-0.2531872,0.1177906,-0.1960864,-3.426279,-0.8573456,0.7198769,1.443011,0.3170376,0.1574079,-0.1462635,-0.0809565,-0.9630459,-0.1776628,-0.04536003,0.8156703,1.457862,0.151597,0.2725585,1.367523,0.2692915,279.8311,142.6433,104.8632,True
3,1.47778,-0.4443641,0.005991315,-0.09232201,-1.339204,-4.621843,-1.995472,0.5832058,1.326751,0.4062548,-0.9816087,0.4547091,81.2,100,0.173542,-0.2704786,0.1708661,-0.190889,-3.42383,-0.8622021,0.7211392,1.443033,0.316926,0.1689008,-0.1621949,-0.1034785,-0.9648425,-0.1805964,-0.04594778,0.8162669,1.45768,0.1514482,0.2728766,1.368458,0.2695421,279.8289,142.745,104.8639,True
3,1.488891,-0.4774004,0.007987405,-0.09766453,-1.338836,-4.623115,-1.988871,0.5841352,1.327542,0.4062614,-0.9765583,0.4557565,74.2,100,0.184233,-0.2651699,0.1782665,-0.1876719,-3.424323,-0.8640165,0.7224838,1.443008,0.3168676,0.1868026,-0.1696181,-0.1270843,-0.9669943,-0.1830847,-0.0469755,0.816952,1.45756,0.1513767,0.2734001,1.369757,0.2696775,279.8897,142.337,105.3557,True
3,1.500003,-0.5264058,0.008850623,-0.1061999,-1.338355,-4.624558,-1.980957,0.5850298,1.328427,0.4062443,-0.9722807,0.3854227,74.2,100,0.1937994,-0.3066542,0.1684078,-0.18321,-3.435019,-0.855891,0.7239664,1.443107,0.3168359,0.1995032,-0.1749608,-0.1357199,-0.9686838,-0.1857784,-0.04808524,0.8175939,1.45739,0.1512587,0.2741024,1.371424,0.2696843,280.0162,141.7765,105.9615,True
3,1.511114,-0.5668896,0.01083077,-0.1094111,-1.338064,-4.625889,-1.973182,0.5859437,1.329332,0.4062283,-0.9697736,0.2245668,74.2,100,0.2068662,-0.3536889,0.2010979,-0.1768893,-3.442683,-0.8511356,0.7255319,1.443199,0.3167877,0.2090901,-0.1771291,-0.1347341,-0.9699888,-0.1881911,-0.04934278,0.8183787,1.457366,0.1510582,0.2749742,1.373479,0.2695953,280.1936,141.0318,106.6934,True
3,1.522225,-0.6063211,0.01600424,-0.1137012,-1.33788,-4.627305,-1.965039,0.586964,1.330195,0.4062746,-0.9662098,0.3227775,74.2,100,0.2249521,-0.3930333,0.1901173,-0.1716652,-3.455996,-0.8411541,0.7270637,1.443131,0.3167012,0.2175736,-0.1750097,-0.141179,-0.9716879,-0.1906107,-0.05059766,0.8190643,1.457203,0.1508801,0.2760525,1.375886,0.2694759,280.4002,139.7809,107.8959,True
3,1.533336,-0.6393889,0.02868705,-0.1105615,-1.33814,-4.628602,-1.956749,0.5879446,1.331151,0.4062271,-0.9642497,0.1753981,74.2,100,0.2301531,-0.4110306,0.1686852,-0.1670793,-3.471256,-0.8288386,0.7285613,1.443118,0.3166411,0.232349,-0.1739199,-0.1615129,-0.9739255,-0.1930587,-0.05227386,0.8198308,1.456906,0.1507335,0.277231,1.378665,0.2693397,280.6277,138.337,109.3044,True
3,1.544447,-0.6628534,0.03712478,-0.1116648,-1.338281,-4.630068,-1.948385,0.5889384,1.33215,0.4061413,-0.9623184,0.1743407,59.9,100,0.2195538,-0.4270274,0.1729451,-0.162048,-3.48268,-0.8196235,0.7301967,1.443073,0.3165791,0.2471577,-0.1760522,-0.1754684,-0.976073,-0.1956128,-0.05404432,0.8205675,1.456618,0.1504838,0.278532,1.381769,0.2692121,280.9034,136.5712,111.0513,True
3,1.555558,-0.6756692,0.04666003,-0.1138366,-1.33856,-4.631655,-1.940109,0.5899473,1.333099,0.4060605,-0.9607737,0.1390224,59.9,100,0.2293725,-0.4431485,0.2036921,-0.1558711,-3.49118,-0.8140634,0.7318482,1.44308,0.3164828,0.2513442,-0.1867044,-0.1798053,-0.9780741,-0.1986641,-0.05526006,0.821401,1.456362,0.1502802,0.2799739,1.385121,0.2691169,281.207,134.5764,113.0401,True
3,1.566669,-0.6885102,0.06469896,-0.1213666,-1.339199,-4.633598,-1.931754,0.5908637,1.33394,0.4059913,-0.9592339,0.1385463,59.9,100,0.2433479,-0.4538587,0.2195129,-0.1500723,-3.501343,-0.8072257,0.7334766,1.443052,0.3164289,0.2491712,-0.1941343,-0.1798249,-0.9798893,-0.2013712,-0.0562662,0.8223821,1.456027,0.1500545,0.2814741,1.388676,0.2690333,281.5245,132.4461,115.1924,True
3,1.577781,-0.6906525,0.06889699,-0.1352332,-1.339385,-4.635817,-1.92348,0.5919336,1.334956,0.4058969,-0.9575417,0.1521152,59.9,100,0.2445616,-0.4678012,0.2386114,-0.1436525,-3.512055,-0.7994277,0.7351028,1.44301,0.316251,0.2480545,-0.1919624,-0.1883304,-0.9821631,-0.2040261,-0.05751416,0.8233372,1.455711,0.1498213,0.2829996,1.392329,0.2689551,281.89,130.2959,117.377,True
3,1.588892,-0.688488,0.05820183,-0.1469082,-1.33901,-4.637806,-1.915414,0.5930641,1.336046,0.4058955,-0.9554405,0.1891474,41.3,100,0.2266256,-0.4626202,0.2654131,-0.1374186,-3.516236,-0.7970066,0.7367493,1.442793,0.3161557,0.24376,-0.1876459,-0.1946766,-0.9844599,-0.2062857,-0.05873682,0.8242022,1.455357,0.149657,0.2845145,1.395945,0.2689012,282.3003,128.1465,119.5424,True
3,1.600003,-0.6883667,0.02302181,-0.1531579,-1.337621,-4.63938,-1.907315,0.5940779,1.337246,0.4058571,-0.9531933,0.20206,41.3,100,0.2298211,-0.4221763,0.2730667,-0.1324678,-3.51504,-0.8008363,0.7384568,1.442503,0.3159652,0.2458867,-0.1759045,-0.2020984,-0.9868823,-0.2083243,-0.06044683,0.8252578,1.455002,0.1494806,0.2859477,1.399409,0.268909,282.701,126.2168,121.4751,True
3,1.611114,-0.6883157,0.007025586,-0.1562852,-1.336544,-4.640905,-1.899238,0.5952204,1.338322,0.4057922,-0.9507282,0.221757,41.3,100,0.2274608,-0.4145786,0.2422284,-0.1281279,-3.530252,-0.7881801,0.7401894,1.442404,0.3158746,0.2447781,-0.1662555,-0.2137819,-0.9897537,-0.2102603,-0.06208627,0.8263355,1.454715,0.1492684,0.2873233,1.402632,0.2690158,283.053,124.893,122.826,True
3,1.622225,-0.6827744,-0.05580792,-0.1560307,-1.333162,-4.641568,-1.891653,0.5962312,1.339654,0.4057226,-0.9476534,0.2769823,41.3,100,0.2231822,-0.4369397,0.2379009,-0.1221826,-3.548819,-0.7719484,0.7420642,1.442481,0.3157909,0.2479171,-0.1544862,-0.2286679,-0.9927636,-0.2120392,-0.06400029,0.827458,1.454315,0.1491432,0.2886378,1.405579,0.2692175,283.3594,124.0843,123.7064,True
3,1.633336,-0.667653,-0.1175918,-0.1664153,-1.329195,-4.642406,-1.884471,0.5973486,1.340992,0.4056289,-0.9443979,0.292897,41.3,100,0.2266119,-0.48713,0.2631983,-0.1144914,-3.570871,-0.7526962,0.7437546,1.442413,0.3156445,0.2414638,-0.1448119,-0.242446,-0.9960638,-0.2138699,-0.0654557,0.8286368,1.453842,0.1490316,0.2898469,1.408264,0.2694415,283.6186,123.6273,124.2891,True
3,1.644447,-0.657945,-0.1527711,-0.1801102,-1.32582,-4.643864,-1.877058,0.5985431,1.342125,0.4055691,-0.9410636,0.2996942,26.6,100,0.2192384,-0.5031734,0.2738362,-0.1076956,-3.589762,-0.7360916,0.74549,1.442442,0.3153558,0.2244034,-0.1255082,-0.2550403,-0.9994609,-0.2149954,-0.06670446,0.8297317,1.453397,0.1488712,0.2910038,1.410682,0.269623,283.8306,123.3785,124.697,True
3,1.655559,-0.640888,-0.1549552,-0.207796,-1.323098,-4.646436,-1.869807,0.5995933,1.343236,0.4055319,-0.9375467,0.3160878,26.6,100,0.1768622,-0.4703931,0.3137072,-0.1012832,-3.588233,-0.7380778,0.7469008,1.442323,0.3150191,0.2191411,-0.1137773,-0.2528216,-1.002138,-0.2162505,-0.06830502,0.8307904,1.452971,0.1486475,0.2920997,1.412844,0.2696326,284.0672,123.5574,124.6897,True
3,1.66667,-0.6345551,-0.1389976,-0.216379,-1.321366,-4.648702,-1.862318,0.600703,1.344389,0.4054801,-0.9330731,0.4030339,26.6,100,0.1673436,-0.4427713,0.3299029,-0.09563624,-3.587706,-0.7400174,0.7484618,1.442204,0.3147311,0.2171067,-0.1074266,-0.2431826,-1.004274,-0.217772,-0.06986377,0.8316905,1.45265,0.1483612,0.2932092,1.414717,0.2694364,284.33,123.9689,124.3632,True
3,1.677781,-0.6218508,-0.1155433,-0.222863,-1.320104,-4.651226,-1.855267,0.6016017,1.345474,0.4054682,-0.9295306,0.3182099,26.6,100,0.1514276,-0.4204813,0.3429059,-0.08988115,-3.587257,-0.741545,0.7497256,1.442148,0.3144562,0.2023092,-0.08500779,-0.2397848,-1.006756,-0.2181486,-0.0713831,0.8326777,1.452199,0.1479943,0.2943108,1.416364,0.2691035,284.5639,124.4963,123.7782,False
3,1.688892,-0.6154927,-0.1069919,-0.2207709,-1.318541,-4.653285,-1.848037,0.6025654,1.346516,0.4054747,-0.9258245,0.334276,31.1,100,0.1374597,-0.416165,0.3270562,-0.08444244,-3.603966,-0.7259993,0.7512738,1.442026,0.3141792,0.1915021,-0.0848735,-0.2599542,-1.010343,-0.2195667,-0.07226514,0.8335907,1.451722,0.1476645,0.2952969,1.417953,0.2687738,284.7495,125.111,123.0117,False
3,1.700003,-0.6080715,-0.09633061,-0.2250737,-1.317178,-4.655734,-1.840955,0.6032974,1.347659,0.4054894,-0.923318,0.2246649,31.1,100,0.1182845,-0.4225735,0.3260922,-0.07854408,-3.620696,-0.7099601,0.75243,1.442063,0.3139646,0.1826911,-0.09961358,-0.2919156,-1.014573,-0.2218369,-0.07280231,0.8345354,1.45136,0.1473653,0.2961735,1.419658,0.2685624,284.8544,125.6971,122.3,False
3,1.711114,-0.6038277,-0.08993924,-0.2282996,-1.315654,-4.658178,-1.833782,0.6039872,1.348971,0.4055643,-0.9205136,0.2531101,31.1,100,0.07679105,-0.4397095,0.3305629,-0.07174715,-3.645131,-0.6853579,0.7536319,1.441918,0.3134966,0.1772368,-0.101656,-0.3089275,-1.018416,-0.2237315,-0.07364306,0.8353702,1.450987,0.1472166,0.2969708,1.421584,0.2685407,284.9828,126.0046,121.9551,False
3,1.722225,-0.5984871,-0.09209448,-0.2389545,-1.313781,-4.66096,-1.826756,0.6045582,1.3504,0.4056151,-0.9185141,0.1794486,31.1,100,0.03539801,-0.4249532,0.3554301,-0.06554359,-3.648568,-0.680954,0.7547053,1.442071,0.3133497,0.1538206,-0.07700661,-0.3203737,-1.022369,-0.2240143,-0.07432323,0.8361892,1.450748,0.1471388,0.2977831,1.423757,0.2687061,285.1491,126.069,121.9573,False
3,1.733337,-0.5952567,-0.1017055,-0.2474377,-1.311615,-4.663607,-1.819634,0.6049612,1.351767,0.4056983,-0.9165471,0.1772846,31.1,100,-0.02713242,-0.3816071,0.4093406,-0.05888249,-3.616754,-0.7102142,0.7552438,1.442162,0.3131373,0.1265275,-0.03335813,-0.2901537,-1.024394,-0.222971,-0.07543803,0.8369361,1.450521,0.1471334,0.2985512,1.426252,0.2690192,285.3654,125.9261,122.2082,False
3,1.744448,-0.6016017,-0.1167079,-0.2601631,-1.308899,-4.666407,-1.811915,0.605126,1.353185,0.4056952,-0.9151282,0.1273159,47.7,94.1,-0.08151072,-0.3486176,0.407762,-0.0536872,-3.599124,-0.7252605,0.7556617,1.442342,0.3130045,0.0930856,0.01871713,-0.2300265,-1.024896,-0.2208757,-0.07653259,0.8376555,1.450251,0.1471775,0.2992878,1.429085,0.2694516,285.6217,125.6682,122.5994,False
3,1.755559,-0.6154485,-0.1167984,-0.2708185,-1.306808,-4.669464,-1.803793,0.6048918,1.354597,0.4058664,-0.9136075,0.1372243,47.7,94.1,-0.1364296,-0.3280406,0.3262112,-0.051048,-3.630973,-0.6902037,0.7556324,1.442487,0.3129749,0.0403377,0.07522822,-0.1899922,-1.025821,-0.2176915,-0.07686229,0.8382703,1.450066,0.1472323,0.2999912,1.432226,0.2699679,285.963,125.2259,123.2031,False
3,1.76667,-0.6283046,-0.09664926,-0.2804929,-1.305574,-4.67285,-1.795403,0.6045284,1.35597,0.4060156,-0.9118354,0.1601739,47.7,94.1,-0.1814487,-0.2970227,0.2925902,-0.04791559,-3.640592,-0.6771321,0.7558105,1.442627,0.3130031,0.005326584,0.100916,-0.1853683,-1.027966,-0.2158121,-0.07683247,0.8389006,1.449757,0.1472003,0.3006389,1.435585,0.2705113,286.3871,124.5422,124.0774,False
3,1.777781,-0.6433449,-0.06044669,-0.2721194,-1.305488,-4.675782,-1.786944,0.603874,1.357413,0.4062309,-0.9104581,0.1240121,47.7,94.1,-0.2190318,-0.2532128,0.256841,-0.04590224,-3.640591,-0.6733323,0.7555372,1.442909,0.3130155,-0.07224444,0.1598623,-0.1920232,-1.03059,-0.2116007,-0.07557093,0.839301,1.44968,0.147341,0.3011106,1.439123,0.2709935,286.8692,123.8168,124.9807,False
3,1.788892,-0.6423675,-0.03806283,-0.2690032,-1.305189,-4.678664,-1.778924,0.6035461,1.358871,0.406431,-0.909454,0.09042371,69.3,80.5,-0.2275065,-0.2628329,0.2643207,-0.04108086,-3.649533,-0.6615332,0.7554967,1.443186,0.3128629,-0.1071684,0.1918933,-0.1799067,-1.032224,-0.2085539,-0.07504095,0.8397039,1.449453,0.1474166,0.3013124,1.442814,0.2714109,287.3555,123.0671,125.823,False
3,1.800003,-0.6338929,-0.02418479,-0.2690575,-1.304804,-4.681744,-1.771343,0.6027662,1.360551,0.4065409,-0.9086098,0.07610583,69.3,80.5,-0.2462445,-0.2514499,0.3294908,-0.0349231,-3.597738,-0.7098153,0.7551374,1.443599,0.3126223,-0.1568027,0.2324223,-0.1420957,-1.032796,-0.2039044,-0.07395066,0.8399465,1.44944,0.1476188,0.3012719,1.446616,0.2718185,287.7865,122.3098,126.6215,False
3,1.811115,-0.6253848,-0.02097885,-0.2733314,-1.303913,-4.684945,-1.76386,0.6020148,1.362229,0.4065256,-0.9084788,0.01107057,69.3,80.5,-0.2722704,-0.2412775,0.4192089,-0.02742523,-3.479341,-0.8244558,0.7546579,1.444019,0.3120244,-0.1958132,0.2536792,-0.09911845,-1.03262,-0.2004451,-0.07256768,0.8400588,1.449436,0.1478546,0.3010902,1.450487,0.2722653,288.128,121.5722,127.4124,False
3,1.822226,-0.6126212,-0.01561746,-0.2754813,-1.303292,-4.688131,-1.75664,0.6011944,1.364007,0.4064729,-0.9085262,-0.004675064,69.3,80.5,-0.2965199,-0.219111,0.4589003,-0.0223338,-3.332053,-0.9676918,0.7539641,1.444571,0.3119209,-0.2297037,0.2686527,-0.07963915,-1.033141,-0.1965899,-0.07099881,0.8401506,1.449484,0.1480639,0.3009698,1.454336,0.2727677,288.4546,120.9709,128.1318,False
3,1.833337,-0.6052095,-0.0007255375,-0.2861995,-1.30306,-4.691829,-1.749226,0.6002031,1.365967,0.4064751,-0.9082364,0.02624366,69.3,80.5,-0.3210323,-0.202099,0.4602174,-0.01832894,-3.153414,-1.141955,0.753342,1.445041,0.3116994,-0.2455669,0.2793088,-0.06988741,-1.033686,-0.1930452,-0.06961902,0.8402452,1.449475,0.1482146,0.3007451,1.458228,0.2732629,288.8263,120.4051,128.853,False
3,1.844448,-0.6041986,0.01417331,-0.2915934,-1.303064,-4.695479,-1.741529,0.5991074,1.367756,0.4063427,-0.908058,0.01577055,91.8,63.4,-0.3731793,-0.1957838,0.4680687,-0.01497442,-2.89108,-1.398514,0.7524144,1.445639,0.3116372,-0.259271,0.2878209,-0.05483684,-1.033963,-0.1891392,-0.06838145,0.8401296,1.449578,0.1483798,0.3004466,1.462105,0.2737196,289.2144,119.8854,129.5465,False
3,1.855559,-0.6063658,0.02481878,-0.2916369,-1.303136,-4.698882,-1.733865,0.5979567,1.369572,0.4062691,-0.9076127,0.04034926,91.8,63.4,-0.4080502,-0.1917622,0.5098776,-0.01347453,-2.384623,-1.899267,0.7513931,1.446186,0.3114057,-0.2645733,0.2931631,-0.05477976,-1.03484,-0.1853412,-0.06727358,0.840168,1.449636,0.1485791,0.3000292,1.465979,0.2741158,289.5775,119.4372,130.1257,False
3,1.86667,-0.61708,0.0407758,-0.2885151,-1.303572,-4.702321,-1.725546,0.5966065,1.371483,0.406143,-0.9069507,0.05996743,91.8,63.4,-0.4240332,-0.1821884,0.512167,-0.01508521,-1.97051,-2.308127,0.7503704,1.446744,0.3110778,-0.2602127,0.3016134,-0.04624806,-1.035219,-0.1814361,-0.06661152,0.8398833,1.44979,0.1488202,0.2994259,1.469906,0.2744819,289.9218,119.0489,130.602,False
3,1.877781,-0.6234803,0.04291011,-0.2821332,-1.303657,-4.705383,-1.717574,0.5949723,1.373281,0.4059904,-0.9065954,0.03182585,91.8,63.4,-0.4496517,-0.1683429,0.5070841,-0.01839339,-1.696142,-2.576546,0.7490331,1.447277,0.3109081,-0.263263,0.3164907,-0.03444482,-1.035472,-0.1767724,-0.06597023,0.8396703,1.449936,0.1490226,0.2987007,1.473861,0.2748492,290.2563,118.6258,131.1321,False
3,1.888893,-0.6224649,0.05782615,-0.2789984,-1.304161,-4.708544,-1.709924,0.5932707,1.375031,0.4058921,-0.9057357,0.07829066,91.8,63.4,-0.4742046,-0.17153,0.5008461,-0.02221609,-1.491553,-2.775031,0.7475907,1.447842,0.3106298,-0.2768693,0.3473575,-0.01822743,-1.035223,-0.1713024,-0.06521682,0.8393036,1.450093,0.1492865,0.2978976,1.477844,0.2752197,290.5757,118.1972,131.6825,False
3,1.900004,-0.6289168,0.07487,-0.2737418,-1.305166,-4.711703,-1.701857,0.5915151,1.376791,0.4058084,-0.9057661,-0.003543018,100,43.4,-0.5081582,-0.1737908,0.5202461,-0.02782843,-1.338893,-2.9208,0.7461103,1.448463,0.3104386,-0.2957426,0.3825015,0.004425535,-1.034842,-0.1648639,-0.06452387,0.8388462,1.45033,0.1496303,0.296964,1.481939,0.27556,290.8919,117.7581,132.2634,False
3,1.911115,-0.6428791,0.1057427,-0.2642913,-1.306856,1.568384,-1.69334,0.5891947,1.378587,0.4057705,-0.9060245,-0.02356514,100,43.4,-0.5484787,-0.1537293,0.5483178,-0.03471963,-1.260971,-2.99116,0.7440782,1.449047,0.3102047,-0.3315641,0.4208539,0.03893325,-1.033633,-0.1578972,-0.06318243,0.8383358,1.450669,0.1499715,0.2959325,1.486111,0.2758427,291.2723,117.2213,132.9431,False
3,1.922226,-0.6471682,0.1132234,-0.2536922,-1.307898,1.565438,-1.685188,0.5871128,1.380409,0.4057393,-0.9055307,0.04528644,100,43.4,-0.5699589,-0.1004072,0.5316812,-0.04002997,-1.252533,-2.992672,0.7420486,1.449728,0.310184,-0.3547588,0.4410752,0.06156694,-1.032334,-0.1517678,-0.06159785,0.8376181,1.450923,0.1503704,0.2948612,1.490281,0.2760942,291.6804,116.6124,133.6463,False
3,1.933337,-0.6536142,0.1271267,-0.2356398,-1.309543,1.563095,-1.67706,0.5846592,1.382326,0.4056518,-0.9049373,0.05376632,100,43.4,-0.582973,-0.08429402,0.5009538,-0.04453391,-1.227513,-3.010732,0.7400538,1.450407,0.3101361,-0.4022707,0.4634488,0.1088712,-1.02986,-0.144683,-0.05915307,0.8368161,1.45128,0.1508346,0.2936703,1.494485,0.2763375,292.0781,115.9915,134.3125,False
3,1.944448,-0.6462019,0.1378655,-0.2218246,-1.311256,1.560835,-1.669466,0.5823649,1.384404,0.4056201,-0.9051791,-0.02255003,100,57.2,-0.6108868,-0.09373116,0.4680887,-0.04853771,-1.18802,-3.04243,0.7379615,1.451117,0.3101175,-0.4159396,0.4719375,0.1292452,-1.028186,-0.13828,-0.05751576,0.8361011,1.451662,0.1511445,0.2922333,1.498817,0.2765947,292.4562,115.366,134.9717,False
3,1.955559,-0.6333958,0.1295163,-0.1898291,-1.312307,1.559626,-1.662493,0.5795848,1.386511,0.405519,-0.9050657,0.01061775,100,57.2,-0.6192436,-0.08320993,0.4937648,-0.05479241,-1.165185,-3.058016,0.7357283,1.451851,0.3099284,-0.428787,0.4549418,0.1303291,-1.026939,-0.132883,-0.05508136,0.8352193,1.452021,0.1515372,0.2907215,1.50318,0.2768957,292.8198,114.8093,135.6131,False
3,1.966671,-0.6322948,0.1178404,-0.1780528,-1.313008,1.557949,-1.655018,0.577137,1.388463,0.4053435,-0.9055318,-0.04272601,100,57.2,-0.6287166,-0.06413466,0.513106,-0.06135071,-1.155515,-3.060402,0.7335526,1.452674,0.3096607,-0.4437954,0.4262415,0.1345603,-1.025821,-0.1281245,-0.0520616,0.8343502,1.452353,0.1519215,0.2891029,1.507622,0.2771965,293.1348,114.2207,136.31,False
3,1.977782,-0.6353586,0.07949631,-0.1736374,-1.312504,1.556161,-1.647324,0.5744952,1.390625,0.4050939,-0.9058721,-0.03082263,100,57.2,-0.6370274,-0.04832244,0.5462644,-0.06856521,-1.146712,-3.061767,0.731186,1.453667,0.3092163,-0.4768828,0.4125358,0.1336673,-1.024564,-0.1231394,-0.04833291,0.8333421,1.452749,0.1523468,0.2874598,1.512106,0.2774747,293.4553,113.6177,137.0349,False
3,1.988893,-0.6244799,0.01239371,-0.1797512,-1.31035,1.554053,-1.640101,0.5719224,1.392922,0.4048541,-0.9054391,0.03979177,100,57.2,-0.662432,0.003690302,0.581853,-0.0764748,-1.160124,-3.039951,0.7287537,1.454513,0.3086526,-0.5023863,0.4147404,0.1402408,-1.023084,-0.1177001,-0.04488359,0.8324651,1.45314,0.1527767,0.2857569,1.516567,0.27764,293.8419,112.9329,137.8669,False
3,2.000004,-0.6125073,-0.06006586,-0.1911814,-1.307198,1.551662,-1.632998,0.5692139,1.395194,0.4045136,-0.9051365,0.02723839,100,44,-0.7018095,0.08878744,0.6017045,-0.0841005,-1.196421,-2.994644,0.7261769,1.455517,0.3083069,-0.5300675,0.4148527,0.1425748,-1.021506,-0.1121068,-0.04107952,0.8313332,1.453505,0.1533232,0.2841169,1.520861,0.2776465,294.2425,112.4029,138.5448,False
3,2.011115,-0.605979,-0.09841607,-0.1963553,-1.304798,1.549396,-1.62593,0.5664427,1.397316,0.4042296,-0.9056202,-0.04445262,100,44,-0.7425997,0.1283371,0.5648781,-0.08944546,-1.217137,-2.964423,0.7234015,1.456545,0.3079808,-0.5567411,0.4085817,0.1406055,-1.020178,-0.1070009,-0.03669996,0.8302885,1.453917,0.1538143,0.2824495,1.525048,0.2774175,294.6551,112.1691,138.8956,False
3,2.022226,-0.5823588,-0.1505681,-0.2035885,-1.301448,1.547119,-1.619607,0.5634754,1.399534,0.4038651,-0.9058093,-0.016939,100,44,-0.763345,0.1286737,0.4915192,-0.09273287,-1.223923,-2.94868,0.7204502,1.457649,0.3076506,-0.5865764,0.4108403,0.1387029,-1.018748,-0.101553,-0.03215474,0.8291181,1.45434,0.1543519,0.2807682,1.5291,0.2769355,295.1245,112.1865,138.9473,False
3,2.033337,-0.5524592,-0.1717138,-0.189648,-1.298725,1.545533,-1.614046,0.5603795,1.401659,0.4033916,-0.9057406,0.006312385,100,44,-0.7783709,0.1372505,0.4767491,-0.09776305,-1.231977,-2.931593,0.7176415,1.45864,0.3073411,-0.6206783,0.4024476,0.1421041,-1.017177,-0.09656928,-0.02682762,0.8279873,1.454754,0.1549206,0.2790225,1.532997,0.2762169,295.6414,112.2637,138.862,False
3,2.044448,-0.5205956,-0.1459583,-0.1684383,-1.297927,1.5444,-1.608959,0.5571847,1.403757,0.4029028,-0.9063717,-0.05779997,100,49.2,-0.7891778,0.1714084,0.4599407,-0.1030084,-1.251048,-2.903614,0.714724,1.459646,0.3070271,-0.6399173,0.3940381,0.1368818,-1.015847,-0.09170569,-0.02188586,0.8267289,1.455192,0.1554749,0.2771692,1.536738,0.2753367,296.1416,112.2792,138.759,False
3,2.055559,-0.5005156,-0.1010463,-0.1451758,-1.298365,1.543508,-1.603858,0.5540797,1.405701,0.402359,-0.9068617,-0.04444769,100,49.2,-0.8073366,0.1692932,0.4525987,-0.1080657,-1.256533,-2.888628,0.7118688,1.460607,0.3066423,-0.6771519,0.395233,0.143541,-1.014132,-0.08648615,-0.01589241,0.8254443,1.455662,0.1561601,0.2751194,1.540324,0.2743374,296.6371,112.303,138.6471,False
3,2.06667,-0.4889803,-0.05084701,-0.1219394,-1.299547,1.542856,-1.598449,0.5509824,1.40776,0.4017909,-0.9070444,-0.01655442,100,49.2,-0.8137797,0.1894576,0.441072,-0.1132083,-1.26306,-2.873586,0.7092345,1.461247,0.3054764,-0.6779607,0.4143046,0.168121,-1.011529,-0.0801999,-0.01168462,0.8241591,1.456102,0.1567764,0.2728429,1.54372,0.2732611,297.0475,112.2416,138.6061,False
3,2.077781,-0.4425896,0.08576336,-0.1001087,-1.305351,1.542378,-1.594978,0.5479349,1.409563,0.4009027,-0.9067419,0.02760504,100,49.2,-0.8169506,0.1936944,0.4453757,-0.1187876,-1.270167,-2.857321,0.7065315,1.462099,0.304841,-0.6572377,0.4395608,0.2213487,-1.007211,-0.07321616,-0.008831308,0.8228291,1.456531,0.1573627,0.2703486,1.546942,0.2721906,297.3092,112.0781,138.6292,False
3,2.088892,-0.4160454,0.1114264,-0.0959402,-1.307016,1.541363,-1.591004,0.5449683,1.411437,0.4001582,-0.9061257,0.05594095,100,49.2,-0.8179975,0.1924965,0.4421969,-0.1236234,-1.268226,-2.850988,0.703938,1.462748,0.3041501,-0.6434219,0.4288422,0.2222729,-1.004784,-0.06812539,-0.005054946,0.8215406,1.456875,0.1578677,0.2677315,1.550012,0.2712141,297.4284,111.9251,138.653,False
3,2.100003,-0.3628014,0.1179707,-0.1044773,-1.308493,1.539827,-1.588546,0.54211,1.413221,0.399251,-0.9077379,-0.1480023,100,38,-0.8317435,0.1679262,0.4528252,-0.1291692,-1.26304,-2.846484,0.7014309,1.463402,0.303473,-0.6288744,0.3916159,0.1921844,-1.003709,-0.0646485,-0.0004775048,0.820208,1.457268,0.1582565,0.2650408,1.553108,0.2703769,297.3946,111.7504,138.7273,False
3,2.111114,-0.32859,0.08502486,-0.1128544,-1.307932,1.538309,-1.585594,0.5392971,1.414987,0.3982992,-0.9072916,0.04193178,100,38,-0.8211235,0.1285412,0.4429543,-0.1333328,-1.25199,-2.848603,0.6985947,1.464872,0.3033838,-0.6069816,0.3501762,0.1471114,-1.003581,-0.0616097,0.003832822,0.818958,1.457595,0.1586328,0.2623979,1.556275,0.2697863,297.363,111.268,139.1651,False
3,2.122225,-0.3069735,-0.002261695,-0.113563,-1.304848,1.537067,-1.582491,0.5364509,1.416698,0.3973219,-0.9085278,-0.1138364,100,38,-0.7850609,0.1243314,0.4202849,-0.1370814,-1.248935,-2.844362,0.6959759,1.46539,0.3024936,-0.5997554,0.3321244,0.1246153,-1.002846,-0.05798887,0.008302671,0.8176522,1.457979,0.1590393,0.2598868,1.559382,0.2694132,297.4934,110.9552,139.6037,False
3,2.133336,-0.2834356,-0.02984333,-0.1059877,-1.303596,1.53616,-1.57997,0.5335226,1.418252,0.3964481,-0.9078029,0.06703063,100,38,-0.7575707,0.1128075,0.3880769,-0.140372,-1.247965,-2.837874,0.6933715,1.46616,0.3019657,-0.579626,0.3299672,0.109547,-1.002083,-0.05376043,0.01175573,0.8162417,1.458272,0.1595228,0.2575092,1.562296,0.269183,297.7593,110.6786,140.105,False
3,2.144447,-0.239722,-0.0413141,-0.08035772,-1.302781,1.536291,-1.578828,0.5307811,1.419669,0.3953826,-0.9071339,0.06025521,100,34.7,-0.7249687,0.1153011,0.3239734,-0.1421169,-1.254445,-2.824636,0.690625,1.467288,0.3021352,-0.5560869,0.3319744,0.1232092,-1.000342,-0.04883438,0.01470518,0.8147909,1.458595,0.1599898,0.2551721,1.56492,0.2689329,298.0576,110.5014,140.5869,False
3,2.155558,-0.2354131,-0.0571234,-0.04194185,-1.30161,1.537143,-1.576639,0.5281498,1.420665,0.3944044,-0.9072724,-0.01335398,100,34.7,-0.6998539,0.1326849,0.2620953,-0.1435598,-1.266687,-2.805541,0.6882845,1.46776,0.3017046,-0.5207889,0.3199912,0.1506098,-0.9976979,-0.04506814,0.01728525,0.8133434,1.459008,0.1603844,0.2527841,1.567212,0.2684497,298.3325,110.4933,140.8797,False
3,2.166669,-0.2080837,0.05055643,-0.04343806,-1.305818,1.536508,-1.575026,0.5253717,1.421615,0.3933766,-0.9080964,-0.07537699,100,34.7,-0.687216,0.1188864,0.234226,-0.1452307,-1.26343,-2.802084,0.6858429,1.468319,0.3006775,-0.4994107,0.303853,0.1695664,-0.9950779,-0.04160044,0.0202552,0.8117895,1.459547,0.1608479,0.2503034,1.569195,0.2676646,298.4795,110.425,141.0739,False
3,2.17778,-0.2063444,0.1633737,-0.07052346,-1.311402,1.534727,-1.572372,0.5228905,1.422179,0.3925204,-0.906638,0.1337591,100,34.7,-0.677914,0.1105918,0.191506,-0.1461692,-1.267757,-2.790521,0.6835891,1.468702,0.3001292,-0.4738353,0.2813107,0.1842069,-0.9924296,-0.03888348,0.02315911,0.8103943,1.459932,0.1611855,0.2478446,1.570747,0.2665607,298.5529,110.2885,141.2502,False
3,2.188891,-0.2224786,0.2079912,-0.08455864,-1.314996,1.533254,-1.568877,0.520414,1.422985,0.3919075,-0.9071664,-0.0497143,100,34.7,-0.6524286,0.09146196,0.1731251,-0.147471,-1.263226,-2.788898,0.6813183,1.469241,0.2993717,-0.4376604,0.2683834,0.1838798,-0.9905649,-0.03580953,0.02508778,0.8090637,1.460307,0.1614711,0.2454077,1.571917,0.265135,298.5351,110.2365,141.1948,False
3,2.200002,-0.2128542,0.1984318,-0.08558112,-1.316677,1.532331,-1.566648,0.5179539,1.423757,0.3913302,-0.9062737,0.08198217,100,35.8,-0.6071226,0.08472419,0.2526757,-0.1529698,-1.255128,-2.791782,0.6790218,1.469758,0.2989664,-0.4218982,0.2716563,0.1518118,-0.9900397,-0.03197777,0.0272452,0.8077853,1.46061,0.1618097,0.2428595,1.573032,0.2636609,298.4396,110.1239,140.9299,False
3,2.211113,-0.1775781,0.1644519,-0.08756697,-1.31713,1.531291,-1.565671,0.5156978,1.424449,0.3908782,-0.9050859,0.1076967,100,35.8,-0.5394396,0.07026738,0.1807393,-0.1527813,-1.257779,-2.785247,0.6766008,1.470685,0.2992189,-0.4262389,0.2941555,0.1263718,-0.9893787,-0.02718115,0.02948545,0.8064978,1.460971,0.1621816,0.2403274,1.574197,0.2625519,298.3261,110.0743,140.5516,False
3,2.222224,-0.151904,0.1326569,-0.06932126,-1.317464,1.531199,-1.564851,0.5133842,1.425135,0.390528,-0.9060079,-0.08521113,100,35.8,-0.5034551,0.0683561,0.1463895,-0.1532532,-1.261235,-2.77733,0.6742433,1.471246,0.2989271,-0.4260658,0.3175625,0.135009,-0.9872397,-0.02204112,0.03133555,0.8050667,1.461358,0.1625619,0.2378695,1.575582,0.2619683,298.2457,110.1418,140.2859,False
3,2.233335,-0.1016468,0.07758361,-0.03287024,-1.316389,1.532139,-1.565741,0.5114758,1.425547,0.390389,-0.9072697,-0.1146767,100,35.8,-0.4621021,0.1058068,0.1271053,-0.1547659,-1.274957,-2.759981,0.672094,1.47174,0.2988732,-0.40784,0.3184831,0.1508654,-0.9849851,-0.01791548,0.03292093,0.8037543,1.461658,0.1628699,0.2356424,1.577083,0.2618721,298.2991,110.1015,140.4209,False
3,2.244446,-0.07281432,0.0574719,-0.02532662,-1.316399,1.53202,-1.565766,0.5094038,1.426008,0.3899636,-0.9070849,0.0176484,100,35.8,-0.4386359,0.1292196,0.1366454,-0.1574131,-1.283071,-2.747788,0.6701072,1.472204,0.2986023,-0.3918438,0.3067256,0.1581531,-0.9830052,-0.01384071,0.03442429,0.8024805,1.462063,0.1630771,0.2336911,1.5785,0.2621419,298.4741,109.8641,140.9027,False
3,2.255557,-0.04617053,0.05436587,-0.02637321,-1.316874,1.531687,-1.566123,0.507569,1.426266,0.3897123,-0.9081992,-0.1023449,100,37.5,-0.3831128,0.1653853,0.1620119,-0.1611596,-1.294347,-2.734333,0.6684064,1.472437,0.2983236,-0.3706019,0.2853097,0.1621759,-0.9810004,-0.01097915,0.03621686,0.8012139,1.462339,0.1632967,0.2319438,1.579699,0.2625891,298.6436,109.4574,141.5934,False
3,2.266668,-0.03019097,0.05648274,-0.04341776,-1.317695,1.530649,-1.566005,0.5058159,1.426544,0.3893919,-0.9073943,0.07424551,100,37.5,-0.3662916,0.1634375,0.1299295,-0.1621982,-1.302644,-2.722511,0.6665756,1.472729,0.298039,-0.352546,0.278832,0.157781,-0.9791335,-0.007912118,0.03774391,0.7996883,1.46248,0.1634076,0.230389,1.580447,0.2630112,298.8175,109.048,142.2867,False
3,2.277779,-0.01953701,0.0574994,-0.0647256,-1.318373,1.52914,-1.565794,0.5041376,1.426851,0.3891211,-0.9073528,0.002822959,100,37.5,-0.3246189,0.1378258,0.1465375,-0.1641807,-1.299811,-2.722733,0.6650847,1.472836,0.2978449,-0.3132539,0.2573738,0.1531544,-0.9775159,-0.005461744,0.03843288,0.798507,1.462679,0.1634665,0.2286905,1.580908,0.2632363,298.9006,108.8047,142.7236,False
3,2.28889,-0.00573647,0.07546879,-0.1106013,-1.319813,1.526231,-1.565509,0.5027159,1.427001,0.3890893,-0.9067861,0.05168751,100,37.5,-0.2820466,0.1176544,0.140787,-0.1654265,-1.299119,-2.721453,0.6634363,1.472958,0.2977104,-0.2835813,0.2370418,0.1411384,-0.9763665,-0.003397395,0.03919747,0.7971855,1.462796,0.16361,0.2268503,1.581081,0.2632897,298.8864,108.7614,142.8191,False
3,2.300001,0.009243298,0.05835137,-0.1414215,-1.319898,1.523549,-1.565399,0.5015587,1.427193,0.3890557,-0.9065123,0.02441666,100,39.4,-0.2225182,0.09228829,0.1168125,-0.165875,-1.29889,-2.721299,0.6621088,1.473201,0.2977014,-0.2421718,0.2177184,0.1333103,-0.9751473,-0.001431316,0.03916418,0.7960173,1.46295,0.1636152,0.2248346,1.581102,0.2632368,298.7744,108.9286,142.6284,False
3,2.311112,-0.005639311,0.04018283,-0.1477416,-1.320034,1.521468,-1.564453,0.5004618,1.427472,0.3892395,-0.906564,-0.005034938,100,39.4,-0.1471752,0.0276966,0.06056644,-0.1642313,-1.290905,-2.730157,0.6609914,1.473389,0.297739,-0.2103828,0.1760131,0.1329382,-0.9733518,-0.001007341,0.04009336,0.7947807,1.463097,0.1636255,0.2227413,1.581049,0.2632069,298.6263,109.2786,142.2032,False
3,2.322223,0.0008968413,0.008283034,-0.134841,-1.318938,1.520432,-1.564236,0.4993367,1.427724,0.3893566,-0.9064974,0.005995841,100,39.4,-0.1069279,0.03530707,0.03790806,-0.1636624,-1.295107,-2.724953,0.6596138,1.473426,0.2977424,-0.1828965,0.1332895,0.1283186,-0.9718988,-0.0009442238,0.04124517,0.7936634,1.463371,0.1636858,0.2207641,1.580923,0.2634282,298.4832,109.7111,141.683,False
3,2.333334,0.03736675,-0.06292398,-0.1249564,-1.315939,1.519338,-1.565558,0.4983266,1.427972,0.3895037,-0.9053512,0.1046157,100,39.4,-0.06963997,0.06834729,0.04528124,-0.1651144,-1.303886,-2.7168,0.6584679,1.473612,0.2977014,-0.1606148,0.116158,0.1259587,-0.9705587,-0.0001343565,0.0418316,0.7925623,1.463566,0.1636915,0.2190191,1.580757,0.2639828,298.3411,110.1369,141.2781,False
3,2.344445,0.06843984,-0.1129095,-0.1322029,-1.313187,1.51753,-1.566885,0.4973571,1.428067,0.3896718,-0.9056053,-0.02417192,100,39.4,-0.06329498,0.07265408,0.03993391,-0.1659421,-1.309229,-2.710858,0.6572504,1.47388,0.2975368,-0.1298425,0.09791735,0.1182117,-0.9694157,0.000111187,0.04201217,0.7915598,1.463668,0.163614,0.2174968,1.580709,0.2648106,298.1764,110.4339,141.1344,False
3,2.355556,0.1006518,-0.1831826,-0.1510865,-1.308673,1.515102,-1.568522,0.4966215,1.428101,0.3898535,-0.9070865,-0.1352158,100,36.3,-0.06230246,0.09824975,0.03473182,-0.1669498,-1.319323,-2.700224,0.656114,1.473943,0.2974584,-0.1045164,0.06911235,0.1008726,-0.9687728,-0.0001665807,0.04253281,0.790524,1.463814,0.1635284,0.2162232,1.580777,0.2657146,298.1122,110.5815,141.3015,False
3,2.366668,0.1177949,-0.2098337,-0.1701483,-1.305582,1.512464,-1.569604,0.495998,1.427948,0.3900909,-0.9072229,-0.01145642,100,36.3,-0.03893036,0.1589192,0.04551381,-0.168919,-1.335581,-2.683891,0.6552263,1.473977,0.2975938,-0.08862494,0.05734082,0.09538314,-0.967879,-9.187906E-06,0.04291471,0.7896119,1.464043,0.1634572,0.2151883,1.58077,0.2665087,298.2505,110.7052,141.5147,False
3,2.377779,0.1155813,-0.1874583,-0.1670421,-1.304263,1.510708,-1.570263,0.4954715,1.427727,0.390373,-0.9074205,-0.01830932,100,36.3,0.004441179,0.1634664,0.002629392,-0.1685035,-1.349552,-2.671514,0.6541412,1.473673,0.2978537,-0.06304757,0.05081358,0.09943995,-0.9665219,0.0002909504,0.04248408,0.7887427,1.464156,0.1633952,0.2142735,1.580542,0.2671286,298.4878,110.8822,141.5615,False
3,2.38889,0.1121706,-0.1277731,-0.1577015,-1.304804,1.509134,-1.570932,0.4948471,1.427473,0.3907378,-0.9066806,0.06762943,100,36.3,0.0510279,0.1020036,-0.05021615,-0.1656955,-1.349876,-2.672891,0.6534943,1.473787,0.2981975,-0.03634863,0.04637518,0.1109611,-0.9647221,0.0004581969,0.04185131,0.7878295,1.464281,0.1633174,0.2134104,1.57994,0.2675843,298.7313,111.2602,141.2914,False
3,2.400001,0.119439,-0.07547669,-0.1408649,-1.305605,1.508082,-1.572247,0.4941842,1.427248,0.3910878,-0.9057416,0.08510739,100,31.6,0.08930171,0.006360941,-0.08399191,-0.1625822,-1.338958,-2.685801,0.6527863,1.473876,0.2984526,-0.01506625,0.03667475,0.1118406,-0.9633778,0.0002837598,0.04135729,0.7870566,1.464352,0.1632252,0.2124933,1.57902,0.2679634,298.8043,111.6936,140.8282,False
3,2.411112,0.1179294,0.04820411,-0.1136669,-1.310186,1.507696,-1.573502,0.4936321,1.426816,0.3915548,-0.9054934,0.02196664,100,31.6,0.09454666,-0.03400139,-0.1055424,-0.1600762,-1.334101,-2.691803,0.6521242,1.473834,0.2987549,0.007095262,0.008937119,0.09878118,-0.9627082,-0.0007006777,0.04110829,0.7863301,1.464441,0.1631453,0.2114624,1.577985,0.2683546,298.6555,112.0753,140.3457,False
3,2.422223,0.1082213,0.08120681,-0.1106065,-1.312089,1.506488,-1.574025,0.4930288,1.426541,0.391902,-0.9059024,-0.03754953,100,31.6,0.1040613,0.006505258,-0.1064666,-0.1597881,-1.346585,-2.680744,0.6512381,1.473623,0.2991123,0.02191216,-0.002827436,0.09010401,-0.9620115,-0.001556751,0.04073971,0.7855716,1.464498,0.1630151,0.2102909,1.577056,0.2688528,298.4071,112.3774,139.9501,False
3,2.433334,0.07385234,0.1589122,-0.09494606,-1.316548,1.505953,-1.573488,0.4926377,1.426279,0.3923731,-0.9056223,0.02585059,100,31.6,0.1115188,0.03418107,-0.09998098,-0.1596032,-1.356934,-2.672056,0.6506618,1.473611,0.2994001,0.0399581,-0.007138025,0.08356571,-0.9613149,-0.001861816,0.03982465,0.7849081,1.464564,0.1629696,0.2090728,1.576297,0.2695335,298.1391,112.5293,139.7354,False
3,2.444445,0.08671296,0.1345564,-0.07034874,-1.317073,1.505802,-1.574834,0.4922236,1.426161,0.3927059,-0.9049986,0.05672809,100,31.6,0.1095314,0.03614438,-0.07227927,-0.1595116,-1.358544,-2.671011,0.650277,1.473921,0.2997491,0.05056959,-0.01250451,0.07921447,-0.9604083,-0.002444782,0.03911385,0.7842388,1.464682,0.1629696,0.2079229,1.57575,0.2705004,297.8475,112.3976,139.8465,False
3,2.455556,0.1210135,0.07402524,-0.05305058,-1.31586,1.505794,-1.577323,0.4917972,1.426012,0.3929317,-0.903716,0.116817,100,26.1,0.1012053,0.03278583,-0.0434773,-0.1600794,-1.358453,-2.671952,0.6497548,1.473963,0.3000162,0.06112596,-0.0263804,0.07162395,-0.9598464,-0.003592338,0.03854393,0.7837167,1.464752,0.1629477,0.206881,1.575445,0.2717159,297.6175,112.3332,140.029,False
3,2.466667,0.1586253,-0.02056608,-0.031351,-1.312341,1.506184,-1.580447,0.4915331,1.425944,0.3930864,-0.9054273,-0.1573913,100,26.1,0.07573056,0.04012685,-0.02729906,-0.1605662,-1.360948,-2.669401,0.6491764,1.473814,0.3003604,0.06952084,-0.03488383,0.05874376,-0.9596562,-0.00443363,0.03795777,0.7831675,1.4648,0.1629078,0.2060796,1.575444,0.2731292,297.3569,112.1597,140.4123,False
3,2.477778,0.1524117,-0.07167995,-0.02049208,-1.309927,1.506327,-1.581847,0.4913231,1.425826,0.3930821,-0.9067046,-0.1153388,100,26.1,0.05320846,0.05400819,-0.0430723,-0.1597066,-1.369769,-2.660168,0.6488427,1.473989,0.3007433,0.07256252,-0.04868884,0.04481195,-0.9596936,-0.005711415,0.03777721,0.782754,1.464768,0.1628933,0.2056029,1.575558,0.2745169,297.3365,111.9478,141.0196,False
3,2.488889,0.1471546,-0.09186355,-0.001243111,-1.308359,1.506847,-1.583397,0.490991,1.425684,0.3930569,-0.9071755,-0.04229326,100,26.1,0.03513155,0.06459343,-0.03544044,-0.1600991,-1.376001,-2.653797,0.6484704,1.473997,0.3010457,0.06284291,-0.05712064,0.03100031,-0.9597707,-0.006997589,0.03814366,0.7823204,1.464733,0.162926,0.2053849,1.575492,0.2756222,297.5292,111.7115,141.692,False
3,2.5,0.1428474,-0.08010502,0.01255776,-1.307944,1.507473,-1.584982,0.4907016,1.42546,0.393013,-0.9053581,0.1662399,100,20.6,0.03191052,0.06458572,-0.0375585,-0.1598174,-1.380246,-2.649772,0.6481844,1.473932,0.3012838,0.06285629,-0.06248485,0.0363061,-0.959147,-0.008304802,0.03821849,0.7818608,1.464874,0.1629031,0.2052661,1.575023,0.2762163,297.7611,111.6036,142.1227,False
3,2.511111,0.1288578,-0.0417098,0.03370664,-1.308983,1.508589,-1.586236,0.490284,1.425195,0.3930912,-0.905104,0.02169769,100,20.6,0.01582732,0.041234,-0.05887949,-0.1584373,-1.382432,-2.647265,0.6478362,1.473865,0.301666,0.067193,-0.05720849,0.04375526,-0.9584605,-0.008895357,0.03767254,0.7814397,1.464918,0.1629353,0.2050091,1.574251,0.276202,297.8172,111.693,142.1222,False
3,2.522222,0.1105995,-0.001210131,0.05378489,-1.310324,1.509888,-1.587206,0.4897413,1.424974,0.3931625,-0.9050833,0.001855631,100,20.6,0.01163075,0.02735444,-0.05253832,-0.157983,-1.383675,-2.646072,0.6474025,1.473806,0.3020144,0.06733634,-0.04448597,0.05553051,-0.9574149,-0.009183245,0.03702326,0.78098,1.464862,0.1629393,0.2045401,1.573307,0.2756444,297.7373,111.9165,141.7499,False
3,2.533333,0.07747569,0.02638211,0.05686034,-1.311547,1.510645,-1.587193,0.4893363,1.424894,0.3931522,-0.9046273,0.04166079,100,20.6,0.003206684,-0.01742302,-0.04845264,-0.1568447,-1.375292,-2.654127,0.6470574,1.473819,0.3022916,0.06419205,-0.04129963,0.06089329,-0.956543,-0.009617607,0.03667013,0.7806219,1.464862,0.1629589,0.2039121,1.572276,0.2747379,297.5815,112.1897,141.1408,False
3,2.544444,0.03480553,0.04114784,0.05785635,-1.312391,1.51131,-1.586287,0.4889939,1.424865,0.3931727,-0.9042886,0.03066715,100,20.6,-0.00734938,-0.01758326,-0.02603894,-0.1566482,-1.371605,-2.656621,0.6467917,1.474015,0.3022828,0.05985862,-0.04444902,0.05238998,-0.9562991,-0.01054519,0.03666161,0.7802799,1.464971,0.1629803,0.2031519,1.5713,0.2737184,297.3837,112.4068,140.4903,False
3,2.555555,0.01463939,0.01979567,0.06432892,-1.311907,1.512301,-1.585938,0.4886015,1.424909,0.393152,-0.9035163,0.07044306,100,17.4,-0.01366159,0.02171349,-0.004489762,-0.1579553,-1.378741,-2.649267,0.6464353,1.474036,0.3024518,0.05342274,-0.03691933,0.04181494,-0.9562064,-0.0107344,0.03639263,0.7799231,1.464974,0.1629851,0.2023162,1.570502,0.2727785,297.1743,112.6079,139.9031,False
3,2.566666,0.06382956,-0.03322857,0.08160937,-1.309716,1.513998,-1.588847,0.4882625,1.424845,0.3929985,-0.9027472,0.06988396,100,17.4,-0.02650001,0.03450372,-0.009666192,-0.1581081,-1.384088,-2.643288,0.6460432,1.474087,0.3027174,0.04588434,-0.03150752,0.02697916,-0.9564072,-0.01109593,0.03628557,0.7795985,1.464986,0.1630099,0.2015417,1.569977,0.2720553,296.9577,112.8834,139.3653,False
3,2.577777,0.06919672,-0.04491042,0.08591923,-1.308838,1.515161,-1.590104,0.4878905,1.424759,0.3929226,-0.9033783,-0.05804911,100,17.4,-0.04251453,0.02595164,-0.01281366,-0.157526,-1.383509,-2.642488,0.6458346,1.474278,0.302614,0.04489158,-0.02407745,0.032348,-0.9557771,-0.01132989,0.03589249,0.7793082,1.465011,0.1630425,0.200973,1.569799,0.2716017,296.7901,113.1296,139.0038,False
3,2.588888,0.0596771,-0.06413049,0.08386187,-1.307485,1.515953,-1.590602,0.4876282,1.424556,0.3926914,-0.9066492,-0.2984455,100,17.4,-0.06069821,0.04194,-0.02006977,-0.1576021,-1.390513,-2.634273,0.6454685,1.474329,0.3028729,0.03540719,-0.01769153,0.04309651,-0.9549004,-0.01136397,0.0358544,0.7790414,1.465059,0.1630621,0.2007233,1.569894,0.2713447,296.7828,113.174,139.0191,False
3,2.599999,0.0554187,-0.06520624,0.08492949,-1.306794,1.516961,-1.591284,0.4872944,1.424413,0.392575,-0.9054369,0.1133128,100,17.4,-0.06726079,0.05373065,-0.03916036,-0.1568916,-1.398739,-2.624845,0.6451713,1.474364,0.3029151,0.03329818,-0.01129397,0.04207989,-0.9544002,-0.01142936,0.035554,0.7788134,1.465066,0.163126,0.200799,1.569925,0.2711527,297.0249,112.894,139.4229,False
3,2.61111,0.04783791,-0.03112417,0.09011084,-1.307539,1.518099,-1.591855,0.4868583,1.42422,0.3924341,-0.9045309,0.08154687,100,17.3,-0.06945276,0.02717762,-0.05526317,-0.1556074,-1.399448,-2.623299,0.6448882,1.474487,0.3032146,0.03435548,-0.005953655,0.03783404,-0.9541238,-0.01130139,0.03508981,0.7786113,1.465094,0.1631355,0.2009154,1.569833,0.27094,297.2516,112.5242,139.8469,False
3,2.622221,0.04877736,0.004052028,0.09636551,-1.308572,1.519412,-1.592808,0.486335,1.424215,0.3923671,-0.9046007,-0.006936724,100,17.3,-0.06193999,0.001565553,-0.04800881,-0.1545981,-1.394731,-2.627068,0.6446881,1.474473,0.3029079,0.03117542,-0.002756219,0.03787693,-0.9535901,-0.01145492,0.03487969,0.7784363,1.465217,0.1631415,0.201093,1.569479,0.2708327,297.426,112.2976,140.0884,False
3,2.633332,0.04337156,0.02538596,0.1079962,-1.309564,1.521003,-1.593518,0.4859334,1.42414,0.392225,-0.9045272,0.006885866,100,17.3,-0.05340577,-0.01438861,-0.05027719,-0.1537198,-1.392889,-2.628575,0.6444145,1.474568,0.3031883,0.03327768,-0.01129195,0.03889039,-0.9531326,-0.01196798,0.03473694,0.7782542,1.465247,0.1631479,0.2008882,1.569083,0.270545,297.4567,112.483,139.9185,False
3,2.644443,0.03689981,0.04567786,0.1260173,-1.310697,1.522903,-1.594169,0.4855266,1.424105,0.3920395,-0.904899,-0.03406651,100,17.3,-0.04904023,-0.03998864,-0.04085414,-0.1530146,-1.387672,-2.633337,0.6441976,1.474642,0.303231,0.03318559,-0.01444198,0.02608617,-0.9534063,-0.01245667,0.03449273,0.7781957,1.465298,0.1631584,0.200433,1.56875,0.2701273,297.3577,112.4646,139.8088,False
3,2.655554,0.03156312,0.04782812,0.1355949,-1.311338,1.524764,-1.594822,0.4851972,1.424065,0.3918207,-0.9046609,0.02210877,100,18.7,-0.04410759,-0.1107364,0.04504013,-0.1543036,-1.356001,-2.664306,0.6440113,1.47459,0.3035145,0.03638855,-0.009119734,0.02395559,-0.953213,-0.01235227,0.03392095,0.7780721,1.465349,0.1631598,0.1997761,1.568509,0.2696993,297.1741,112.3194,139.8114,False
3,2.666665,0.02203548,0.02761918,0.1516479,-1.310945,1.526936,-1.595204,0.4850831,1.424104,0.3915009,-0.9045304,0.0117308,100,18.7,-0.05733706,-0.09342127,-0.0122875,-0.152425,-1.359855,-2.658706,0.6441643,1.474468,0.3029151,0.04172073,-0.007009789,0.02285919,-0.9529941,-0.01237917,0.03324078,0.7780694,1.465397,0.163192,0.1990536,1.568361,0.2692367,296.937,112.1408,139.9234,False
3,2.677776,0.015774,-0.009649947,0.1613847,-1.30965,1.529126,-1.595754,0.4848581,1.424155,0.391084,-0.9045847,-0.004994371,100,18.7,-0.0680593,-0.1019095,-0.02399477,-0.1509283,-1.354684,-2.662553,0.644075,1.474504,0.3028333,0.04059297,-0.01230666,0.01751654,-0.9529962,-0.01274482,0.03308365,0.7780043,1.465397,0.163198,0.19847,1.5682,0.2687455,296.7657,112.0471,139.9782,False
3,2.688887,0.01808193,-0.05863085,0.1647786,-1.307524,1.531169,-1.596622,0.4845374,1.424203,0.3906822,-0.9043051,0.02566172,100,18.7,-0.08717417,-0.1041295,-0.0132412,-0.150443,-1.346613,-2.66871,0.6438737,1.474476,0.3029904,0.03731948,-0.02185715,0.01110613,-0.953124,-0.01348398,0.0330943,0.7779813,1.465374,0.1632071,0.198128,1.567997,0.2681846,296.6373,111.9929,140.0219,False
3,2.699998,0.0170697,-0.07356246,0.1616446,-1.306251,1.532966,-1.597238,0.4841928,1.424275,0.3902974,-0.9045048,-0.01841136,100,18.7,-0.1222249,-0.106384,0.0008080341,-0.1502848,-1.338034,-2.674668,0.6436369,1.474603,0.30299,0.02766143,-0.01964455,0.0005322172,-0.9534548,-0.01369131,0.03327193,0.7779365,1.465348,0.1631725,0.198061,1.567762,0.267464,296.5545,111.9944,140.0359,False
3,2.711109,0.01616179,-0.1161834,0.1596868,-1.30349,1.534826,-1.597957,0.4838622,1.424329,0.3897302,-0.9049373,-0.03935057,100,16.1,-0.1531801,-0.08510788,-0.003143754,-0.1500681,-1.337157,-2.672747,0.6434482,1.474636,0.3030965,0.01912992,-0.01639932,-0.002588717,-0.9536114,-0.01376002,0.03341974,0.777932,1.465302,0.163162,0.1980146,1.567182,0.266501,296.4159,112.3321,139.6638,False
3,2.72222,0.01190073,-0.1161857,0.1628857,-1.302385,1.536927,-1.598512,0.4834659,1.424299,0.3893664,-0.904818,0.01125515,100,16.1,-0.1753802,-0.06719367,0.02690344,-0.1508803,-1.333303,-2.674052,0.6431728,1.474603,0.303159,0.009551426,-0.01422942,-0.003578872,-0.953727,-0.01394511,0.03362321,0.777854,1.465258,0.163177,0.1974347,1.566249,0.2657112,296.2267,113.3071,138.9871,False
3,2.733331,0.0106978,-0.07783505,0.1637957,-1.302881,1.538835,-1.599121,0.4832111,1.424108,0.3889682,-0.904899,-0.007512338,100,16.1,-0.1606705,-0.05104482,-0.0008053929,-0.1500638,-1.336039,-2.670032,0.6430123,1.474623,0.3033412,-0.00744649,-0.002442291,-0.003405716,-0.953727,-0.01352074,0.03407914,0.7778512,1.465247,0.1631579,0.1965144,1.565398,0.2652605,295.8294,113.5739,138.9523,False
3,2.744442,0.004146654,-0.03310801,0.1646767,-1.304035,1.540682,-1.599456,0.4829801,1.423903,0.3885682,-0.9047014,0.0181473,100,16.1,-0.152154,-0.05097337,-0.005082499,-0.1503472,-1.333798,-2.671168,0.6436899,1.47262,0.2964869,-0.02018775,0.009329401,-0.004330605,-0.9538063,-0.01301647,0.03441257,0.7778546,1.465277,0.1632216,0.1955679,1.564765,0.2649146,295.4368,113.3301,139.4324,False
3,2.755553,-0.0002024099,-0.008617505,0.1656418,-1.304824,1.542587,-1.599806,0.4827476,1.423746,0.3882468,-0.9048069,-0.009822547,100,13.8,-0.1383199,-0.03391691,-0.002949903,-0.1504782,-1.335009,-2.668914,0.6436011,1.472553,0.2964914,-0.02652385,0.01893433,-0.002113192,-0.9537216,-0.0123576,0.03454386,0.7778411,1.465251,0.163187,0.1950156,1.564289,0.264725,295.191,112.9435,139.8765,False
3,2.766664,0.0007836297,0.01376118,0.1676856,-1.305672,1.544653,-1.600417,0.482657,1.423571,0.3879611,-0.9045997,0.01906959,100,13.8,-0.1212562,-0.02111709,-0.0008726777,-0.1505384,-1.336193,-2.667316,0.6435599,1.472798,0.29667,-0.02222761,0.01354977,0.006357455,-0.9533115,-0.01255041,0.03474786,0.777808,1.465204,0.1632035,0.1948448,1.564071,0.2645234,295.1451,112.6485,140.2568,False
3,2.777775,0.001837514,0.01692128,0.1580869,-1.30599,1.546147,-1.600847,0.4825207,1.423411,0.3877354,-0.9046188,-0.001875844,100,13.8,-0.1054189,-0.01458547,-0.02225009,-0.1496292,-1.339636,-2.663326,0.6433984,1.472742,0.2967079,-0.02121372,0.009305276,0.002068414,-0.9534937,-0.01256852,0.03496864,0.7777723,1.465188,0.1631262,0.1949217,1.564064,0.2642269,295.2536,112.4915,140.5043,False
3,2.788886,0.0008070283,0.009413958,0.1463943,-1.305831,1.547352,-1.601201,0.4822939,1.423242,0.3874831,-0.9048841,-0.0242071,100,13.8,-0.09694483,-0.01235363,-0.03610194,-0.1494182,-1.340994,-2.661707,0.6434811,1.472274,0.2957656,-0.02229869,0.01358911,-0.003230721,-0.9536934,-0.01229648,0.03509194,0.7777203,1.465098,0.1631062,0.1951883,1.564258,0.2638423,295.5328,112.6465,140.5157,False
3,2.799997,0.001895186,0.005090766,0.1304351,-1.305726,1.548335,-1.601571,0.4821579,1.423098,0.387305,-0.9049054,-0.001731831,100,13.8,-0.07986914,0.0004423261,-0.03189328,-0.1493453,-1.345464,-2.657372,0.6432314,1.472622,0.2960289,-0.02121581,0.0178429,-0.003218438,-0.9536684,-0.01193416,0.03508289,0.7777033,1.465083,0.1630414,0.1955178,1.56456,0.2634007,295.8802,112.9527,140.4072,False
3,2.811108,0.01045064,-0.002405018,0.1134231,-1.305484,1.549077,-1.602194,0.4820101,1.422919,0.3871045,-0.9049171,-0.001049434,100,14,-0.06818785,0.02283286,-0.03184764,-0.1495408,-1.352826,-2.649755,0.6431432,1.472582,0.2960014,-0.02224876,0.01462395,0.003167081,-0.953425,-0.01188223,0.03534707,0.7776536,1.465048,0.1629627,0.1957963,1.564816,0.2628669,296.0858,112.8844,140.4919,False
3,2.822219,0.01370168,-0.01419417,0.09535883,-1.304847,1.549582,-1.602689,0.4817733,1.422724,0.3869073,-0.9050002,-0.007567445,100,14,-0.06287983,0.03031101,-0.03183326,-0.1496627,-1.357959,-2.644021,0.6430985,1.472731,0.2960231,-0.01905543,0.007131221,0.007368237,-0.953287,-0.01220274,0.03564774,0.7775337,1.465028,0.1628914,0.1959779,1.565022,0.2623061,296.2588,112.7044,140.6348,False
3,2.83333,0.01902516,-0.01211344,0.078307,-1.304828,1.549891,-1.603163,0.4816854,1.422654,0.3868074,-0.9053181,-0.02901083,100,14,-0.04903278,0.02714389,-0.03300288,-0.1493948,-1.360525,-2.641415,0.6430149,1.472727,0.2959888,-0.01370575,0.001755212,0.0136989,-0.952895,-0.01244988,0.03577424,0.7774857,1.465027,0.1627522,0.1961339,1.56512,0.2616585,296.1611,111.7015,141.2589,False
3,2.844441,0.03398684,-0.02383271,0.06557993,-1.304154,1.550336,-1.604188,0.4815573,1.422669,0.3867362,-0.9052596,0.005560419,100,14,-0.03731724,0.03037747,-0.03410892,-0.1495008,-1.364623,-2.637436,0.6430998,1.472005,0.2949319,-0.01582344,-0.000382008,0.01689766,-0.9526787,-0.01254575,0.03610234,0.7774234,1.465056,0.1627045,0.1962746,1.56523,0.2609697,296.0945,110.4041,142.2076,False
3,2.855552,0.07032028,-0.05464379,0.05399596,-1.302454,1.550601,-1.606379,0.4814861,1.422647,0.3866532,-0.9052457,0.001172023,100,14.7,-0.02875762,0.01972177,-0.03102353,-0.1492191,-1.364295,-2.637764,0.6430376,1.471947,0.2947779,-0.01909568,-0.009934499,0.01155712,-0.9526548,-0.01290808,0.0366459,0.7773805,1.465048,0.162605,0.1963764,1.565341,0.2604145,296.2118,109.8872,142.558,False
3,2.866663,0.05332779,-0.06758344,0.03060667,-1.301275,1.550201,-1.606238,0.48157,1.422612,0.38656,-0.9057139,-0.04283807,100,14.7,-0.02660035,0.03355563,-0.02563667,-0.1496207,-1.370401,-2.631715,0.6429449,1.472302,0.2951782,-0.02653188,-0.009917588,0.0148053,-0.9524338,-0.01323058,0.03738972,0.7773995,1.465019,0.1624835,0.196456,1.565488,0.2600239,296.3284,109.6116,142.749,False
3,2.877774,0.03206002,-0.07730304,0.01679113,-1.300076,1.549925,-1.605756,0.4815512,1.422654,0.3864677,-0.9068702,-0.1054415,100,14.7,-0.02872477,0.0643988,-0.01693796,-0.1505549,-1.380208,-2.621642,0.6429008,1.472202,0.2950852,-0.02646318,0.004993042,0.01593126,-0.9522074,-0.01247398,0.0372523,0.7773447,1.465015,0.1623843,0.1965805,1.565497,0.2597763,296.4214,109.0839,143.1144,False
3,2.888885,0.03215568,-0.10398,0.00518165,-1.298057,1.549705,-1.605997,0.4815785,1.422704,0.3864126,-0.9047142,0.197935,100,14.7,-0.02443431,0.08247592,-0.009414654,-0.151405,-1.388698,-2.6133,0.6429256,1.472384,0.2951179,-0.02215312,0.009214552,0.02017734,-0.9518521,-0.01223163,0.03717213,0.7773647,1.465046,0.1622701,0.1966195,1.565388,0.2595893,296.6032,108.8756,143.3311,False
3,2.899997,0.0268899,-0.1190207,-0.02139677,-1.296238,1.548547,-1.605835,0.4816784,1.422739,0.3864319,-0.9040691,0.05717207,100,14.7,-0.01480431,0.06330805,-0.009572446,-0.1512787,-1.387859,-2.614467,0.6430426,1.4721,0.2947829,-0.01683737,0.00492725,0.02118739,-0.9515576,-0.01236998,0.03725816,0.7773949,1.465021,0.1621435,0.1966202,1.565247,0.2595587,296.6556,108.7683,143.468,False
3,2.911108,0.02054558,-0.1308434,-0.04159157,-1.294346,1.547405,-1.605549,0.4817725,1.422887,0.3864396,-0.9048031,-0.06739415,90.2,13.3,-0.01158975,0.05374493,-0.01070875,-0.151349,-1.391023,-2.611424,0.6430109,1.472056,0.2946651,-0.01584465,0.003898423,0.01158735,-0.9517605,-0.01239688,0.03742513,0.7774228,1.46499,0.1619766,0.1965764,1.565149,0.2596325,296.608,108.7821,143.5159,False
3,2.922219,0.01949672,-0.1341098,-0.0564895,-1.292672,1.546419,-1.605497,0.4819181,1.42308,0.3864856,-0.9047898,0.00190894,90.2,13.3,-0.001543757,0.04708213,0.001006376,-0.1515802,-1.368346,-2.639814,0.6428624,1.475027,0.2995977,-0.01484756,-0.004612986,0.007285659,-0.951785,-0.01289063,0.037884,0.7774562,1.464989,0.1618373,0.1965108,1.565011,0.2597928,296.6019,109.0116,143.4297,False
3,2.93333,0.01738544,-0.1384273,-0.06925671,-1.290994,1.545241,-1.605309,0.4820419,1.423225,0.3865387,-0.9046838,0.00963713,90.2,13.3,0.007092858,0.05658748,0.02125519,-0.153029,-1.37157,-2.637039,0.642688,1.476303,0.2987592,-0.0106424,-0.008868814,0.001910579,-0.951957,-0.01318891,0.03803819,0.7774472,1.464982,0.1617124,0.1964222,1.564849,0.2600596,296.5983,109.2978,143.2685,False
