loc,t,aDotUA,bDotUA,gDotUA,aUA,bUA,gUA,xUA,yUA,zUA,qE,qDotE,emgA,emgB,aDotSH,bDotSH,gDotSH,aSH,bSH,gSH,xSH,ySH,zSH,aDotUB,bDotUB,gDotUB,aUB,bUB,gUB,xUB,yUB,zUB,xHand,yHand,zHand,aHand,bHand,gHand,enable
1,0,0.04585421,-0.6365212,0.7477297,-1.143753,-4.163964,-2.8672,0.6912224,1.268664,0.4163451,-0.9928994,-0.01829075,28.6,24.7,-0.6464229,0.6826999,-0.1092613,-0.4914123,-3.560285,-0.8940333,0.7653202,1.43091,0.3034999,-0.3612032,0.3896933,0.08392105,-0.8032882,-0.2845066,0.02532213,0.8391281,1.466805,0.1268723,0.4663109,1.061711,0.2853138,313.4391,221.5259,15.85427,False
1,0.01111111,0.04494286,-0.6738557,0.7372395,-1.1491,-4.152334,-2.872481,0.6894796,1.267427,0.4151828,-0.9923156,0.05337332,29,25,-0.6967676,0.5117776,-0.05459577,-0.4903945,-3.558476,-0.8862324,0.763748,1.430633,0.3037424,-0.3811097,0.4248245,0.1097767,-0.8011358,-0.2764938,0.02459855,0.8388877,1.466809,0.1274581,0.4662384,1.059855,0.2826908,313.9358,220.6203,16.30302,False
1,0.02222222,0.04603517,-0.6802586,0.735131,-1.15493,-4.141741,-2.877346,0.6877021,1.266229,0.414124,-0.9918683,0.04044903,29,25,-0.7007565,0.3680651,-0.07355398,-0.490844,-3.561608,-0.8754711,0.7620857,1.430559,0.3040709,-0.4043956,0.4707592,0.1037453,-0.800012,-0.2671191,0.02332503,0.8386467,1.466839,0.1279671,0.4669149,1.057242,0.2791905,314.2355,220.3361,15.95476,False
1,0.03333334,0.04592729,-0.6599987,0.741446,-1.161482,-4.132157,-2.881467,0.685879,1.264909,0.4131837,-0.9915662,0.02726562,29,25,-0.6860301,0.3258161,-0.1261033,-0.4949144,-3.563287,-0.8670344,0.7601886,1.430248,0.3043292,-0.4224091,0.4878622,0.1071355,-0.7987326,-0.258894,0.0228398,0.8384537,1.466944,0.1284328,0.4683013,1.054055,0.2749747,314.6143,220.1257,15.14517,False
1,0.04444445,0.04895246,-0.6237294,0.7540703,-1.168443,-4.123604,-2.885309,0.6840205,1.263625,0.4122164,-0.9915172,0.004147259,29,25,-0.6841706,0.3282146,-0.1697839,-0.500057,-3.563396,-0.8593653,0.7582639,1.430047,0.304616,-0.429874,0.4761553,0.1124675,-0.797196,-0.2520934,0.02306724,0.8381888,1.467019,0.1289234,0.4702653,1.050547,0.270303,315.0719,219.8996,14.05128,False
1,0.05555556,0.05734339,-0.5906503,0.7592629,-1.17547,-4.115501,-2.889351,0.6821248,1.262408,0.4112861,-0.9911785,0.03083607,29,25,-0.7134129,0.3626112,-0.2343889,-0.5071415,-3.563486,-0.8503628,0.756055,1.429795,0.3048172,-0.4319683,0.4729331,0.1199233,-0.795491,-0.2451384,0.02307309,0.838006,1.467191,0.1294525,0.4725124,1.046982,0.2654768,315.5397,219.7052,12.75264,False
1,0.06666667,0.07220736,-0.5767286,0.7634844,-1.18242,-4.106649,-2.894037,0.6800981,1.261114,0.41029,-0.9912903,-0.01059037,34.2,30.7,-0.728576,0.4127543,-0.2531713,-0.514226,-3.560286,-0.8444732,0.7538763,1.429614,0.3050022,-0.4404504,0.4814956,0.1200226,-0.7939986,-0.2371412,0.02264273,0.8377399,1.467318,0.1300063,0.4746801,1.043567,0.2607622,315.9637,219.5826,11.4031,False
1,0.07777778,0.09037691,-0.5905672,0.7475699,-1.188296,-4.097308,-2.899114,0.6780903,1.260053,0.409353,-0.9916925,-0.03664033,34.2,30.7,-0.7413441,0.4828403,-0.2207306,-0.5210198,-3.551743,-0.8433278,0.7514571,1.429314,0.3050642,-0.4628686,0.4954984,0.1053248,-0.7932497,-0.2287388,0.02267575,0.8374885,1.467378,0.13063,0.4765023,1.040494,0.2563762,316.319,219.5226,10.1698,False
1,0.08888889,0.1000737,-0.6161692,0.7317098,-1.193918,-4.087213,-2.904319,0.6759022,1.259081,0.4084325,-0.9920626,-0.03356393,34.2,30.7,-0.7423,0.5868643,-0.1583345,-0.5282561,-3.538311,-0.8469377,0.7492673,1.428937,0.3050778,-0.4820436,0.5115936,0.09593186,-0.7924688,-0.2201921,0.0226121,0.8370987,1.467502,0.131259,0.4778464,1.037866,0.2524706,316.5565,219.479,9.193152,False
1,0.1,0.1044823,-0.6524338,0.7169478,-1.199168,-4.076415,-2.909626,0.6738548,1.258152,0.4074988,-0.9922363,-0.01565221,34.2,30.7,-0.7496288,0.6812705,-0.0938122,-0.5357811,-3.522852,-0.8516682,0.7471657,1.428718,0.3050225,-0.493663,0.5137306,0.1066748,-0.7908198,-0.2121597,0.0227117,0.8367251,1.467567,0.1317976,0.4787154,1.035658,0.249086,316.6688,219.4095,8.537764,False
1,0.1111111,0.09307083,-0.7293949,0.6693374,-1.202391,-4.063492,-2.914884,0.6718102,1.257488,0.4064858,-0.9920099,0.02072299,34.2,30.7,-0.7566031,0.6594887,-0.02253684,-0.5391389,-3.511914,-0.8525854,0.7451664,1.428502,0.304934,-0.4977971,0.5147281,0.1248208,-0.788685,-0.2043001,0.02282595,0.8363942,1.46767,0.1323617,0.4792447,1.033817,0.2462337,316.725,219.2877,8.138704,False
1,0.1222222,0.08894011,-0.7593618,0.6406889,-1.206209,-4.05233,-2.91979,0.6698736,1.25667,0.4055057,-0.9917527,0.02324032,40.1,44.4,-0.7381808,0.6262806,0.01549087,-0.5425333,-3.502912,-0.8527378,0.7432706,1.428358,0.3050296,-0.5116816,0.5094804,0.1217056,-0.7872789,-0.1965855,0.02339081,0.8359398,1.467858,0.1330085,0.4795275,1.03222,0.2438079,316.76,219.1723,7.909202,False
1,0.1333333,0.07622999,-0.7713801,0.5810923,-1.208786,-4.041907,-2.924033,0.6680126,1.256122,0.4047112,-0.990877,0.0798248,40.1,44.4,-0.6824772,0.574039,0.04252851,-0.5449989,-3.495422,-0.8536004,0.7414801,1.428253,0.3049376,-0.511888,0.4925064,0.1035249,-0.7866408,-0.1897385,0.0242574,0.8354653,1.467917,0.133564,0.4797796,1.030756,0.2416643,316.8079,219.0195,7.856644,False
1,0.1444445,0.0655576,-0.7598355,0.5512248,-1.212329,-4.032237,-2.927952,0.6661575,1.255352,0.4039147,-0.9910901,-0.01998076,40.1,44.4,-0.6653126,0.5335571,0.04533692,-0.5482064,-3.489434,-0.8518235,0.7398198,1.428298,0.3047588,-0.5056072,0.4733343,0.09807608,-0.7855989,-0.1831476,0.0249144,0.8349981,1.468047,0.1341348,0.480142,1.029312,0.2395967,316.9485,218.7365,7.914254,False
1,0.1555556,0.04618827,-0.70682,0.50945,-1.215173,-4.024987,-2.930363,0.66453,1.25492,0.4033475,-0.9907529,0.03091932,40.1,44.4,-0.6267213,0.4654275,0.05428727,-0.5497676,-3.484473,-0.8503929,0.7382722,1.428277,0.3048198,-0.4886247,0.4540574,0.102121,-0.7843217,-0.1771499,0.02556528,0.8346645,1.468201,0.1347241,0.4806433,1.027826,0.2374787,317.1049,218.4781,7.814851,False
1,0.1666667,0.03324181,-0.6686552,0.4826526,-1.218355,-4.017278,-2.932878,0.6627378,1.254359,0.4028292,-0.9907087,0.003796484,54,65.8,-0.5882525,0.4261444,0.05383401,-0.5522192,-3.478924,-0.8498664,0.7366375,1.42792,0.3050685,-0.480008,0.4593214,0.1106073,-0.7826428,-0.1695908,0.02512533,0.8341726,1.468367,0.1353617,0.4812728,1.026315,0.2353178,317.2975,218.2071,7.559134,False
1,0.1777778,0.01276246,-0.6039249,0.4408291,-1.220752,-4.011922,-2.934137,0.6611261,1.254061,0.4024792,-0.9901244,0.05338086,54,65.8,-0.5167825,0.3486841,0.03376935,-0.5534118,-3.477623,-0.8476293,0.7351674,1.427922,0.3051383,-0.456512,0.4527948,0.1210631,-0.7808516,-0.1625414,0.02436446,0.8337271,1.468551,0.1359921,0.4819562,1.024789,0.2331165,317.4902,217.9919,7.164979,False
1,0.1888889,-0.009831935,-0.5466188,0.4054669,-1.223509,-4.00664,-2.934988,0.6592654,1.254103,0.4021754,-0.9901153,0.000438931,54,65.8,-0.4890166,0.3179193,0.02809893,-0.5553596,-3.4739,-0.8463025,0.7334694,1.427901,0.3052323,-0.445913,0.4399586,0.1220003,-0.7793586,-0.1562611,0.02461799,0.8332175,1.468777,0.1364782,0.4826285,1.023386,0.2309902,317.7169,217.8027,6.679352,False
1,0.2,-0.02916043,-0.5053012,0.3616284,-1.225314,-4.001765,-2.935591,0.6575871,1.254023,0.4018304,-0.9898149,0.02764531,54,65.8,-0.4474029,0.3009908,0.02988217,-0.5573794,-3.46945,-0.8464509,0.7318447,1.427908,0.305244,-0.438699,0.416579,0.1016116,-0.7787999,-0.1507485,0.02535942,0.8327322,1.468924,0.1370027,0.4831524,1.022154,0.2289734,317.9219,217.5972,6.213867,False
1,0.2111111,-0.04839575,-0.487523,0.3029636,-1.225836,-3.996161,-2.936296,0.6556959,1.254069,0.4014146,-0.9895561,0.0235248,54,65.8,-0.4270085,0.3125778,0.06072422,-0.5591578,-3.462344,-0.8484291,0.7304214,1.427887,0.3051841,-0.424019,0.3952861,0.08012297,-0.7784175,-0.145679,0.02590563,0.8321556,1.468963,0.1374364,0.4834296,1.021237,0.2271839,318.1424,217.4305,5.728933,False
1,0.2222222,-0.06332946,-0.4823907,0.2593037,-1.226539,-3.990794,-2.936696,0.6539303,1.254166,0.4010932,-0.9896019,-0.004240317,81.6,86.4,-0.413014,0.3326545,0.09378621,-0.5610449,-3.45384,-0.8514549,0.7290516,1.427833,0.3051264,-0.4071762,0.377185,0.06181689,-0.7782571,-0.1405504,0.02618979,0.8316426,1.469108,0.1379147,0.4833225,1.020731,0.2256317,318.3358,217.2978,5.342854,False
1,0.2333333,-0.1059141,-0.4829085,0.1794041,-1.224829,-3.985033,-2.936056,0.6520475,1.25445,0.4007115,-0.9896445,-0.003713524,81.6,86.4,-0.4009808,0.3823096,0.1686012,-0.5626519,-3.440014,-0.8591225,0.7278409,1.427875,0.3050308,-0.3689017,0.3450195,0.07099695,-0.7770406,-0.1366306,0.02633334,0.8310111,1.469194,0.1383743,0.4827727,1.020614,0.2242832,318.399,217.0904,5.210088,False
1,0.2444444,-0.1581104,-0.4781402,0.1068973,-1.222472,-3.979297,-2.934628,0.6504679,1.254645,0.4001071,-0.9895992,0.004313152,81.6,86.4,-0.3802065,0.3446441,0.2407105,-0.5612782,-3.429541,-0.8643973,0.726755,1.428092,0.3050003,-0.3507238,0.3352979,0.08679756,-0.7755098,-0.1315185,0.02615038,0.8305013,1.46933,0.1388831,0.4817992,1.020819,0.2230976,318.3574,216.7881,5.28657,False
1,0.2555556,-0.211472,-0.4466787,0.03856275,-1.21983,-3.975591,-2.931778,0.6485988,1.255127,0.3997538,-0.9886197,0.08966021,81.6,86.4,-0.3530861,0.219918,0.266431,-0.5574843,-3.425871,-0.8644724,0.7256972,1.428307,0.3050492,-0.3251867,0.3191895,0.09187417,-0.774199,-0.1271778,0.02581429,0.8299838,1.469404,0.1393099,0.4805451,1.021297,0.2220667,318.2342,216.4629,5.474257,False
1,0.2666667,-0.2627747,-0.3949552,-0.0224069,-1.217218,-3.972861,-2.928461,0.6466069,1.255567,0.3992372,-0.9880061,0.0555524,100,100,-0.3220446,0.1539887,0.2615868,-0.5556334,-3.422453,-0.8646629,0.7245827,1.42862,0.3052194,-0.3094659,0.290459,0.07139535,-0.774085,-0.1236452,0.02630378,0.8294811,1.469562,0.1397204,0.4790269,1.021953,0.2211151,318.1307,216.0259,5.818057,False
1,0.2777778,-0.2948736,-0.3558042,-0.05561021,-1.214934,-3.97047,-2.92492,0.644601,1.256094,0.3988717,-0.9875726,0.03953937,100,100,-0.296414,0.1061833,0.2504951,-0.5539524,-3.418892,-0.865162,0.7235054,1.428819,0.3052053,-0.2958341,0.2595542,0.05944839,-0.7737543,-0.1208801,0.02728116,0.8289953,1.469571,0.140023,0.4773118,1.022766,0.2201613,318.0594,215.5672,6.197238,False
1,0.2888889,-0.3483945,-0.282771,-0.1156036,-1.211593,-3.970251,-2.919502,0.6425515,1.256802,0.3986206,-0.9877952,-0.02036169,100,100,-0.2995107,0.07527676,0.2524621,-0.5520254,-3.414699,-0.8652922,0.7223243,1.429034,0.3051493,-0.2799459,0.2499403,0.05183757,-0.7733197,-0.1170527,0.02722177,0.8285429,1.469667,0.1403911,0.4752935,1.023773,0.2191575,318.03,215.183,6.421641,False
1,0.3,-0.4029703,-0.2139794,-0.1734475,-1.207725,-3.971082,-2.912962,0.6402584,1.257524,0.3983006,-0.9881079,-0.02807171,100,100,-0.3110829,0.06978819,0.2748697,-0.5500647,-3.408235,-0.8667995,0.7211671,1.429208,0.3050854,-0.2671716,0.2445612,0.0527902,-0.7726107,-0.1132609,0.02705985,0.8280094,1.469783,0.1408417,0.4729054,1.025009,0.218073,317.9472,214.8498,6.623212,False
1,0.3111111,-0.4649149,-0.1686745,-0.2311836,-1.20339,-3.971288,-2.905722,0.6380336,1.25826,0.397851,-0.9874074,0.06449854,100,100,-0.3268569,0.07910758,0.3133818,-0.5479752,-3.399453,-0.870097,0.719908,1.429398,0.3049905,-0.2617752,0.2498401,0.05916613,-0.7716498,-0.1089607,0.0267416,0.8275487,1.469868,0.1411624,0.4702532,1.026544,0.2169825,317.7708,214.503,6.853216,False
1,0.3222222,-0.5289029,-0.1436174,-0.2920448,-1.198031,-3.97158,-2.897821,0.6355015,1.259097,0.3974001,-0.9870133,0.03582715,100,100,-0.3362252,0.1054291,0.3604832,-0.5459235,-3.388753,-0.8752628,0.7187607,1.429541,0.3049276,-0.2563631,0.2530008,0.06553192,-0.7706783,-0.104751,0.02635118,0.8269994,1.46989,0.141494,0.4672239,1.028396,0.2159269,317.5664,214.1257,7.079734,False
1,0.3333333,-0.5694038,-0.1354058,-0.3272478,-1.193166,-3.97144,-2.890337,0.6329913,1.260026,0.3967781,-0.9865541,0.04210143,100,100,-0.3340561,0.1277089,0.3765851,-0.5445679,-3.379075,-0.8798916,0.7175502,1.429681,0.3048284,-0.2509813,0.2561343,0.07296932,-0.7694959,-0.1005514,0.02590723,0.8264371,1.470011,0.1417658,0.4636629,1.030568,0.2149047,317.3172,213.7301,7.403813,False
1,0.3444445,-0.6334033,-0.1092594,-0.3795851,-1.187338,-3.972257,-2.881071,0.6304727,1.261107,0.3961842,-0.9864157,0.01264254,100,100,-0.3341039,0.1288163,0.3691517,-0.5431661,-3.371553,-0.8826309,0.7164335,1.429951,0.3046646,-0.2509675,0.2539923,0.07615158,-0.7685441,-0.09661043,0.02588033,0.8258899,1.469992,0.1420972,0.4596312,1.033086,0.2138965,317.0117,213.2795,7.936215,False
1,0.3555556,-0.7027962,-0.06711023,-0.4255956,-1.181437,-3.974758,-2.869998,0.6277232,1.262197,0.3954904,-0.9872077,-0.07206498,100,100,-0.3405412,0.1192827,0.3574145,-0.541671,-3.365043,-0.8842068,0.7152389,1.430124,0.3045607,-0.2467413,0.2475872,0.07502922,-0.7676812,-0.09296496,0.02586862,0.8253772,1.470048,0.142415,0.455184,1.035945,0.2128484,316.6617,212.7761,8.615335,False
1,0.3666667,-0.7594492,-0.0142272,-0.4631305,-1.1757,-3.978071,-2.858733,0.6249503,1.263371,0.3947253,-0.9863928,0.07549506,100,100,-0.3543989,0.0874047,0.3402609,-0.5396118,-3.36046,-0.8838257,0.7140547,1.4304,0.3043807,-0.2457369,0.2390812,0.07071899,-0.7670645,-0.08958621,0.02606942,0.824779,1.470216,0.1427817,0.4505445,1.039148,0.2117392,316.23,212.2682,9.388187,False
1,0.3777778,-0.8043713,0.03345096,-0.4835866,-1.170416,-3.982021,-2.846756,0.6221836,1.264394,0.3940415,-0.985694,0.06360796,100,100,-0.3670268,0.04471046,0.3475327,-0.5361769,-3.355575,-0.8835362,0.7128443,1.430585,0.3042488,-0.2426382,0.2305812,0.06213864,-0.766633,-0.08636805,0.02633653,0.8242188,1.470268,0.1430469,0.445737,1.042644,0.2105019,315.7946,211.729,10.14522,False
1,0.3888889,-0.868551,0.1023181,-0.5115942,-1.165045,-3.987459,-2.832919,0.6193504,1.265572,0.3933334,-0.9863736,-0.06212907,100,100,-0.3828571,0.01903695,0.3591946,-0.5329087,-3.349573,-0.8840904,0.7115894,1.43082,0.3040006,-0.2352239,0.227379,0.05780216,-0.7661467,-0.0827576,0.02611895,0.823632,1.470226,0.1433682,0.4406217,1.046417,0.209044,315.364,211.2085,10.82474,False
1,0.4,-0.9284754,0.1712382,-0.5321431,-1.159953,-3.993757,-2.818199,0.6164335,1.266719,0.3926098,-0.9865978,-0.01948815,100,100,-0.4211076,0.001835823,0.3689076,-0.5296692,-3.343516,-0.8833034,0.7102114,1.430902,0.3037539,-0.224472,0.2304826,0.06945778,-0.7648972,-0.07890427,0.02545476,0.8229747,1.470225,0.1435814,0.4352596,1.050523,0.207416,314.8336,210.667,11.52972,False
1,0.4111111,-0.971287,0.223217,-0.5451573,-1.155157,-4.000569,-2.803177,0.6134539,1.267771,0.3917909,-0.9859347,0.06118593,100,100,-0.4412988,-0.0003622472,0.3754161,-0.5269389,-3.336432,-0.88392,0.7088833,1.431013,0.3034613,-0.2200962,0.2389404,0.08010987,-0.7636226,-0.07471432,0.02470002,0.8224934,1.470332,0.1438224,0.4297366,1.054932,0.2056848,314.1807,210.1047,12.27528,False
1,0.4222222,-1.02481,0.287937,-0.5550149,-1.151041,-4.008325,-2.786786,0.6103129,1.269062,0.3909624,-0.9859491,-0.001419281,100,100,-0.4531041,0.007132292,0.3638172,-0.5249943,-3.330443,-0.8836201,0.707303,1.431114,0.3032076,-0.2167904,0.2495446,0.088646,-0.762357,-0.07017403,0.02370453,0.8217815,1.470478,0.1441123,0.4240298,1.059633,0.2038723,313.5124,209.5482,13.01535,False
1,0.4333333,-1.053732,0.3293301,-0.5647845,-1.146636,-4.016303,-2.770693,0.6072245,1.270154,0.3900979,-0.9865025,-0.05010053,100,100,-0.4851426,0.008200705,0.3512329,-0.522974,-3.324892,-0.8819777,0.7056375,1.43116,0.3029845,-0.2135171,0.2516215,0.09821935,-0.7608529,-0.0660444,0.0229711,0.8211025,1.47056,0.1443787,0.4181091,1.064618,0.2019898,312.8071,208.9824,13.79646,False
1,0.4444444,-1.099862,0.4080151,-0.5523467,-1.14404,-4.025836,-2.753061,0.60414,1.271158,0.3889143,-0.9861925,0.02919765,100,100,-0.5128632,0.009214222,0.3482248,-0.5205612,-3.318681,-0.8807476,0.7041343,1.431352,0.3028183,-0.2178621,0.2474175,0.08863118,-0.7603282,-0.06246138,0.02289653,0.8203281,1.4707,0.1446676,0.4119951,1.069857,0.2000531,312.0567,208.4205,14.61557,False
1,0.4555556,-1.124547,0.4537609,-0.5440228,-1.141268,-4.034928,-2.736106,0.6009221,1.272187,0.3879056,-0.9871294,-0.0855265,100,100,-0.5469928,-0.0152716,0.3312383,-0.5178469,-3.315197,-0.8766253,0.7024034,1.431446,0.3024642,-0.228545,0.2528203,0.08127239,-0.7596486,-0.05819153,0.02267415,0.8195885,1.470776,0.144963,0.4057122,1.075361,0.1980702,311.2946,207.8825,15.44999,False
1,0.4666667,-1.137445,0.4782186,-0.5377399,-1.138364,-4.043376,-2.719553,0.5979841,1.273019,0.3868451,-0.986885,0.02347569,100,100,-0.5810109,-0.03349221,0.3355985,-0.5145994,-3.310376,-0.8733288,0.7007319,1.431667,0.3020892,-0.2359434,0.2592182,0.08561075,-0.7584661,-0.05388174,0.02237668,0.818825,1.470765,0.1452227,0.3993228,1.081078,0.1960585,310.4472,207.3126,16.38595,False
1,0.4777778,-1.159975,0.5175855,-0.5283239,-1.136314,-4.05307,-2.701895,0.5946827,1.27389,0.3857963,-0.9878405,-0.08719324,100,100,-0.6297312,-0.05090159,0.3752058,-0.510104,-3.303292,-0.8707629,0.6988071,1.431758,0.3016808,-0.2432819,0.2816074,0.08895223,-0.7572901,-0.04823504,0.02123551,0.8180261,1.470875,0.1455071,0.3928391,1.086942,0.1939477,309.5542,206.8523,17.29284,False
1,0.4888889,-1.179263,0.5452173,-0.5220519,-1.134295,-4.062457,-2.684324,0.5913402,1.274659,0.3846283,-0.9885079,-0.06002817,100,100,-0.6551725,-0.0521394,0.3945407,-0.5064757,-3.295838,-0.8694054,0.6966932,1.43173,0.3011756,-0.2431637,0.2954147,0.09646432,-0.7559031,-0.04301152,0.0199785,0.8171206,1.470989,0.145889,0.3864667,1.092904,0.1918167,308.6042,206.248,18.32674,False
1,0.5,-1.189036,0.590014,-0.4998704,-1.133628,-4.072807,-2.666503,0.5879976,1.275348,0.3835158,-0.9883444,0.01561191,100,100,-0.6861535,-0.04044241,0.3852114,-0.5038935,-3.289742,-0.8660363,0.6946343,1.431783,0.3007238,-0.2589971,0.3039455,0.1115279,-0.7540416,-0.03759944,0.01941444,0.816183,1.471111,0.1461892,0.3803488,1.09883,0.1897037,307.6393,205.5174,19.42966,False
1,0.5111111,-1.195631,0.6358482,-0.4819506,-1.133336,-4.083325,-2.648555,0.5847444,1.276161,0.3823845,-0.9886138,-0.02455596,100,100,-0.7172502,0.003241062,0.3707549,-0.502848,-3.282127,-0.8636448,0.692373,1.431749,0.3003302,-0.2675973,0.2954702,0.1062107,-0.7531835,-0.03352973,0.01969008,0.8154866,1.471211,0.1464458,0.374287,1.104605,0.1875305,306.7451,204.8432,20.37436,False
1,0.5222223,-1.192747,0.7062989,-0.4492149,-1.134647,-4.095158,-2.630302,0.5815066,1.276879,0.3813884,-0.9891034,-0.04431639,93.5,93.1,-0.7355264,0.03735858,0.3582818,-0.5018067,-3.274604,-0.8615127,0.690029,1.431803,0.2999475,-0.2772118,0.2955356,0.1019937,-0.7523691,-0.02871021,0.01951192,0.8145587,1.471348,0.1467557,0.3682342,1.110209,0.1853023,305.9195,204.2109,21.24429,False
1,0.5333334,-1.179246,0.7916996,-0.4197353,-1.13727,-4.108396,-2.612226,0.5782422,1.277359,0.3802316,-0.989351,-0.02207486,93.5,93.1,-0.7472973,0.07137448,0.364947,-0.5004389,-3.265399,-0.8608812,0.6876279,1.431751,0.2994833,-0.2889811,0.2924115,0.0967375,-0.7514088,-0.02415061,0.01976305,0.8136117,1.471474,0.1471133,0.3622324,1.115698,0.1830949,305.1284,203.7008,21.99172,False
1,0.5444446,-1.158286,0.87713,-0.3913084,-1.140756,-4.1221,-2.5944,0.5748388,1.278022,0.3790934,-0.9898149,-0.04213591,93.5,93.1,-0.7494894,0.09589183,0.3651139,-0.4993177,-3.256297,-0.8605148,0.6853465,1.431727,0.2989867,-0.2962388,0.3126298,0.1117732,-0.7496729,-0.01810017,0.01876596,0.8124721,1.47168,0.1474869,0.3563451,1.121163,0.1809847,304.3793,203.2789,22.65222,False
1,0.5555557,-1.140347,0.9166864,-0.3733574,-1.143735,-4.134872,-2.576984,0.5715454,1.278519,0.3779569,-0.9907492,-0.08489212,93.5,93.1,-0.7579352,0.09366834,0.3768702,-0.4970599,-3.24766,-0.8594127,0.6829636,1.431718,0.2984507,-0.3131087,0.339299,0.1205256,-0.7479488,-0.01123388,0.01779977,0.8114526,1.4718,0.1478677,0.3504964,1.126674,0.1790057,303.5811,202.9729,23.20502,False
1,0.5666668,-1.118196,0.9616631,-0.3393966,-1.148474,-4.147599,-2.559818,0.5682592,1.279029,0.3770783,-0.991301,-0.04972934,93.5,93.1,-0.7864714,0.09230351,0.4143213,-0.4938577,-3.236981,-0.8590103,0.6804513,1.431775,0.2978518,-0.3277584,0.3691239,0.1388526,-0.7458124,-0.003666374,0.01632171,0.8104527,1.471836,0.1483026,0.3445357,1.132238,0.177159,302.7079,202.7585,23.70727,False
1,0.577778,-1.100179,0.9821253,-0.3032548,-1.153216,-4.15953,-2.543396,0.5648659,1.279331,0.375921,-0.9913143,-0.0008711641,80.6,81.7,-0.8044802,0.10597,0.4368855,-0.4914326,-3.22554,-0.8594788,0.6779451,1.431727,0.2972577,-0.3318681,0.385073,0.1506661,-0.7436243,0.003430551,0.01494433,0.8093779,1.471932,0.1486754,0.3384425,1.137873,0.1755091,301.8079,202.5351,24.27999,False
1,0.5888891,-1.079961,0.9812329,-0.2872154,-1.157661,-4.171113,-2.527036,0.5614206,1.279744,0.3749957,-0.9914501,-0.01254145,80.6,81.7,-0.8214357,0.08245593,0.4421616,-0.4883066,-3.217432,-0.8570279,0.6754739,1.431603,0.2966919,-0.3286927,0.3819446,0.1484704,-0.7423327,0.01058473,0.01332087,0.8085319,1.47223,0.1490147,0.3323534,1.143545,0.1741254,300.8923,202.2225,25.01587,False
1,0.6000003,-1.053307,0.9749864,-0.2775933,-1.161637,-4.182352,-2.511705,0.5579489,1.280014,0.3738778,-0.9917756,-0.02960275,80.6,81.7,-0.8373146,0.04512286,0.443096,-0.4844237,-3.210558,-0.8532041,0.6729192,1.431582,0.296113,-0.3277116,0.3691772,0.1441515,-0.7408222,0.01602437,0.01295282,0.8074354,1.472293,0.1492977,0.3263431,1.149217,0.1729954,299.9282,202.0164,25.7232,False
1,0.6111114,-1.01388,0.9731058,-0.253118,-1.166234,-4.192903,-2.497871,0.5546408,1.279822,0.3722293,-0.9915982,0.01635765,80.6,81.7,-0.8541743,0.0002841353,0.4536013,-0.4796737,-3.20381,-0.8492408,0.6703533,1.43155,0.295532,-0.331908,0.3787992,0.1505671,-0.7391976,0.02334141,0.01172537,0.8061152,1.472399,0.1495838,0.3203792,1.154771,0.1719714,298.9627,201.7831,26.51384,False
1,0.6222225,-0.9756215,0.9936178,-0.2191358,-1.172023,-4.203794,-2.484195,0.5513988,1.279726,0.3709173,-0.9923156,-0.06585784,68.1,68.7,-0.8381341,-0.01033932,0.4577222,-0.4759623,-3.19548,-0.8480296,0.6677824,1.431489,0.2948549,-0.3360282,0.3883383,0.1665956,-0.7368871,0.03013819,0.01067262,0.8048465,1.472585,0.149895,0.3145051,1.160153,0.1710065,298.072,201.4631,27.33888,False
1,0.6333337,-0.9321275,1.037601,-0.1873479,-1.179276,-4.215663,-2.470793,0.5480541,1.279684,0.369818,-0.9934049,-0.09914355,68.1,68.7,-0.8054109,0.03998691,0.4290643,-0.4751031,-3.18622,-0.8484562,0.6651121,1.431366,0.2942779,-0.3391561,0.3883325,0.176182,-0.7347342,0.03672366,0.009724799,0.8035659,1.472691,0.1502914,0.3086993,1.165281,0.1700089,297.1828,201.0682,28.27841,False
1,0.6444448,-0.8822339,1.078424,-0.1523735,-1.186929,-4.227384,-2.457994,0.5448613,1.279679,0.3686604,-0.993497,-0.00778261,68.1,68.7,-0.791661,0.0613727,0.4216529,-0.4732997,-3.176781,-0.8484977,0.6624944,1.431283,0.2936993,-0.3409715,0.4063231,0.2082049,-0.731426,0.04428744,0.007804393,0.8021183,1.472708,0.1508038,0.3030789,1.170007,0.1689002,296.2519,200.7212,29.20677,False
1,0.655556,-0.8259227,1.113932,-0.1216112,-1.195301,-4.238997,-2.446358,0.5417278,1.27966,0.3675776,-0.9937633,-0.02454867,68.1,68.7,-0.736451,0.1063477,0.4077626,-0.4730237,-3.165398,-0.8525277,0.6599612,1.431082,0.2930179,-0.3365794,0.4243844,0.2157043,-0.7287405,0.05224323,0.005492503,0.8008114,1.472838,0.1512341,0.2977705,1.174295,0.1677494,295.3964,200.604,29.71321,False
1,0.6666671,-0.7801546,1.12167,-0.09712803,-1.203001,-4.249617,-2.435163,0.538797,1.279544,0.36673,-0.9939194,-0.01429386,68.1,68.7,-0.7257673,0.08615363,0.4043788,-0.470311,-3.157809,-0.851619,0.6574332,1.430992,0.2923639,-0.3387708,0.4244223,0.2061379,-0.7268049,0.05908462,0.004139351,0.7996169,1.472933,0.1516135,0.2926764,1.178219,0.1666483,294.6432,200.7649,29.76049,False
1,0.6777782,-0.7589081,1.135661,-0.08333117,-1.211167,-4.260527,-2.423615,0.5357839,1.279426,0.3657339,-0.9945889,-0.06139433,58.3,56.5,-0.7224619,0.07542181,0.4170814,-0.4671238,-3.148863,-0.851758,0.6549718,1.430893,0.2917719,-0.3399469,0.4127434,0.1975763,-0.7248943,0.06534491,0.003266367,0.7983052,1.473063,0.1520026,0.2877371,1.181892,0.1656938,293.978,201.1053,29.60601,False
1,0.6888894,-0.726921,1.131633,-0.05882168,-1.219224,-4.270422,-2.413235,0.532867,1.279266,0.3648236,-0.9942443,0.03172683,58.3,56.5,-0.7085384,0.07859087,0.4287536,-0.464018,-3.138825,-0.8531391,0.6524709,1.430651,0.2913237,-0.3326489,0.3850293,0.1909728,-0.7234211,0.06991836,0.003118029,0.7969475,1.473212,0.1523604,0.282957,1.185391,0.1649938,293.3145,201.4488,29.48544,False
1,0.7000005,-0.6991019,1.099903,-0.03203875,-1.227077,-4.278925,-2.40345,0.5300477,1.279064,0.364054,-0.9934784,0.06939239,58.3,56.5,-0.6755835,0.07873672,0.4168428,-0.4621341,-3.130075,-0.8546838,0.6500633,1.430771,0.2908227,-0.327338,0.3818107,0.1909232,-0.7212762,0.07622313,0.001840777,0.7955674,1.473401,0.1528594,0.278328,1.188737,0.1645907,292.6571,201.757,29.46274,False
1,0.7111117,-0.6799241,1.096859,-0.01283312,-1.235672,-4.287978,-2.393489,0.527104,1.278665,0.3631811,-0.9946496,-0.1066469,58.3,56.5,-0.6299348,0.05881834,0.3823512,-0.4601138,-3.125179,-0.8537745,0.6476287,1.430634,0.2903943,-0.327338,0.3818107,0.1909231,-0.7191451,0.08266452,0.0006434197,0.7942657,1.473533,0.1532643,0.2736605,1.192033,0.164367,292.0385,202.2665,29.32634,True
1,0.7222228,-0.6469005,1.092886,0.02557182,-1.245159,-4.296128,-2.384766,0.524415,1.278345,0.3625982,-0.9960046,-0.1215336,58.3,56.5,-0.5937684,0.04090047,0.3660385,-0.4576882,-3.119614,-0.8534875,0.6451688,1.430454,0.2900221,-0.3123628,0.3806449,0.200392,-0.7166071,0.08901429,-0.001296427,0.7924976,1.473704,0.1536922,0.2690748,1.195374,0.1642891,291.4123,202.7875,29.25204,True
1,0.7333339,-0.5839091,1.053919,0.07369512,-1.254066,-4.302385,-2.378392,0.5217978,1.278049,0.361737,-0.9978257,-0.1637061,50.3,48.2,-0.5557867,0.022237,0.2985835,-0.4566613,-3.117976,-0.8498648,0.6428522,1.430272,0.2896183,-0.3048824,0.3774191,0.2034985,-0.7144723,0.09540575,-0.003038667,0.7907749,1.473544,0.1540389,0.2646446,1.19881,0.1642486,290.7434,203.2351,29.2744,True
1,0.7444451,-0.54866,1.028577,0.09405404,-1.262661,-4.30921,-2.371332,0.5191103,1.277805,0.3608098,-1.001106,-0.2964642,50.3,48.2,-0.5358193,0.005542457,0.2472345,-0.4554698,-3.116771,-0.8454713,0.6404016,1.430111,0.2893121,-0.2964161,0.3667344,0.2023338,-0.7122784,0.1010493,-0.004359328,0.7892774,1.473797,0.1545935,0.2603237,1.202397,0.1641331,290.006,203.6876,29.24003,True
1,0.7555562,-0.4973207,0.9745609,0.1209302,-1.270598,-4.314389,-2.365964,0.5165479,1.277563,0.3597677,-1.005586,-0.4048905,50.3,48.2,-0.5170037,-0.009992957,0.1820389,-0.4552253,-3.118767,-0.8386939,0.6380717,1.429987,0.2889254,-0.2901598,0.3475578,0.1936642,-0.7107503,0.1055409,-0.004885569,0.7876715,1.474078,0.1549609,0.2563477,1.206151,0.1639777,289.1863,204.1209,29.20287,True
1,0.7666674,-0.4364064,0.9290883,0.1424574,-1.278531,-4.319742,-2.361359,0.5139921,1.277319,0.3588288,-1.008107,-0.2248818,50.3,48.2,-0.5256149,0.003886938,0.1725924,-0.454478,-3.115185,-0.8358089,0.6357434,1.430029,0.2886071,-0.2806962,0.3294317,0.1871347,-0.7089404,0.1101663,-0.005604356,0.7861226,1.474257,0.1553931,0.252745,1.209942,0.163648,288.3036,204.2327,29.4838,True
1,0.7777785,-0.4104691,0.8354312,0.139662,-1.284068,-4.323323,-2.356627,0.5114695,1.27713,0.3577466,-1.012287,-0.3782051,43.4,42.5,-0.5275666,0.02284592,0.2089462,-0.4527017,-3.106807,-0.8372691,0.6336197,1.429857,0.2883091,-0.2679859,0.3144211,0.1858981,-0.707154,0.1139171,-0.006056295,0.7848072,1.474599,0.1559389,0.2493619,1.213679,0.1630317,287.4576,204.1412,29.87013,True
1,0.7888896,-0.3666036,0.7887629,0.1462649,-1.290517,-4.327404,-2.352712,0.5090375,1.276975,0.3567171,-1.01635,-0.3659483,43.4,42.5,-0.5189235,0.04082799,0.2345734,-0.4512354,-3.099447,-0.8385826,0.631463,1.429945,0.2879579,-0.2636632,0.3132917,0.1912088,-0.7046213,0.1187872,-0.007423828,0.7828655,1.474542,0.1563799,0.246257,1.217246,0.1621342,286.6401,203.8025,30.38353,True
1,0.8000008,-0.3205187,0.7196422,0.1327207,-1.29526,-4.330792,-2.349779,0.5066594,1.27686,0.3556941,-1.018965,-0.2339563,43.4,42.5,-0.5081562,0.06093121,0.2591497,-0.4496167,-3.091192,-0.8409078,0.6292355,1.429935,0.2875874,-0.2499099,0.3100826,0.179382,-0.703099,0.1239414,-0.009082977,0.7812989,1.474713,0.1567583,0.2433909,1.220519,0.1610257,285.8687,203.2461,30.98775,True
1,0.8111119,-0.2785669,0.6174988,0.1235743,-1.298481,-4.332538,-2.347636,0.5042308,1.276808,0.3547161,-1.022609,-0.32965,43.4,42.5,-0.4976158,0.07700866,0.2474639,-0.4490367,-3.084964,-0.8413512,0.6270412,1.429794,0.287173,-0.2318514,0.2961291,0.1792093,-0.7011746,0.1277951,-0.01027847,0.780107,1.47528,0.157079,0.2407077,1.223403,0.1597277,285.2497,202.5706,31.64455,True
1,0.8222231,-0.2378787,0.5676222,0.1302005,-1.303478,-4.335008,-2.345526,0.501665,1.276576,0.3538785,-1.025819,-0.2893278,43.4,42.5,-0.4892667,0.08784181,0.2176563,-0.44892,-3.081165,-0.8402457,0.6248683,1.429578,0.2869337,-0.2265211,0.2864724,0.1844933,-0.6986217,0.1319586,-0.01122762,0.7788056,1.475293,0.1574454,0.2381727,1.225876,0.1583593,284.7208,202.0741,32.04304,True
1,0.8333342,-0.3804672,0.5265632,0.126063,-1.307576,-4.337241,-2.336443,0.499589,1.276125,0.3533123,-1.028142,-0.209104,39.1,38.7,-0.463053,0.1021352,0.1557912,-0.4503171,-3.079034,-0.8378552,0.6225902,1.429471,0.2866306,-0.2159162,0.2650952,0.190725,-0.6963543,0.1354293,-0.01185986,0.7772498,1.475491,0.157742,0.2357628,1.227875,0.157037,284.3017,201.4812,32.52612,True
1,0.8444453,-0.4497509,0.5348709,0.1377191,-1.313532,-4.340466,-2.328258,0.4972686,1.27578,0.3527033,-1.029959,-0.1635565,39.1,38.7,-0.4377172,0.1087902,0.1215957,-0.4508838,-3.07598,-0.8365018,0.6204352,1.429353,0.28596,-0.2148437,0.2607656,0.1950103,-0.6935793,0.1391109,-0.01234721,0.7759963,1.475951,0.1579871,0.2333956,1.22936,0.1557927,283.9909,200.9868,32.89491,True
1,0.8555565,-0.3965085,0.5383959,0.1664857,-1.319896,-4.342693,-2.32497,0.494963,1.275401,0.3520775,-1.024454,0.5054917,39.1,38.7,-0.3974979,0.1261523,0.08629581,-0.4524929,-3.073353,-0.8357412,0.6182877,1.429278,0.2856309,-0.2158888,0.2532828,0.2024444,-0.6911478,0.1431341,-0.01303564,0.7745112,1.476201,0.1582239,0.2309759,1.230361,0.1547161,283.6923,200.9998,32.73697,True
1,0.8666676,-0.2781253,0.5058417,0.1677216,-1.324391,-4.344552,-2.325737,0.4928786,1.275082,0.3514316,-1.026516,-0.191878,39.1,38.7,-0.3506649,0.1082497,0.07311739,-0.452633,-3.071084,-0.8352075,0.6162794,1.429331,0.2852094,-0.2170066,0.2405055,0.2034922,-0.6885949,0.1469721,-0.0134748,0.7729066,1.476501,0.1584539,0.2284223,1.23124,0.1537773,283.6447,202.1967,31.47144,True
1,0.8777788,-0.1906702,0.4805994,0.1635957,-1.328778,-4.346472,-2.326076,0.4907489,1.274804,0.3507633,-1.032859,-0.5768427,36.8,34.4,-0.3314168,0.08697331,0.07606417,-0.452185,-3.069119,-0.8339484,0.6141496,1.429265,0.284831,-0.2223646,0.2191877,0.2119651,-0.6859733,0.1496959,-0.0129632,0.7714223,1.476744,0.1586099,0.2256683,1.232507,0.1529392,283.617,203.7606,29.90903,True
1,0.8888899,-0.0978415,0.4447477,0.16378,-1.332805,-4.34784,-2.327625,0.4888095,1.27456,0.3501799,-1.038297,-0.4916997,36.8,34.4,-0.3164625,0.0890857,0.08451381,-0.4519629,-3.065214,-0.8342043,0.6122249,1.429089,0.2845163,-0.2170841,0.1989024,0.2182603,-0.6830134,0.1523837,-0.01276666,0.7695965,1.476833,0.1587584,0.223064,1.234186,0.1523234,283.2888,204.4044,29.37495,True
1,0.900001,-0.07105063,0.4053831,0.15117,-1.335996,-4.349164,-2.32748,0.4870323,1.274231,0.3496478,-1.038669,-0.03017127,36.8,34.4,-0.303842,0.1370901,0.07834438,-0.4537627,-3.059235,-0.836489,0.6101924,1.428939,0.2841477,-0.2150123,0.1903581,0.2150609,-0.6801708,0.1551611,-0.01264203,0.7679518,1.476875,0.1590261,0.2208333,1.235884,0.1520064,282.6861,203.6661,30.26309,True
1,0.9111122,-0.09326655,0.3700893,0.1385299,-1.339002,-4.350451,-2.325223,0.4853041,1.273831,0.3492827,-1.039742,-0.09830235,36.8,34.4,-0.2954028,0.2020154,0.09147221,-0.4560541,-3.050257,-0.8415394,0.6082814,1.428845,0.2837536,-0.2097117,0.1860787,0.2139404,-0.677857,0.1582807,-0.01292805,0.7665006,1.477054,0.1592448,0.21878,1.237259,0.1518933,282.0577,202.7918,31.27831,True
1,0.9222233,-0.1017445,0.3593906,0.1353763,-1.342684,-4.352039,-2.323423,0.4836464,1.273486,0.3489013,-1.038152,0.1462242,36.8,34.4,-0.2910713,0.2370104,0.1182914,-0.4572445,-3.041288,-0.8463718,0.6062829,1.4288,0.2836025,-0.2022371,0.1870905,0.2149765,-0.6751635,0.161411,-0.013523,0.7646786,1.477182,0.1595733,0.2168646,1.238054,0.151926,281.5522,202.2808,31.94157,True
1,0.9333345,-0.1070181,0.345539,0.1396937,-1.346323,-4.353188,-2.321812,0.4820199,1.273141,0.3485754,-1.035959,0.1992828,33.7,30.4,-0.2484115,0.2466348,0.1298034,-0.4583652,-3.03322,-0.8522174,0.6046313,1.42877,0.2834957,-0.1926946,0.192416,0.2053433,-0.6732615,0.1651104,-0.01457761,0.7632937,1.477361,0.1598363,0.2149651,1.238203,0.1519894,281.3025,202.5668,31.80516,True
1,0.9444456,-0.0983969,0.3232321,0.1461916,-1.349864,-4.353838,-2.321072,0.4802512,1.272732,0.3482528,-1.036538,-0.05440367,33.7,30.4,-0.2218705,0.2032285,0.09635621,-0.4589383,-3.032097,-0.8516076,0.6029128,1.428676,0.2834697,-0.1842481,0.1913247,0.1946745,-0.670911,0.1680276,-0.01518268,0.7618041,1.477376,0.1601686,0.2129817,1.237911,0.1519842,281.3189,203.9285,30.55855,True
1,0.9555568,-0.06417397,0.2882504,0.1559369,-1.352788,-4.353729,-2.321491,0.478756,1.272433,0.347919,-1.037024,-0.04350761,33.7,30.4,-0.1996122,0.107756,0.03917064,-0.4584541,-3.037241,-0.8455036,0.6013371,1.428623,0.283443,-0.1663125,0.1806717,0.1763919,-0.6696374,0.1706508,-0.01603702,0.7604477,1.477531,0.1603866,0.210961,1.237457,0.1518967,281.4413,205.8317,28.74752,True
1,0.9666679,-0.02037279,0.2575268,0.1550191,-1.355414,-4.353839,-2.322769,0.4772079,1.272089,0.3475742,-1.038055,-0.09378207,33.7,30.4,-0.1889553,0.05041195,0.0131862,-0.4579172,-3.040288,-0.8412327,0.5997426,1.428552,0.2835305,-0.1386961,0.1624214,0.1729885,-0.6670313,0.1721345,-0.01680987,0.7591491,1.47777,0.1604967,0.2089788,1.237046,0.151721,281.5437,207.5861,27.07133,True
1,0.977779,0.05865088,0.208808,0.1499221,-1.356896,-4.353156,-2.326385,0.4758502,1.271697,0.3471987,-1.03927,-0.1102482,28.2,26.1,-0.1816866,0.02192281,-0.02858188,-0.458485,-3.044512,-0.8356523,0.5982345,1.428401,0.2834172,-0.1099225,0.1324025,0.1918374,-0.664122,0.1733101,-0.01746208,0.7577711,1.477943,0.1605542,0.2071224,1.236767,0.1514503,281.5469,208.8615,25.86595,True
1,0.9888902,0.1355362,0.164297,0.1341616,-1.357938,-4.352715,-2.330573,0.4745662,1.271213,0.3468387,-1.040275,-0.09104919,28.2,26.1,-0.1690611,0.03273831,-0.05202412,-0.4599199,-3.045162,-0.8338746,0.5966237,1.428208,0.2832711,-0.0961685,0.1078135,0.1927271,-0.6615351,0.1735659,-0.01710868,0.7561421,1.477893,0.1606469,0.2055699,1.236588,0.1511065,281.4622,209.59,25.18888,True
1,1.000001,0.1388909,0.1301293,0.1129776,-1.359094,-4.352713,-2.332519,0.4733495,1.270728,0.346518,-1.042352,-0.1893716,28.2,26.1,-0.1733558,0.07852697,-0.04760636,-0.4612451,-3.043595,-0.8332949,0.595138,1.427989,0.2829831,-0.08565992,0.07689403,0.1903924,-0.659421,0.1735168,-0.01647351,0.7548047,1.47801,0.1605871,0.2042838,1.236409,0.150687,281.3028,209.7779,24.99799,True
1,1.011112,0.1219108,0.1108307,0.09815797,-1.359497,-4.35259,-2.332941,0.4724427,1.270164,0.3462887,-1.042836,-0.04290377,28.2,26.1,-0.1787676,0.1475913,-0.02354627,-0.4643722,-3.03459,-0.8390598,0.5936269,1.427805,0.2822878,-0.07720129,0.05658112,0.1934541,-0.6569459,0.1730519,-0.01556058,0.7534009,1.478077,0.1606138,0.2033194,1.235993,0.1502423,281.0862,209.3642,25.36264,True
1,1.022224,0.1027083,0.1192544,0.09279852,-1.36143,-4.352991,-2.333474,0.4714049,1.269671,0.3460984,-1.040338,0.2283191,28.2,26.1,-0.167021,0.245364,0.02066059,-0.4677193,-3.022206,-0.8486477,0.5923988,1.427419,0.2819378,-0.07516646,0.0651767,0.1743098,-0.6555451,0.1749327,-0.01631799,0.7522023,1.478208,0.1607745,0.202516,1.235122,0.1497925,280.9205,208.9619,25.64317,True
1,1.033335,0.09202033,0.1277618,0.09915149,-1.363573,-4.353237,-2.334093,0.4704005,1.269149,0.3459196,-1.03832,0.1823842,22.3,22.3,-0.1447252,0.2592971,0.01528895,-0.4702114,-3.017279,-0.8522166,0.5911216,1.427142,0.2817965,-0.07822599,0.1067521,0.1691651,-0.6541634,0.1789425,-0.01853347,0.7509741,1.478234,0.1610041,0.2016755,1.233801,0.1493523,280.9661,209.3573,25.10889,True
1,1.044446,0.08767843,0.1490763,0.1065235,-1.366298,-4.353727,-2.334938,0.4695005,1.268694,0.3456979,-1.038359,-0.004957587,22.3,22.3,-0.1341625,0.1967042,-0.02350334,-0.4710338,-3.020099,-0.848379,0.5900676,1.426925,0.2819023,-0.0610622,0.1503813,0.1607146,-0.6526007,0.1838633,-0.02226509,0.7499526,1.478513,0.1612182,0.2007855,1.232225,0.148965,281.2416,210.4708,23.87936,True
1,1.055557,0.0833389,0.168288,0.1192258,-1.369319,-4.354191,-2.335602,0.4686187,1.268151,0.3455982,-1.038514,-0.01381658,22.3,22.3,-0.1193751,0.1331069,-0.06979583,-0.4720528,-3.025121,-0.8430902,0.5888726,1.426681,0.2819476,-0.05468409,0.1471588,0.1606549,-0.650843,0.1864554,-0.02393436,0.7488076,1.478628,0.1612899,0.1997527,1.230676,0.1486485,281.5729,212.1138,22.14603,True
1,1.066668,0.08542448,0.1800482,0.1277027,-1.372195,-4.354591,-2.336622,0.4676868,1.267686,0.3454847,-1.038859,-0.03140105,22.3,22.3,-0.08235584,0.04843882,-0.1451183,-0.4730972,-3.035389,-0.8341305,0.5877548,1.426412,0.2820501,-0.02604923,0.1044033,0.166664,-0.6486843,0.1858946,-0.02428217,0.7476124,1.478439,0.1613255,0.1986457,1.229341,0.1484381,281.8407,213.7698,20.47516,True
1,1.077779,0.08751994,0.1886054,0.1340596,-1.375123,-4.355029,-2.337584,0.4668833,1.267203,0.3453429,-1.038741,0.01098697,22.3,22.3,-0.0472737,0.01884521,-0.1689578,-0.4742887,-3.041183,-0.82969,0.5867566,1.426229,0.2820034,-0.01352614,0.05428534,0.1599821,-0.6468611,0.1838289,-0.02278627,0.746716,1.478629,0.161268,0.1975628,1.228326,0.1483525,281.9829,215.1821,19.10539,True
1,1.08889,0.09391663,0.1864781,0.1298105,-1.377376,-4.355413,-2.338709,0.4661036,1.266765,0.3451426,-1.039082,-0.03126162,15.3,32.5,-0.04171877,0.02818169,-0.1263184,-0.4746935,-3.039508,-0.8305992,0.5857767,1.426252,0.2820847,-0.006169841,0.03936384,0.1545373,-0.6453425,0.1837304,-0.02289014,0.7456738,1.478694,0.1612778,0.1965413,1.227656,0.148383,281.9888,216.2826,18.06544,True
1,1.100002,0.09287951,0.1800257,0.1149213,-1.379218,-4.356147,-2.339526,0.4654184,1.266277,0.3450158,-1.039073,0.001102124,15.3,32.5,-0.05621215,0.04260801,-0.05262832,-0.4741497,-3.034956,-0.8334373,0.5848658,1.426022,0.2820003,0.00546132,0.04365223,0.1395603,-0.6443049,0.1851901,-0.02456287,0.7446358,1.478794,0.161428,0.1955723,1.227292,0.1484887,281.8842,217.0812,17.34801,True
1,1.111113,0.08755255,0.1809938,0.09680783,-1.381054,-4.357197,-2.340087,0.4646637,1.265803,0.3448842,-1.039205,-0.01215963,15.3,32.5,-0.08166727,0.0604922,-0.02678511,-0.4746435,-3.032089,-0.8341526,0.5838314,1.425749,0.2818389,0.01303536,0.0766439,0.1375069,-0.6430799,0.1883559,-0.02746917,0.7435462,1.478757,0.161597,0.1946852,1.227143,0.1486317,281.7056,217.684,16.85768,True
1,1.122224,0.07690689,0.1808697,0.07763745,-1.382765,-4.35833,-2.340436,0.4639153,1.265236,0.3445599,-1.038965,0.02204254,15.3,32.5,-0.1062503,0.08281941,-0.02968153,-0.476244,-3.030476,-0.8334996,0.5828182,1.425435,0.2817128,0.01634717,0.09577234,0.142908,-0.6411097,0.1911182,-0.0299097,0.7426748,1.478947,0.1616976,0.1938766,1.22709,0.1487614,281.4988,217.9599,16.69091,True
1,1.133335,0.07156138,0.1861532,0.07228734,-1.384832,-4.359458,-2.340856,0.4631069,1.264746,0.3444295,-1.038742,0.02023375,11,61.5,-0.08729999,0.07883672,-0.06711247,-0.4781812,-3.03263,-0.8312557,0.5817385,1.425143,0.2816267,0.007861346,0.09898913,0.1461792,-0.6393824,0.1932495,-0.0314277,0.7416738,1.478995,0.1616893,0.1931188,1.227024,0.1488721,281.3053,218.0478,16.65679,True
1,1.144446,0.06198136,0.1860807,0.06377644,-1.386807,-4.360492,-2.341174,0.4622096,1.264352,0.3445003,-1.038553,0.01709662,11,61.5,-0.06933636,0.05989973,-0.09716916,-0.4796023,-3.035868,-0.8281549,0.5807151,1.42485,0.2816384,-0.002872378,0.08519645,0.1430072,-0.6378217,0.1940404,-0.0316775,0.740589,1.478951,0.1615279,0.1922912,1.226885,0.1489456,281.1401,218.2169,16.52269,True
1,1.155557,0.05672487,0.1679547,0.06491523,-1.38824,-4.360848,-2.341562,0.4613314,1.264006,0.3444402,-1.038648,-0.008745034,11,61.5,-0.04268317,0.05144538,-0.09738971,-0.4805706,-3.037247,-0.8273411,0.5797086,1.424655,0.2815323,0.003517881,0.07663905,0.1471865,-0.6360161,0.1953639,-0.03303358,0.7395311,1.47903,0.1615338,0.1913565,1.226631,0.1489687,281.0207,218.5611,16.22476,True
1,1.166668,0.05251177,0.156215,0.0628302,-1.389652,-4.361375,-2.341943,0.4605038,1.26374,0.3443818,-1.038589,0.005568697,11,61.5,-0.03193618,0.05243887,-0.08146903,-0.4811927,-3.036632,-0.8277973,0.578762,1.42457,0.281558,0.01202255,0.07766826,0.1449914,-0.6346265,0.1967189,-0.03447888,0.7385986,1.479027,0.1615498,0.1903577,1.22626,0.1489961,280.9743,219.1039,15.6756,True
1,1.17778,0.04840404,0.1167787,0.06192724,-1.390048,-4.360805,-2.342428,0.4596035,1.263592,0.3442798,-1.038574,0.001253447,11,61.5,-0.02753457,0.05548944,-0.05590245,-0.4815022,-3.034964,-0.8288713,0.5778341,1.424428,0.2814906,0.01840815,0.0787303,0.1428237,-0.633109,0.1987333,-0.03655428,0.7376086,1.479087,0.1615653,0.1893197,1.225809,0.1490825,280.9935,219.7533,15.01151,True
1,1.188891,0.0474828,0.07947732,0.05675288,-1.39017,-4.360349,-2.342979,0.4587851,1.263518,0.3442864,-1.038648,-0.006653937,11.5,100,-0.03587986,0.0521078,-0.0292369,-0.4814558,-3.033313,-0.8296573,0.576961,1.424327,0.2813623,0.02044141,0.06808951,0.1363782,-0.6316944,0.1993372,-0.03724537,0.7367002,1.479123,0.1615627,0.1882896,1.225317,0.1492084,281.0518,220.4209,14.39704,True
1,1.200002,0.04763722,0.04000318,0.04200173,-1.389619,-4.359858,-2.343557,0.4579228,1.263446,0.3441377,-1.038609,0.003564297,11.5,100,-0.04538277,0.04031235,-0.0207254,-0.4814335,-3.033215,-0.8289211,0.5760803,1.424161,0.2811625,0.02033523,0.0638702,0.1246396,-0.630734,0.2001874,-0.03808054,0.7358754,1.479255,0.1616015,0.1873059,1.224836,0.149339,281.129,221.0586,13.85443,True
1,1.211113,0.0467034,0.007938941,0.01763247,-1.388491,-4.359611,-2.344102,0.4570906,1.263351,0.3439653,-1.03824,0.03308421,11.5,100,-0.06985109,0.0359665,-0.01739727,-0.481606,-3.033171,-0.8273864,0.5752054,1.424101,0.2809353,0.01925576,0.05854341,0.1256891,-0.6293241,0.2010669,-0.0389711,0.7349483,1.479305,0.1615553,0.1864067,1.224383,0.1493998,281.209,221.4175,13.58894,True
1,1.222224,0.04459878,0.002563244,0.007009592,-1.388435,-4.359709,-2.344546,0.4562373,1.263231,0.3439486,-1.037329,0.08202347,11.5,100,-0.07199193,0.04126979,-0.01521257,-0.4820545,-3.032274,-0.8272127,0.5742693,1.423904,0.2808003,0.0128517,0.04895844,0.1299542,-0.6277156,0.2014993,-0.03920173,0.7341375,1.479343,0.1615505,0.1856149,1.22394,0.1493732,281.2695,221.5075,13.53604,True
1,1.233335,0.02535065,0.02264957,-0.01225479,-1.388493,-4.360944,-2.343988,0.4554523,1.26299,0.3438375,-1.035839,0.1341277,16.6,100,-0.07521147,0.06147557,-0.01080614,-0.4830261,-3.030233,-0.828083,0.5733262,1.423721,0.2805834,-0.002041414,0.05968598,0.1269133,-0.6264511,0.2032999,-0.04013597,0.7332705,1.479384,0.1615298,0.1848497,1.223454,0.1492275,281.3012,221.2962,13.7437,True
1,1.244446,0.01992423,0.04820028,-0.01130153,-1.389429,-4.361994,-2.343849,0.4546759,1.262683,0.3435476,-1.033682,0.194185,16.6,100,-0.07629093,0.09017568,-0.001030857,-0.4842149,-3.026869,-0.8301281,0.5724629,1.423504,0.2804947,-0.01160146,0.06611729,0.1280906,-0.6248457,0.2052844,-0.04122094,0.7324218,1.479425,0.1616433,0.1840809,1.222847,0.1490103,281.3345,220.9556,14.00532,True
1,1.255558,0.009133526,0.0833308,-0.007189225,-1.390978,-4.36344,-2.343326,0.4538726,1.262431,0.3435283,-1.030116,0.3219897,16.6,100,-0.07312262,0.09552266,-0.00314999,-0.4851917,-3.025354,-0.8307398,0.5715851,1.423374,0.2804387,-0.01480398,0.06827025,0.1259926,-0.6235728,0.2067718,-0.0421408,0.7315872,1.479448,0.1616783,0.1832526,1.22206,0.1488222,281.3751,220.9266,13.89936,True
1,1.266669,0.006925781,0.1025357,0.003380049,-1.392404,-4.364305,-2.34322,0.4530586,1.262047,0.3431163,-1.026965,0.2824651,16.6,100,-0.07315207,0.0934262,-0.007415559,-0.4860391,-3.024002,-0.831012,0.5707196,1.423202,0.2803562,-0.0222705,0.07577175,0.1207626,-0.6223254,0.2085197,-0.04305799,0.7308561,1.479448,0.1617424,0.1822626,1.221071,0.1487408,281.4587,221.2723,13.4756,True
1,1.27778,0.004741084,0.1153772,0.01930571,-1.394217,-4.364989,-2.343071,0.4522936,1.261881,0.3430908,-1.022508,0.4018697,16.6,100,-0.05611109,0.07328214,-0.01617065,-0.4864381,-3.024545,-0.8304815,0.5699484,1.423093,0.2803309,-0.01058331,0.07895332,0.1143001,-0.6213378,0.2103792,-0.04489797,0.7300626,1.479513,0.1617599,0.1811276,1.219862,0.1488094,281.5748,222.0352,12.72117,True
1,1.288891,0.005865632,0.1015519,0.02469484,-1.394974,-4.364986,-2.343323,0.4514861,1.261651,0.3426263,-1.017918,0.4125032,41.9,100,-0.03912034,0.04469262,-0.03563318,-0.4869622,-3.026695,-0.8286745,0.5691606,1.423065,0.2802923,-0.005378872,0.06082967,0.1088469,-0.6203791,0.2100942,-0.04467133,0.7292696,1.479665,0.1617115,0.179871,1.218429,0.1490603,281.738,223.1558,11.69245,True
1,1.300002,0.01351333,0.05471244,0.0280977,-1.394598,-4.363825,-2.344091,0.4506894,1.26166,0.3421769,-1.012295,0.5063337,41.9,100,-0.03046083,0.01801506,-0.02413476,-0.4864786,-3.027273,-0.8280146,0.5684187,1.42307,0.2802129,-0.002326451,0.04487849,0.1002423,-0.6193101,0.2102669,-0.04462792,0.7284647,1.479731,0.1616514,0.1785516,1.216746,0.1494179,281.9416,224.4316,10.61115,True
1,1.311113,0.01483496,-0.01031872,0.01558515,-1.392835,-4.362394,-2.344579,0.4500073,1.26175,0.3421073,-1.006221,0.5462685,41.9,100,-0.03662892,0.007155202,0.006732291,-0.4855688,-3.026056,-0.8285003,0.5677896,1.423065,0.2800386,-0.0044972,0.04064025,0.09704292,-0.6183391,0.2108988,-0.04502926,0.7277409,1.479794,0.1615958,0.1772819,1.214818,0.1498499,282.2219,225.812,9.453232,True
1,1.322224,-0.03501436,-0.06385132,-0.002314445,-1.390809,-4.361185,-2.34296,0.4494211,1.261775,0.3419075,-0.9995344,0.6014737,41.9,100,-0.04715323,0.0186834,0.0324387,-0.4852008,-3.0233,-0.8299606,0.5670801,1.422942,0.2798429,-0.004511811,0.04172533,0.09387428,-0.6170736,0.2121969,-0.0460631,0.7271236,1.479794,0.1616468,0.1760606,1.212622,0.1501833,282.5591,226.9778,8.58488,True
1,1.333336,-0.06999166,-0.1087785,-0.01385582,-1.388547,-4.359691,-2.341254,0.4487587,1.261823,0.3418489,-0.9916254,0.7125134,84,100,-0.06735723,0.06641779,0.05736534,-0.4859475,-3.017503,-0.8336019,0.5664597,1.422834,0.2795846,-0.01096927,0.04072405,0.08539376,-0.6164232,0.2129476,-0.0463446,0.7264812,1.479828,0.1616273,0.1750519,1.210132,0.1503305,282.9957,227.686,8.092062,True
1,1.344447,-0.02305874,-0.1245941,-0.01804135,-1.387072,-4.358704,-2.342755,0.4481403,1.261749,0.3415513,-0.9813669,0.9260058,84,100,-0.07277346,0.106873,0.05977168,-0.4875055,-3.013024,-0.8365514,0.565745,1.422628,0.279505,-0.01525674,0.04395041,0.08009531,-0.6159785,0.2137605,-0.04669054,0.7259771,1.479899,0.1617188,0.1743475,1.20735,0.150323,283.5261,227.9523,7.851159,True
1,1.355558,0.03564224,-0.1520991,-0.02643235,-1.384777,-4.35721,-2.345568,0.4475626,1.261617,0.3415403,-0.9724501,0.8012938,84,100,-0.06858885,0.09951916,0.04478478,-0.4881521,-3.011822,-0.8369961,0.5651125,1.422488,0.2793875,-0.01204395,0.04819887,0.08009134,-0.6151263,0.2150115,-0.04769349,0.7254112,1.479934,0.1617005,0.1737751,1.204406,0.1501455,284.176,228.2205,7.491035,True
1,1.366669,0.04202107,-0.1478457,-0.0349672,-1.383385,-4.35671,-2.346291,0.4469124,1.261607,0.3416803,-0.9668308,0.5009071,84,100,-0.06017393,0.05287492,0.01035776,-0.4878996,-3.015526,-0.8333337,0.5645066,1.42234,0.2793739,-0.01098632,0.05353303,0.07691219,-0.6144152,0.2163922,-0.04866314,0.7247732,1.479983,0.1616855,0.1732302,1.201466,0.1498402,284.8537,228.5067,7.062758,True
1,1.37778,0.0430066,-0.1275835,-0.03079019,-1.382732,-4.356351,-2.346861,0.4463429,1.261506,0.3416936,-0.9589958,0.7056926,84,100,-0.04231178,0.02764652,-0.03785058,-0.4887982,-3.019153,-0.830111,0.5639129,1.422192,0.2793696,-0.01201674,0.05779257,0.08121017,-0.6132802,0.2182297,-0.04982348,0.7241098,1.480033,0.1617479,0.1727847,1.198481,0.1495408,285.3422,228.6563,6.768128,True
1,1.388891,0.04287832,-0.09346841,-0.02454399,-1.382762,-4.356514,-2.347258,0.4458333,1.261338,0.3414831,-0.9475256,1.035912,100,100,-0.03391074,0.02991086,-0.05600105,-0.4899077,-3.02049,-0.8288301,0.5633395,1.422072,0.2792571,-0.0226386,0.05781534,0.08554822,-0.6122251,0.2194645,-0.05024639,0.7235893,1.48006,0.1617455,0.1724921,1.195248,0.1494136,285.7454,228.6421,6.572392,True
1,1.400002,0.04820293,-0.09236063,-0.02028695,-1.381935,-4.355882,-2.348122,0.4452413,1.261251,0.341399,-0.9374726,0.9036697,100,100,-0.03711258,0.02884335,-0.05705474,-0.4905782,-3.021029,-0.8277821,0.5627781,1.422017,0.2791634,-0.02797582,0.06105985,0.08241127,-0.6113931,0.2212408,-0.05118809,0.7230349,1.480103,0.1617677,0.1720987,1.191764,0.1495266,286.3087,229.0567,5.954117,True
1,1.411114,0.05567072,-0.09449795,-0.02879824,-1.380731,-4.355518,-2.349066,0.4448218,1.261185,0.3413496,-0.9278395,0.8669459,100,100,-0.05713159,0.01688733,-0.027167,-0.4898107,-3.020087,-0.827344,0.5623457,1.421941,0.278935,-0.03765607,0.06860445,0.06546352,-0.6113957,0.2223231,-0.05138862,0.7228011,1.480151,0.1618278,0.1715206,1.188139,0.1498981,286.9959,229.8906,5.092751,True
1,1.422225,0.0620997,-0.1019595,-0.03515289,-1.379326,-4.354877,-2.350184,0.4444259,1.261074,0.3410375,-0.9188247,0.810857,100,100,-0.06887896,0.03175781,-0.02487007,-0.4905878,-3.019249,-0.8268537,0.5618623,1.421912,0.2787971,-0.04085186,0.07717288,0.05914163,-0.6108663,0.2244963,-0.05279477,0.7224094,1.480085,0.1618929,0.1707753,1.1845,0.1504734,287.7364,230.8717,4.27014,True
1,1.433336,0.06957918,-0.1072838,-0.04152025,-1.377888,-4.354398,-2.3513,0.4441371,1.260986,0.3409653,-0.9099563,0.79814,100,100,-0.08175673,0.07219909,-0.0234718,-0.492346,-3.016412,-0.8280007,0.5614494,1.421796,0.2786007,-0.04734655,0.06871948,0.04956206,-0.6106559,0.2253306,-0.05273804,0.7220361,1.480095,0.1618807,0.1700225,1.180938,0.1512001,288.4681,231.5997,3.769956,True
1,1.444447,0.06848658,-0.1030399,-0.04579913,-1.376796,-4.354214,-2.351853,0.4437681,1.260978,0.3411646,-0.9013181,0.7774123,100,100,-0.08176102,0.09876007,-0.01265057,-0.4935658,-3.013355,-0.8297534,0.5610766,1.421691,0.2785079,-0.04634986,0.06981667,0.03888989,-0.6108136,0.2263993,-0.05321449,0.7216738,1.480232,0.1620002,0.1693903,1.177518,0.1520243,289.141,232.1602,3.465695,True
1,1.455558,0.07054187,-0.0838432,-0.04268304,-1.376318,-4.354278,-2.352702,0.4435005,1.260832,0.3411973,-0.8929409,0.753943,100,100,-0.07632019,0.09653748,0.004346248,-0.4938774,-3.010918,-0.8312463,0.5606825,1.421602,0.2784202,-0.04310178,0.07511525,0.04315306,-0.6102335,0.2283405,-0.05443528,0.7212963,1.480271,0.1620464,0.1689015,1.174267,0.1528261,289.7435,232.6302,3.254889,True
1,1.466669,0.07154142,-0.06677702,-0.03849099,-1.376041,-4.354341,-2.353529,0.4431107,1.260685,0.3411787,-0.8844891,0.7613958,100,100,-0.06989039,0.08588374,0.006365819,-0.494108,-3.010234,-0.8313153,0.5602691,1.421551,0.2783716,-0.03668477,0.07933694,0.04417097,-0.6100173,0.2298809,-0.05552664,0.7207938,1.480234,0.1620862,0.1686073,1.171209,0.1535874,290.3112,232.978,3.037322,True
1,1.47778,0.07139581,-0.03048606,-0.02159829,-1.376965,-4.354757,-2.354238,0.4427576,1.260509,0.3412373,-0.8773869,0.6384124,100,100,-0.06452977,0.07523882,0.007330373,-0.4942742,-3.009641,-0.8313816,0.5597708,1.421388,0.2782977,-0.03242567,0.08466111,0.04096845,-0.6097637,0.2319037,-0.05698739,0.7204646,1.480239,0.1620791,0.1684009,1.169731,0.1541148,290.1833,234.2711,1.602771,True
1,1.488891,0.07017025,0.008996157,-0.004710778,-1.378322,-4.355298,-2.354872,0.4422784,1.260348,0.3413115,-0.8706172,0.6095313,100,100,-0.06452976,0.07523882,0.007330367,-0.4948388,-3.008324,-0.8318221,0.5593222,1.421287,0.278183,-0.03356617,0.07723673,0.03346787,-0.609955,0.2327532,-0.05736582,0.7202495,1.480132,0.1620555,0.1684193,1.169164,0.154457,289.9398,234.8857,0.8400788,True
1,1.500003,0.07333829,0.01541926,-0.0004725009,-1.378613,-4.3554,-2.355758,0.4419871,1.260087,0.3410089,-0.8646756,0.534749,100,100,-0.01998848,-0.03497344,-0.06821197,-0.493064,-3.026634,-0.8183281,0.5591784,1.42121,0.2780254,-0.0347044,0.07623219,0.02388811,-0.6100019,0.2345088,-0.0583685,0.7199327,1.480112,0.1620538,0.1684878,1.168832,0.1546589,289.7373,235.1378,0.4663257,True
1,1.511114,0.01253799,0.03542862,0.0004902286,-1.379362,-4.356096,-2.353826,0.4417738,1.259902,0.3410299,-0.8595592,0.4605398,100,100,-0.02531425,-0.02436071,-0.06385072,-0.4935274,-3.02738,-0.8171955,0.5588272,1.421157,0.2778358,-0.03371868,0.06878537,0.01746575,-0.6099134,0.235076,-0.05844147,0.7199093,1.48021,0.1620507,0.1685067,1.168568,0.1548467,289.5813,235.4806,0.02282033,True
1,1.522225,-0.07490741,0.05851853,-0.0006980188,-1.380255,-4.357087,-2.349908,0.4415866,1.259823,0.3410938,-0.8553796,0.3759024,100,100,-0.03799157,0.001009464,-0.03698522,-0.4940867,-3.024502,-0.8186632,0.5584185,1.421134,0.2778025,-0.0337247,0.06667028,0.01745994,-0.6097035,0.2366725,-0.05940953,0.7195995,1.480228,0.1620862,0.1684524,1.168311,0.1550423,289.4657,236.0557,359.3784,True
1,1.533336,-0.04722766,0.06290504,0.003553167,-1.380988,-4.357581,-2.350083,0.4412878,1.259721,0.3410256,-0.849045,0.5740163,100,100,-0.04750748,0.02854575,-0.01437655,-0.4948941,-3.016426,-0.8239921,0.5582795,1.420602,0.277518,-0.03583705,0.06664126,0.02065774,-0.6095736,0.2373516,-0.0594295,0.7194234,1.480283,0.1621318,0.1684246,1.168049,0.1551961,289.3221,236.6367,358.7951,True
1,1.544447,0.0050083,0.05457433,0.00147045,-1.381088,-4.357802,-2.352109,0.4409806,1.259645,0.3408651,-0.8439068,0.4633805,100,100,-0.05916214,0.06139981,0.009342751,-0.4956095,-3.013725,-0.8254476,0.557836,1.420753,0.2776721,-0.03375464,0.059203,0.01954655,-0.6093835,0.2386512,-0.06002472,0.7189503,1.48016,0.1622183,0.1682376,1.167907,0.1551795,289.1878,237.3461,357.9824,True
1,1.555558,0.04134297,0.02590756,-0.009051294,-1.380231,-4.357619,-2.35391,0.4407378,1.259563,0.3408191,-0.8453267,-0.1348042,100,100,-0.05270639,0.05072825,0.01562774,-0.4955717,-3.012773,-0.8259187,0.5575947,1.420854,0.2778087,-0.03377804,0.06029577,0.01529074,-0.6094319,0.2400694,-0.06085749,0.7187043,1.48017,0.1622639,0.167925,1.167894,0.1552222,289.1129,238.4467,356.8169,True
1,1.566669,0.04572576,-0.003930964,-0.01532323,-1.379102,-4.357184,-2.35454,0.4405335,1.259814,0.3409114,-0.8453577,-0.002678255,100,100,-0.06353375,0.03067919,-0.01958314,-0.4962486,-3.015615,-0.8223509,0.5573512,1.420698,0.277756,-0.0316409,0.06134285,0.01525845,-0.6095986,0.2410647,-0.06143114,0.7184834,1.48002,0.1624279,0.167624,1.167901,0.1550308,289.3086,238.6169,356.6299,True
1,1.577781,0.04476309,-0.03055819,-0.01308095,-1.378125,-4.356306,-2.355168,0.4403382,1.259827,0.3408828,-0.843078,0.2069389,100,100,-0.05941683,0.02444851,-0.04414856,-0.4970604,-3.017661,-0.8199263,0.5571596,1.420466,0.2778213,-0.02627284,0.06022789,0.02160683,-0.609164,0.2421732,-0.06225752,0.7182394,1.480016,0.1624496,0.1674561,1.167744,0.1547987,289.141,238.9042,356.2284,True
1,1.588892,0.03739734,-0.05295898,-0.01191611,-1.377224,-4.355295,-2.355511,0.4400952,1.259797,0.3407919,-0.8398795,0.2894058,100,100,-0.04663766,0.03085569,-0.0420606,-0.4975429,-3.017525,-0.8200339,0.5570102,1.420508,0.2779219,-0.02519244,0.05383793,0.02476231,-0.6088924,0.2433394,-0.06322025,0.7180737,1.4799,0.1626439,0.1674893,1.167543,0.1546439,288.8914,238.715,356.1641,True
1,1.600003,0.02577206,-0.07646742,-0.01821267,-1.375685,-4.354379,-2.355531,0.4399122,1.259792,0.3409045,-0.8380589,0.1631205,100,100,-0.03158747,0.02544835,-0.02301457,-0.4973176,-3.016618,-0.8210491,0.5568878,1.420458,0.2778828,-0.02094553,0.05170921,0.02366016,-0.6086665,0.2445876,-0.06418538,0.7178809,1.479877,0.162709,0.1675199,1.167423,0.1544878,288.689,238.539,356.1243,True
1,1.611114,0.01945969,-0.09780432,-0.02025697,-1.374219,-4.353355,-2.355678,0.4398535,1.259722,0.3407865,-0.8364446,0.1456479,100,100,-0.03578191,0.009432875,-0.01882256,-0.4968756,-3.017133,-0.8199894,0.5567409,1.420447,0.2778335,-0.02740091,0.04964144,0.01728491,-0.6090276,0.2455951,-0.0643473,0.7176576,1.479967,0.162642,0.1675893,1.167335,0.1544444,288.63,238.3083,356.3176,True
1,1.622225,0.01095796,-0.1031542,-0.01810903,-1.373209,-4.352573,-2.355658,0.4397711,1.259783,0.3409405,-0.8350395,0.126635,100,100,-0.0336012,0.008326333,-0.01138648,-0.4968281,-3.016916,-0.819824,0.5566148,1.420439,0.2777617,-0.03268673,0.04538144,0.02475077,-0.6086639,0.2465994,-0.0646525,0.7175257,1.480018,0.1627576,0.1676277,1.167256,0.1544131,288.5944,238.2,356.4159,True
1,1.633336,0.008826072,-0.1031446,-0.01384848,-1.372388,-4.351752,-2.355831,0.4397231,1.259785,0.3410525,-0.834233,0.0722411,100,100,-0.01665722,0.02758809,-0.01883239,-0.4977587,-3.016208,-0.8206813,0.5565481,1.420349,0.2777262,-0.03380165,0.0347376,0.0236456,-0.6084311,0.2466772,-0.06433105,0.7174717,1.479976,0.1627405,0.1676681,1.167187,0.1544411,288.538,238.2084,356.3937,True
1,1.644447,0.0002730861,-0.09146982,-0.01708598,-1.371879,-4.35143,-2.355823,0.4396191,1.259763,0.341167,-0.8333851,0.07652565,100,100,-0.01248445,0.03512021,-0.02946794,-0.4987366,-3.016719,-0.8201841,0.5564005,1.420284,0.277739,-0.03384833,0.03474573,0.01830984,-0.6085802,0.246973,-0.06408471,0.7175858,1.480377,0.1627598,0.1677883,1.167097,0.1545943,288.3745,238.4119,356.2001,True
1,1.655559,-0.004050755,-0.07549822,-0.01502381,-1.371568,-4.351251,-2.355658,0.4396753,1.259785,0.3412495,-0.8329234,0.04123465,100,100,-0.002865478,0.03617693,-0.02419645,-0.4991057,-3.01621,-0.8209383,0.5564356,1.420287,0.2777078,-0.03283191,0.02622894,0.01613351,-0.6084913,0.2469339,-0.06372625,0.7176222,1.480391,0.1627164,0.1678583,1.167078,0.1546527,288.2963,238.367,356.2117,True
1,1.66667,-0.007277976,-0.06594277,-0.0203918,-1.370983,-4.351249,-2.355536,0.4397258,1.259851,0.341373,-0.8323151,0.05496252,100,100,0.0003816113,0.01913528,-0.02326183,-0.4991201,-3.017348,-0.8201053,0.5565323,1.420225,0.2777278,-0.03073963,0.02516771,0.01291052,-0.6085456,0.2473318,-0.06361733,0.7176532,1.480332,0.1624835,0.1678393,1.167033,0.1547099,288.2771,238.5796,356.0017,True
1,1.677781,-0.0158706,-0.0478661,-0.02047033,-1.370902,-4.351513,-2.354993,0.4398919,1.259895,0.3414752,-0.8317084,0.05477616,100,100,0.00580502,0.00736401,-0.01271723,-0.4987248,-3.017614,-0.8200677,0.5566708,1.420242,0.2777011,-0.02761002,0.02199293,0.005416397,-0.6087651,0.2475471,-0.06359256,0.7177079,1.480337,0.1624115,0.1678245,1.167002,0.1547704,288.257,238.6931,355.8469,True
1,1.688892,-0.02554239,-0.02446509,-0.02057125,-1.371122,-4.35205,-2.354364,0.4400592,1.259865,0.3412461,-0.8313792,0.0293842,100,100,0.01115112,0.008423737,-0.009552753,-0.4989624,-3.017594,-0.8204592,0.5567069,1.420202,0.2776566,-0.02767443,0.01134494,0.002178164,-0.6087688,0.2469509,-0.06279174,0.7178907,1.48028,0.1622496,0.1678236,1.167003,0.1548024,288.246,238.7298,355.7904,True
1,1.700003,-0.02768981,-0.02020775,-0.01952449,-1.370946,-4.352124,-2.353966,0.4402242,1.259942,0.3413341,-0.8306959,0.06209483,100,100,0.02395672,0.002057638,-0.00861029,-0.498907,-3.01808,-0.8207561,0.5569178,1.420317,0.2776787,-0.01925886,-0.005694496,-0.003280044,-0.6088732,0.2461646,-0.06220745,0.7180277,1.480322,0.1621912,0.1678361,1.16702,0.1548313,288.2315,238.7157,355.7824,True
1,1.711114,-0.03402378,-0.03407394,-0.01839623,-1.370304,-4.351593,-2.353557,0.4403763,1.259966,0.3411632,-0.8303677,0.0293298,100,100,0.02084024,-0.0001524761,0.003115763,-0.4985379,-3.017388,-0.8214478,0.5571626,1.420366,0.2776549,-0.01402196,-0.01208734,-0.01187693,-0.6093408,0.2450349,-0.06124977,0.7183952,1.480213,0.1621597,0.1678568,1.167046,0.1548444,288.2175,238.7004,355.8035,True
1,1.722225,-0.03607649,-0.05432685,-0.02043978,-1.369247,-4.35089,-2.35322,0.4405898,1.260059,0.3409903,-0.8302985,0.006017775,100,100,0.0230404,-0.014031,0.008347307,-0.4977459,-3.017659,-0.8215396,0.5574838,1.420471,0.2776692,0.008239554,-0.01529688,-0.02697493,-0.610241,0.2446597,-0.06187535,0.7185565,1.480303,0.1621635,0.1678767,1.167074,0.1548118,288.2211,238.6686,355.886,True
1,1.733337,-0.03911425,-0.09483335,-0.02346556,-1.367233,-4.349398,-2.352976,0.4407188,1.260227,0.3410373,-0.8300082,0.02638594,100,100,0.02742772,-0.03433307,0.01991177,-0.4965453,-3.018225,-0.8215146,0.5577637,1.4205,0.2776253,0.02198936,-0.02598275,-0.0345794,-0.610853,0.2431581,-0.06128866,0.7186718,1.480163,0.1620736,0.1679164,1.167108,0.1547703,288.2166,238.5662,356.038,True
1,1.744448,-0.04961664,-0.1321904,-0.03183299,-1.364954,-4.347992,-2.352419,0.4408911,1.260489,0.3412061,-0.8298815,0.01128569,100,100,0.02430027,-0.04184727,0.02734104,-0.4956313,-3.018597,-0.8214023,0.5580851,1.420452,0.2776237,0.02516724,-0.0281195,-0.03568114,-0.6112663,0.2425073,-0.06103992,0.7187891,1.480033,0.1619158,0.1679854,1.16713,0.1546966,288.1993,238.4297,356.2683,False
1,1.755559,-0.04956042,-0.146075,-0.04029679,-1.362942,-4.347028,-2.352045,0.4410027,1.260669,0.3412259,-0.8296972,0.01671883,100,100,0.02746215,-0.03649291,0.02415794,-0.4953597,-3.018663,-0.821754,0.5583338,1.420475,0.2775841,0.03909487,-0.04317346,-0.01667282,-0.6107283,0.2408267,-0.06058505,0.7189351,1.480025,0.1617293,0.1680837,1.167161,0.154609,288.17,238.2093,356.5913,False
1,1.76667,-0.05062861,-0.1450402,-0.04669506,-1.3614,-4.346544,-2.351564,0.4412087,1.260861,0.341224,-0.8292977,0.03628721,100,100,0.03805249,-0.02365643,0.01990967,-0.4954422,-3.018216,-0.8228776,0.5585768,1.420595,0.2775393,0.04016098,-0.04104259,-0.01773489,-0.6109142,0.2401885,-0.06051874,0.7190633,1.479944,0.1615443,0.1681851,1.167197,0.1545654,288.1276,238.0044,356.864,False
1,1.777781,-0.04859208,-0.1205485,-0.05105912,-1.360548,-4.346714,-2.351049,0.4413788,1.261046,0.3412621,-0.8294708,-0.01615417,100,100,0.04226476,-0.02359957,0.01242408,-0.4953618,-3.018877,-0.8228771,0.5587853,1.420721,0.2775517,0.03801517,-0.04102475,-0.01985009,-0.6111805,0.2393765,-0.06019942,0.7192336,1.479939,0.1613865,0.1682808,1.167261,0.1545798,288.072,237.8003,357.0699,False
1,1.788892,-0.04236231,-0.08109418,-0.04909047,-1.360659,-4.347424,-2.350537,0.4416746,1.261085,0.3414247,-0.8294346,0.003491669,100,100,0.04226649,-0.02147377,0.01350231,-0.4951397,-3.018788,-0.823414,0.5590271,1.420848,0.2774408,0.03259921,-0.03988842,-0.0304767,-0.6121126,0.2386713,-0.05949102,0.7193053,1.479908,0.1612122,0.1683408,1.167325,0.1545764,288.0455,237.631,357.2397,False
1,1.800003,-0.03929864,-0.04699729,-0.05029884,-1.360725,-4.348363,-2.350015,0.4418913,1.261239,0.3415308,-0.8294724,-0.0035459,100,100,0.04018734,-0.005586047,0.02746503,-0.4949224,-3.016745,-0.8256454,0.5592958,1.420912,0.2773886,0.02934609,-0.04837112,-0.03368154,-0.6124626,0.2375504,-0.05877304,0.7194412,1.479979,0.1611736,0.1683736,1.167384,0.1545592,288.0461,237.5117,357.3759,False
1,1.811115,-0.04372036,-0.005450298,-0.04621906,-1.36131,-4.349577,-2.349157,0.4422489,1.261305,0.3414547,-0.8295331,-0.005569432,100,100,0.03600168,0.01345884,0.04678646,-0.4947099,-3.013694,-0.8285779,0.5596302,1.421024,0.2773178,0.03250672,-0.0611902,-0.03058854,-0.6129462,0.2353533,-0.05731495,0.719604,1.479879,0.1610739,0.1683891,1.167447,0.154596,288.0371,237.4987,357.3775,False
1,1.822226,-0.04590428,0.008372758,-0.05053935,-1.361117,-4.350382,-2.348384,0.4425088,1.261651,0.3416765,-0.8295145,0.00168567,100,100,0.0446381,0.021872,0.06809059,-0.4941229,-3.010618,-0.8320312,0.5599729,1.421156,0.2772436,0.03136738,-0.07181744,-0.03491064,-0.6137025,0.2333484,-0.05595701,0.7199723,1.479804,0.160886,0.1684048,1.167509,0.1546504,288.0208,237.4974,357.3515,False
1,1.833337,-0.0448242,0.005145157,-0.05904791,-1.360423,-4.351027,-2.34778,0.4427698,1.261896,0.3418214,-0.8291779,0.03073345,100,100,0.04904466,-0.003766343,0.08068812,-0.4924978,-3.009952,-0.8333292,0.5603781,1.421225,0.2772789,0.02490658,-0.0856318,-0.03705701,-0.6141175,0.2307561,-0.05391144,0.7202312,1.479734,0.1607018,0.1684056,1.167576,0.1546963,288.0182,237.5206,357.3088,False
1,1.844448,-0.05437562,-0.003451439,-0.0686035,-1.359407,-4.351585,-2.34673,0.4429771,1.262394,0.3422894,-0.8291097,0.005942781,100,72.7,0.05016125,-0.02081694,0.08163999,-0.4912584,-3.009802,-0.8340824,0.5608832,1.421335,0.2773077,0.01746108,-0.09201743,-0.03277038,-0.6142368,0.2286032,-0.05219902,0.720769,1.479615,0.1603997,0.1683987,1.167651,0.1547271,288.0332,237.5915,357.26,False
1,1.855559,-0.0638781,-0.02483021,-0.07703835,-1.357904,-4.351713,-2.345675,0.4432284,1.262762,0.3425691,-0.8292221,-0.0103271,100,72.7,0.06077319,-0.01543699,0.07734372,-0.4907854,-3.008653,-0.8361332,0.561286,1.421447,0.2773404,0.01530495,-0.1005362,-0.03172787,-0.6144856,0.2261137,-0.05025624,0.7210637,1.479535,0.1602244,0.1683947,1.167771,0.154788,288.045,237.5755,357.238,False
