loc,t,aDotUA,bDotUA,gDotUA,aUA,bUA,gUA,xUA,yUA,zUA,qE,qDotE,emgA,emgB,aDotSH,bDotSH,gDotSH,aSH,bSH,gSH,xSH,ySH,zSH,aDotUB,bDotUB,gDotUB,aUB,bUB,gUB,xUB,yUB,zUB,xHand,yHand,zHand,aHand,bHand,gHand,enable
2,0,-0.2756991,-0.6274158,0.6124817,-1.1099,-4.138277,-2.823861,0.6855394,1.26634,0.4133267,-0.9130951,-0.04628824,44.4,10.2,-0.3877496,0.1283366,0.1109833,-0.4789104,-3.591945,-0.914852,0.7667412,1.422714,0.3042178,-0.1450164,0.06951147,-0.01685767,-0.7524692,-0.34448,-0.001520399,0.8215749,1.470913,0.1249118,0.4620137,1.045141,0.2864539,317.149,219.5901,16.81161,False
2,0.01111111,-0.2706906,-0.5410085,0.6344669,-1.11626,-4.132318,-2.82361,0.6843637,1.265406,0.4125624,-0.9132624,-0.01482367,44.4,10.2,-0.3770108,0.1516816,0.1291719,-0.4795927,-3.584979,-0.9173783,0.7658271,1.422674,0.3043876,-0.1566744,0.08659315,-0.01665726,-0.7525156,-0.3422157,-0.001154747,0.8212555,1.470936,0.1251888,0.4622753,1.044339,0.2833513,317.5145,218.6265,17.02984,False
2,0.02222222,-0.2654965,-0.5025908,0.6502823,-1.122113,-4.124476,-2.824331,0.6830399,1.264589,0.4116719,-0.913672,-0.03740698,44.4,10.2,-0.3728906,0.1741566,0.1143745,-0.4812364,-3.580235,-0.9177322,0.764967,1.422581,0.3044927,-0.1672211,0.1025699,-0.01009138,-0.7523766,-0.3397633,-0.0007707188,0.8210468,1.470944,0.1255631,0.4628813,1.043349,0.2797098,317.5368,218.359,16.58823,False
2,0.03333334,-0.2549117,-0.4832951,0.6683046,-1.128327,-4.116785,-2.825148,0.6817294,1.263577,0.4108539,-0.9137726,-0.008842065,44.4,10.2,-0.3589928,0.2208192,-0.01646703,-0.4873569,-3.582741,-0.9119731,0.763898,1.422256,0.3049877,-0.1775664,0.1344256,0.01574445,-0.751193,-0.3358763,-0.001198423,0.8206055,1.470968,0.1259637,0.4636902,1.042218,0.275686,317.4259,218.2925,15.83084,False
2,0.04444445,-0.2378864,-0.4842598,0.6789679,-1.13403,-4.107948,-2.826684,0.6802219,1.262498,0.4098518,-0.9139873,-0.0195595,39.1,7.9,-0.3626659,0.2116635,-0.08680653,-0.4907114,-3.585588,-0.9053158,0.762915,1.422045,0.3053694,-0.1838318,0.1429047,0.02756191,-0.7505001,-0.3332331,-0.000973918,0.8202865,1.470956,0.1263552,0.4646041,1.040997,0.2714703,317.3124,218.145,15.06736,False
2,0.05555556,-0.2102078,-0.4798487,0.6927922,-1.140189,-4.099474,-2.828751,0.6788616,1.261428,0.4089847,-0.9142222,-0.02116476,39.1,7.9,-0.3727085,0.2056695,-0.1528247,-0.4948068,-3.589694,-0.8971524,0.7617925,1.421835,0.3057845,-0.1827218,0.1514118,0.02972988,-0.7501001,-0.3303107,-0.001117729,0.8198878,1.470974,0.1267803,0.4655861,1.039734,0.2672082,317.2349,217.8767,14.40985,False
2,0.06666667,-0.197494,-0.4627224,0.701242,-1.146506,-4.091903,-2.83002,0.6775615,1.260447,0.4082496,-0.9144858,-0.0240111,39.1,7.9,-0.3801844,0.1982165,-0.1570763,-0.4972148,-3.589723,-0.8926426,0.7605547,1.421671,0.3061371,-0.1859789,0.163211,0.01703548,-0.7504133,-0.3271423,-0.001341967,0.8195056,1.470985,0.1272478,0.4665625,1.038421,0.2630125,317.1328,217.6029,13.80613,False
2,0.07777778,-0.1848058,-0.4371226,0.6979297,-1.152676,-4.085127,-2.831163,0.676262,1.259361,0.4074347,-0.9151719,-0.0625701,39.1,7.9,-0.3821772,0.1970261,-0.1378935,-0.4994684,-3.588293,-0.8895217,0.7593807,1.421435,0.3064001,-0.1870223,0.1728077,0.01603105,-0.7502871,-0.3237609,-0.001663943,0.8190607,1.471012,0.1277153,0.4674908,1.037025,0.2589484,317.0411,217.3347,13.26733,False
2,0.08888889,-0.1647747,-0.3828053,0.6817045,-1.158673,-4.080084,-2.831955,0.6749918,1.258239,0.4067864,-0.9147596,0.03811711,30.7,9,-0.4118332,0.2234022,-0.1066231,-0.5021646,-3.583797,-0.8878028,0.758055,1.421252,0.3066666,-0.1869413,0.185556,0.02249934,-0.7496905,-0.3200415,-0.002147041,0.8185105,1.471015,0.1282101,0.4684943,1.035599,0.2551598,316.949,217.1366,12.6989,False
2,0.1,-0.1532504,-0.3327987,0.6644375,-1.164549,-4.075254,-2.832468,0.6737705,1.257158,0.4061532,-0.9148358,-0.007481593,30.7,9,-0.4246068,0.247841,-0.09892382,-0.5056341,-3.580302,-0.8857011,0.7566732,1.420947,0.3070009,-0.1888232,0.2088816,0.04395363,-0.7484143,-0.3155136,-0.003276221,0.8179162,1.47113,0.1286931,0.4695145,1.034163,0.2517101,316.9113,217.0579,12.07294,False
2,0.1111111,-0.1439475,-0.2550935,0.641718,-1.170576,-4.072937,-2.83211,0.6726345,1.256046,0.405617,-0.9151255,-0.02645306,30.7,9,-0.4100113,0.2662262,-0.1383259,-0.5101999,-3.580305,-0.881628,0.7554327,1.420692,0.3074403,-0.1833337,0.2215667,0.05889265,-0.7472734,-0.3112606,-0.004549745,0.8173802,1.47117,0.1291993,0.4703968,1.032705,0.2485909,316.9125,217.0411,11.45865,False
2,0.1222222,-0.1345891,-0.1986772,0.6254888,-1.176577,-4.070152,-2.831816,0.6714722,1.254941,0.4050221,-0.9148667,0.02375421,30.7,9,-0.3954946,0.2772405,-0.1916334,-0.5153275,-3.582222,-0.8759965,0.7540786,1.42023,0.3078828,-0.1746058,0.2523662,0.0717707,-0.746157,-0.3055915,-0.007080014,0.8168275,1.471199,0.1296816,0.4710523,1.031267,0.2458554,316.9153,217.083,10.85894,False
2,0.1333333,-0.1242573,-0.1135952,0.5846278,-1.181971,-4.070302,-2.830675,0.6703836,1.254011,0.4046023,-0.9148619,0.0001238412,30.7,9,-0.3606095,0.2722325,-0.2313296,-0.5200909,-3.584557,-0.8710505,0.7527691,1.419975,0.3083282,-0.1787204,0.2789709,0.07940701,-0.7450475,-0.2996718,-0.0092678,0.8162231,1.471252,0.1302106,0.471449,1.029902,0.2435081,316.9324,217.2072,10.30543,False
2,0.1444445,-0.1117568,-0.04025578,0.5406358,-1.186931,-4.070358,-2.829755,0.6692502,1.253177,0.4042728,-0.9146557,0.01875167,19.4,15.9,-0.3403165,0.2371356,-0.2348921,-0.522819,-3.586639,-0.8661982,0.751443,1.419763,0.3087122,-0.1765437,0.2864053,0.08262914,-0.7440462,-0.2947111,-0.01098874,0.8157231,1.471273,0.1308601,0.4715298,1.028666,0.2415297,316.9318,217.449,9.788529,False
2,0.1555556,-0.09814902,0.02562654,0.4934743,-1.191477,-4.071352,-2.828796,0.6680925,1.252489,0.4040458,-0.914831,-0.01618894,19.4,15.9,-0.338042,0.2093622,-0.2222992,-0.5252052,-3.587911,-0.8614247,0.7501266,1.419584,0.3091002,-0.1871887,0.2960431,0.07957198,-0.7433106,-0.2893615,-0.01255947,0.8151193,1.471299,0.1314082,0.4713218,1.027596,0.239844,316.9314,217.7367,9.357367,False
2,0.1666667,-0.1036802,0.07544358,0.4442536,-1.195366,-4.072511,-2.826898,0.6668514,1.251879,0.4039562,-0.9149322,-0.009257306,19.4,15.9,-0.3314187,0.1730138,-0.2002148,-0.5267552,-3.589299,-0.856748,0.7486881,1.419473,0.309576,-0.1926063,0.2993213,0.06685451,-0.7429884,-0.2844929,-0.01388865,0.8145411,1.471344,0.1319435,0.4708241,1.026781,0.2384645,316.9112,218.0389,8.933215,False
2,0.1777778,-0.1102374,0.1156553,0.3908082,-1.198637,-4.073954,-2.824844,0.6655915,1.251373,0.4039385,-0.9151367,-0.0186813,19.4,15.9,-0.3289234,0.1641806,-0.1512872,-0.5279525,-3.587557,-0.8547162,0.7472135,1.419383,0.3099182,-0.1990608,0.3015186,0.05839584,-0.7426773,-0.2794152,-0.01520825,0.8138794,1.471408,0.1324816,0.470055,1.026257,0.2373972,316.8461,218.3163,8.58173,False
2,0.1888889,-0.1252667,0.1440853,0.3278316,-1.201004,-4.075917,-2.822266,0.6642105,1.250992,0.4039299,-0.9141716,0.08833096,11.5,22.1,-0.3211261,0.1851546,-0.09687841,-0.529592,-3.583001,-0.8553303,0.7456797,1.419184,0.3102572,-0.2032726,0.3089859,0.06060977,-0.7418709,-0.2738306,-0.01706127,0.813193,1.47149,0.13308,0.4690185,1.026009,0.2366374,316.7228,218.5713,8.309067,False
2,0.2,-0.1370272,0.1523455,0.2841181,-1.20325,-4.07683,-2.820074,0.662763,1.250548,0.4038162,-0.9139575,0.01873277,11.5,22.1,-0.317867,0.2063593,-0.08185116,-0.5320841,-3.58013,-0.8543735,0.7441685,1.418955,0.3107061,-0.2064391,0.3185826,0.060691,-0.7412201,-0.2681132,-0.0188629,0.8125283,1.471562,0.1336296,0.4676851,1.025995,0.2361318,316.5843,218.8105,8.121978,False
2,0.2111111,-0.1573099,0.1604609,0.2084485,-1.203716,-4.078991,-2.816859,0.6611506,1.25045,0.4038756,-0.9136166,0.03109605,11.5,22.1,-0.3201858,0.2182207,-0.1051976,-0.5355068,-3.579164,-0.8515628,0.7426648,1.418822,0.3110793,-0.2117106,0.330308,0.06293198,-0.7404632,-0.2620147,-0.02084003,0.8118545,1.471596,0.1342435,0.4660623,1.026194,0.2358213,316.436,219.0182,8.022236,False
2,0.2222222,-0.1786439,0.1632751,0.1413225,-1.203865,-4.080941,-2.813457,0.6594512,1.250322,0.4039402,-0.9136177,-0.0003436757,11.5,22.1,-0.3191239,0.2001322,-0.1106525,-0.5375473,-3.579554,-0.8477082,0.7412442,1.418702,0.3114963,-0.2138211,0.3356292,0.06404798,-0.73975,-0.256351,-0.02254419,0.8111503,1.471728,0.1347938,0.4641299,1.026567,0.2356293,316.2755,219.1991,8.015653,False
2,0.2333333,-0.204257,0.1735158,0.07097609,-1.203384,-4.083529,-2.809558,0.6576939,1.250367,0.4040301,-0.9131111,0.04640869,11.5,22.1,-0.3199399,0.1456735,-0.09074812,-0.5376847,-3.580296,-0.8434711,0.7397397,1.418677,0.3118658,-0.2234351,0.3410149,0.05882956,-0.7393606,-0.2504467,-0.02409548,0.8104764,1.471785,0.1353469,0.4619719,1.027068,0.2354645,316.0956,219.3182,8.098043,False
2,0.2444444,-0.216022,0.1851056,0.0506876,-1.204159,-4.086093,-2.805869,0.6560762,1.250298,0.4041731,-0.9128901,0.01987124,8,29,-0.3228801,0.1241672,-0.06103933,-0.537941,-3.579015,-0.8409658,0.7382956,1.418473,0.3122008,-0.226713,0.3496264,0.04505031,-0.7394618,-0.2442629,-0.02609951,0.8098495,1.471814,0.1359382,0.4595897,1.027718,0.2353401,315.9513,219.3369,8.170843,False
2,0.2555556,-0.2631169,0.2410122,-0.03477204,-1.202528,-4.091818,-2.799254,0.6541517,1.25052,0.4043989,-0.9127393,0.01378501,8,29,-0.3224534,0.115266,-0.002501875,-0.5373183,-3.57481,-0.8410156,0.7366147,1.418505,0.3124714,-0.2267166,0.3517635,0.04399616,-0.7391183,-0.2383801,-0.02791579,0.809167,1.47187,0.1364729,0.4569767,1.02854,0.2352711,315.7936,219.3192,8.253089,False
2,0.2666667,-0.2888736,0.289772,-0.06907041,-1.202375,-4.097345,-2.793148,0.6522706,1.250614,0.4046097,-0.9130659,-0.02988018,8,29,-0.3412608,0.1010727,0.04547846,-0.5364176,-3.571017,-0.8398891,0.7348602,1.418486,0.3126919,-0.2277621,0.3442838,0.04929438,-0.7384285,-0.2330511,-0.02930436,0.8085414,1.47192,0.1369579,0.454182,1.029581,0.2352902,315.5941,219.3308,8.362223,False
2,0.2777778,-0.3285456,0.3564651,-0.1311394,-1.201173,-4.104906,-2.785402,0.6502004,1.250854,0.4048581,-0.9114956,0.1439765,8,29,-0.3613881,0.1009315,0.06159988,-0.5363985,-3.567707,-0.8379948,0.7331858,1.418444,0.3129687,-0.2278038,0.3421764,0.04502181,-0.7381942,-0.2274714,-0.03089533,0.8078449,1.471952,0.1374872,0.4512654,1.030811,0.2353825,315.3276,219.3896,8.465261,False
2,0.2888889,-0.3713832,0.4135921,-0.1846461,-1.199805,-4.112686,-2.776886,0.6480086,1.251131,0.405057,-0.9119963,-0.04688808,8.8,29,-0.3772932,0.1008081,0.07236769,-0.536284,-3.56493,-0.8356435,0.7313811,1.418487,0.3132269,-0.2257443,0.3432693,0.03755385,-0.7381739,-0.2218128,-0.03248497,0.8071539,1.472058,0.1379242,0.4479405,1.032227,0.2355477,315.1337,219.4339,8.506165,False
2,0.3,-0.4183741,0.4429843,-0.2444221,-1.197613,-4.120166,-2.76801,0.6456691,1.251563,0.4052517,-0.9114552,0.05024895,8.8,29,-0.3837757,0.1242605,0.06616349,-0.5375069,-3.561568,-0.8340917,0.7296774,1.418342,0.3134773,-0.2278747,0.347543,0.03546535,-0.737939,-0.2159684,-0.03424852,0.8064045,1.472045,0.1384506,0.4441987,1.033913,0.2358311,314.8716,219.5297,8.573804,False
2,0.3111111,-0.4600024,0.4628223,-0.3020294,-1.19486,-4.128094,-2.758561,0.6431608,1.252126,0.405431,-0.9110157,0.03989951,8.8,29,-0.3944706,0.1295888,0.06200578,-0.5383985,-3.558719,-0.8317539,0.7277415,1.418202,0.3137367,-0.2181737,0.3474374,0.04923461,-0.7370368,-0.210112,-0.03650422,0.8056027,1.472066,0.1390195,0.4399306,1.035899,0.2362574,314.5713,219.6365,8.704203,False
2,0.3222222,-0.4856135,0.4731995,-0.3414721,-1.192393,-4.135493,-2.749778,0.640788,1.252651,0.4056873,-0.9108788,0.01248931,8.8,29,-0.40397,0.1135227,0.07049829,-0.53804,-3.556354,-0.8288977,0.7258701,1.418202,0.3140609,-0.2181108,0.3495315,0.05563743,-0.7363598,-0.2041964,-0.0384675,0.8047715,1.472078,0.1395905,0.4351561,1.038244,0.2368358,314.2215,219.7154,8.985848,False
2,0.3333333,-0.5251139,0.4941705,-0.3852351,-1.189399,-4.144071,-2.739334,0.6380421,1.253345,0.4058726,-0.9108581,0.002019855,8.8,29,-0.4048449,0.06761828,0.08300197,-0.5364011,-3.555517,-0.8252108,0.7239138,1.418245,0.3141718,-0.2210709,0.3739384,0.07497121,-0.7350634,-0.1966462,-0.04151202,0.8039063,1.472086,0.1401494,0.4299712,1.040991,0.2375513,313.8227,219.7128,9.439691,False
2,0.3444445,-0.552888,0.5119659,-0.4321808,-1.186105,-4.152834,-2.729051,0.6352023,1.254198,0.4060328,-0.9117108,-0.07768077,4.5,37.7,-0.4354982,-0.0007126629,0.09555946,-0.5338067,-3.55669,-0.8186262,0.7219524,1.418195,0.314501,-0.2231531,0.3845935,0.07610469,-0.7344801,-0.1896954,-0.04417225,0.8030396,1.472061,0.1406064,0.4244953,1.044151,0.2383873,313.3374,219.6577,10.02067,False
2,0.3555556,-0.5700547,0.5437508,-0.4578831,-1.183506,-4.162632,-2.718354,0.6323495,1.254821,0.4062309,-0.9109412,0.07130823,4.5,37.7,-0.4767513,-0.03083265,0.1286866,-0.5310854,-3.554858,-0.813482,0.7198205,1.418257,0.3147223,-0.22856,0.386799,0.0655076,-0.7343102,-0.1831178,-0.04630705,0.8022045,1.472073,0.1411154,0.4189236,1.047651,0.2393233,312.7295,219.5704,10.68386,False
2,0.3666667,-0.618325,0.6307665,-0.4934032,-1.181542,-4.175407,-2.705058,0.6292114,1.255393,0.4065661,-0.9114381,-0.04585446,4.5,37.7,-0.5284263,-0.04842544,0.1981801,-0.5272276,-3.549804,-0.8101783,0.7175508,1.418698,0.3149405,-0.2264715,0.4038997,0.05386677,-0.7343661,-0.1755985,-0.04942614,0.8012656,1.47218,0.1417902,0.413123,1.051353,0.2402424,312.1568,219.4847,11.31076,False
2,0.3777778,-0.6421413,0.730754,-0.5066117,-1.180846,-4.18913,-2.691974,0.625991,1.255977,0.4068253,-0.9118248,-0.03470312,4.5,37.7,-0.556877,-0.06576771,0.2376904,-0.5236451,-3.545725,-0.8066171,0.7150471,1.41868,0.3151376,-0.2358513,0.4443585,0.06375212,-0.7336455,-0.1660531,-0.05358893,0.8003913,1.472198,0.1423826,0.4071319,1.055226,0.2411392,311.5709,219.3519,11.95145,False
2,0.3888889,-0.6519725,0.7956545,-0.5175424,-1.180171,-4.202765,-2.679231,0.6227053,1.25649,0.407074,-0.9107319,0.1004663,4.5,37.7,-0.618777,-0.04452342,0.227595,-0.5223556,-3.542661,-0.8005497,0.7122837,1.418531,0.3151982,-0.2526488,0.4837419,0.079013,-0.732675,-0.1560825,-0.05761936,0.7994074,1.472168,0.1430013,0.4009226,1.059175,0.242031,310.9031,219.2531,12.51299,False
2,0.4,-0.6597243,0.8733373,-0.5306509,-1.18001,-4.21752,-2.666083,0.6190507,1.257163,0.4073212,-0.9115356,-0.07409047,3.5,50.4,-0.6701381,-0.01570249,0.2036267,-0.5220882,-3.539545,-0.7941578,0.7094367,1.41839,0.3153276,-0.2684255,0.5018066,0.09629148,-0.7313637,-0.1468872,-0.06102873,0.7983819,1.472177,0.1436162,0.3943085,1.063183,0.2429608,310.2478,219.3276,12.87178,False
2,0.4111111,-0.6706048,0.9339819,-0.539432,-1.180197,-4.232421,-2.652732,0.615243,1.257737,0.4074533,-0.9122685,-0.06598341,3.5,50.4,-0.7492477,0.02905607,0.1767639,-0.5227817,-3.535534,-0.7867638,0.7063041,1.418329,0.3155608,-0.2915311,0.5187355,0.1306644,-0.7291117,-0.1373231,-0.06414357,0.7972689,1.472248,0.1442225,0.3873773,1.067329,0.2440245,309.5572,219.5011,13.23276,False
2,0.4222222,-0.6760383,0.9584351,-0.5437883,-1.180049,-4.245977,-2.639913,0.6115761,1.25845,0.4076428,-0.9125924,-0.02899454,3.5,50.4,-0.7981718,0.04059345,0.1910345,-0.5214432,-3.530622,-0.7808889,0.703131,1.418401,0.315824,-0.3223108,0.5283689,0.1394575,-0.728071,-0.1283748,-0.0664432,0.7962594,1.472265,0.1448979,0.3802467,1.071595,0.2452709,308.8388,219.6555,13.69363,False
2,0.4333333,-0.6814697,0.9860623,-0.555624,-1.180092,-4.260518,-2.626738,0.6074513,1.259063,0.4077024,-0.9126568,-0.00557551,3.5,50.4,-0.8332018,0.03084099,0.2061338,-0.5194799,-3.526733,-0.7740012,0.6996214,1.418498,0.3158913,-0.3573574,0.5454895,0.14623,-0.7266909,-0.1184055,-0.06881768,0.7950505,1.472345,0.1455505,0.3728619,1.075946,0.2466925,308.1305,219.8559,14.1444,False
2,0.4444444,-0.6986453,1.017938,-0.5610788,-1.180778,-4.275349,-2.612839,0.6033262,1.259647,0.40783,-0.9128458,-0.01711953,3.9,67.5,-0.8768216,0.04135615,0.2171669,-0.5181451,-3.521649,-0.767604,0.6959084,1.418588,0.3159301,-0.3881857,0.5466139,0.1539474,-0.7251761,-0.1091409,-0.07062224,0.7937181,1.472508,0.14626,0.3653226,1.080372,0.2482874,307.4122,220.0782,14.66403,False
2,0.4555556,-0.7105036,1.055166,-0.564432,-1.181953,-4.291067,-2.598543,0.5990632,1.260209,0.4078851,-0.9130269,-0.01636319,3.9,67.5,-0.9098958,0.05515718,0.2142863,-0.5172147,-3.516887,-0.7604741,0.692144,1.418717,0.3159459,-0.4212048,0.5424453,0.1563261,-0.7237582,-0.1000448,-0.07164942,0.7924187,1.472635,0.1470044,0.3578236,1.084852,0.2500156,306.7081,220.2446,15.28679,False
2,0.4666667,-0.7299786,1.131746,-0.5775293,-1.184053,-4.309097,-2.582893,0.5943702,1.260911,0.4079921,-0.9125699,0.04199757,3.9,67.5,-0.9686777,0.09247601,0.1968408,-0.517791,-3.511039,-0.752919,0.6878356,1.419012,0.3158054,-0.4787517,0.5298424,0.157758,-0.7226775,-0.09168705,-0.07076525,0.7911669,1.472819,0.1478775,0.3501887,1.089292,0.2517533,306.0134,220.4243,15.85615,False
2,0.4777778,-0.73554,1.19357,-0.5639369,-1.187239,-4.326323,-2.568099,0.5896481,1.261784,0.4080117,-0.9126062,-0.003499657,3.9,67.5,-1.017475,0.1890005,0.2531923,-0.518199,-3.496713,-0.7524221,0.6834879,1.419429,0.3156817,-0.5339155,0.521376,0.182592,-0.720841,-0.08333337,-0.06984806,0.7899173,1.473082,0.1487932,0.3424467,1.093712,0.2534838,305.3351,220.6903,16.30499,False
2,0.4888889,-0.7366975,1.219262,-0.5352811,-1.191008,-4.342429,-2.553843,0.5849079,1.262629,0.4079614,-0.9122967,0.02847481,3.9,67.5,-1.032911,0.283128,0.3572376,-0.5170985,-3.477239,-0.7572693,0.6790888,1.419984,0.315443,-0.5733266,0.5236295,0.1829256,-0.7191707,-0.07413135,-0.06903579,0.788324,1.473355,0.1496227,0.3344893,1.098158,0.2551862,304.6931,221.0382,16.59883,False
2,0.5,-0.7368162,1.250291,-0.5066338,-1.195508,-4.3588,-2.539552,0.5799781,1.263709,0.4078944,-0.9129497,-0.05977262,5.1,76.7,-1.017753,0.3201922,0.4010424,-0.5162207,-3.46246,-0.7593442,0.6747854,1.420433,0.3152306,-0.5957006,0.533325,0.1789772,-0.7171595,-0.06389416,-0.06938573,0.7859817,1.473304,0.1505888,0.3261569,1.102769,0.2569202,304.0914,221.5386,16.69349,False
2,0.5111111,-0.7379532,1.270668,-0.4736954,-1.20063,-4.374598,-2.525508,0.5749375,1.264726,0.4074914,-0.9132384,-0.02569007,5.1,76.7,-0.9937996,0.3665686,0.4874569,-0.514233,-3.442385,-0.7664713,0.6703014,1.421177,0.314666,-0.633085,0.5025515,0.1791166,-0.7154673,-0.05640762,-0.06665573,0.7839904,1.473646,0.1513362,0.3176818,1.1077,0.2587564,303.415,222.1006,16.85502,False
2,0.5222223,-0.7433373,1.284563,-0.4609619,-1.205448,-4.390689,-2.511134,0.5700687,1.265698,0.4072473,-0.9133646,-0.01125371,5.1,76.7,-0.9914656,0.3706414,0.5183522,-0.5123554,-3.426928,-0.7687609,0.6659821,1.421638,0.3144364,-0.6320097,0.4779695,0.1928139,-0.7131717,-0.04904184,-0.06504797,0.7821417,1.474082,0.1520951,0.3092629,1.112952,0.2606359,302.6342,222.645,17.15072,False
2,0.5333334,-0.7573082,1.317589,-0.4483165,-1.211253,-4.407224,-2.496347,0.5650355,1.266696,0.4066939,-0.91342,-0.004978362,5.1,76.7,-0.987414,0.3581877,0.6364989,-0.5068907,-3.405317,-0.7766984,0.6618162,1.422389,0.3137524,-0.6381688,0.466093,0.2258258,-0.7098517,-0.04127394,-0.06357392,0.779977,1.474457,0.1528597,0.3008964,1.118478,0.2624488,301.7889,223.2106,17.45316,False
2,0.5444446,-0.7900797,1.324134,-0.4364504,-1.216627,-4.42307,-2.481123,0.5600687,1.267719,0.4061408,-0.9132097,0.01936212,7.4,81.5,-0.9739067,0.3182312,0.7277762,-0.5007409,-3.385873,-0.7832945,0.6575311,1.422946,0.313086,-0.629444,0.450977,0.2587122,-0.7061158,-0.03339458,-0.06265645,0.7779422,1.474804,0.1536336,0.2925992,1.124183,0.2640818,300.8672,223.7015,17.81338,False
2,0.5555557,-0.7753772,1.308118,-0.4067206,-1.222734,-4.437245,-2.467902,0.554953,1.26878,0.4054062,-0.9129449,0.02400005,7.4,81.5,-0.9736012,0.3115785,0.769281,-0.4959935,-3.366185,-0.7897199,0.6535039,1.423495,0.3125291,-0.6304005,0.4413005,0.2757131,-0.7027549,-0.02594119,-0.06127135,0.775766,1.475129,0.1543944,0.2844408,1.129985,0.2655457,299.9118,224.0806,18.1666,False
2,0.5666668,-0.7743653,1.325343,-0.3684173,-1.230394,-4.451906,-2.45455,0.5498711,1.269907,0.4047632,-0.9123015,0.05882533,7.4,81.5,-0.941444,0.2849097,0.7891366,-0.4914384,-3.348138,-0.795984,0.6494577,1.424035,0.3119109,-0.6091124,0.415624,0.2839204,-0.699639,-0.01957184,-0.06004709,0.7736886,1.475584,0.1551938,0.2763105,1.135828,0.2668206,298.9649,224.492,18.42383,False
2,0.577778,-0.7372323,1.374581,-0.35476,-1.23857,-4.468492,-2.442101,0.5446544,1.270983,0.4041059,-0.9137146,-0.1295994,7.4,81.5,-0.9104604,0.2285341,0.7853737,-0.4860093,-3.333761,-0.7995158,0.6453084,1.424502,0.311342,-0.5836931,0.3900148,0.2750532,-0.6971133,-0.01390716,-0.05875492,0.7714922,1.47597,0.1558812,0.2682717,1.141701,0.267919,298.0621,224.8777,18.68393,False
2,0.5888891,-0.7921632,1.25085,-0.3425145,-1.242667,-4.478934,-2.428286,0.5398363,1.271747,0.4033179,-0.9139031,-0.01595211,7.4,81.5,-0.8751808,0.147669,0.7803574,-0.4792199,-3.322004,-0.8013582,0.6414109,1.424873,0.3109505,-0.5688682,0.3814859,0.267428,-0.6946248,-0.007484681,-0.05781643,0.7690505,1.476273,0.1565375,0.2604167,1.147552,0.2688095,297.133,225.2838,18.89456,False
2,0.6000003,-1.095858,1.284899,-0.3458324,-1.250152,-4.49403,-2.401416,0.5353355,1.272545,0.4028454,-0.9153119,-0.1287391,8.2,78.9,-0.831768,0.09271401,0.7264539,-0.4744187,-3.312432,-0.8018962,0.6375402,1.425111,0.3104212,-0.5378871,0.3567975,0.2851396,-0.6912053,-0.002149437,-0.0570561,0.766499,1.476582,0.1571538,0.2527177,1.153332,0.2695375,296.1976,225.8317,18.83436,False
2,0.6111114,-1.385049,1.419357,-0.2888402,-1.263273,-4.510425,-2.37098,0.5306593,1.272985,0.4022231,-0.9120001,0.3037543,8.2,78.9,-0.7758175,0.04860973,0.6416203,-0.4707009,-3.30686,-0.8000607,0.633692,1.425344,0.3100715,-0.5099924,0.3394976,0.3157125,-0.686964,0.003239469,-0.05654716,0.76394,1.476926,0.1577713,0.2451783,1.158944,0.2702807,295.1877,226.123,18.98353,False
2,0.6222225,-1.337272,1.474189,-0.2208854,-1.27588,-4.52435,-2.354722,0.5257102,1.273311,0.4016595,-0.9004856,1.050191,8.2,78.9,-0.7078847,0.03620899,0.6016555,-0.4669933,-3.297678,-0.802415,0.6296401,1.42563,0.3096879,-0.4993091,0.328755,0.3240952,-0.6833224,0.008778311,-0.05554555,0.7613875,1.477207,0.1584129,0.2380087,1.164273,0.2709908,294.33,226.1035,19.48423,False
2,0.6333337,-1.198945,1.524869,-0.199797,-1.287713,-4.539109,-2.3421,0.5207406,1.27366,0.4008422,-0.8973196,0.2817141,8.2,78.9,-0.6727089,0.04051214,0.605695,-0.4626683,-3.28574,-0.8067357,0.6257257,1.425873,0.3092997,-0.4854751,0.3351257,0.319755,-0.6801298,0.01533688,-0.05567551,0.7586842,1.477524,0.1590173,0.230566,1.169955,0.2714915,293.9077,227.3092,18.69475,False
2,0.6444448,-1.052129,1.586342,-0.1574839,-1.301169,-4.553892,-2.330948,0.5160446,1.274047,0.3999956,-0.9118557,-1.328888,6.5,77.2,-0.6376708,0.03644073,0.5873255,-0.4587375,-3.274994,-0.8102596,0.6216578,1.426161,0.3089354,-0.4609856,0.3307961,0.318472,-0.6769041,0.02125962,-0.05604889,0.7557809,1.477876,0.1596332,0.2226012,1.17695,0.2716247,293.4228,229.2617,17.22226,False
2,0.655556,-0.9903926,1.601597,-0.1309215,-1.313831,-4.567165,-2.318483,0.5115275,1.274396,0.3992014,-0.9177839,-0.5297272,6.5,77.2,-0.6270314,0.02371168,0.5818439,-0.4543321,-3.265049,-0.8126689,0.6176263,1.426305,0.3085587,-0.4481237,0.3253653,0.3300559,-0.6730974,0.02705479,-0.05608857,0.7530323,1.478209,0.1603067,0.2148741,1.185219,0.2715855,292.0144,229.761,17.1408,False
2,0.6666671,-0.9412709,1.582777,-0.09574223,-1.326092,-4.578989,-2.306769,0.5071298,1.27476,0.3983316,-0.9192353,-0.1298225,6.5,77.2,-0.6563277,0.0336979,0.508625,-0.4522431,-3.258493,-0.8102207,0.6137915,1.426187,0.307946,-0.4445079,0.342162,0.3738029,-0.6677163,0.03444985,-0.05711868,0.7500862,1.478527,0.1610556,0.2077565,1.193946,0.2717159,289.9094,229.104,18.0976,False
2,0.6777782,-0.9272748,1.542447,-0.07107186,-1.337772,-4.589643,-2.294324,0.5027561,1.274974,0.3975093,-0.9169365,0.2106224,6.5,77.2,-0.6586471,0.06151086,0.4896393,-0.4501413,-3.24804,-0.8122577,0.6097738,1.426244,0.3074846,-0.4486698,0.3506556,0.3813446,-0.6635127,0.04154891,-0.05767821,0.7473043,1.478841,0.1617241,0.2012809,1.202294,0.2722786,287.6476,228.2614,19.23112,False
2,0.6888894,-0.8875741,1.47238,-0.0537256,-1.348176,-4.59905,-2.283778,0.4983805,1.275051,0.3966908,-0.9164699,0.04040015,6.5,77.2,-0.6312599,0.1915907,0.4806848,-0.4518,-3.22876,-0.8236371,0.6058152,1.426297,0.3070469,-0.4347841,0.3740824,0.3749718,-0.6599862,0.04990804,-0.06010648,0.7443295,1.479238,0.1623418,0.195213,1.209691,0.273283,285.7622,227.8781,20.06287,False
2,0.7000005,-0.7912981,1.374781,-0.04695284,-1.357075,-4.607625,-2.27641,0.4940042,1.275033,0.3958023,-0.915027,0.1316003,5.1,72.9,-0.6016555,0.256725,0.4659846,-0.4521696,-3.212904,-0.8322959,0.6019149,1.426198,0.3064663,-0.4359256,0.3687932,0.3674817,-0.6565257,0.05628191,-0.06033844,0.7413675,1.479555,0.1629093,0.189382,1.215884,0.2745786,284.3697,228.2209,20.32891,False
2,0.7111117,-0.6662743,1.268704,-0.04651427,-1.364733,-4.615023,-2.271664,0.4896065,1.275074,0.3947742,-0.9161551,-0.1044339,5.1,72.9,-0.6199399,0.2610975,0.4427046,-0.451694,-3.201321,-0.8352147,0.5979443,1.426058,0.3059213,-0.4296143,0.3602852,0.3609916,-0.6529666,0.06274354,-0.06090649,0.7383593,1.479844,0.1635127,0.1836187,1.220869,0.2759546,283.4227,229.3892,19.83133,False
2,0.7222228,-0.5549874,1.140202,-0.05025196,-1.37102,-4.62151,-2.267638,0.4854079,1.275085,0.3938334,-0.9188902,-0.2492751,5.1,72.9,-0.6329334,0.2740229,0.4162493,-0.45158,-3.189651,-0.8381772,0.5940191,1.42584,0.3054831,-0.420033,0.3474449,0.3640531,-0.648941,0.06875097,-0.06141542,0.7352613,1.480174,0.1641042,0.1779523,1.224741,0.2772411,282.7546,230.8584,18.99165,False
2,0.7333339,-0.5033395,0.9975935,-0.06030634,-1.375311,-4.626441,-2.262799,0.481151,1.275094,0.392868,-0.9214005,-0.2271599,5.1,72.9,-0.6257329,0.2774532,0.3810632,-0.4519523,-3.179651,-0.8404462,0.590097,1.425585,0.3050489,-0.4071728,0.3441501,0.374583,-0.6446363,0.07539302,-0.06264101,0.732198,1.480473,0.1647239,0.1724724,1.227557,0.2783394,282.2519,232.3437,18.04574,True
2,0.7444451,-0.5060002,0.857107,-0.03202054,-1.379667,-4.62932,-2.256238,0.4771622,1.274891,0.3922162,-0.9222767,-0.07793409,5.1,72.9,-0.603716,0.3065364,0.338483,-0.4537648,-3.168761,-0.8442546,0.5862628,1.425255,0.3046904,-0.3878201,0.3429052,0.3957179,-0.6397712,0.08225306,-0.064526,0.7290728,1.480651,0.1653814,0.1672592,1.229371,0.2791801,281.9167,233.8909,16.93646,True
2,0.7555562,-0.5109013,0.7389948,0.004699111,-1.383734,-4.630856,-2.250125,0.4731182,1.274803,0.3915401,-0.9212204,0.09704509,2.3,71,-0.5762337,0.3163624,0.3106635,-0.455016,-3.158171,-0.8482389,0.5824945,1.4249,0.3043909,-0.3631833,0.3512791,0.4083478,-0.6350739,0.08985492,-0.06746986,0.7259278,1.480906,0.1660271,0.1623428,1.230299,0.2797298,281.7948,235.4335,15.72125,True
2,0.7666674,-0.5140058,0.716688,0.02076721,-1.39033,-4.635189,-2.243406,0.469151,1.274567,0.3910005,-0.9190878,0.1941777,2.3,71,-0.5359254,0.2485232,0.2662941,-0.4541537,-3.154833,-0.8467768,0.5787886,1.424492,0.3041205,-0.3407141,0.3618182,0.415671,-0.6305897,0.09774467,-0.07083502,0.7227874,1.481097,0.1666927,0.1576324,1.230599,0.2799217,281.9109,236.932,14.44954,True
2,0.7777785,-0.4851224,0.6870853,0.0453549,-1.396443,-4.638917,-2.238244,0.465166,1.274274,0.3903203,-0.9193296,-0.02344991,2.3,71,-0.5009904,0.1754134,0.2155294,-0.4532828,-3.153878,-0.8431094,0.57507,1.424104,0.3038542,-0.3258556,0.3618063,0.4091555,-0.6265683,0.1051311,-0.07363135,0.7196945,1.481329,0.1672618,0.1531593,1.230682,0.2796872,282.2011,238.7159,12.79609,True
2,0.7888896,-0.4423695,0.6479618,0.07854387,-1.402399,-4.641198,-2.23426,0.461124,1.274073,0.3897736,-0.9196092,-0.02498889,2.3,71,-0.4659469,0.1457998,0.1916587,-0.4528466,-3.150347,-0.8422079,0.5713512,1.423648,0.3035841,-0.3216289,0.3479278,0.4111779,-0.6221405,0.111498,-0.07524176,0.716583,1.481549,0.1678073,0.1488006,1.230989,0.2789831,282.5023,240.4168,11.06832,True
2,0.8000008,-0.4304872,0.6012405,0.1032323,-1.407727,-4.643008,-2.22939,0.4572997,1.273871,0.3890746,-0.9213073,-0.1549297,0,65.3,-0.4543984,0.1385293,0.1659635,-0.4532162,-3.146116,-0.8412036,0.5678367,1.423254,0.3032336,-0.314122,0.3361131,0.4227647,-0.6173064,0.117768,-0.07703966,0.7135615,1.481684,0.1683249,0.1444097,1.231881,0.2780357,282.6172,242.005,9.253866,True
2,0.8111119,-0.4227825,0.5331575,0.1173728,-1.411779,-4.643922,-2.224776,0.4534804,1.273751,0.3883903,-0.9225089,-0.10844,0,65.3,-0.4534056,0.1609288,0.1618353,-0.4540455,-3.139444,-0.842148,0.564253,1.422853,0.3029251,-0.2960441,0.3371436,0.4183606,-0.613065,0.1249557,-0.08024371,0.710554,1.481805,0.1689239,0.1400436,1.233445,0.2770654,282.4063,242.9987,8.023936,True
2,0.8222231,-0.3926785,0.454523,0.1368822,-1.415269,-4.643988,-2.221171,0.4498655,1.273603,0.3877296,-0.9216556,0.07883739,0,65.3,-0.4427482,0.1875275,0.1693949,-0.4547198,-3.130837,-0.845279,0.5607892,1.422341,0.3025458,-0.2843904,0.3456652,0.4076712,-0.6091459,0.1326547,-0.08370715,0.7075641,1.481892,0.1695147,0.135825,1.235545,0.2761848,281.9016,243.5821,7.304437,True
2,0.8333342,-0.3648597,0.4205684,0.1455481,-1.419207,-4.644582,-2.217991,0.446214,1.273404,0.3870399,-0.9216625,-0.001393027,0,65.3,-0.4406851,0.1961094,0.1619709,-0.4556328,-3.124564,-0.846077,0.5573878,1.421844,0.3021772,-0.2716361,0.3413754,0.4054148,-0.6049951,0.139672,-0.08690055,0.7045356,1.482045,0.1700957,0.1318205,1.23799,0.2753899,281.2731,243.9416,6.946758,True
2,0.8444453,-0.3444749,0.3833475,0.1425119,-1.422596,-4.645394,-2.214812,0.4427512,1.273134,0.3862393,-0.9220673,-0.03765669,0,65.3,-0.4416372,0.1991926,0.1790431,-0.4556248,-3.116774,-0.8480533,0.5538787,1.421336,0.3018892,-0.2674407,0.3349855,0.4021524,-0.6008523,0.1465621,-0.08951017,0.701602,1.48219,0.1705394,0.1280453,1.240569,0.2746253,280.5967,243.8939,7.057004,True
2,0.8555565,-0.3561887,0.3833122,0.143579,-1.426974,-4.646661,-2.210271,0.4393921,1.272778,0.3855565,-0.9215107,0.05002495,0,63.6,-0.43839,0.2480765,0.1995787,-0.456918,-3.104841,-0.8539168,0.5507445,1.420668,0.3015645,-0.2493979,0.326435,0.3966298,-0.5969188,0.1531729,-0.09287961,0.6988261,1.482146,0.1710472,0.1245272,1.243,0.2738432,279.8871,243.678,7.316347,True
2,0.8666676,-0.3765091,0.405642,0.1487956,-1.432299,-4.648492,-2.205061,0.4359401,1.272469,0.384865,-0.919696,0.1635712,0,63.6,-0.4224235,0.2651378,0.2017062,-0.4580632,-3.09577,-0.8579317,0.5474593,1.420099,0.3013375,-0.2451763,0.3232338,0.3955207,-0.5927882,0.1602851,-0.09595449,0.6958778,1.482239,0.1715434,0.1210924,1.245017,0.273042,279.2114,243.6676,7.323931,True
2,0.8777788,-0.397883,0.4279695,0.1561629,-1.437955,-4.650147,-2.199798,0.4324464,1.272225,0.3841689,-0.9158019,0.3523115,0,63.6,-0.3915757,0.2535516,0.1918226,-0.4588147,-3.089062,-0.8606436,0.5443885,1.419627,0.3012085,-0.221841,0.3157586,0.3846406,-0.5891994,0.1667813,-0.09979637,0.693149,1.482257,0.1720057,0.1176811,1.246397,0.2722576,278.684,243.9327,7.019426,True
2,0.8888899,-0.4064611,0.4450034,0.1582255,-1.44361,-4.651979,-2.194782,0.4290495,1.272044,0.3835886,-0.9118115,0.3591231,0,63.6,-0.3671384,0.1515637,0.1537169,-0.457236,-3.091049,-0.8557514,0.5413628,1.419384,0.3011971,-0.2135564,0.3019946,0.3653339,-0.5858496,0.173047,-0.1025429,0.6902839,1.482152,0.1724157,0.1141399,1.247117,0.2715529,278.4271,245.1902,5.684988,True
2,0.900001,-0.3926028,0.4439989,0.1582307,-1.448662,-4.653473,-2.190858,0.4256361,1.271871,0.3830864,-0.9077166,0.3682233,0,54.9,-0.3532987,0.06013209,0.1285519,-0.4549361,-3.093509,-0.8500187,0.5383404,1.41903,0.3010485,-0.2062107,0.2860416,0.3577216,-0.5824653,0.1787265,-0.1053059,0.6874239,1.482222,0.1731503,0.1103273,1.247324,0.2709824,278.4389,247.4215,3.406873,True
2,0.9111122,-0.3669054,0.4067718,0.1509314,-1.452149,-4.654227,-2.187566,0.4223726,1.271751,0.3825052,-0.9032324,0.4031598,0,54.9,-0.3425084,-0.01547009,0.124805,-0.4519672,-3.095755,-0.8447784,0.5353345,1.41843,0.3010426,-0.1999307,0.264745,0.3522273,-0.5789973,0.183415,-0.1072079,0.6846954,1.482225,0.1735475,0.1063162,1.247194,0.2705728,278.6237,249.9975,0.8498145,True
2,0.9222233,-0.3475914,0.3684825,0.1500254,-1.455374,-4.654485,-2.184386,0.4191305,1.27156,0.3821027,-0.8987833,0.3991241,0,54.9,-0.3265463,0.01755658,0.1281185,-0.4520423,-3.090093,-0.8470493,0.5322071,1.418012,0.3007705,-0.1851235,0.248756,0.3445626,-0.5756875,0.1882744,-0.1098429,0.681898,1.482208,0.1741996,0.102283,1.246863,0.2703517,278.8611,252.396,358.5114,True
2,0.9333345,-0.3335401,0.3131107,0.1438718,-1.457603,-4.654347,-2.181232,0.415977,1.271385,0.3816195,-0.8931885,0.5034667,0,54.9,-0.3255538,0.07611766,0.1338156,-0.4530495,-3.082816,-0.8500011,0.5292497,1.417474,0.3004582,-0.1691759,0.2401883,0.3433229,-0.5722057,0.1933719,-0.1128339,0.679142,1.482222,0.1746185,0.09837723,1.246365,0.2703069,279.037,254.3757,356.6558,True
2,0.9444456,-0.3270319,0.2789793,0.1322876,-1.459622,-4.654546,-2.177825,0.4128816,1.271095,0.3811791,-0.8864305,0.6085315,0,54.9,-0.3213098,0.1165731,0.1372332,-0.4539022,-3.076586,-0.8527032,0.5262647,1.416883,0.3002479,-0.1638392,0.2391097,0.3432777,-0.5687553,0.1990272,-0.1160835,0.6763754,1.482158,0.1750722,0.09471399,1.245647,0.2703547,279.1587,255.882,355.3274,True
2,0.9555568,-0.3225965,0.2288722,0.1197185,-1.460946,-4.654355,-2.174353,0.4098996,1.270936,0.3807483,-0.8790594,0.6634535,0,49.1,-0.3224678,0.1655794,0.1375583,-0.4555321,-3.06848,-0.8563027,0.5233841,1.416296,0.2999585,-0.1607003,0.2327342,0.3378948,-0.5654599,0.2042132,-0.1188188,0.6736679,1.48214,0.1754985,0.09124636,1.244666,0.2704021,279.2866,257.2637,354.1186,True
2,0.9666679,-0.3225111,0.2042935,0.1017134,-1.462438,-4.654751,-2.170724,0.4069332,1.270778,0.3803806,-0.8711115,0.715625,0,49.1,-0.3095522,0.2006083,0.1589947,-0.4563614,-3.059623,-0.8617496,0.5206172,1.415747,0.2998896,-0.1511271,0.2305831,0.335678,-0.562098,0.2096914,-0.1221685,0.6710374,1.482154,0.1759176,0.08789901,1.243403,0.2703497,279.4722,258.3831,353.152,True
2,0.977779,-0.3181984,0.1914763,0.09004179,-1.464294,-4.655307,-2.167256,0.4040136,1.270606,0.3799131,-0.8629414,0.735289,0,49.1,-0.2818418,0.1910771,0.1587459,-0.4564882,-3.053555,-0.8649092,0.5179187,1.415193,0.2995713,-0.1278069,0.2156433,0.3268784,-0.5590614,0.2139815,-0.1252264,0.6684241,1.482065,0.1763027,0.08460183,1.241876,0.2701654,279.748,259.2745,352.3457,True
2,0.9888902,-0.3128501,0.1850438,0.07622022,-1.466065,-4.656005,-2.163798,0.4012279,1.270452,0.3796353,-0.8545418,0.7560158,0,49.1,-0.2627558,0.1465197,0.1348877,-0.4561276,-3.052038,-0.8639606,0.5153161,1.414637,0.299495,-0.1204159,0.2135215,0.3204173,-0.555954,0.2191792,-0.1284605,0.6657934,1.482134,0.1767657,0.08134581,1.240156,0.2698469,280.1305,259.8952,351.7402,True
2,1.000001,-0.3160208,0.1796563,0.06451912,-1.467775,-4.656768,-2.160154,0.3982937,1.270301,0.3792968,-0.8461806,0.7521955,0,45.4,-0.2372848,0.1200509,0.1164293,-0.4560418,-3.049891,-0.863856,0.5126157,1.414207,0.2994225,-0.09076378,0.2050053,0.3020143,-0.5535215,0.2236202,-0.1322512,0.6632141,1.482035,0.1770883,0.07807714,1.238344,0.2694544,280.5713,260.4726,351.116,True
2,1.011112,-0.307402,0.1519475,0.05505029,-1.468583,-4.65695,-2.156977,0.3956812,1.270203,0.3791206,-0.8374811,0.7830167,0,45.4,-0.1968678,0.07870317,0.09669635,-0.4553089,-3.050045,-0.8629454,0.5101794,1.413691,0.2994089,-0.06745017,0.1793859,0.296349,-0.5506533,0.2263018,-0.1345994,0.6606598,1.48188,0.1771376,0.07483021,1.236518,0.2690588,281.01,261.1076,350.4159,True
2,1.022224,-0.2977189,0.1253378,0.05196648,-1.469272,-4.656818,-2.154045,0.3930524,1.270146,0.3789372,-0.8283784,0.819523,0,45.4,-0.1661478,0.07146415,0.07192943,-0.4558032,-3.048809,-0.8630764,0.5078401,1.413265,0.2992222,-0.04832429,0.1515916,0.3013711,-0.5471225,0.22845,-0.1364875,0.6580718,1.481687,0.1772323,0.07163623,1.234725,0.2687443,281.418,261.6728,349.7777,True
2,1.033335,-0.2815612,0.07426921,0.05431584,-1.468783,-4.655672,-2.151618,0.390719,1.270059,0.3788266,-0.8198078,0.7706973,0,45.4,-0.1257017,0.075826,0.06847116,-0.4561457,-3.045867,-0.8656046,0.5056759,1.41284,0.2991488,-0.03144008,0.1153475,0.2957079,-0.5440753,0.2291208,-0.1373509,0.6556857,1.481552,0.1772425,0.06846526,1.233005,0.2685525,281.7943,262.1508,349.2688,True
2,1.044446,-0.2578779,0.002940532,0.04396094,-1.467027,-4.654449,-2.149626,0.3888081,1.270001,0.3788505,-0.8110737,0.7860153,0,45.4,-0.09920312,0.08130389,0.05233023,-0.4568983,-3.044198,-0.8667151,0.5036208,1.412474,0.2990525,-0.01031455,0.0844564,0.284713,-0.5413589,0.2300353,-0.1387379,0.6534102,1.48149,0.1772251,0.06551488,1.231341,0.2685026,282.1255,262.4392,348.9988,True
2,1.055557,-0.2439077,-0.03112568,0.03771492,-1.466004,-4.653544,-2.147455,0.3866754,1.269936,0.3787525,-0.8024648,0.7744135,0.2,43.2,-0.08008605,0.1122308,0.052386,-0.4581905,-3.039981,-0.8701695,0.5016994,1.412027,0.2989492,0.01088437,0.05670207,0.2822563,-0.5383058,0.2302343,-0.1397696,0.6511828,1.481375,0.1771846,0.06279758,1.229701,0.268549,282.4107,262.6768,348.8403,True
2,1.066668,-0.2277892,-0.07157663,0.02936996,-1.464446,-4.65241,-2.145544,0.3847944,1.270003,0.3788629,-0.7938479,0.7751826,0.2,43.2,-0.05975427,0.1462126,0.07482265,-0.4591929,-3.033492,-0.8757784,0.4998139,1.411703,0.2989888,0.0300113,0.03532092,0.2851806,-0.5349859,0.2307224,-0.1410671,0.6489999,1.481224,0.1772125,0.0604985,1.227989,0.2686171,282.6444,262.6091,349.0121,True
2,1.077779,-0.2084848,-0.1077401,0.02739597,-1.462693,-4.650963,-2.144024,0.382884,1.269994,0.378859,-0.7846307,0.8300638,0.2,43.2,-0.04479036,0.1515129,0.08327417,-0.4597926,-3.028641,-0.8800458,0.4980501,1.411278,0.2989321,0.0533293,0.03105716,0.2721899,-0.5323424,0.2321324,-0.1435636,0.6468531,1.481145,0.1771941,0.05859394,1.226114,0.2686605,282.8827,262.2739,349.4026,True
2,1.08889,-0.1902748,-0.1364214,0.03177994,-1.460928,-4.649214,-2.142693,0.3812529,1.270025,0.378896,-0.7758449,0.7902923,0.2,43.2,-0.01714776,0.1526718,0.07668963,-0.4606619,-3.025103,-0.8837926,0.4964827,1.410955,0.2990227,0.08097807,0.01605565,0.2718805,-0.5292979,0.2324728,-0.145644,0.6448381,1.481088,0.1770868,0.05674054,1.224069,0.2686455,283.2177,262.0776,349.5961,True
2,1.100002,-0.1817076,-0.1491597,0.03502978,-1.459539,-4.647747,-2.141049,0.3795239,1.270115,0.3789389,-0.7673398,0.7651176,0.2,43.2,0.003024265,0.1410699,0.06475759,-0.4613367,-3.022689,-0.8866052,0.4948897,1.410643,0.2990305,0.09795247,-0.009570621,0.2726746,-0.5259823,0.2316302,-0.1465197,0.6427623,1.481067,0.1769645,0.05493845,1.221875,0.2685926,283.637,261.7925,349.8436,True
2,1.111113,-0.167818,-0.1607929,0.04360186,-1.458111,-4.645888,-2.139855,0.3781596,1.270142,0.3789916,-0.7587346,0.7744693,1.6,62.5,0.03594444,0.1114418,0.04301782,-0.461717,-3.023054,-0.8877416,0.4934771,1.410318,0.2991755,0.1074087,-0.03940545,0.268172,-0.5229729,0.2295229,-0.1462233,0.6409057,1.481018,0.1767631,0.0531836,1.219545,0.2684875,284.0837,261.4786,350.1402,True
2,1.122224,-0.1582294,-0.1607446,0.04572757,-1.456996,-4.644594,-2.138575,0.3767616,1.270014,0.3790162,-0.7497592,0.8082963,1.6,62.5,0.07197334,0.136135,0.02480127,-0.4638172,-3.019973,-0.8923022,0.4922409,1.409886,0.2993333,0.1201277,-0.05641325,0.2626377,-0.5202091,0.2283551,-0.1467199,0.6390282,1.480859,0.1766357,0.05157451,1.217107,0.268322,284.5719,261.2138,350.3808,True
2,1.133335,-0.1529397,-0.1500413,0.05313854,-1.456401,-4.64317,-2.137246,0.3757137,1.270027,0.3790491,-0.7415183,0.7409374,1.6,62.5,0.09421159,0.1352309,0.006522782,-0.4653906,-3.018572,-0.8952818,0.4912761,1.409577,0.2994599,0.1339231,-0.06503129,0.2635481,-0.5171459,0.2269252,-0.1476129,0.6374389,1.480823,0.1764951,0.05006425,1.214637,0.2681014,285.1055,261.021,350.5254,True
2,1.144446,-0.1390888,-0.1499982,0.0499411,-1.455299,-4.641996,-2.136315,0.3748808,1.270111,0.3790703,-0.7329988,0.7670272,1.6,62.5,0.09850022,0.0852282,-0.002350122,-0.4650481,-3.020164,-0.8949755,0.4901965,1.409436,0.2995963,0.144488,-0.06607653,0.2538724,-0.5145259,0.2263672,-0.1490145,0.6359321,1.480774,0.1764889,0.0487932,1.212173,0.2678447,285.5976,260.8185,350.6665,True
2,1.155557,-0.1252553,-0.1435521,0.04991314,-1.454478,-4.640849,-2.135608,0.3737755,1.270093,0.3791096,-0.724456,0.768968,2.9,73.4,0.1006305,0.05013385,-0.01110461,-0.4647482,-3.021385,-0.894991,0.4892592,1.409251,0.2997189,0.135782,-0.05417934,0.226308,-0.5130132,0.2265358,-0.1504196,0.6345042,1.480807,0.176405,0.04768723,1.209731,0.2675817,286.0607,260.7066,350.6952,True
2,1.166668,-0.09983925,-0.09975965,0.05611579,-1.455104,-4.640271,-2.135374,0.3730463,1.269958,0.3791199,-0.7164527,0.7196398,2.9,73.4,0.1078426,0.04398067,-0.04634955,-0.4660367,-3.02346,-0.8945489,0.4883547,1.409138,0.2998035,0.1249521,-0.05403045,0.2050896,-0.5113797,0.2258779,-0.1508084,0.6332941,1.480882,0.1761765,0.0468552,1.207363,0.2673471,286.5476,260.6778,350.6498,True
2,1.17778,-0.0924283,-0.08587036,0.05925128,-1.455097,-4.639371,-2.134699,0.3720755,1.269899,0.3791428,-0.7083332,0.7307289,2.9,73.4,0.117431,0.05463263,-0.04315271,-0.4670199,-3.022673,-0.8968278,0.4874575,1.408942,0.2998967,0.1238421,-0.0614669,0.2018598,-0.509124,0.2246142,-0.1511216,0.631863,1.480846,0.1760612,0.04620465,1.205083,0.2671608,287.0017,260.5326,350.7223,True
2,1.188891,-0.09263691,-0.02609587,0.08455838,-1.457539,-4.638855,-2.133705,0.3714609,1.269681,0.3792391,-0.7005078,0.7036712,2.9,73.4,0.1220447,0.07241489,0.01019344,-0.4669544,-3.017301,-0.9031067,0.4867289,1.408759,0.30002,0.1195214,-0.09237368,0.2059904,-0.5063484,0.2209538,-0.1491647,0.6306765,1.480717,0.1758614,0.04552432,1.202863,0.2670389,287.3932,260.5086,350.675,True
2,1.200002,-0.1065863,0.00267401,0.09295399,-1.459078,-4.638411,-2.132058,0.3706231,1.269752,0.3793845,-0.6915979,0.8029475,2.9,73.4,0.1093632,0.05847695,0.02085619,-0.4667094,-3.01577,-0.9052111,0.4860107,1.408596,0.300107,0.1205858,-0.08597894,0.2038778,-0.5041779,0.2200204,-0.1496976,0.6294734,1.48067,0.175817,0.0448862,1.200644,0.2670163,287.7336,260.7661,350.3824,True
2,1.211113,-0.1088049,0.02827014,0.1013659,-1.460831,-4.637856,-2.13081,0.3699158,1.269774,0.3793759,-0.6827184,0.7992183,2.9,81,0.08913817,0.01481592,0.01220562,-0.4657512,-3.018206,-0.9032172,0.4853331,1.4085,0.3002715,0.1173199,-0.06136849,0.1859282,-0.502759,0.2208002,-0.1515677,0.6284131,1.480667,0.1758385,0.04420377,1.198377,0.2670734,288.1096,261.0981,350.05,True
2,1.222224,-0.1056567,0.04319003,0.09703339,-1.462097,-4.637749,-2.129833,0.3691918,1.269897,0.3793526,-0.673482,0.8319546,2.9,81,0.0838673,-0.001203597,0.01641,-0.4650939,-3.018362,-0.9038092,0.4847327,1.408421,0.3004405,0.1098498,-0.04105747,0.1765213,-0.501029,0.2217525,-0.1533605,0.6273094,1.480667,0.1758344,0.04359016,1.196092,0.2672045,288.5636,261.7212,349.4497,True
2,1.233335,-0.1152296,0.03886291,0.08959536,-1.462696,-4.63724,-2.128318,0.3684254,1.270032,0.3793163,-0.6652225,0.7423895,2.9,81,0.06789256,-0.01506864,0.01431807,-0.4644963,-3.018739,-0.9036505,0.4841696,1.408226,0.3004968,0.09174219,-0.02712221,0.1714183,-0.499315,0.2226959,-0.1546165,0.626523,1.480636,0.175874,0.04292648,1.193865,0.2673716,289.1053,262.2033,349.0182,True
2,1.244446,-0.1236792,0.01749116,0.0790351,-1.462628,-4.636571,-2.126725,0.367598,1.270117,0.3792682,-0.6568282,0.755232,2.9,81,0.0582838,-0.02570581,0.008996399,-0.4640686,-3.019723,-0.9030665,0.4834695,1.408068,0.3005397,0.08200261,-0.02058265,0.1502248,-0.4983786,0.2228886,-0.155413,0.6256187,1.480439,0.1757457,0.04228935,1.191748,0.2675348,289.6082,262.5803,348.7245,True
2,1.255558,-0.1299385,-0.0219872,0.06428073,-1.461615,-4.635852,-2.12511,0.3668371,1.270356,0.3793027,-0.6473356,0.8553832,7,92.9,0.04132925,-0.01305339,0.02518754,-0.4637075,-3.017767,-0.9046772,0.4828478,1.407985,0.3004587,0.06686419,-0.01398027,0.1205526,-0.4981129,0.2230955,-0.1558511,0.6248049,1.480349,0.1757669,0.04167186,1.189724,0.2676804,290.0343,262.8359,348.5328,True
2,1.266669,-0.1393913,-0.0614909,0.05166822,-1.459976,-4.634641,-2.123411,0.3660008,1.270641,0.3792849,-0.6379783,0.8419455,7,92.9,0.02119161,0.01766253,0.0479035,-0.4639141,-3.013922,-0.9077174,0.4822528,1.407954,0.300523,0.04541919,-0.006352264,0.100523,-0.497764,0.2234496,-0.1560285,0.624052,1.480202,0.1757796,0.04103855,1.187746,0.2677864,290.4095,262.9568,348.4592,True
2,1.27778,-0.1499391,-0.09350642,0.0443401,-1.458445,-4.633539,-2.121467,0.3653,1.270975,0.3792489,-0.6285209,0.8510996,7,92.9,0.007664926,0.03331357,0.09604809,-0.4629906,-3.008065,-0.9125926,0.4816329,1.407821,0.3004901,0.03581593,0.004365815,0.09426877,-0.4969522,0.224611,-0.1571662,0.6232359,1.480088,0.1758237,0.04039004,1.185762,0.2678435,290.7623,262.9207,348.511,True
2,1.288891,-0.1849845,-0.1256264,0.03489177,-1.456363,-4.632151,-2.118421,0.3643406,1.271406,0.3792486,-0.6187519,0.879407,7,92.9,-0.01113045,0.0361398,0.1494737,-0.4612771,-3.001259,-0.9178329,0.4810605,1.407747,0.3005238,0.02089182,0.02150778,0.08596046,-0.4964175,0.2265188,-0.1586461,0.6225911,1.479933,0.1759956,0.03978669,1.183736,0.2678798,291.1407,262.7195,348.6928,True
2,1.300002,-0.2019733,-0.1426983,0.03708457,-1.455029,-4.630983,-2.115833,0.3634869,1.27177,0.3791933,-0.6085771,0.9159593,7,92.9,-0.01748449,0.02014758,0.1504792,-0.4601128,-2.998841,-0.9196425,0.4804502,1.407639,0.3005393,0.01237924,0.03007039,0.08394296,-0.4956936,0.2280378,-0.1598773,0.6218684,1.479762,0.1760683,0.0392365,1.181641,0.2678987,291.5564,262.4672,348.932,True
2,1.311113,-0.2339429,-0.1396437,0.02961442,-1.453817,-4.630152,-2.112233,0.3625109,1.272238,0.3791311,-0.5972554,1.020376,14.1,100,-0.01749497,-0.01281119,0.1406816,-0.4584781,-2.998646,-0.9196223,0.4798523,1.407695,0.3006661,0.003781602,0.03121505,0.07443192,-0.4952553,0.229018,-0.1604893,0.6211635,1.479588,0.1761701,0.03873941,1.179475,0.2679027,292.0262,262.2446,349.1438,True
2,1.322224,-0.2659363,-0.1291136,0.02210122,-1.453038,-4.629885,-2.10842,0.3614326,1.272643,0.3790495,-0.5872611,0.8980502,14.1,100,-0.01838639,-0.05337361,0.154279,-0.455759,-2.997331,-0.9205533,0.4792393,1.407713,0.3007038,-0.007944308,0.02592012,0.07662901,-0.4943541,0.2296358,-0.160468,0.6204327,1.479461,0.17628,0.03814384,1.177289,0.2678772,292.5777,262.0096,349.365,True
2,1.333336,-0.2820023,-0.1025726,0.01346339,-1.452703,-4.629825,-2.104877,0.3604054,1.273138,0.3789673,-0.5756934,1.042747,14.1,100,-0.03754826,-0.07788678,0.1500083,-0.4534421,-2.996779,-0.9199906,0.4785997,1.407641,0.3006661,-0.02186625,0.02494525,0.06821494,-0.4938939,0.2303411,-0.1604136,0.6197232,1.479285,0.1764309,0.03749954,1.17514,0.2678336,293.1168,261.8761,349.4851,True
2,1.344447,-0.2937487,-0.0962042,0.009161018,-1.452143,-4.629828,-2.101155,0.3593178,1.273679,0.3788471,-0.5645151,1.005641,14.1,100,-0.05231123,-0.07059568,0.1725384,-0.4514718,-2.992482,-0.9227576,0.477927,1.407703,0.3006024,-0.02724178,0.03353434,0.05978988,-0.4935216,0.2320105,-0.1613258,0.6189778,1.479139,0.1765063,0.03671877,1.173081,0.2677889,293.6724,261.8076,349.5276,True
2,1.355558,-0.3054856,-0.08986489,0.005937086,-1.451423,-4.629469,-2.097434,0.3581204,1.274239,0.3787918,-0.55362,0.9800327,45.6,100,-0.07119174,-0.05599192,0.2164518,-0.4490446,-2.985116,-0.9279593,0.4771687,1.407639,0.3004599,-0.03784451,0.04314686,0.06205542,-0.4929607,0.234035,-0.1623807,0.6182406,1.478912,0.1767781,0.03579109,1.171166,0.26779,294.1984,261.7987,349.5045,True
2,1.366669,-0.3267518,-0.1016735,0.001727402,-1.450052,-4.6288,-2.093182,0.3567789,1.27486,0.3787591,-0.5436588,0.8969628,45.6,100,-0.09125085,-0.04662257,0.2454199,-0.4467224,-2.978821,-0.9317521,0.4761555,1.407537,0.3004301,-0.04199429,0.05589711,0.07068202,-0.492076,0.2366157,-0.164043,0.6173946,1.478775,0.1769948,0.03481301,1.169487,0.2678729,294.7089,261.8523,349.4521,False
2,1.37778,-0.3457353,-0.1539582,-0.002295505,-1.447091,-4.627087,-2.089247,0.3552364,1.275529,0.3787398,-0.5351393,0.7667005,45.6,100,-0.09966202,-0.03077861,0.2647611,-0.444791,-2.971832,-0.9366668,0.475314,1.407419,0.3003001,-0.04941697,0.06337554,0.07184838,-0.4914486,0.2389559,-0.1653535,0.6165791,1.478665,0.1773055,0.03376937,1.168146,0.2680263,295.187,261.8649,349.484,False
2,1.388891,-0.3647916,-0.1892097,-0.009599201,-1.444112,-4.625758,-2.084808,0.3537977,1.27626,0.3786762,-0.5273272,0.7038448,45.6,100,-0.1049286,-0.03083758,0.2733257,-0.4426483,-2.965816,-0.9407182,0.4742967,1.407341,0.300252,-0.05469546,0.07830623,0.07197343,-0.4909042,0.2420933,-0.1673522,0.6157219,1.478494,0.1775496,0.03260791,1.167234,0.2682075,295.5853,261.7996,349.6171,False
2,1.400002,-0.3902157,-0.2319574,-0.02006141,-1.440331,-4.624213,-2.079838,0.3523822,1.277025,0.378587,-0.5212749,0.5440626,45.6,100,-0.1091621,-0.02555466,0.2787254,-0.4405833,-2.959782,-0.94482,0.4734054,1.407165,0.3000844,-0.06527997,0.09110394,0.07639267,-0.4901665,0.2455586,-0.1692095,0.6149126,1.478349,0.1777875,0.03124679,1.166823,0.2683534,295.8764,261.5769,349.9164,False
2,1.411114,-0.4059107,-0.3163077,-0.05165353,-1.433802,-4.622483,-2.074941,0.3505771,1.278022,0.378464,-0.5155646,0.514694,97.3,100,-0.1271648,-0.03311476,0.2916016,-0.4379952,-2.953321,-0.9485871,0.4722556,1.407161,0.2999153,-0.09501936,0.1103556,0.07993887,-0.4894666,0.2499314,-0.1709829,0.6140119,1.478076,0.1780682,0.02970149,1.166925,0.2683967,296.007,261.137,350.4183,False
2,1.422225,-0.4036576,-0.352576,-0.06427915,-1.428893,-4.621032,-2.070873,0.3490006,1.278788,0.3783805,-0.5104726,0.4587797,97.3,100,-0.1368217,-0.03839234,0.2809886,-0.4358886,-2.948852,-0.9508007,0.4712663,1.406965,0.2996936,-0.1120734,0.1146916,0.07797414,-0.4889196,0.2533498,-0.1721462,0.6131655,1.477833,0.1783378,0.02808416,1.167546,0.2683194,296.0095,260.6542,350.9247,False
2,1.433336,-0.404651,-0.3739501,-0.07910065,-1.423931,-4.619907,-2.066557,0.3472703,1.27963,0.3782423,-0.5066621,0.3424685,97.3,100,-0.1548698,-0.03528276,0.2907359,-0.4336649,-2.942201,-0.9544237,0.4700454,1.406754,0.2993622,-0.1365743,0.114769,0.07817641,-0.4882607,0.2563354,-0.1724088,0.612231,1.477539,0.1786091,0.02636459,1.168642,0.268111,295.9139,259.9716,351.5793,False
2,1.444447,-0.4067588,-0.3825515,-0.09504547,-1.419382,-4.619191,-2.062109,0.3456292,1.280391,0.3780951,-0.5042786,0.2133387,97.3,100,-0.1696351,-0.02692398,0.3143432,-0.431276,-2.9333,-0.9600163,0.4687768,1.406631,0.2990072,-0.1546743,0.1180176,0.07940984,-0.4876046,0.2596699,-0.1729446,0.6114398,1.477319,0.1789029,0.02443849,1.170126,0.2678097,295.7177,258.9543,352.4907,False
2,1.455558,-0.4132084,-0.3655747,-0.1057724,-1.415624,-4.618952,-2.057359,0.3438726,1.28112,0.3779683,-0.5013347,0.2657732,97.3,100,-0.1822776,-0.02600135,0.3336156,-0.4286043,-2.92524,-0.9649131,0.4674305,1.406383,0.2986634,-0.1812086,0.1372524,0.08399349,-0.4869553,0.2646235,-0.1744104,0.6103242,1.477057,0.1792176,0.02247446,1.171875,0.2674963,295.3778,258.1083,353.2152,False
2,1.466669,-0.4272249,-0.3177215,-0.1134377,-1.413398,-4.619431,-2.052005,0.3420896,1.281835,0.3778019,-0.4987813,0.2298204,100,100,-0.1897729,-0.01108778,0.3327058,-0.4268983,-2.91735,-0.9696996,0.4659739,1.406155,0.2983942,-0.1927048,0.1552921,0.1044321,-0.4855076,0.2703813,-0.1770086,0.6092332,1.476867,0.1795747,0.02044993,1.173727,0.267211,295.0097,257.3856,353.8472,False
2,1.47778,-0.4466309,-0.249627,-0.1179943,-1.412397,-4.62059,-2.046174,0.3401535,1.282396,0.3776059,-0.4964457,0.2104942,100,100,-0.1876434,-0.006829977,0.3337851,-0.4248456,-2.909777,-0.9746158,0.4646381,1.405859,0.2980354,-0.2094842,0.1733209,0.1291783,-0.4836705,0.2766062,-0.1796979,0.608048,1.476603,0.1798263,0.01839912,1.175568,0.2669944,294.6749,256.726,354.444,False
2,1.488891,-0.4554101,-0.1740533,-0.124715,-1.412124,-4.622289,-2.040468,0.3382313,1.283074,0.3773184,-0.4941655,0.2057386,100,100,-0.1928098,-0.02292529,0.3518337,-0.4217238,-2.901454,-0.9798254,0.4629554,1.40569,0.2976422,-0.2242582,0.1764735,0.145298,-0.4818788,0.2817692,-0.1812092,0.6068034,1.476376,0.1801167,0.01624993,1.177345,0.2668714,294.4301,256.2399,354.8957,False
2,1.500003,-0.4556145,-0.1123737,-0.1484189,-1.411538,-4.624736,-2.035145,0.3362202,1.283748,0.3770247,-0.4922858,0.1693523,100,100,-0.2130007,-0.02831143,0.3572816,-0.4191107,-2.893512,-0.9839885,0.4613619,1.405474,0.297323,-0.2316924,0.1818233,0.145386,-0.4807629,0.2870186,-0.1831168,0.6056217,1.476163,0.1804142,0.01393829,1.179092,0.2668468,294.2756,256.0308,355.1221,False
2,1.511114,-0.4706371,-0.08056284,-0.1709283,-1.410521,-4.627222,-2.029022,0.3342206,1.284463,0.3767819,-0.4912499,0.09267551,100,100,-0.2374256,-0.01778424,0.370314,-0.4167165,-2.883933,-0.9892493,0.4597303,1.405262,0.2967911,-0.2381132,0.1893333,0.1401616,-0.4797637,0.2928681,-0.185339,0.6043207,1.475912,0.1806967,0.01140826,1.180884,0.2669061,294.1651,256.0368,355.1912,False
2,1.522225,-0.4791356,-0.08810879,-0.1847477,-1.408131,-4.628847,-2.023148,0.3321787,1.285303,0.3764875,-0.4907359,0.04567596,100,100,-0.2427392,-0.007169604,0.3746838,-0.4146079,-2.874587,-0.9949591,0.4580454,1.405049,0.2962437,-0.2402097,0.1989216,0.1413096,-0.4784923,0.2989867,-0.1880181,0.6030679,1.475719,0.1810334,0.008737417,1.182818,0.2670377,294.046,256.0856,355.253,False
2,1.533336,-0.4864196,-0.1393228,-0.1973093,-1.403958,-4.629797,-2.017205,0.3300005,1.286197,0.3762522,-0.4890954,0.1490831,100,100,-0.2643031,0.008965522,0.3440512,-0.4135186,-2.867712,-0.9975355,0.4563181,1.404786,0.2956815,-0.2498251,0.2032417,0.136084,-0.4776427,0.3047911,-0.1900533,0.6017959,1.475491,0.1812847,0.005970635,1.184916,0.2672712,293.8444,255.9985,355.4327,False
2,1.544447,-0.4850897,-0.2149984,-0.2055044,-1.398274,-4.629781,-2.011919,0.3277134,1.287201,0.3759015,-0.4883646,0.06509699,100,100,-0.2759649,0.01100779,0.352681,-0.411297,-2.858641,-1.002432,0.454517,1.40435,0.2951329,-0.2648104,0.1969244,0.1308436,-0.4767564,0.3095089,-0.1907194,0.600542,1.475251,0.1816468,0.003174282,1.1872,0.2676263,293.6062,255.7825,355.7603,False
2,1.555558,-0.471046,-0.2725184,-0.2148424,-1.392566,-4.630046,-2.007177,0.3255471,1.288078,0.3756137,-0.4875854,0.0704115,100,100,-0.3046766,-0.003977895,0.3559998,-0.4086056,-2.850615,-1.005564,0.4528354,1.404102,0.2945724,-0.286204,0.1938486,0.1214156,-0.4760853,0.3142265,-0.191064,0.5992758,1.475,0.1819894,0.0003875769,1.189658,0.2680475,293.3179,255.2951,356.4151,False
2,1.566669,-0.4249534,-0.3598509,-0.2378945,-1.384471,-4.629985,-2.004141,0.3232988,1.288525,0.3739939,-0.4875321,0.003972072,100,100,-0.3461626,-0.006232291,0.3637521,-0.4061363,-2.841752,-1.008491,0.4510607,1.40375,0.2940574,-0.2926058,0.2045507,0.1162006,-0.4755042,0.3203269,-0.1930241,0.5979983,1.474728,0.1823208,-0.002422316,1.192229,0.2684503,292.9921,254.4955,357.4138,False
2,1.577781,-0.430219,-0.3791181,-0.2548562,-1.378779,-4.631131,-1.998885,0.3212272,1.289337,0.3736553,-0.4876818,-0.01399626,100,100,-0.3429742,0.01824412,0.3692177,-0.4047675,-2.830869,-1.014818,0.4493724,1.403493,0.2935541,-0.2883596,0.2109526,0.1119393,-0.4749646,0.3263336,-0.1952992,0.596637,1.47444,0.1826241,-0.005213345,1.194825,0.2687369,292.6225,253.4662,358.6392,False
2,1.588892,-0.449378,-0.3834446,-0.2548358,-1.373698,-4.631875,-1.993136,0.31904,1.29016,0.3733327,-0.4888578,-0.1077244,100,100,-0.3130514,-0.00837332,0.3752187,-0.4017485,-2.822466,-1.020201,0.4475425,1.403182,0.2931316,-0.279859,0.1874508,0.1181244,-0.4737939,0.3295988,-0.1954896,0.5952466,1.474164,0.1829007,-0.007947015,1.19729,0.2688308,292.1512,252.3995,359.9912,False
2,1.600003,-0.455815,-0.3696217,-0.2548951,-1.369347,-4.632971,-1.987677,0.3168006,1.290956,0.3729939,-0.4865047,0.2156929,100,100,-0.3119839,-0.04985976,0.365364,-0.3981112,-2.816952,-1.021871,0.4457001,1.402869,0.2927072,-0.2830425,0.1746423,0.1244723,-0.4725114,0.333438,-0.1956782,0.5938211,1.473876,0.1831491,-0.01060801,1.199341,0.2685706,291.6586,251.0967,1.565866,False
2,1.611114,-0.4324714,-0.3428678,-0.2454149,-1.365963,-4.633942,-1.98363,0.314447,1.291708,0.372654,-0.4853132,0.106814,100,100,-0.3150847,-0.1158924,0.3617736,-0.3930922,-2.813261,-1.021759,0.4437777,1.402583,0.2922387,-0.295996,0.1459701,0.1148283,-0.4717422,0.3348086,-0.193247,0.5923173,1.473524,0.1833794,-0.01311664,1.201013,0.2681246,291.4974,250.0672,2.474857,False
2,1.622225,-0.4091119,-0.3183259,-0.2519128,-1.362213,-4.635601,-1.979634,0.3118957,1.292419,0.3723578,-0.4853643,-0.005581867,100,100,-0.3523641,-0.1542608,0.3532812,-0.3887677,-2.809268,-1.020314,0.4415584,1.402173,0.2916543,-0.3248414,0.1322389,0.1096607,-0.4709561,0.3372428,-0.1908855,0.59076,1.473208,0.1836843,-0.01562648,1.202495,0.2676341,291.5759,249.2773,3.032168,False
2,1.633336,-0.4005977,-0.3162293,-0.2646945,-1.357693,-4.637228,-1.975132,0.3093075,1.292956,0.3720922,-0.486567,-0.1099403,100,100,-0.3757086,-0.1171543,0.3749969,-0.3862084,-2.798269,-1.025518,0.4393693,1.401727,0.2910967,-0.3504081,0.1515345,0.1025201,-0.4705534,0.3426435,-0.190926,0.5891405,1.472779,0.1841314,-0.01823185,1.20398,0.2672065,291.6906,248.6152,3.522998,False
2,1.644447,-0.406939,-0.3322832,-0.2763395,-1.352373,-4.638758,-1.969915,0.3065756,1.293559,0.3717539,-0.4866144,-0.003605843,100,100,-0.3968263,-0.008870602,0.4280378,-0.3860817,-2.778239,-1.038836,0.4367786,1.401146,0.2904921,-0.3780633,0.1708091,0.1007211,-0.4699483,0.3488853,-0.1913638,0.5872281,1.472161,0.1846747,-0.02098202,1.205536,0.2669024,291.6685,247.986,4.068209,False
2,1.655559,-0.4089833,-0.3600463,-0.2890001,-1.346344,-4.640214,-1.964837,0.3039212,1.294061,0.3714905,-0.4858032,0.07385975,100,100,-0.4212025,-0.00795868,0.4452707,-0.383206,-2.765398,-1.045205,0.4343854,1.400586,0.289896,-0.4055381,0.2081175,0.1128776,-0.4689081,0.357316,-0.1935697,0.5853266,1.471598,0.1852739,-0.0239495,1.207131,0.2667963,291.5217,247.2029,4.80771,False
2,1.66667,-0.3875638,-0.3930635,-0.3027123,-1.33978,-4.6417,-1.960822,0.3010537,1.294538,0.3712485,-0.4847662,0.09400462,100,80.3,-0.4434004,-0.004959017,0.4689009,-0.3799953,-2.75169,-1.052314,0.4319288,1.400074,0.2893405,-0.4203854,0.226268,0.1141648,-0.4682189,0.3647696,-0.1949833,0.5834761,1.471025,0.1858137,-0.02710582,1.208725,0.2669389,291.3408,246.2737,5.760937,False
2,1.677781,-0.3608638,-0.4121247,-0.2973031,-1.333715,-4.642614,-1.957478,0.2983202,1.295157,0.3709712,-0.4846639,0.008542652,100,80.3,-0.4315014,0.008736968,0.4976608,-0.3772293,-2.735701,-1.06274,0.4295142,1.399548,0.2887869,-0.4481083,0.226372,0.1111977,-0.46756,0.3708697,-0.1944361,0.5814663,1.470347,0.1863501,-0.0304109,1.210341,0.2673132,291.2128,245.2703,6.883795,False
2,1.688892,-0.3448516,-0.4227287,-0.2983154,-1.327775,-4.643775,-1.953851,0.2953036,1.295613,0.3707323,-0.4856242,-0.08791676,100,80.3,-0.4263786,-0.03256574,0.4600728,-0.3737544,-2.728559,-1.064788,0.4265982,1.398862,0.2884328,-0.4854706,0.1955759,0.1134527,-0.4666045,0.3734062,-0.1900666,0.579456,1.469696,0.1868734,-0.03374808,1.211989,0.2678825,291.0886,244.1626,8.173524,False
2,1.700003,-0.3523135,-0.4238104,-0.2951123,-1.322148,-4.645014,-1.949136,0.2922596,1.295978,0.3703706,-0.4860972,-0.0425595,100,80.3,-0.4382517,0.002643824,0.4486655,-0.3724314,-2.716211,-1.070925,0.4239048,1.398233,0.2879045,-0.520641,0.1903595,0.1137137,-0.4657203,0.3781143,-0.1872439,0.577331,1.468901,0.1874552,-0.03708606,1.213617,0.2685934,290.9339,243.0382,9.524255,False
2,1.711114,-0.3619005,-0.423806,-0.2865892,-1.316693,-4.646004,-1.944487,0.2891717,1.296331,0.370039,-0.485686,0.03766137,100,80.3,-0.4413081,0.008901715,0.4689695,-0.3698997,-2.701463,-1.079625,0.4211268,1.397517,0.287308,-0.5333803,0.2085362,0.1107273,-0.4652766,0.3851783,-0.1873648,0.5753127,1.468176,0.1880956,-0.04034312,1.215153,0.269349,290.7724,242.039,10.79318,False
2,1.722225,-0.3854078,-0.4004303,-0.2802932,-1.312116,-4.647384,-1.939208,0.2857888,1.296412,0.3695676,-0.4843928,0.1177967,100,62.2,-0.4624119,-0.01045138,0.491382,-0.3661399,-2.686738,-1.087489,0.4182761,1.396562,0.2867415,-0.5341187,0.2616968,0.1291484,-0.4641357,0.3964102,-0.1916078,0.5729696,1.467276,0.188833,-0.0437061,1.216515,0.2700454,290.6347,241.1125,11.98678,False
2,1.733337,-0.3886585,-0.38231,-0.2750403,-1.307599,-4.648767,-1.934443,0.2825685,1.296419,0.3690341,-0.4841781,0.018549,100,62.2,-0.46999,0.008784056,0.4798412,-0.3644994,-2.673345,-1.094448,0.4154046,1.395635,0.2861605,-0.5349749,0.3032001,0.1379095,-0.4632771,0.4073865,-0.1955162,0.5706692,1.466445,0.1894674,-0.04719895,1.217729,0.2705873,290.5917,240.3069,13.04403,False
2,1.744448,-0.3908386,-0.3673521,-0.2623191,-1.303246,-4.649827,-1.929762,0.2794396,1.296404,0.3684981,-0.4836311,0.04998387,100,62.2,-0.4583759,0.03016314,0.4713638,-0.3633596,-2.659807,-1.102368,0.4124424,1.39472,0.2855768,-0.5243757,0.2892537,0.1388134,-0.4620574,0.412775,-0.1946872,0.5684355,1.465647,0.1897633,-0.05082639,1.218864,0.2709009,290.5864,239.5275,14.02606,False
2,1.755559,-0.3824049,-0.3416881,-0.2464454,-1.299745,-4.650867,-1.925441,0.2763214,1.29624,0.3678956,-0.484103,-0.04356959,100,62.2,-0.4775165,-0.0007431507,0.468116,-0.359988,-2.648255,-1.107177,0.4094752,1.393622,0.2849228,-0.5264524,0.2700188,0.1525933,-0.4603215,0.4187344,-0.1941972,0.5660166,1.464766,0.190371,-0.05464322,1.21998,0.2709399,290.5549,238.8009,14.90502,False
2,1.76667,-0.3558118,-0.3287984,-0.2411788,-1.295684,-4.652127,-1.922033,0.2732538,1.29598,0.3673077,-0.4841691,-0.005612922,81.4,53.5,-0.4871577,0.01843637,0.4651156,-0.3584886,-2.634182,-1.114527,0.4065599,1.3925,0.2843242,-0.5069695,0.2910671,0.1823622,-0.4581564,0.4281471,-0.1974481,0.5634649,1.463745,0.1909423,-0.05839025,1.221108,0.2707217,290.4718,237.9576,15.83302,False
2,1.777781,-0.3216805,-0.3414774,-0.2432549,-1.290712,-4.653298,-1.919267,0.2702872,1.295695,0.3667724,-0.4844988,-0.0301753,81.4,53.5,-0.5215054,0.04412156,0.4367708,-0.3579278,-2.622673,-1.118421,0.4036832,1.391458,0.2835729,-0.485775,0.2697292,0.1757169,-0.4567891,0.4341557,-0.198251,0.561276,1.462866,0.1913335,-0.06193971,1.222246,0.2702744,290.352,237.0489,16.76543,False
2,1.788892,-0.2587161,-0.3743343,-0.2505647,-1.284491,-4.65418,-1.91829,0.2672604,1.295217,0.3661935,-0.4854319,-0.08511436,81.4,53.5,-0.5485233,-0.0703063,0.5001748,-0.3502707,-2.608099,-1.125116,0.4009556,1.389924,0.2828109,-0.4719754,0.2505088,0.1765567,-0.4553116,0.4394043,-0.1980982,0.5588359,1.461656,0.1916547,-0.06530994,1.223352,0.269636,290.1784,236.0874,17.69707,False
2,1.800003,-0.1807751,-0.4295015,-0.2577673,-1.277256,-4.654627,-1.918554,0.2642664,1.29458,0.3656728,-0.4859896,-0.05040617,81.4,53.5,-0.5842419,0.03860402,0.4510584,-0.3524374,-2.594292,-1.130366,0.3979634,1.388612,0.282094,-0.4622489,0.2493306,0.1945814,-0.4532146,0.4473429,-0.2001587,0.5564121,1.460432,0.1920137,-0.06851597,1.224319,0.2689109,289.9768,234.8403,18.83746,False
2,1.811115,-0.1498035,-0.4549778,-0.2597819,-1.270666,-4.655375,-1.917571,0.2614595,1.293546,0.365335,-0.487481,-0.136173,81.4,53.5,-0.473039,0.1286977,0.3868574,-0.3559421,-2.583602,-1.138438,0.3949529,1.386965,0.2815878,-0.4544924,0.273663,0.221287,-0.4506521,0.4576283,-0.2045939,0.5536858,1.459376,0.1924148,-0.07159258,1.225007,0.2682343,289.8,233.3048,20.2298,False
2,1.822226,-0.1402912,-0.4314198,-0.2375027,-1.266274,-4.655662,-1.916086,0.2587132,1.292566,0.3649609,-0.4883524,-0.07888522,43.4,56.3,-0.4063568,0.1664148,0.3375907,-0.3576146,-2.574311,-1.144758,0.3921274,1.385622,0.2811782,-0.4373714,0.2757244,0.2317371,-0.4490185,0.4664164,-0.2079929,0.5507962,1.45803,0.192836,-0.07460427,1.2252,0.2677276,289.6427,231.5068,21.90935,False
2,1.833337,-0.1127636,-0.3811169,-0.2046942,-1.263355,-4.655849,-1.915649,0.2561831,1.291453,0.3645875,-0.4868146,0.1407977,43.4,56.3,-0.3630119,0.1242282,0.2826652,-0.3570516,-2.570987,-1.145092,0.389434,1.384258,0.2808452,-0.3776686,0.2498957,0.2480986,-0.4466617,0.4720375,-0.2106973,0.5480491,1.456999,0.1931052,-0.07753179,1.224668,0.2674966,289.5547,229.7444,23.59207,False
2,1.844448,-0.101227,-0.3287686,-0.1814813,-1.261258,-4.656372,-1.91468,0.2535711,1.290417,0.3641911,-0.4856354,0.1063062,43.4,56.3,-0.338513,0.01790836,0.2562449,-0.353174,-2.569252,-1.143714,0.3868582,1.38274,0.2806005,-0.3391724,0.244361,0.2669239,-0.4438525,0.4799637,-0.2153941,0.5454138,1.455855,0.1935856,-0.080378,1.223358,0.2675949,289.6505,228.7888,24.54743,False
2,1.855559,-0.05677276,-0.2432181,-0.1413734,-1.261331,-4.656571,-1.915473,0.2508793,1.288921,0.3638062,-0.4862778,-0.05971648,43.4,56.3,-0.3442395,-0.01580432,0.1953426,-0.3520209,-2.570366,-1.138537,0.3841586,1.381223,0.2802925,-0.2845822,0.217332,0.3099909,-0.4396293,0.4859845,-0.2193563,0.5428884,1.454769,0.1939292,-0.08313257,1.221473,0.2679276,289.9637,228.9369,24.55258,False
2,1.86667,-0.03146514,-0.1673538,-0.1086823,-1.261824,-4.656868,-1.915826,0.2483376,1.287335,0.3632522,-0.4856897,0.05418477,25.6,62.3,-0.3445584,-0.06020856,0.141797,-0.3502733,-2.57374,-1.131563,0.38145,1.379677,0.2798717,-0.2823402,0.2183249,0.3238287,-0.4363153,0.4939523,-0.2234291,0.5403984,1.453564,0.1944971,-0.08574182,1.219249,0.2683496,290.3738,229.5869,24.14301,False
2,1.877781,-0.01244913,-0.120333,-0.08971743,-1.261691,-4.657359,-1.916036,0.2456972,1.285804,0.3627636,-0.4870064,-0.1210845,25.6,62.3,-0.3639972,-0.03768697,0.1122477,-0.3505886,-2.572104,-1.128389,0.3785863,1.37804,0.2793283,-0.2887066,0.2343534,0.3197117,-0.4338353,0.5031845,-0.2283405,0.5380192,1.452557,0.1949973,-0.08836296,1.216938,0.2687175,290.793,230.389,23.58115,False
2,1.888893,0.006675055,-0.1042263,-0.07487136,-1.260791,-4.657406,-1.916687,0.2432188,1.284239,0.3622866,-0.4864407,0.05259752,25.6,62.3,-0.3769026,0.02195841,0.11059,-0.3521583,-2.566213,-1.129313,0.3758846,1.376326,0.2787843,-0.2981795,0.2609962,0.3241933,-0.4311354,0.5142245,-0.2346559,0.5355905,1.451421,0.1955571,-0.09100062,1.214647,0.2689223,290.9937,231.0864,23.09992,False
2,1.900004,0.03438932,-0.1083647,-0.06739643,-1.259309,-4.65737,-1.918003,0.2407244,1.282651,0.3617949,-0.4859688,0.04235148,25.6,62.3,-0.3995672,0.1274699,0.09757999,-0.3565775,-2.558158,-1.131619,0.373291,1.37448,0.2782025,-0.3034586,0.2770132,0.3222061,-0.428533,0.5249322,-0.2409269,0.5332115,1.45026,0.1961672,-0.09361561,1.212412,0.2688807,291.1054,231.6252,22.7241,False
2,1.911115,0.04826491,-0.1157229,-0.05564735,-1.257785,-4.657032,-1.919143,0.2382635,1.28095,0.361299,-0.4859694,-0.000572694,25.6,62.3,-0.3920352,0.1891177,0.1224173,-0.3594756,-2.547317,-1.137682,0.370778,1.372719,0.2777841,-0.3022212,0.3131924,0.3298535,-0.4258533,0.53859,-0.2499222,0.5308342,1.449001,0.196696,-0.09621687,1.210279,0.2685914,291.2293,231.8179,22.57151,False
2,1.922226,0.06530533,-0.11444,-0.01942673,-1.257114,-4.655499,-1.920746,0.2361387,1.278983,0.3608015,-0.4863571,-0.03560409,14.5,58.2,-0.3996092,0.1519658,0.09774214,-0.3593563,-2.546324,-1.134008,0.3684267,1.370936,0.2776091,-0.2828045,0.3257881,0.3542686,-0.4222085,0.5514179,-0.2591448,0.5283984,1.447884,0.1973279,-0.09869374,1.208259,0.268109,291.3323,231.6777,22.65859,False
2,1.933337,0.09090177,-0.1260065,-0.004465077,-1.255589,-4.654545,-1.92268,0.2339547,1.277088,0.3602898,-0.4858676,0.04488982,14.5,58.2,-0.3934117,0.06809673,0.05241775,-0.3578181,-2.551238,-1.125095,0.3661132,1.369107,0.2773569,-0.2689558,0.3257526,0.3552203,-0.4192801,0.5624456,-0.2664959,0.5259784,1.446665,0.1978388,-0.101064,1.206292,0.2675107,291.3701,231.3127,22.91958,False
2,1.944448,0.1090517,-0.1376301,0.0041123,-1.253899,-4.65344,-1.924774,0.2317607,1.2753,0.3596787,-0.4856594,0.01843317,14.5,58.2,-0.4084856,0.038427,0.02358098,-0.3576359,-2.553587,-1.117913,0.3638207,1.367318,0.2770097,-0.2540195,0.3267615,0.3582984,-0.4164028,0.5740718,-0.2746529,0.5237113,1.445463,0.198355,-0.1032802,1.204289,0.2668533,291.3414,230.9579,23.19416,False
2,1.955559,0.1379123,-0.1673299,0.01169883,-1.251372,-4.65199,-1.927588,0.2297382,1.273438,0.3591843,-0.4859278,-0.02483942,14.5,58.2,-0.4073684,0.05113345,0.03430678,-0.3582378,-2.550058,-1.116667,0.3616368,1.365469,0.2765253,-0.2273844,0.3224034,0.3601868,-0.4134478,0.5849964,-0.2831134,0.5214642,1.44435,0.1988497,-0.1052247,1.20214,0.2661167,291.2741,230.7038,23.41915,False
2,1.966671,0.1828393,-0.2226224,0.00128793,-1.247259,-4.65066,-1.931436,0.2278901,1.271713,0.3587971,-0.4858453,0.007649655,8.2,43.9,-0.3965557,0.06910306,0.05990953,-0.3588721,-2.544133,-1.118252,0.3594532,1.363752,0.2759709,-0.2059945,0.3222879,0.3696039,-0.4101641,0.596871,-0.2925072,0.5192606,1.443249,0.1992517,-0.1070683,1.199761,0.2653124,291.2953,230.4283,23.63027,False
2,1.977782,0.2245874,-0.2833178,-0.02294703,-1.242138,-4.649677,-1.935482,0.2261114,1.270005,0.3582888,-0.4861984,-0.0325533,8.2,43.9,-0.4090835,0.08907312,0.09954268,-0.3593521,-2.535462,-1.121225,0.3573479,1.362065,0.2752521,-0.1878915,0.3104861,0.3747204,-0.4068746,0.6078063,-0.3008917,0.517169,1.442135,0.1996806,-0.108875,1.197134,0.264484,291.4291,230.1796,23.77074,False
2,1.988893,0.2417066,-0.3056871,-0.03563425,-1.237954,-4.648913,-1.939017,0.2243212,1.268397,0.3578978,-0.4870197,-0.07500225,8.2,43.9,-0.3825114,0.1178901,0.09846067,-0.3609371,-2.530319,-1.122614,0.3553724,1.360567,0.2747219,-0.1719778,0.3008739,0.3713387,-0.4039962,0.6184558,-0.3090867,0.5149292,1.44104,0.1999807,-0.1105418,1.194239,0.2637172,291.6381,229.7978,23.98894,False
2,2.000004,0.2352849,-0.2982796,-0.03993361,-1.234846,-4.648363,-1.94149,0.2226751,1.266549,0.3574293,-0.4870607,-0.003371102,8.2,43.9,-0.3158733,0.1375314,0.04056719,-0.363236,-2.531119,-1.120587,0.3536032,1.359032,0.2744811,-0.1377611,0.2932065,0.390193,-0.4003466,0.6297163,-0.3189218,0.5128198,1.439894,0.2003098,-0.1120162,1.191045,0.2631382,291.9243,229.2549,24.34025,False
2,2.011115,0.1582361,-0.1973315,-0.03823649,-1.235748,-4.649159,-1.94035,0.2211597,1.264734,0.3571348,-0.4862591,0.07301926,8.2,43.9,-0.2424673,0.05902651,0.007559761,-0.3617627,-2.535792,-1.11569,0.3518881,1.357367,0.2742939,-0.1184062,0.2962324,0.4102935,-0.3963636,0.6424884,-0.3299774,0.5107076,1.438881,0.2005055,-0.113396,1.187551,0.2628466,292.3008,228.8671,24.57563,False
2,2.022226,0.1578456,-0.08214389,-0.007849857,-1.238685,-4.649281,-1.94205,0.2198887,1.262777,0.356879,-0.4849105,0.1224563,4.3,27.8,-0.1935451,0.05386423,-0.004562863,-0.3622879,-2.5362,-1.114656,0.3502352,1.355868,0.274081,-0.09185466,0.271654,0.4099423,-0.392918,0.6521887,-0.3387527,0.5088149,1.437698,0.2008343,-0.1147903,1.183862,0.2628811,292.7369,228.958,24.43539,False
2,2.033337,0.179833,0.03198808,0.007622473,-1.242417,-4.650175,-1.944592,0.2189297,1.260834,0.3566332,-0.4815474,0.3064605,4.3,27.8,-0.1567424,0.0883738,-0.0589765,-0.3652499,-2.540295,-1.109925,0.3486922,1.354369,0.2737401,-0.04513246,0.2235674,0.4092982,-0.3889861,0.6584302,-0.3455766,0.5071778,1.436788,0.2007976,-0.1162268,1.180159,0.26318,293.1887,229.6235,23.85598,False
2,2.044448,0.1913522,0.08957927,0.01268742,-1.245103,-4.651088,-1.946716,0.2178478,1.259003,0.3563333,-0.4839171,-0.2191106,4.3,27.8,-0.1449558,0.09897384,-0.04727869,-0.3666949,-2.538893,-1.109962,0.34724,1.352926,0.2734075,-0.02810368,0.2128478,0.4122924,-0.3853264,0.6680565,-0.3545879,0.5054423,1.435801,0.2008808,-0.1177148,1.176837,0.2636127,293.6537,231.0439,22.63286,False
2,2.055559,0.1954633,0.1342733,-0.001358774,-1.247568,-4.652648,-1.948614,0.2170294,1.257269,0.3561587,-0.4853606,-0.1297297,4.3,27.8,-0.2310184,-0.03877354,-0.1934435,-0.3648616,-2.562876,-1.081884,0.3460101,1.351195,0.2735379,-0.00477469,0.1840234,0.409811,-0.381533,0.6751748,-0.3619265,0.5038933,1.434919,0.2008767,-0.1189733,1.174098,0.2640269,293.8643,232.2971,21.64252,False
2,2.06667,0.1901995,0.1149973,-0.02044618,-1.247817,-4.653712,-1.950181,0.216206,1.255743,0.356091,-0.4849664,0.03686097,4.3,27.8,-0.09863959,0.06759629,-0.1298423,-0.368459,-2.556051,-1.091943,0.3448358,1.350063,0.2730207,-0.008219391,0.1756574,0.3831617,-0.3789912,0.6826906,-0.3686366,0.5023673,1.433939,0.2009444,-0.119924,1.171861,0.2643496,293.8231,233.055,21.10636,False
2,2.077781,0.188123,0.1000524,-0.02570587,-1.248149,-4.654318,-1.952077,0.2153136,1.254262,0.3560083,-0.4847587,0.01845161,2,15,-0.1262406,0.05574179,-0.1190402,-0.3689852,-2.556334,-1.089413,0.3436423,1.348577,0.272675,8.481741E-05,0.18645,0.3522596,-0.3772495,0.6918148,-0.3773313,0.5012833,1.433218,0.2009749,-0.1201326,1.170834,0.2645659,293.6678,233.9662,20.11919,False
2,2.088892,0.1787359,0.03920782,-0.04567895,-1.246305,-4.654915,-1.953505,0.2146231,1.253099,0.3559711,-0.4841691,0.05370785,2,15,-0.107973,-0.09750982,-0.1372024,-0.3639588,-2.570992,-1.074827,0.3426717,1.347566,0.2727411,-0.007685572,0.1856191,0.315036,-0.3758402,0.6995519,-0.384116,0.5002924,1.432309,0.2010946,-0.1204075,1.170309,0.2646594,293.0512,233.5518,20.56175,False
2,2.100003,0.1670804,0.01997634,-0.0498538,-1.245761,-4.655425,-1.954808,0.2138726,1.251735,0.3558273,-0.4842447,-0.007387978,2,15,-0.04601706,-0.1464836,-0.1283624,-0.3607971,-2.577724,-1.07054,0.3418222,1.34641,0.2725194,-0.02496538,0.1879688,0.2853644,-0.3746199,0.7072773,-0.3904186,0.4990692,1.431347,0.2012334,-0.121028,1.16995,0.2647567,292.5016,232.8904,21.19204,False
2,2.111114,0.1490427,-0.001372911,-0.04549637,-1.245,-4.655522,-1.95579,0.2132394,1.250681,0.3557153,-0.4837781,0.04277376,2,15,-0.05879312,-0.1241771,-0.1217308,-0.3611284,-2.580693,-1.066721,0.3410598,1.345448,0.2722807,-0.04537877,0.188147,0.2652961,-0.373339,0.7152653,-0.3964946,0.4982212,1.430499,0.201282,-0.1217847,1.169578,0.2648826,291.9904,232.5956,21.50476,False
2,2.122225,0.1427049,-0.01735597,-0.04116704,-1.244176,-4.65558,-1.957163,0.2126591,1.249449,0.3555532,-0.483588,0.0170229,2.9,11.1,-0.09302562,-0.02309524,-0.1154827,-0.3642299,-2.578186,-1.066718,0.340464,1.344444,0.2722507,-0.06578496,0.1776408,0.250498,-0.3716516,0.7218664,-0.4011285,0.4973142,1.429938,0.2012405,-0.1224017,1.169212,0.2650177,291.5742,232.5193,21.54057,False
2,2.133336,0.1385469,-0.04605898,-0.02399432,-1.242907,-4.654623,-1.958908,0.2122754,1.248506,0.355458,-0.4831795,0.03729475,2.9,11.1,-0.1043941,0.1136052,-0.1741569,-0.3706795,-2.579713,-1.064056,0.3398627,1.343559,0.2720485,-0.06375825,0.1745076,0.2376834,-0.3703535,0.7290562,-0.4073286,0.4964434,1.429389,0.2012236,-0.1228454,1.168851,0.265113,291.2001,232.6103,21.42821,False
2,2.144447,0.1301272,-0.07586938,-0.01428204,-1.241296,-4.653846,-1.960318,0.2120224,1.247652,0.3553836,-0.4835885,-0.03765034,2.9,11.1,-0.1174388,0.1978188,-0.186298,-0.3763457,-2.578985,-1.062953,0.3392887,1.342681,0.271899,-0.05207819,0.1680865,0.236492,-0.3685666,0.7364429,-0.4139426,0.4957018,1.428982,0.2010915,-0.1230775,1.168523,0.2651083,290.9771,233.0449,20.97245,False
2,2.155558,0.1312777,-0.1013571,0.002874866,-1.239723,-4.65249,-1.962163,0.211886,1.246787,0.355468,-0.4837446,-0.01389235,2.9,11.1,-0.06930751,0.2700508,-0.1425086,-0.3804752,-2.57212,-1.07041,0.3389614,1.342147,0.2719386,-0.01507507,0.1051678,0.2262631,-0.3662187,0.7366955,-0.4152486,0.4950203,1.428725,0.2009304,-0.1231505,1.16818,0.265002,290.6703,233.0705,20.92526,False
2,2.166669,0.1344173,-0.08422197,0.02090438,-1.239682,-4.651593,-1.964071,0.2118221,1.245837,0.3556349,-0.4835219,0.02048823,2.9,11.1,-0.02414638,0.2634082,-0.08963068,-0.3821812,-2.565755,-1.078024,0.3386044,1.341639,0.2720442,0.01558551,0.06465311,0.2140766,-0.3641223,0.7377062,-0.4172564,0.4944025,1.428352,0.2006929,-0.1231044,1.167871,0.2647881,290.3419,232.6271,21.33379,False
2,2.17778,0.1406405,-0.03405356,0.03772818,-1.241336,-4.651251,-1.965905,0.2116764,1.244854,0.355804,-0.4837866,-0.02434931,3.7,12.4,0.01580834,0.2000918,-0.1744853,-0.3838718,-2.577552,-1.068531,0.3381057,1.340704,0.2722375,0.03035626,0.04762015,0.2032074,-0.3624743,0.7400897,-0.4202191,0.493872,1.428123,0.2004721,-0.1229989,1.167592,0.2645116,290.0345,231.8609,22.03148,False
2,2.188891,0.1552429,0.05879858,0.06501532,-1.245589,-4.651192,-1.968147,0.2117075,1.243878,0.3559368,-0.4840561,-0.02442168,3.7,12.4,0.08284599,0.1513748,-0.1976903,-0.3853908,-2.585492,-1.064437,0.337904,1.34068,0.2723405,0.06311101,0.01459911,0.1835823,-0.3609121,0.739562,-0.4214024,0.4934627,1.427992,0.2001932,-0.1228452,1.167306,0.2642487,289.7127,230.964,22.82738,False
2,2.200002,0.1634928,0.1398586,0.08064039,-1.250176,-4.65152,-1.970148,0.2117012,1.242854,0.3560598,-0.4841877,-0.01183022,3.7,12.4,0.08503598,0.1917242,-0.178257,-0.3887395,-2.582904,-1.067843,0.3376634,1.340418,0.2722661,0.08434181,-0.005705662,0.1822324,-0.3587843,0.739904,-0.4233987,0.4929927,1.427849,0.1999028,-0.1227096,1.167003,0.2640779,289.3468,230.3125,23.38022,False
2,2.211113,0.1802191,0.2337297,0.09513899,-1.256338,-4.652448,-1.97239,0.2119304,1.242089,0.3559945,-0.4846644,-0.0435639,3.7,12.4,0.06916113,0.2415853,-0.1511795,-0.3932514,-2.579187,-1.071406,0.3374839,1.340368,0.272141,0.09260514,-0.04399139,0.1659755,-0.3569163,0.7367562,-0.4217262,0.4926946,1.427774,0.1996505,-0.1226428,1.166708,0.2640226,288.9314,230.1559,23.48201,False
2,2.222224,0.2003526,0.2646508,0.08647513,-1.259925,-4.653411,-1.974965,0.2121901,1.241624,0.3559701,-0.4845377,0.01191959,3.5,14.7,0.05630106,0.2246154,-0.1661042,-0.3957931,-2.582288,-1.068823,0.3372919,1.340183,0.2720532,0.07533999,-0.05659233,0.1436811,-0.3557589,0.7355852,-0.4208072,0.4924319,1.427821,0.1993861,-0.1225932,1.16642,0.2640448,288.4577,230.3568,23.28837,False
2,2.233335,0.2003722,0.2582347,0.08117911,-1.262631,-4.65372,-1.977051,0.2121738,1.241139,0.3559787,-0.4848615,-0.02977901,3.5,14.7,0.0680988,0.1756544,-0.1686465,-0.3971178,-2.586838,-1.065692,0.3371356,1.340189,0.2720201,0.06982668,-0.07139608,0.126607,-0.354348,0.7334893,-0.4195096,0.4921706,1.427876,0.1991472,-0.1225539,1.166157,0.2640913,287.9791,230.7533,22.94324,False
2,2.244446,0.1866677,0.2145424,0.08776713,-1.263983,-4.652946,-1.978829,0.212181,1.240781,0.3560338,-0.4851358,-0.02491009,3.5,14.7,0.06957005,0.168933,-0.1175646,-0.3986646,-2.583775,-1.069339,0.3370492,1.340356,0.2720046,0.05045237,-0.07227454,0.1033243,-0.3535996,0.7317007,-0.4177152,0.4920322,1.427934,0.1988871,-0.1224662,1.165953,0.2641309,287.5654,231.035,22.69065,False
2,2.255557,0.1719744,0.149499,0.08592915,-1.263962,-4.651822,-1.980621,0.212012,1.240782,0.3560245,-0.484363,0.07074489,3.5,14.7,0.05164129,0.1336574,-0.1038067,-0.3994081,-2.584931,-1.068293,0.3368697,1.340458,0.2719767,0.04603607,-0.0774983,0.08629058,-0.3527187,0.7295125,-0.4160902,0.4918688,1.4281,0.1987107,-0.1223348,1.165767,0.2641569,287.2569,231.0501,22.60771,False
2,2.266668,0.1583664,0.07807712,0.08624418,-1.262974,-4.650365,-1.982353,0.2119244,1.240842,0.3560312,-0.4835917,0.06986111,3.5,14.7,0.02304573,0.1121879,-0.08774622,-0.4001,-2.585409,-1.067116,0.3368346,1.340561,0.2719576,0.03733689,-0.07628383,0.06506549,-0.3524028,0.72774,-0.4144782,0.4918641,1.42822,0.1986759,-0.1221304,1.165531,0.2643785,286.728,231.6205,22.05522,False
2,2.277779,0.140468,0.0140799,0.08332889,-1.261567,-4.648844,-1.98373,0.2119517,1.240732,0.3560534,-0.4834532,0.01217327,1.4,15.2,-0.01538029,0.08452061,-0.1046872,-0.4011408,-2.589663,-1.061734,0.3367819,1.340563,0.2721286,0.02443111,-0.07615766,0.05025829,-0.3520283,0.725861,-0.4125495,0.4919471,1.428381,0.1986678,-0.1220705,1.1654,0.2644472,286.6271,231.7218,21.94874,False
2,2.28889,0.1108896,-0.05953525,0.0815267,-1.258932,-4.646669,-1.984595,0.2119375,1.240956,0.3559964,-0.483351,0.009350068,1.4,15.2,-0.02402005,0.1101247,-0.1129774,-0.4036585,-2.590656,-1.060226,0.336849,1.340785,0.2721636,0.009444155,-0.05792043,0.03556767,-0.3520225,0.725587,-0.4117303,0.4920203,1.428339,0.198693,-0.1220294,1.16533,0.2643169,286.6697,231.2789,22.38988,False
2,2.300001,0.07273307,-0.1161232,0.08284585,-1.256573,-4.644501,-1.984889,0.2119466,1.24101,0.3559201,-0.48305,0.02748349,1.4,15.2,-0.04168299,0.1192893,-0.05207271,-0.4046838,-2.585238,-1.064184,0.3370644,1.340791,0.2722015,0.006263909,-0.0386983,0.03038001,-0.3518622,0.7268819,-0.4129114,0.4920066,1.42842,0.1985857,-0.1219275,1.165273,0.2641045,286.7313,230.4596,23.21328,False
2,2.311112,0.04191457,-0.1385782,0.08827572,-1.255003,-4.642452,-1.98499,0.2120721,1.24129,0.3557456,-0.4824327,0.05635576,1.4,15.2,-0.04697506,0.1415859,-0.04124507,-0.4069566,-2.58322,-1.065253,0.3372709,1.341097,0.2722013,0.01047736,-0.01839702,0.01660548,-0.3523671,0.7279744,-0.4142017,0.4921166,1.428499,0.1986248,-0.1218402,1.165271,0.2641644,286.5794,230.7445,23.1058,False
2,2.322223,0.03023168,-0.1492664,0.09045146,-1.253542,-4.640606,-1.985551,0.2121291,1.241358,0.3555796,-0.4819794,0.04106997,0,17.8,-0.04903955,0.1053714,-0.04252915,-0.4072692,-2.584305,-1.063724,0.3374575,1.341195,0.2721429,0.0114192,-0.01298066,-0.0004175608,-0.3528172,0.7273863,-0.4138014,0.4924122,1.428748,0.1984832,-0.1217888,1.165259,0.2643604,286.3587,231.5089,22.50712,False
2,2.333334,0.02380948,-0.1407864,0.08615853,-1.25272,-4.639232,-1.986045,0.2123152,1.241506,0.3553824,-0.4820108,-0.003011422,0,17.8,-0.06373289,0.03177866,-0.03225335,-0.4057081,-2.587152,-1.059751,0.3376715,1.34135,0.2721813,0.01353925,-0.004438898,-0.005716578,-0.3530824,0.7275916,-0.4142864,0.4925819,1.428897,0.19838,-0.1217383,1.165239,0.2643789,286.273,231.6479,22.46416,False
2,2.344445,0.02267402,-0.1205576,0.08499984,-1.252418,-4.638113,-1.986603,0.2125369,1.241578,0.3552597,-0.482764,-0.06863132,0,17.8,-0.04019614,0.006221056,-0.02620632,-0.4049139,-2.588504,-1.058895,0.3378713,1.341523,0.2721038,0.02417372,-0.01620846,-0.002671956,-0.3527767,0.7262597,-0.4135514,0.492792,1.429013,0.1982434,-0.1216868,1.165259,0.2642375,286.2635,231.5034,22.79409,False
2,2.355556,0.01725649,-0.09394488,0.08488944,-1.252682,-4.63705,-1.986946,0.2126229,1.241709,0.355135,-0.4830942,-0.02946625,0,17.8,-0.0445267,0.0392436,-0.02597133,-0.4068724,-2.587088,-1.059501,0.3379411,1.341816,0.2720382,0.02520623,-0.02046406,-0.004834514,-0.3527069,0.7249801,-0.4126387,0.4929818,1.429257,0.198137,-0.1216178,1.165256,0.2640502,286.2523,231.2742,23.24414,False
2,2.366668,0.02032211,-0.05557112,0.08684634,-1.253811,-4.636458,-1.98745,0.2128245,1.241874,0.3550022,-0.4833792,-0.02578265,0,17.8,-0.01565575,-0.006516218,-0.02435713,-0.4053576,-2.589939,-1.057597,0.3382364,1.341959,0.2720392,0.02174256,-0.02561335,-0.03466102,-0.3537892,0.7223818,-0.4102309,0.4932479,1.429506,0.1980658,-0.121519,1.165242,0.2639181,286.1945,231.0812,23.6335,False
2,2.377779,0.02448388,-0.02575118,0.08138902,-1.254762,-4.636065,-1.98804,0.213047,1.242015,0.3548772,-0.4833014,0.007391651,2.5,20.4,-0.01980868,-0.01298819,-0.01159296,-0.4051861,-2.589683,-1.05742,0.3383835,1.342206,0.2719307,0.0153479,-0.01277899,-0.03987056,-0.3545269,0.7224157,-0.4102075,0.4935298,1.429747,0.1979692,-0.1214158,1.165227,0.2638008,286.1613,230.7077,24.10724,False
2,2.38889,0.01908486,-0.004467089,0.08022586,-1.255704,-4.635614,-1.988194,0.2133159,1.242081,0.3546667,-0.4836695,-0.03372319,2.5,20.4,-0.01119658,-0.01730073,-0.0010332,-0.4047073,-2.58943,-1.05778,0.3386852,1.342493,0.2718177,0.005660586,-0.01267789,-0.05150881,-0.3553653,0.7213275,-0.4088794,0.4938916,1.429889,0.197912,-0.1213879,1.165257,0.263686,286.1785,230.5429,24.38387,False
2,2.400001,0.01694969,-0.003427528,0.07489613,-1.25604,-4.634948,-1.988507,0.2135184,1.242384,0.3544424,-0.4839065,-0.02133469,2.5,20.4,-0.01423338,-0.00999424,0.02247534,-0.4044553,-2.586812,-1.059875,0.3389861,1.342831,0.2717147,-0.0008000731,-0.02970352,-0.05047992,-0.35559,0.7194579,-0.4070048,0.4942238,1.430049,0.1977749,-0.1213649,1.165307,0.2635849,286.1934,230.4267,24.61476,False
2,2.411112,0.01593438,-0.01837891,0.0675073,-1.255613,-4.63412,-1.988911,0.213696,1.242603,0.3543148,-0.4835075,0.03665596,2.5,20.4,-0.02809663,-0.002565544,0.0226294,-0.4045326,-2.585958,-1.059861,0.3392797,1.343103,0.271636,-0.009358071,-0.03604886,-0.05470259,-0.3558388,0.7160696,-0.4033501,0.4946563,1.430211,0.1976595,-0.1213179,1.165343,0.2634963,286.1837,230.2775,24.8737,False
2,2.422223,0.01495952,-0.04606842,0.06869435,-1.254748,-4.632799,-1.989398,0.2139149,1.242848,0.354192,-0.4835986,-0.008633079,2.5,20.4,-0.02378215,-0.01003922,0.02786902,-0.4041166,-2.585553,-1.06008,0.3396667,1.343477,0.2715597,-0.0158309,-0.04344247,-0.06214392,-0.3564204,0.7133161,-0.4004846,0.495123,1.430436,0.1975975,-0.1212609,1.165382,0.2633851,286.1758,230.0767,25.20248,False
2,2.433334,0.01178882,-0.05353167,0.06979329,-1.254373,-4.631665,-1.989778,0.2141716,1.243177,0.3540289,-0.4837036,-0.009458639,6.1,20.6,-0.03136139,0.001745589,0.01628307,-0.4046721,-2.585428,-1.059455,0.340157,1.343669,0.271457,-0.02230401,-0.04550545,-0.07169042,-0.3571848,0.7104184,-0.397411,0.4956617,1.430608,0.1974707,-0.1212192,1.165445,0.2632462,286.2035,229.8111,25.58771,False
2,2.444445,0.002283623,-0.07915695,0.06245071,-1.253071,-4.630543,-1.989782,0.2144175,1.243489,0.3539438,-0.4836849,0.001842142,6.1,20.6,-0.01750376,0.03048228,0.02488561,-0.4056218,-2.582744,-1.062118,0.3404746,1.343982,0.271311,-0.02335284,-0.03803211,-0.07270566,-0.3579075,0.7093711,-0.3961665,0.4960465,1.430805,0.1973805,-0.1211873,1.165498,0.2631132,286.2315,229.5893,25.93058,False
2,2.455556,-0.00410812,-0.07922596,0.05180281,-1.252409,-4.629916,-1.989731,0.2146217,1.243822,0.3538084,-0.4836705,0.001318928,6.1,20.6,-0.01963734,0.02941719,0.02489549,-0.4057379,-2.581684,-1.062753,0.3407575,1.344212,0.2712228,-0.02221125,-0.02953659,-0.0673413,-0.3584301,0.7088824,-0.3955612,0.4964014,1.430925,0.1972749,-0.1211273,1.165545,0.2629761,286.2428,229.2947,26.3506,False
2,2.466667,-0.007362306,-0.0633166,0.03894464,-1.252203,-4.629858,-1.989548,0.2148905,1.244153,0.3537374,-0.4833472,0.02956763,6.1,20.6,-0.02098002,0.00944351,-0.01677169,-0.4061507,-2.586433,-1.057883,0.3410678,1.344526,0.2711706,-0.02117991,-0.03592527,-0.06844921,-0.3589142,0.7063541,-0.3929507,0.4967887,1.431163,0.1971421,-0.1210601,1.165606,0.2628288,286.2535,228.9769,26.80523,False
2,2.477778,-0.004199155,-0.05160197,0.03569415,-1.252115,-4.629479,-1.98983,0.215137,1.244503,0.3536296,-0.4834756,-0.01193655,11,19.3,-0.009008395,0.01882567,0.01941719,-0.4059116,-2.58221,-1.0621,0.3413092,1.344808,0.2710357,-0.02539786,-0.02953651,-0.06517837,-0.3593616,0.7054095,-0.391584,0.4971197,1.431459,0.1970527,-0.1210109,1.165682,0.2626899,286.2826,228.6754,27.21389,False
2,2.488889,-0.001135916,-0.01435013,0.02594289,-1.253092,-4.629962,-1.989676,0.2155142,1.244795,0.3535347,-0.4836056,-0.01171753,11,19.3,-0.03225671,0.01862038,0.04409683,-0.4054604,-2.578849,-1.064026,0.3416761,1.345098,0.2708673,-0.02641655,-0.03275972,-0.0587981,-0.3596519,0.7038254,-0.3898375,0.4975526,1.431659,0.1969585,-0.120975,1.165779,0.2625556,286.3556,228.2525,27.66897,False
2,2.5,-0.004364983,-0.00479224,0.02164001,-1.253382,-4.629998,-1.989491,0.2158154,1.245129,0.3534536,-0.4840226,-0.03799321,11,19.3,-0.02162482,0.0101426,0.03970244,-0.4051526,-2.578878,-1.063961,0.3420908,1.345479,0.2708535,-0.02857836,-0.03486742,-0.06091998,-0.3601893,0.702,-0.387659,0.4979938,1.431821,0.1967933,-0.120992,1.165894,0.2625248,286.3664,228.3752,27.63807,False
2,2.511111,-0.005432055,-0.004834892,0.01312012,-1.25322,-4.630076,-1.989386,0.2161041,1.245457,0.3533313,-0.4839166,0.01000436,11,19.3,-0.003510318,0.01973913,0.04283502,-0.4051451,-2.576627,-1.066584,0.3425786,1.345733,0.2707651,-0.03183878,-0.03695257,-0.06836957,-0.3610176,0.6993203,-0.3847346,0.4986043,1.432015,0.1967628,-0.1210073,1.165999,0.2625306,286.3562,228.5616,27.52474,False
2,2.522222,-0.01073767,-0.01130283,0.0003651902,-1.252728,-4.63026,-1.989036,0.2164983,1.24581,0.3532302,-0.4837408,0.01597772,11,19.3,-0.01947635,0.03033447,0.0472879,-0.4054855,-2.574117,-1.068093,0.3429496,1.346011,0.2706928,-0.04251935,-0.03476973,-0.07146127,-0.3616818,0.697648,-0.3822092,0.4991139,1.432205,0.1967423,-0.121009,1.166101,0.2625423,286.3376,228.709,27.44094,False
2,2.533333,-0.01175016,-0.02520142,-0.01022625,-1.251877,-4.630387,-1.988941,0.2167722,1.246162,0.3531909,-0.4838389,-0.009107145,15.3,18.3,-0.01628684,0.03353673,0.04728414,-0.4056591,-2.572349,-1.069649,0.3433237,1.346304,0.2706106,-0.05004659,-0.02829144,-0.0830834,-0.3628504,0.6959396,-0.3798981,0.4996196,1.432357,0.1967299,-0.120989,1.166206,0.2625087,286.3557,228.5868,27.58888,False
2,2.544444,-0.01171264,-0.03697329,-0.02295526,-1.250907,-4.630666,-1.988722,0.2171306,1.246529,0.3531821,-0.4836695,0.01560519,15.3,18.3,-0.00800903,0.01461301,0.01086741,-0.4058391,-2.576934,-1.065241,0.3436245,1.346545,0.2706177,-0.05425948,-0.01657021,-0.0808522,-0.3636738,0.6956129,-0.3787585,0.5000942,1.432469,0.1966219,-0.1209462,1.166265,0.2623565,286.4592,227.969,28.1798,False
2,2.555555,-0.01275829,-0.04233584,-0.03038618,-1.250111,-4.630926,-1.988498,0.2174017,1.24691,0.3532,-0.4839145,-0.02250074,15.3,18.3,-0.01011149,0.02415784,0.0173291,-0.40622,-2.57498,-1.066935,0.3438922,1.346961,0.2704988,-0.05316615,-0.01232437,-0.07870652,-0.3643748,0.6948038,-0.377408,0.500497,1.432687,0.1965923,-0.120924,1.166364,0.262366,286.4418,227.9845,28.20418,False
2,2.566666,-0.01064162,-0.03814751,-0.04851701,-1.249407,-4.63196,-1.988152,0.2178159,1.247445,0.3533437,-0.4838868,0.002738814,15.3,18.3,-0.01635484,0.01976869,0.03546076,-0.4057315,-2.572571,-1.068671,0.344326,1.347192,0.2704697,-0.03926986,-0.01133078,-0.07348666,-0.3648781,0.6939861,-0.3766961,0.5009875,1.432998,0.1965685,-0.1208272,1.166496,0.2625411,286.2523,228.6971,27.85154,False
