loc,t,aDotUA,bDotUA,gDotUA,aUA,bUA,gUA,xUA,yUA,zUA,qE,qDotE,emgA,emgB,aDotSH,bDotSH,gDotSH,aSH,bSH,gSH,xSH,ySH,zSH,aDotUB,bDotUB,gDotUB,aUB,bUB,gUB,xUB,yUB,zUB,xHand,yHand,zHand,aHand,bHand,gHand,enable
2,0,-0.0338507,-0.2614704,0.02152009,-1.453467,-4.418386,-3.080067,0.6920948,1.105097,0.4270124,-1.388595,-0.009917286,0.5,0.9,-0.1031615,0.08391766,0.05704883,-0.7448297,-4.28615,-0.07298153,0.735718,1.290747,0.3583539,-0.06366958,0.06460972,-0.005084504,-0.9059888,0.2471019,-0.05829021,0.8465817,1.362916,0.2109733,0.4651551,0.9623776,0.2806472,301.2109,255.0505,346.2996,True
2,0.01111111,-0.02958178,-0.2689443,0.01623418,-1.453327,-4.415124,-3.080182,0.6916847,1.105077,0.4269149,-1.388726,-0.01201679,0.5,0.9,-0.08714211,0.08066829,0.06111504,-0.7440648,-4.284931,-0.07345717,0.7355208,1.290766,0.3582594,-0.05936684,0.06139927,0.0001915842,-0.9058908,0.2478957,-0.05823454,0.8465273,1.362953,0.2109749,0.4649611,0.9623721,0.2791363,301.0937,252.36,348.7604,True
2,0.02222222,-0.02957005,-0.2764358,0.008812008,-1.452972,-4.411816,-3.080228,0.6912827,1.105078,0.4267881,-1.388517,0.01915284,0.5,1.2,-0.08083086,0.07961538,0.05465211,-0.7437335,-4.283406,-0.07382016,0.7353864,1.290716,0.3580711,-0.05714599,0.05817207,0.01081603,-0.9054253,0.2486109,-0.0580878,0.8464752,1.362871,0.210933,0.4650274,0.9621339,0.2775054,301.1741,251.6617,349.0155,True
2,0.03333334,-0.03170124,-0.2775635,-0.001840321,-1.452371,-4.408604,-3.080126,0.6909213,1.10511,0.426569,-1.388332,0.01664115,0.5,1.2,-0.07363313,0.07966506,0.03219619,-0.7441676,-4.282188,-0.07416771,0.7352003,1.290723,0.35798,-0.05495042,0.04536406,0.01928503,-0.9049629,0.2487703,-0.05766383,0.8464249,1.362906,0.2108757,0.4653067,0.9616867,0.2758923,301.3291,251.3984,348.7764,True
2,0.04444445,-0.02850563,-0.2754468,-0.00504609,-1.452032,-4.405554,-3.080308,0.6905089,1.105181,0.4264052,-1.388197,0.01230414,0.5,1.2,-0.07048967,0.0818017,0.02684644,-0.7439647,-4.280727,-0.07461059,0.7350554,1.29072,0.3578358,-0.05173217,0.04109713,0.02244861,-0.9045741,0.2493335,-0.05750617,0.8464116,1.362902,0.210845,0.4657544,0.9611166,0.274432,301.5231,251.0713,348.6207,True
2,0.05555556,-0.02106704,-0.2648194,-0.01255362,-1.451452,-4.402919,-3.080602,0.6902053,1.105331,0.4262021,-1.388023,0.01578946,0.5,1.2,-0.07051708,0.07114884,0.02681403,-0.7436989,-4.280038,-0.07432749,0.7349099,1.290772,0.3577399,-0.04433903,0.03365082,0.01597056,-0.9046178,0.2494933,-0.05737275,0.846375,1.362884,0.2108052,0.4662418,0.9605141,0.2731878,301.7441,250.7303,348.5709,True
2,0.06666667,-0.01575848,-0.2573655,-0.01365027,-1.451144,-4.400168,-3.080821,0.689935,1.105345,0.4259615,-1.388289,-0.02448254,0.5,1.2,-0.07046318,0.06048506,0.03424264,-0.7430257,-4.279265,-0.07401671,0.7347784,1.290877,0.3576622,-0.04447218,0.02942163,0.003183141,-0.9047648,0.249972,-0.05706728,0.846369,1.362862,0.2107096,0.4666456,0.9599714,0.272169,301.9722,250.4299,348.5877,True
2,0.07777778,-0.005118523,-0.2477965,-0.02115001,-1.450506,-4.397731,-3.081417,0.689679,1.105476,0.4258001,-1.388448,-0.01428514,0.5,1,-0.06197025,0.0348867,0.0372618,-0.7424685,-4.279938,-0.07314824,0.7346684,1.29096,0.3575547,-0.04771925,0.0283854,-0.003186105,-0.9052372,0.2502173,-0.05655862,0.846354,1.362858,0.2106347,0.4669103,0.9595742,0.2713717,302.1652,250.2035,348.6205,True
2,0.08888889,0.002291162,-0.221155,-0.02127697,-1.450119,-4.396086,-3.081791,0.6894404,1.105612,0.4256554,-1.388326,0.01120196,0.5,1,-0.06515009,0.01464283,0.04363425,-0.7416664,-4.280428,-0.07183824,0.7344816,1.291067,0.3573856,-0.04991596,0.03054876,-0.01061927,-0.9056394,0.2509036,-0.0563152,0.8463132,1.362875,0.2105258,0.4670596,0.959371,0.2707816,302.2713,250.0285,348.6997,True
2,0.1,0.00120168,-0.2051874,-0.02348306,-1.449662,-4.394348,-3.081971,0.6892122,1.105682,0.4255042,-1.388669,-0.03153398,0.5,1,-0.05988014,0.01677515,0.03825255,-0.7414411,-4.28004,-0.07163238,0.7342944,1.291132,0.3573132,-0.05201227,0.03054649,-0.006331359,-0.9054694,0.2514735,-0.05598497,0.8462005,1.362891,0.2104845,0.4671163,0.9593443,0.2703331,302.2826,249.9033,348.8003,True
2,0.1111111,0.0107136,-0.1603679,-0.008781854,-1.449967,-4.393853,-3.082409,0.6890218,1.105699,0.4254243,-1.388513,0.01446724,0.5,1,-0.04915349,0.04764247,0.03715528,-0.7412227,-4.277738,-0.07326436,0.7340596,1.291289,0.3570828,-0.05506884,0.02624533,0.009664633,-0.9048319,0.2517529,-0.05541585,0.8461233,1.362905,0.2104149,0.4671282,0.9594612,0.2699926,302.2428,249.7746,348.9026,True
2,0.1222222,0.01174432,-0.1379761,-0.004625377,-1.450009,-4.393006,-3.08269,0.6888028,1.105784,0.4253206,-1.388227,0.02598251,0.5,0.6,-0.04793878,0.08171088,0.0446896,-0.7407109,-4.275261,-0.07452643,0.7337948,1.291366,0.3571076,-0.05607226,0.02729201,0.01607089,-0.9044207,0.2521629,-0.05506538,0.8461055,1.362892,0.2103631,0.4670767,0.9596627,0.2697372,302.1755,249.6872,348.9694,True
2,0.1333333,0.02022652,-0.1166308,0.001661846,-1.450109,-4.392334,-3.083205,0.6886452,1.105904,0.4253366,-1.388556,-0.03031613,0.5,0.6,-0.05643362,0.09239005,0.04376558,-0.7402815,-4.27249,-0.07555388,0.7336319,1.291425,0.3569624,-0.04330399,0.03261687,0.01384142,-0.9043664,0.2528898,-0.05548696,0.8460356,1.362879,0.2103431,0.4669615,0.9598903,0.2695332,302.0932,249.6333,349.0106,True
2,0.1444445,0.02021514,-0.109186,-0.001567363,-1.449923,-4.391311,-3.083513,0.6884131,1.10593,0.4253082,-1.388345,0.01945395,0.5,0.6,-0.05861315,0.08174747,0.04269064,-0.7399401,-4.27176,-0.07525454,0.7334756,1.29145,0.3568406,-0.04551715,0.03583908,0.005350755,-0.9045879,0.2535565,-0.0551775,0.8459671,1.362868,0.2102304,0.4668003,0.9601005,0.2693883,302.0121,249.6709,348.9721,True
2,0.1555556,0.0191441,-0.1049415,-0.004783457,-1.449702,-4.390283,-3.083821,0.6882911,1.105992,0.4251881,-1.388518,-0.01597654,0.5,0.6,-0.0521684,0.05933077,0.05213563,-0.739057,-4.271831,-0.07482391,0.7333499,1.291533,0.3567433,-0.04669168,0.01988908,-0.005334828,-0.9049858,0.2531309,-0.05434633,0.8459111,1.362828,0.2101161,0.4666443,0.9602655,0.2692877,301.9663,249.6852,348.9699,True
2,0.1666667,0.01807661,-0.1039198,-0.01331181,-1.449181,-4.38912,-3.08408,0.6881144,1.106042,0.425055,-1.38824,0.02550268,0.5,0.6,-0.03392281,0.04965791,0.06574957,-0.7378,-4.271199,-0.07551766,0.733278,1.291615,0.356535,-0.04249146,0.01350254,-0.01071787,-0.9052702,0.2529372,-0.05377268,0.8458309,1.362783,0.2099757,0.4665475,0.9603734,0.269232,301.9355,249.6602,348.9958,True
2,0.1777778,0.01487279,-0.09756795,-0.02079953,-1.44865,-4.388268,-3.084248,0.6880156,1.106122,0.4249759,-1.388169,0.006250018,0.5,1,-0.02323408,0.0442889,0.06986985,-0.7369478,-4.270676,-0.07598398,0.7331764,1.291658,0.3564677,-0.04565974,0.01988959,-0.008540189,-0.9052777,0.2534499,-0.05350237,0.8457291,1.36276,0.2098982,0.4664771,0.9603861,0.269174,301.9212,249.6143,349.0577,True
2,0.1888889,0.01059238,-0.09014762,-0.02616857,-1.448052,-4.387432,-3.084206,0.6879045,1.106163,0.4249239,-1.388079,0.008158068,0.5,1,-0.02004477,0.04214735,0.06983341,-0.7361169,-4.270024,-0.07628865,0.7330863,1.291554,0.3563285,-0.04455286,0.02521037,-0.00427467,-0.9052111,0.254166,-0.05345817,0.8456559,1.362753,0.2098024,0.4664647,0.9603128,0.2690739,301.9392,249.559,349.1429,True
2,0.2,0.003126345,-0.08378222,-0.02939614,-1.447569,-4.386734,-3.084078,0.6877739,1.106221,0.4248934,-1.388005,0.006750809,0.5,1,-0.008445771,0.04001369,0.06010459,-0.7358117,-4.269482,-0.07695284,0.7329809,1.29158,0.356281,-0.04129769,0.02305742,0.002086655,-0.9049144,0.2543453,-0.0532768,0.8455297,1.36275,0.2097251,0.4664957,0.9601648,0.2689007,301.9906,249.4598,349.2333,True
2,0.2111111,-0.003317204,-0.05394391,-0.02527777,-1.447438,-4.387096,-3.083737,0.687637,1.106244,0.424962,-1.387793,0.01932725,0.5,1,0.004174775,0.03363547,0.04715578,-0.7357286,-4.269085,-0.07774779,0.7328867,1.291732,0.3562312,-0.03596273,0.0113389,0.004140592,-0.9047786,0.2541717,-0.05293246,0.8454543,1.362811,0.2096329,0.466581,0.9599847,0.2686805,302.062,249.3393,349.2883,True
2,0.2222222,-0.006508811,-0.05606678,-0.02314452,-1.447115,-4.3864,-3.083712,0.6874409,1.106341,0.4248657,-1.387721,0.006407933,0.3,0.6,0.00741267,0.031485,0.05137189,-0.735041,-4.268594,-0.07824873,0.7326267,1.291841,0.3561718,-0.03166959,-0.006782228,0.008313654,-0.9045501,0.2534532,-0.05241926,0.8452634,1.362831,0.2095761,0.4666708,0.9598025,0.2684368,302.1395,249.2116,349.3158,True
2,0.2333333,-0.007580555,-0.05180727,-0.02316464,-1.446839,-4.385979,-3.083643,0.6873006,1.106459,0.4247923,-1.387667,0.004946453,0.3,0.6,0.002352013,0.02929864,0.07486479,-0.7334356,-4.267973,-0.07856139,0.7325023,1.291997,0.3559995,-0.01998478,-0.01104455,0.005001519,-0.9045906,0.253156,-0.05238651,0.8451364,1.362833,0.2094665,0.4667103,0.9596567,0.2682057,302.2164,249.1026,349.2982,True
2,0.2444444,-0.01719371,-0.03479562,-0.02644685,-1.446393,-4.386138,-3.083118,0.6870784,1.106528,0.4247363,-1.38788,-0.01950973,0.3,0.6,0.0004382981,0.03138144,0.0929997,-0.7319512,-4.267128,-0.07916299,0.7323289,1.292067,0.3558846,-0.01575383,-0.01316374,0.001761449,-0.9046801,0.2530163,-0.05223205,0.8450085,1.362793,0.2093294,0.4666369,0.959583,0.2680467,302.279,249.0627,349.2447,True
2,0.2555556,-0.03213338,-0.01674311,-0.03399187,-1.445787,-4.386604,-3.082223,0.6869202,1.10665,0.424715,-1.387915,-0.003028369,0.3,0.6,-0.004675488,0.03240478,0.1111734,-0.7301344,-4.266323,-0.07954516,0.7322389,1.292154,0.3557677,-0.01152811,-0.009960119,-0.002529155,-0.9048803,0.2529978,-0.05222991,0.8448346,1.362799,0.2092056,0.4664889,0.9596069,0.2679405,302.3114,249.0208,349.285,True
2,0.2666667,-0.05026101,-0.007200627,-0.03830323,-1.445227,-4.386858,-3.080999,0.6867119,1.106891,0.4247098,-1.387555,0.03295007,0.3,0.6,0.00630812,0.0397471,0.1387686,-0.7278153,-4.265099,-0.08078486,0.7321625,1.292204,0.3557141,-0.00725985,-0.00889969,-0.0004277707,-0.9047067,0.2530228,-0.05212259,0.8446608,1.362841,0.2090337,0.466297,0.9597287,0.2678702,302.3038,248.9721,349.3486,True
2,0.2777778,-0.07902458,-0.005163144,-0.04897293,-1.444313,-4.38692,-3.079133,0.6864747,1.107059,0.4247425,-1.387236,0.02891936,0.5,0.9,0.01400026,0.05459008,0.155771,-0.7256054,-4.26317,-0.08264402,0.7320951,1.292264,0.3556111,0.001311865,-0.01744646,0.005864696,-0.9044095,0.2524285,-0.05207332,0.8444477,1.362854,0.2088802,0.4660012,0.9599248,0.2678382,302.2694,248.9196,349.3937,True
2,0.2888889,-0.1141851,-0.007386165,-0.05856377,-1.443269,-4.386878,-3.076618,0.6861708,1.107342,0.4247663,-1.386944,0.02652626,0.5,0.9,0.01921847,0.06314819,0.145084,-0.7245705,-4.261124,-0.0844507,0.7321104,1.292393,0.3555725,0.02267577,-0.03985135,0.01520461,-0.9038188,0.2510762,-0.05211566,0.8442111,1.362848,0.2087197,0.4656262,0.9602171,0.2678829,302.2373,248.8695,349.4391,True
2,0.3,-0.1429433,-0.009589698,-0.06495251,-1.44232,-4.386758,-3.074054,0.6858577,1.107602,0.4247322,-1.386386,0.05089226,0.5,0.9,0.02544523,0.04185777,0.1353586,-0.7234077,-4.261364,-0.08479238,0.7321812,1.292483,0.3555264,0.03974275,-0.06438041,0.02031329,-0.9033331,0.2491966,-0.05190634,0.8440362,1.362845,0.2085135,0.4651716,0.9606307,0.2679976,302.2005,248.808,349.5252,True
2,0.3111111,-0.1919436,-0.01503249,-0.0734641,-1.441195,-4.386407,-3.07033,0.6855173,1.107979,0.424659,-1.385865,0.04738512,0.5,0.9,0.03175556,0.01095007,0.1351958,-0.7217289,-4.262464,-0.08448266,0.7323352,1.292669,0.3554924,0.0535636,-0.08356591,0.01907259,-0.9030774,0.2472431,-0.05168716,0.8438494,1.362911,0.2082753,0.464612,0.961172,0.2681462,302.1381,248.7119,349.6673,True
2,0.3222222,-0.2175209,-0.01085377,-0.08521302,-1.439849,-4.386689,-3.067086,0.6853188,1.108243,0.424556,-1.385997,-0.0123063,0.5,0.9,0.04224294,-0.01248886,0.1264828,-0.7204799,-4.263696,-0.08430663,0.7324126,1.292844,0.3554382,0.06524312,-0.09315419,0.01575248,-0.9028627,0.2455922,-0.05176067,0.8436004,1.362971,0.2080433,0.4639285,0.9618773,0.2682825,302.0629,248.6096,349.8369,True
2,0.3333333,-0.2537555,0.0007556602,-0.09699453,-1.438421,-4.387197,-3.06299,0.6848996,1.108609,0.424504,-1.385109,0.08159372,0.3,0.9,0.05255497,-0.08171168,0.1123015,-0.719527,-4.268228,-0.08182056,0.7324772,1.292931,0.3552234,0.06838679,-0.1123218,0.01141656,-0.902712,0.2431687,-0.05114894,0.8434141,1.363158,0.2076344,0.4631538,0.9627706,0.2683595,301.9403,248.5207,350.0162,True
2,0.3444445,-0.2878746,0.01983888,-0.1056116,-1.437106,-4.388113,-3.058615,0.6843874,1.108802,0.4245214,-1.385875,-0.07055597,0.3,0.9,0.05562681,-0.1072654,0.1068633,-0.7182918,-4.270843,-0.08058938,0.7325625,1.293083,0.3550718,0.07049896,-0.1155075,0.01031897,-0.9026231,0.2416643,-0.05095932,0.8431772,1.363157,0.207293,0.4623104,0.9638813,0.2683252,301.7805,248.3986,350.2208,True
2,0.3555556,-0.3219933,0.03897285,-0.1035785,-1.436111,-4.389261,-3.053792,0.6838024,1.109204,0.424494,-1.385452,0.039591,0.3,0.9,0.06818401,-0.1285571,0.09173644,-0.7176239,-4.273938,-0.07945861,0.732482,1.293344,0.3550127,0.07161658,-0.1101963,0.01564996,-0.9022401,0.2403512,-0.05097264,0.8428355,1.363274,0.2070026,0.461441,0.9651945,0.2681957,301.5253,248.2294,350.4119,True
2,0.3666667,-0.3433267,0.05069759,-0.09618331,-1.435358,-4.390282,-3.049131,0.6832006,1.10951,0.4244697,-1.385473,-0.002118793,0.3,0.9,0.07346553,-0.1232309,0.08636954,-0.71667,-4.275584,-0.07924183,0.7324369,1.293455,0.3549681,0.07281876,-0.1134304,0.03054535,-0.9013399,0.2387236,-0.05088262,0.8424477,1.363365,0.2067871,0.4604179,0.9666484,0.2679886,301.2323,248.0269,350.5542,True
2,0.3777778,-0.369985,0.06874796,-0.1005351,-1.434217,-4.391795,-3.043879,0.6824803,1.110071,0.4244049,-1.385383,0.008544905,0.3,0.5,0.07152549,-0.1211438,0.1023791,-0.714891,-4.277314,-0.07869135,0.7323033,1.293777,0.354856,0.07293421,-0.1155965,0.04332849,-0.9002795,0.2370316,-0.05068928,0.8419688,1.36356,0.2064881,0.4591862,0.968201,0.26777,300.9106,247.8531,350.643,True
2,0.3888889,-0.3880965,0.07083981,-0.1048153,-1.432892,-4.392835,-3.038889,0.6816636,1.110693,0.4243541,-1.385827,-0.04045789,0.3,0.5,0.0537888,-0.1083963,0.1313874,-0.7123615,-4.278092,-0.07813741,0.7321498,1.294095,0.3547204,0.06873909,-0.1188099,0.05081107,-0.89948,0.2352615,-0.05023494,0.841499,1.363606,0.2062898,0.4577807,0.969869,0.2675969,300.605,247.7433,350.7229,True
2,0.4,-0.4157911,0.06970359,-0.1112088,-1.43151,-4.39374,-3.033121,0.6807613,1.111322,0.4242516,-1.385644,0.01731941,0.3,0.5,0.04022196,-0.09031312,0.1518419,-0.7099156,-4.278341,-0.07788974,0.7320218,1.29442,0.3545368,0.07190061,-0.1251958,0.0475696,-0.8989884,0.2332198,-0.04989326,0.8411078,1.363703,0.2059708,0.45627,0.9716449,0.2674914,300.286,247.6615,350.8352,True
2,0.4111111,-0.4519919,0.06002264,-0.1196945,-1.429954,-4.394187,-3.026869,0.6798266,1.111944,0.4241254,-1.386091,-0.04092468,0.3,0.5,0.01397984,-0.08076189,0.1841434,-0.7066128,-4.278961,-0.07654431,0.7319272,1.29476,0.3542578,0.07282276,-0.1315563,0.03262893,-0.8991135,0.2308861,-0.04923679,0.8407959,1.363861,0.2055066,0.4546421,0.9735397,0.2674539,300.002,247.5421,351.0114,True
2,0.4222222,-0.4914175,0.06417412,-0.1303787,-1.428216,-4.395247,-3.019854,0.679003,1.112488,0.4240196,-1.385615,0.04414298,0.3,0.5,-0.002738498,-0.07974064,0.2120379,-0.703229,-4.280018,-0.07514802,0.7317201,1.295115,0.3539882,0.07696584,-0.1379187,0.01979225,-0.8992323,0.2285852,-0.04883412,0.8404437,1.363946,0.2051206,0.4529245,0.9755563,0.2674732,299.6948,247.3799,351.2531,True
2,0.4333333,-0.5308686,0.08962759,-0.1422251,-1.426452,-4.397355,-3.012251,0.6779941,1.113057,0.4238079,-1.385301,0.02848598,0.5,0.6,-0.01100489,-0.06806374,0.232413,-0.6999347,-4.280231,-0.07445692,0.7314646,1.295419,0.3536949,0.07482449,-0.1379115,0.01874517,-0.8989633,0.2266759,-0.04837313,0.8400414,1.364103,0.2046371,0.4511015,0.9776787,0.267494,299.3598,247.2172,351.5276,True
2,0.4444444,-0.554342,0.1151383,-0.1466131,-1.424945,-4.399735,-3.005007,0.6769822,1.113689,0.4237094,-1.384932,0.03374425,0.5,0.6,-0.009806767,-0.060635,0.2420096,-0.6968955,-4.280422,-0.07430246,0.7311498,1.295766,0.3534679,0.07606146,-0.1294418,0.03686101,-0.8979407,0.2252153,-0.04837899,0.8394552,1.364255,0.2043154,0.4492241,0.9799075,0.2674648,298.9828,247.0189,351.8429,True
2,0.4555556,-0.5842752,0.1854075,-0.145881,-1.423959,-4.404493,-2.996707,0.675651,1.114388,0.4235101,-1.384832,0.009220556,0.5,0.6,-0.006868564,-0.07763253,0.2238126,-0.6949114,-4.282471,-0.07276049,0.7306731,1.296231,0.353353,0.07197562,-0.1145727,0.05504837,-0.8966682,0.2242997,-0.04848338,0.8388716,1.364461,0.203939,0.4472815,0.9822391,0.2673708,298.5817,246.7977,352.1416,True
2,0.4666667,-0.5981525,0.2035178,-0.1406467,-1.422953,-4.407395,-2.989278,0.6744648,1.115105,0.4232218,-1.385592,-0.0692421,0.5,0.6,-0.01787154,-0.09457687,0.1972532,-0.6935569,-4.285098,-0.07018415,0.7302608,1.29656,0.3531017,0.06672406,-0.1060721,0.06257457,-0.8957345,0.2230794,-0.04828018,0.838248,1.364604,0.2036014,0.4451548,0.9846857,0.2672251,298.1899,246.5801,352.3907,True
2,0.4777778,-0.6162546,0.1971288,-0.1342298,-1.422025,-4.409567,-2.981488,0.6730534,1.115899,0.4229641,-1.385305,0.02698698,0.5,0.7,-0.03840129,-0.1115046,0.1761314,-0.6922647,-4.287908,-0.06685733,0.7297403,1.296996,0.3528502,0.06146621,-0.09436727,0.0690486,-0.8946677,0.2223088,-0.0483196,0.837513,1.364839,0.2032075,0.4428267,0.9872735,0.2671098,297.7927,246.4001,352.5605,True
2,0.4888889,-0.6354232,0.190695,-0.1374029,-1.420691,-4.411643,-2.973517,0.6717115,1.116772,0.4226248,-1.386166,-0.07877573,0.5,0.7,-0.05344211,-0.1220899,0.1677544,-0.6904357,-4.290256,-0.06391906,0.7291827,1.297429,0.3523862,0.05932328,-0.08903544,0.06694415,-0.894101,0.2212293,-0.04827619,0.8369235,1.365038,0.2027392,0.4401362,0.9900259,0.2671009,297.3906,246.3453,352.6734,True
2,0.5,-0.6556606,0.1895702,-0.1437947,-1.419267,-4.413967,-2.965309,0.6703124,1.11753,0.4223356,-1.386059,0.01064362,0.5,0.7,-0.07561,-0.1199555,0.1850638,-0.6877507,-4.292,-0.06100583,0.7285243,1.29783,0.3520093,0.04655366,-0.0783738,0.06708822,-0.8933344,0.2206064,-0.04803277,0.8361781,1.365218,0.2023673,0.4373758,0.9929693,0.2672213,296.9066,246.3016,352.9332,True
2,0.5111111,-0.6940213,0.1969563,-0.147034,-1.417938,-4.41674,-2.955931,0.6688726,1.118267,0.4221671,-1.386082,-0.0019938,0.5,0.7,-0.08820873,-0.08906106,0.1938374,-0.6851488,-4.291659,-0.05994856,0.727865,1.298261,0.3516476,0.02860192,-0.06135831,0.08326954,-0.8919576,0.2204999,-0.04767298,0.8353592,1.365398,0.2020097,0.434625,0.9960555,0.2673583,296.3891,246.2315,353.2821,True
2,0.5222223,-0.7366652,0.2245406,-0.1567619,-1.416572,-4.420422,-2.946021,0.6671239,1.118979,0.4219322,-1.386128,-0.004044216,0.5,0.7,-0.08554813,-0.01245713,0.2228067,-0.6818768,-4.287269,-0.06251132,0.7269455,1.298659,0.3512187,0.02022169,-0.04541124,0.09723963,-0.8903736,0.2206024,-0.04773903,0.8345228,1.365626,0.201663,0.4319595,0.9992427,0.267428,295.845,246.0692,353.6935,True
2,0.5333334,-0.7633425,0.2543333,-0.1558415,-1.415662,-4.424536,-2.936119,0.6653268,1.119673,0.4216216,-1.385294,0.07644159,0.3,0.4,-0.06672209,0.08751101,0.2623186,-0.6778997,-4.279901,-0.068219,0.7259489,1.299049,0.3508239,0.01616919,-0.02841793,0.1186257,-0.8883815,0.2210822,-0.0481417,0.8335651,1.365849,0.2012329,0.429335,1.002462,0.2674005,295.2717,245.828,354.0729,True
2,0.5444446,-0.7825394,0.2788201,-0.1516857,-1.415129,-4.428585,-2.926484,0.6635028,1.120352,0.4213998,-1.385125,0.01503369,0.3,0.4,-0.03963242,0.1789911,0.2814679,-0.6744908,-4.271873,-0.07489981,0.7249544,1.299378,0.3503923,0.01636305,-0.02954413,0.1399196,-0.886275,0.2206336,-0.04811746,0.83255,1.366066,0.2008665,0.4265908,1.005683,0.267287,294.7321,245.5594,354.3756,True
2,0.5555557,-0.8166612,0.3000845,-0.1496623,-1.414462,-4.433007,-2.915505,0.661274,1.12113,0.4209561,-1.385534,-0.03720687,0.3,0.4,-0.01718596,0.1991682,0.2834007,-0.671483,-4.266764,-0.07947619,0.7239624,1.299767,0.3499849,0.02289966,-0.03811771,0.1568836,-0.8839341,0.2198599,-0.04810867,0.8315413,1.366319,0.2004368,0.423514,1.008926,0.2671246,294.2267,245.2984,354.6471,True
2,0.5666668,-0.8326496,0.3053711,-0.1518269,-1.413462,-4.436844,-2.905147,0.6594557,1.122012,0.4204657,-1.386141,-0.05489733,0.3,0.4,-0.02479254,0.1864213,0.2738673,-0.6688428,-4.264446,-0.0806051,0.7231007,1.30015,0.3494952,0.01650641,-0.05303689,0.1579623,-0.8821705,0.218418,-0.04720453,0.8305259,1.366634,0.1999674,0.420189,1.012249,0.2670095,293.7087,245.1147,354.8959,True
2,0.577778,-0.8529264,0.3298322,-0.1540761,-1.412802,-4.441745,-2.894137,0.6571869,1.122881,0.4198737,-1.385203,0.08639559,0.3,0.9,-0.05598829,0.1546002,0.2549536,-0.6666973,-4.263185,-0.07985222,0.7220443,1.30047,0.3490608,0.00590761,-0.04878233,0.1633961,-0.8801652,0.2179837,-0.046698,0.8294071,1.366889,0.1995656,0.4166981,1.015664,0.2669885,293.1597,244.9977,355.1475,True
2,0.5888891,-0.8657146,0.3351061,-0.1626149,-1.411833,-4.446129,-2.883434,0.6550855,1.123722,0.4194005,-1.385917,-0.06589788,0.3,0.9,-0.07213503,0.1258958,0.2465315,-0.664219,-4.262299,-0.0792807,0.7209175,1.300768,0.3485193,0.0005925521,-0.02960987,0.1634898,-0.8784304,0.2183869,-0.04672649,0.8282258,1.367143,0.1991162,0.4129905,1.019209,0.267016,292.6381,244.897,355.481,True
2,0.6000003,-0.8881199,0.3584887,-0.1669901,-1.41114,-4.451323,-2.872025,0.6526878,1.124531,0.4187961,-1.385813,0.01034483,0.3,0.9,-0.07981309,0.1163824,0.2295514,-0.6621913,-4.260263,-0.07982772,0.7196459,1.301014,0.3481038,-0.00567095,-0.01578794,0.1763715,-0.8760388,0.2189065,-0.04681944,0.8268874,1.36743,0.1987867,0.409349,1.022941,0.2670942,292.0846,244.7292,355.933,True
2,0.6111114,-0.907326,0.3776239,-0.1692095,-1.410639,-4.45647,-2.860627,0.6502104,1.125345,0.4183364,-1.386276,-0.04220844,0.3,0.9,-0.09806031,0.1058051,0.2201415,-0.6601667,-4.258716,-0.07934596,0.7183495,1.301337,0.34764,-0.007642314,-0.008374868,0.1934546,-0.8733219,0.2192983,-0.04692011,0.8256388,1.367694,0.1983812,0.4055999,1.026847,0.2671545,291.4827,244.5445,356.3711,True
2,0.6222225,-0.9233375,0.3978554,-0.1671735,-1.410376,-4.461884,-2.84912,0.6476663,1.126229,0.4177911,-1.385994,0.02627034,0.3,0.9,-0.1214964,0.1037324,0.2204066,-0.6577587,-4.256699,-0.07888629,0.7166921,1.301676,0.347127,-0.009553805,0.009675484,0.215897,-0.8701336,0.2204442,-0.0475313,0.8243067,1.367963,0.1979971,0.4018505,1.030895,0.2672181,290.8048,244.2772,356.858,True
2,0.6333337,-0.9308269,0.4181188,-0.1598117,-1.410476,-4.467457,-2.83772,0.6448388,1.127032,0.4171436,-1.386197,-0.01865035,0.3,0.8,-0.1376595,0.1517929,0.1941073,-0.656743,-4.251303,-0.08107381,0.7148408,1.301931,0.3465056,-0.02423863,0.04371972,0.2374188,-0.8670065,0.2226957,-0.04837232,0.8227913,1.368236,0.1976383,0.3979247,1.035034,0.2672569,290.1046,244.0005,357.3231,True
2,0.6444448,-0.9340602,0.4351622,-0.1556224,-1.410645,-4.472994,-2.826334,0.6421185,1.127703,0.4164155,-1.386384,-0.01677479,0.3,0.8,-0.1366274,0.1912425,0.1825058,-0.6552633,-4.245588,-0.08420169,0.7132032,1.302328,0.3458469,-0.04227401,0.05649517,0.244008,-0.8641905,0.2240451,-0.04827512,0.8213323,1.368466,0.1971948,0.3938695,1.039245,0.2673188,289.4049,243.7322,357.7692,True
2,0.655556,-0.9426149,0.45646,-0.1546579,-1.410863,-4.479149,-2.81447,0.6388564,1.128566,0.4155796,-1.386731,-0.03145876,0.3,0.8,-0.1428321,0.24451,0.1870032,-0.6534188,-4.237912,-0.08848885,0.7111402,1.302633,0.3451648,-0.06563362,0.07780384,0.2506666,-0.8612407,0.2263298,-0.04822958,0.819749,1.368743,0.1968269,0.3896717,1.04351,0.2674104,288.7136,243.5069,358.211,True
2,0.6666671,-0.9426348,0.4639144,-0.1546792,-1.411079,-4.48487,-2.802883,0.6358583,1.12949,0.4149134,-1.386939,-0.01866069,0.3,0.8,-0.1585972,0.289261,0.1958455,-0.6513112,-4.230081,-0.09239251,0.7092568,1.302999,0.3443897,-0.07944892,0.0916612,0.2540267,-0.8583294,0.2284843,-0.04826687,0.8182091,1.368897,0.1964326,0.3853134,1.047791,0.2675122,287.9875,243.3176,358.6728,True
2,0.6777782,-0.9394634,0.4799085,-0.1526218,-1.41151,-4.491114,-2.791401,0.6325037,1.13038,0.4140141,-1.386723,0.02005792,0.3,0.8,-0.1901851,0.3318848,0.2187155,-0.6485649,-4.22087,-0.096477,0.7069286,1.303374,0.3436327,-0.1134584,0.1246992,0.2597473,-0.8553749,0.2319617,-0.04812758,0.8162775,1.369246,0.1961241,0.3808532,1.052033,0.2676013,287.2588,243.131,359.1578,True
2,0.6888894,-0.9427195,0.5235537,-0.1602906,-1.411994,-4.498678,-2.77953,0.6291059,1.131249,0.4130163,-1.387044,-0.02949497,1.4,0.7,-0.2293996,0.3617722,0.2299139,-0.6461366,-4.212504,-0.09928584,0.7044874,1.303644,0.3427036,-0.1250279,0.1395844,0.2748069,-0.8518952,0.2348989,-0.04834143,0.8145671,1.369606,0.1957479,0.3761678,1.056248,0.2676473,286.6117,242.9111,359.6429,True
2,0.7000005,-0.9406115,0.539517,-0.1646252,-1.412491,-4.505619,-2.767948,0.6258513,1.132079,0.4121199,-1.387388,-0.03103113,1.4,0.7,-0.2922147,0.3960341,0.2264824,-0.6443167,-4.203016,-0.1015053,0.7018391,1.303918,0.3418176,-0.15267,0.1630354,0.2793792,-0.8487324,0.2385891,-0.04807938,0.812578,1.369913,0.1954517,0.3714914,1.060469,0.2677184,285.9999,242.6518,0.1529721,True
2,0.7111117,-0.9343122,0.6119652,-0.1671038,-1.413936,-4.515096,-2.756478,0.6220686,1.132748,0.4110563,-1.38733,0.005561223,1.4,0.7,-0.3356311,0.4579054,0.2356986,-0.6421632,-4.190754,-0.106111,0.6991022,1.304087,0.3408973,-0.1737791,0.1949619,0.2977615,-0.8451025,0.2430486,-0.04847939,0.8105829,1.37028,0.1951058,0.36666,1.064708,0.2677842,285.3744,242.392,0.6782889,True
2,0.7222228,-0.933284,0.6311741,-0.1575884,-1.415603,-4.522554,-2.74493,0.6184043,1.133521,0.4102137,-1.387579,-0.02284497,1.4,0.7,-0.3417968,0.5100994,0.243393,-0.6399794,-4.177959,-0.1125857,0.6963432,1.304311,0.3400302,-0.1788975,0.2311341,0.31815,-0.8410375,0.2482733,-0.04983573,0.8083673,1.370668,0.1948359,0.3617214,1.068972,0.2679128,284.7301,242.0913,1.258729,True
2,0.7333339,-0.9322262,0.6344208,-0.14695,-1.417235,-4.529635,-2.733696,0.6143694,1.134287,0.4092882,-1.388154,-0.05226831,2.9,0.9,-0.3388943,0.5783946,0.2030857,-0.6402026,-4.163224,-0.1207941,0.6933161,1.304449,0.3390751,-0.1884051,0.2566921,0.3246959,-0.8374566,0.2534449,-0.050901,0.8062812,1.370981,0.1945593,0.3567381,1.073248,0.2681513,284.0539,241.7507,1.878977,True
2,0.7444451,-0.9279428,0.6174211,-0.1394078,-1.418525,-4.535801,-2.722759,0.610546,1.135164,0.4082899,-1.38782,0.03095969,2.9,0.9,-0.3538209,0.5944181,0.19799,-0.6389786,-4.151604,-0.1258921,0.6902193,1.304528,0.3380599,-0.2010465,0.2758482,0.3376488,-0.8334826,0.2586173,-0.05185707,0.8040463,1.371267,0.1943586,0.3514644,1.077517,0.2685499,283.3453,241.5639,2.355269,True
2,0.7555562,-0.923621,0.5748852,-0.1242961,-1.41978,-4.540616,-2.71204,0.6062577,1.136013,0.407397,-1.388026,-0.01904337,2.9,0.9,-0.3697033,0.5837731,0.208795,-0.6370942,-4.140946,-0.1298816,0.6869624,1.304718,0.3371239,-0.2191874,0.2939872,0.3325338,-0.8301995,0.2640067,-0.05247466,0.8016546,1.37154,0.1941411,0.3461121,1.081755,0.2691281,282.6682,241.554,2.74402,True
2,0.7666674,-0.9193106,0.5386913,-0.1209307,-1.420725,-4.545408,-2.701252,0.6021575,1.13685,0.406409,-1.388199,-0.01567107,2.9,0.9,-0.3900115,0.5646575,0.2078973,-0.6356268,-4.131064,-0.1328339,0.6834639,1.30511,0.3360841,-0.2340814,0.3046542,0.3337663,-0.8266436,0.2693119,-0.05300649,0.799266,1.371817,0.1938505,0.3406972,1.085955,0.2697729,282.0204,241.5781,3.19671,True
2,0.7777785,-0.9107556,0.5163473,-0.1176295,-1.421823,-4.550462,-2.69059,0.5978026,1.13767,0.4053354,-1.388201,-8.881592E-05,2.9,0.9,-0.4112695,0.5636333,0.2124018,-0.633958,-4.120036,-0.1364233,0.680037,1.305308,0.3350456,-0.2499645,0.3376719,0.3414547,-0.8228353,0.2763181,-0.05438894,0.7966179,1.37215,0.1936727,0.3354085,1.090104,0.2703596,281.4022,241.5105,3.773732,True
2,0.7888896,-0.896907,0.5217071,-0.1133848,-1.423511,-4.556474,-2.680227,0.5933312,1.138524,0.4043624,-1.388101,0.009125138,4.1,0.8,-0.4513427,0.5881527,0.2417109,-0.6313024,-4.106592,-0.140968,0.6763171,1.305291,0.3338237,-0.2796638,0.3706938,0.3535248,-0.8187835,0.2838629,-0.05533836,0.7938216,1.372534,0.1935306,0.3301668,1.094191,0.2707193,280.7857,241.2983,4.425794,True
2,0.8000008,-0.8852068,0.5334529,-0.1113056,-1.425334,-4.562778,-2.669789,0.5888824,1.139263,0.4033144,-1.388229,-0.01184263,4.1,0.8,-0.4697129,0.6508844,0.2975164,-0.627542,-4.089516,-0.1489312,0.6724448,1.305399,0.3326485,-0.2859021,0.3930305,0.3685554,-0.8144175,0.2913424,-0.0570292,0.7910657,1.372854,0.193363,0.3250253,1.09821,0.270779,280.1846,240.8542,5.207138,True
2,0.8111119,-0.866058,0.5516481,-0.0975433,-1.427867,-4.569151,-2.659901,0.5842569,1.13993,0.4022596,-1.388641,-0.03759839,4.1,0.8,-0.4734941,0.7062176,0.3264878,-0.6245768,-4.071542,-0.1581462,0.6684358,1.305749,0.3315096,-0.2865672,0.4280723,0.4102082,-0.8086683,0.3000083,-0.05983377,0.7881219,1.373273,0.1931653,0.3198192,1.102185,0.2705306,279.6088,240.1921,6.049746,True
2,0.8222231,-0.8468977,0.5602703,-0.08583647,-1.430552,-4.575385,-2.650134,0.5795757,1.140583,0.401129,-1.388579,0.005987257,4.1,0.8,-0.4818175,0.7658772,0.3310305,-0.6225549,-4.052536,-0.167858,0.6643803,1.30584,0.330277,-0.2983098,0.4355479,0.4060784,-0.8045511,0.3073879,-0.06125484,0.7852809,1.373506,0.1930044,0.3145042,1.106133,0.2701205,279.0395,239.3948,6.897595,True
2,0.8333342,-0.825587,0.5550398,-0.07195848,-1.433134,-4.580942,-2.640842,0.5747766,1.141154,0.3999779,-1.389026,-0.04100687,4.2,0.6,-0.5154246,0.773315,0.3708571,-0.61881,-4.035681,-0.1747375,0.6598194,1.306031,0.3289514,-0.3303254,0.4526547,0.3968186,-0.8009462,0.3156121,-0.06225539,0.7821043,1.373667,0.1927826,0.3091022,1.110046,0.2697074,278.4558,238.5292,7.801025,True
2,0.8444453,-0.7978421,0.5316814,-0.06436795,-1.43531,-4.585674,-2.632359,0.5700244,1.141723,0.3987117,-1.389048,-0.001799013,4.2,0.6,-0.5213253,0.7753378,0.4114125,-0.6146224,-4.01942,-0.1822417,0.6555688,1.306174,0.3275225,-0.3421407,0.4601669,0.3852231,-0.797376,0.3235498,-0.0636642,0.778927,1.373913,0.1927094,0.3035973,1.113903,0.2694013,277.8472,237.8119,8.614002,True
2,0.8555565,-0.7701281,0.5190071,-0.04938918,-1.437856,-4.590396,-2.624058,0.5652981,1.142119,0.3975446,-1.389274,-0.02069524,4.2,0.6,-0.5336077,0.7827,0.4531269,-0.6098751,-4.00202,-0.1901731,0.6512641,1.306136,0.3261151,-0.3559329,0.480408,0.3896624,-0.793312,0.3323839,-0.06539845,0.7756838,1.374087,0.1925902,0.2980224,1.11767,0.2692437,277.2374,237.2029,9.422574,True
2,0.8666676,-0.752068,0.5434855,-0.04843143,-1.440825,-4.596263,-2.615579,0.5606467,1.142475,0.3966539,-1.389815,-0.04939723,4.2,0.6,-0.5626647,0.7903338,0.4236442,-0.6082602,-3.985406,-0.1968494,0.646903,1.305921,0.3246369,-0.3580408,0.4995969,0.3907842,-0.7894281,0.3416412,-0.0678893,0.7723892,1.374294,0.19259,0.292449,1.121293,0.2692009,276.6334,236.5925,10.33661,True
2,0.8777788,-0.7393768,0.6021064,-0.04551136,-1.444759,-4.604055,-2.606689,0.555876,1.142806,0.3954382,-1.389834,-0.001511955,4.2,0.6,-0.5733784,0.7999716,0.4163402,-0.6057935,-3.968024,-0.2043497,0.6424432,1.305891,0.323297,-0.3588887,0.5293693,0.412178,-0.7845736,0.3520502,-0.07121772,0.7689641,1.374466,0.1924763,0.2870024,1.124699,0.2691903,276.0456,235.8458,11.43237,True
2,0.8888899,-0.7266547,0.6405305,-0.03396752,-1.449098,-4.611408,-2.59812,0.5510153,1.142971,0.3942852,-1.389571,0.02382853,3.9,0.6,-0.5644957,0.8425144,0.4387387,-0.6024523,-3.946843,-0.2156084,0.6377108,1.305472,0.3221638,-0.3630153,0.5336074,0.42714,-0.7797374,0.3613309,-0.0735677,0.7654841,1.374676,0.192358,0.2816964,1.127835,0.2691828,275.4974,235.0337,12.4985,True
2,0.900001,-0.6968434,0.6555325,-0.02551025,-1.452936,-4.617883,-2.5908,0.5462787,1.143176,0.3930078,-1.389164,0.0369054,3.9,0.6,-0.5377502,0.8445669,0.4480362,-0.599387,-3.928509,-0.2256496,0.6332377,1.305327,0.3208985,-0.3607749,0.5410306,0.4388672,-0.7749309,0.3706277,-0.07633658,0.7619408,1.374844,0.1922531,0.2763746,1.130748,0.2692634,275.0294,234.4602,13.2206,True
2,0.9111122,-0.6744804,0.6598624,-0.01806793,-1.456828,-4.624167,-2.583426,0.5415342,1.143327,0.3918417,-1.389197,-0.003481758,3.9,0.6,-0.5047083,0.8284863,0.4529311,-0.5963596,-3.911658,-0.2351822,0.6287503,1.305032,0.3194895,-0.3597904,0.5495953,0.4292951,-0.7710512,0.3803922,-0.07938644,0.7584769,1.374903,0.1921782,0.2707835,1.133563,0.2695281,274.6051,234.566,13.31126,True
2,0.9222233,-0.6606323,0.6566775,-0.01909879,-1.460506,-4.630339,-2.575731,0.5366727,1.143485,0.3906109,-1.390143,-0.08646116,3.9,0.6,-0.5112501,0.8232253,0.4423442,-0.5939861,-3.893725,-0.2438582,0.6242192,1.304806,0.3179815,-0.3759832,0.5773938,0.4028795,-0.7680258,0.3916185,-0.08261472,0.7548277,1.374932,0.1919603,0.2650224,1.136321,0.2700206,274.1631,235.3298,12.8863,True
2,0.9333345,-0.6510198,0.6417286,-0.02968067,-1.463542,-4.636407,-2.56807,0.5318347,1.143525,0.3893871,-1.389919,0.02103102,5.3,1,-0.5388943,0.8051608,0.4511324,-0.5909645,-3.876728,-0.2509617,0.6194932,1.304448,0.3165534,-0.3727829,0.5933735,0.4018276,-0.7642047,0.4024194,-0.08628295,0.7511104,1.374934,0.1918292,0.259344,1.138977,0.2706662,273.6956,236.1912,12.49292,True
2,0.9444456,-0.6456634,0.6257284,-0.03813466,-1.466444,-4.642337,-2.560313,0.527028,1.143636,0.3882508,-1.389299,0.0563043,5.3,1,-0.5246809,0.8082632,0.4818566,-0.5871956,-3.857172,-0.2617621,0.6147473,1.304506,0.3150473,-0.3609917,0.6040012,0.4092148,-0.7598851,0.4133627,-0.0905283,0.7473774,1.374933,0.191577,0.2537741,1.141517,0.2713614,273.2282,237.2054,11.95936,True
2,0.9555568,-0.6402837,0.5905815,-0.03797147,-1.469064,-4.647019,-2.552821,0.5221562,1.143611,0.387095,-1.389061,0.02112034,5.3,1,-0.496757,0.8198583,0.4986143,-0.5837734,-3.837383,-0.2736158,0.6100948,1.304136,0.3136542,-0.3437566,0.6039304,0.4303668,-0.7549838,0.4239796,-0.09499469,0.7435571,1.374906,0.1914265,0.2482285,1.143979,0.2720045,272.7794,238.0277,11.59534,True
2,0.9666679,-0.6306121,0.5394976,-0.03025362,-1.471657,-4.65062,-2.545835,0.5172879,1.143619,0.3861389,-1.388782,0.02524627,5.3,1,-0.4767895,0.8060562,0.4770598,-0.5817239,-3.819265,-0.2839992,0.6053362,1.303677,0.3120985,-0.3267365,0.6007437,0.4270033,-0.7510263,0.4343966,-0.09946027,0.7396418,1.374908,0.1912298,0.2427351,1.146372,0.2725444,272.3522,237.938,12.08264,True
2,0.977779,-0.6145952,0.5192822,-0.03117031,-1.474675,-4.655063,-2.539186,0.512489,1.143716,0.3852725,-1.388766,0.001206939,5.3,1,-0.4780033,0.7730511,0.4716468,-0.5790053,-3.803564,-0.2917866,0.6007947,1.303334,0.3107297,-0.3193256,0.6028815,0.4216157,-0.7472425,0.4449519,-0.1038896,0.7358735,1.37487,0.1910765,0.2373153,1.148731,0.2729613,271.9441,237.3064,13.05433,True
2,0.9888902,-0.5921876,0.4958604,-0.03531958,-1.47696,-4.659233,-2.532927,0.5077804,1.143724,0.384094,-1.389048,-0.0258722,5.6,1,-0.4824253,0.6867555,0.4788899,-0.5748859,-3.79184,-0.295993,0.5964058,1.302537,0.3087947,-0.3076105,0.5954087,0.4236187,-0.7431503,0.4551125,-0.1082024,0.7319287,1.374804,0.1910784,0.2320171,1.15105,0.2731949,271.5159,235.9795,14.682,True
2,1.000001,-0.5815171,0.4830667,-0.04475892,-1.479871,-4.663734,-2.526344,0.5030785,1.143716,0.3831935,-1.389359,-0.02830345,5.6,1,-0.4836232,0.6644067,0.4724441,-0.5720321,-3.777504,-0.3026448,0.5919415,1.3021,0.3073552,-0.2916566,0.5911436,0.4213369,-0.7392306,0.4653773,-0.11302,0.7280926,1.374586,0.1908545,0.2268753,1.153324,0.2732137,271.1046,233.3879,17.46752,True
2,1.011112,-0.5814896,0.4659687,-0.05640008,-1.481739,-4.668098,-2.519522,0.498462,1.143612,0.3821409,-1.389578,-0.01985389,5.6,1,-0.4752893,0.6249633,0.4647841,-0.5689631,-3.765097,-0.3081919,0.5877225,1.301162,0.3056624,-0.2672455,0.5868866,0.4115188,-0.7357531,0.4755296,-0.118386,0.724284,1.374377,0.1906471,0.2218489,1.155562,0.2730834,270.7138,226.5883,24.3938,True
2,1.022224,-0.5814561,0.4467418,-0.06373106,-1.483774,-4.671891,-2.512878,0.4937947,1.143647,0.3811014,-1.389118,0.04200869,5.6,1,-0.463841,0.6058216,0.4454148,-0.5667963,-3.751707,-0.3147438,0.5832838,1.30066,0.3042166,-0.2567035,0.5837089,0.399711,-0.7324125,0.485746,-0.1233882,0.7204462,1.374282,0.1904917,0.2169261,1.157726,0.272847,270.3784,198.6913,52.40305,True
2,1.033335,-0.5824689,0.4126268,-0.06890289,-1.485031,-4.675206,-2.50607,0.4892181,1.143542,0.3801105,-1.388665,0.04093948,5.4,0.9,-0.4356055,0.5845658,0.4012909,-0.5660986,-3.740693,-0.3205732,0.5787252,1.300412,0.3024821,-0.2407834,0.5602701,0.395245,-0.7289306,0.4946115,-0.1278906,0.7166356,1.374029,0.190192,0.2120443,1.159817,0.2726049,270.3604,130.7106,120.4503,True
2,1.044446,-0.5791956,0.368941,-0.06763883,-1.486016,-4.677668,-2.499721,0.4847027,1.143293,0.3785951,-1.38864,0.001899335,5.4,0.9,-0.4252009,0.5856642,0.379846,-0.5648953,-3.727025,-0.3275632,0.5746018,1.299615,0.3014803,-0.2322974,0.5453541,0.394048,-0.7254078,0.5038208,-0.1323333,0.7127416,1.373894,0.1899197,0.207185,1.16183,0.2724025,270.6638,102.1116,149.1617,True
2,1.055557,-0.5780711,0.3359242,-0.06855434,-1.487024,-4.68041,-2.493127,0.4802773,1.143062,0.3775203,-1.388359,0.02564746,5.4,0.9,-0.4104843,0.5718182,0.3657845,-0.5633944,-3.714285,-0.3341987,0.5703295,1.298991,0.3001237,-0.2227433,0.540028,0.3907525,-0.7219878,0.5133842,-0.1373507,0.708956,1.373662,0.1896586,0.2023401,1.163797,0.2722396,270.9958,92.47821,158.9546,True
2,1.066668,-0.5759344,0.3349012,-0.05789693,-1.488964,-4.683537,-2.486619,0.4758246,1.142555,0.3760393,-1.388647,-0.0265976,5.4,0.9,-0.3924846,0.5365902,0.3665464,-0.5609235,-3.703246,-0.3395347,0.5661474,1.298301,0.2992435,-0.2122147,0.532597,0.3810413,-0.718882,0.5230562,-0.142351,0.7049638,1.373242,0.1894848,0.1975993,1.165692,0.2720653,271.3672,87.42017,164.27,True
2,1.077779,-0.5738252,0.3530467,-0.05052198,-1.491487,-4.68735,-2.480078,0.4714499,1.142238,0.3749101,-1.388397,0.02309145,5.4,0.9,-0.385015,0.5227093,0.3706795,-0.5586748,-3.69097,-0.3458791,0.5619701,1.297594,0.2979877,-0.1973256,0.5261985,0.378761,-0.7155988,0.5324791,-0.1477554,0.701152,1.372916,0.1892707,0.1930212,1.16747,0.2717325,271.7734,84.41991,167.5728,True
2,1.08889,-0.5675111,0.3978728,-0.03475887,-1.495173,-4.692083,-2.473459,0.4672179,1.141769,0.3737822,-1.388421,-0.002440134,6.8,1,-0.3756721,0.5035629,0.3545228,-0.557252,-3.679706,-0.3514036,0.5579029,1.296738,0.2969019,-0.1857387,0.5145074,0.3679549,-0.7127945,0.5415254,-0.1527184,0.6974194,1.372537,0.1891294,0.1885691,1.169133,0.2712255,272.17,82.9863,169.1859,True
2,1.100002,-0.5579739,0.4352584,-0.01574689,-1.499284,-4.696517,-2.467325,0.4629405,1.141341,0.3727379,-1.388392,0.002704605,6.8,1,-0.3588234,0.4779822,0.342524,-0.5556973,-3.669752,-0.3564804,0.5538457,1.296056,0.2958019,-0.1763077,0.5006872,0.3529301,-0.7101026,0.5501875,-0.1575241,0.6935422,1.372262,0.1888516,0.1841311,1.170712,0.2705695,272.5473,81.37917,170.8811,True
2,1.111113,-0.5388191,0.4471021,0.005506381,-1.503243,-4.700266,-2.461618,0.4587117,1.140966,0.3716867,-1.38832,0.006491102,6.8,1,-0.3377776,0.4342858,0.3314796,-0.5538629,-3.661376,-0.3603161,0.5498287,1.295352,0.2946706,-0.1657217,0.4730103,0.3495432,-0.7071928,0.5580012,-0.1617961,0.6897453,1.371778,0.1884301,0.1796729,1.172267,0.2699206,272.8529,80.21218,172.0088,True
2,1.122224,-0.5260324,0.4482353,0.01615529,-1.506723,-4.703763,-2.456071,0.4545373,1.140642,0.3706427,-1.388704,-0.03519014,6.8,1,-0.3347723,0.3714575,0.3249088,-0.5511673,-3.654821,-0.3625907,0.5462533,1.294182,0.2932696,-0.1551572,0.4442628,0.3440443,-0.7042255,0.5651934,-0.1657562,0.6859474,1.371306,0.1881094,0.1752116,1.173851,0.269471,273.1441,78.54668,173.6266,True
2,1.133335,-0.5132339,0.440797,0.01831202,-1.509734,-4.707048,-2.450721,0.4504738,1.140244,0.3696251,-1.389025,-0.02907822,6.8,1,-0.3401933,0.3373825,0.325878,-0.549032,-3.648073,-0.3643599,0.5421336,1.293638,0.2916565,-0.1412506,0.4346449,0.3513535,-0.7009072,0.5730723,-0.1706908,0.6822102,1.370887,0.1878219,0.1707601,1.175495,0.2693199,273.4648,76.33447,175.9014,True
2,1.144446,-0.514276,0.4280091,0.01730618,-1.51255,-4.710255,-2.444811,0.4464108,1.139843,0.3685541,-1.389068,-0.003774437,6.2,0.8,-0.3463907,0.338391,0.3430044,-0.5462751,-3.638159,-0.3687921,0.5380759,1.292851,0.290575,-0.1230454,0.4452575,0.360819,-0.6974973,0.5824872,-0.1771633,0.6784649,1.370507,0.1875269,0.1663872,1.177171,0.2694372,273.828,74.16695,178.2858,True
2,1.155557,-0.5121076,0.4034964,0.01422231,-1.514883,1.570258,-2.43908,0.4423219,1.139331,0.3674784,-1.389109,-0.003843413,6.2,0.8,-0.3486022,0.3640015,0.330322,-0.5451224,-3.626981,-0.3743928,0.534184,1.292042,0.2894397,-0.124083,0.4484439,0.3640434,-0.6942627,0.5914457,-0.1826116,0.6747404,1.370054,0.1872451,0.1621406,1.178834,0.2697292,274.2271,72.65284,180.1151,True
2,1.166668,-0.5152623,0.3789915,0.01220095,-1.517148,1.567686,-2.433104,0.4382651,1.138808,0.3664515,-1.388422,0.06263828,6.2,0.8,-0.3360039,0.3810564,0.3121091,-0.5443783,-3.616465,-0.3799753,0.530231,1.291186,0.2884614,-0.1189681,0.4399836,0.3405318,-0.6922264,0.5994148,-0.1875688,0.6711452,1.369542,0.1868975,0.1580415,1.180427,0.2700908,274.655,71.70149,181.4112,True
2,1.17778,-0.5003045,0.3492079,0.01552914,-1.519311,1.565535,-2.427903,0.4342951,1.138371,0.3653691,-1.388412,0.0003273705,6.2,0.8,-0.3084162,0.3991508,0.2979867,-0.5437184,-3.60524,-0.3871331,0.5263514,1.290378,0.2873349,-0.1138569,0.4197965,0.318062,-0.6902663,0.6063429,-0.1918182,0.6675095,1.369053,0.1865661,0.1540007,1.181957,0.2704111,275.0782,71.01588,182.441,True
2,1.188891,-0.4789548,0.3204879,0.01779583,-1.5212,1.563763,-2.423212,0.4303141,1.137973,0.3643577,-1.388119,0.02683073,6.9,1.3,-0.2873464,0.3874044,0.2817404,-0.5426617,-3.596587,-0.3919262,0.5225129,1.289727,0.2864347,-0.108649,0.3910715,0.3072868,-0.6878982,0.6126589,-0.1956441,0.6638978,1.368599,0.1862206,0.1499958,1.183403,0.2705836,275.4995,70.67903,183.0831,True
2,1.200002,-0.4629467,0.3013315,0.01681727,-1.523113,1.561817,-2.418539,0.426464,1.137497,0.3633752,-1.388787,-0.06129215,6.9,1.3,-0.2844254,0.3576216,0.2645721,-0.5415581,-3.589628,-0.3947838,0.5188968,1.288837,0.285368,-0.1139418,0.3857383,0.3115815,-0.6851674,0.6200852,-0.1999368,0.6602781,1.368101,0.1858613,0.1460226,1.184769,0.2705469,275.8675,70.39957,183.5979,True
2,1.211113,-0.449067,0.2832223,0.0126223,-1.524666,1.55986,-2.413978,0.4226807,1.137275,0.362627,-1.389262,-0.04293603,6.9,1.3,-0.2912423,0.3097699,0.2400016,-0.5405067,-3.585248,-0.394872,0.5151596,1.288191,0.2843256,-0.1235097,0.3825667,0.3158894,-0.6826225,0.6280551,-0.2041928,0.6568104,1.367641,0.1855102,0.1421291,1.18605,0.2702636,276.1902,70.2291,183.9366,True
2,1.222224,-0.4341027,0.2544493,0.004231609,-1.525721,1.558285,-2.409665,0.4188566,1.136906,0.361618,-1.389191,0.006692762,6.9,1.3,-0.2999476,0.2885183,0.2293914,-0.5393758,-3.579062,-0.3964648,0.5115758,1.287401,0.2832048,-0.1223801,0.3740307,0.3265006,-0.6795737,0.6355154,-0.208525,0.6531577,1.367218,0.1851528,0.1383267,1.187226,0.269739,276.4943,70.35088,183.8905,True
2,1.233335,-0.4202095,0.2256528,-0.007355683,-1.526374,1.556857,-2.405421,0.4150953,1.13647,0.3605707,-1.389138,0.004639966,6.9,1.3,-0.296679,0.288478,0.2368262,-0.5378211,-3.570931,-0.4002196,0.5078564,1.286799,0.2820756,-0.1202102,0.3527071,0.3328197,-0.6764003,0.6417126,-0.2120992,0.6496201,1.366677,0.1847034,0.1346219,1.188284,0.2690478,276.7492,70.67694,183.5297,True
2,1.244446,-0.4127345,0.2170949,-0.01586682,-1.527527,1.554978,-2.401065,0.4112684,1.135937,0.3595881,-1.389217,-0.007329495,9,1.6,-0.292792,0.328785,0.2891157,-0.5351164,-3.557909,-0.4081965,0.5041992,1.285979,0.280966,-0.1256309,0.3388811,0.325377,-0.6737936,0.6480265,-0.2153227,0.6461184,1.36606,0.1842551,0.1309574,1.189284,0.2683044,276.9523,71.18112,182.9491,True
2,1.255558,-0.3956876,0.2224342,-0.0232902,-1.528976,1.55256,-2.397227,0.4075317,1.135378,0.3585954,-1.389141,0.006868076,9,1.6,-0.2892925,0.3628083,0.3083568,-0.5334466,-3.545213,-0.4160047,0.5005347,1.285126,0.2797747,-0.1268907,0.3314909,0.3061768,-0.6720183,0.6545875,-0.2188053,0.6426715,1.365352,0.183794,0.1273196,1.190221,0.2675423,277.195,71.76424,182.3664,True
2,1.266669,-0.3839823,0.2373349,-0.02974063,-1.530979,1.549962,-2.393378,0.4037367,1.134824,0.357945,-1.3889,0.0218899,9,1.6,-0.2783252,0.3850873,0.3296266,-0.5313858,-3.532535,-0.424318,0.4969578,1.284337,0.2785783,-0.1205574,0.3411059,0.3007928,-0.6700189,0.6623977,-0.2236118,0.6391941,1.364652,0.1833429,0.1237014,1.191069,0.2667708,277.4651,72.37802,181.7784,True
2,1.27778,-0.3765473,0.2522391,-0.0340731,-1.532861,1.547141,-2.38934,0.3999234,1.134219,0.3570213,-1.389281,-0.03513862,9,1.6,-0.2797385,0.3755875,0.3019218,-0.5307329,-3.523584,-0.4288227,0.4933483,1.283406,0.277472,-0.1131311,0.3624193,0.2954533,-0.6680891,0.6711039,-0.2294345,0.6357217,1.36398,0.1829662,0.1200354,1.191841,0.2660511,277.7275,72.80984,181.3424,True
2,1.288891,-0.3616225,0.2501284,-0.03512491,-1.534402,1.544878,-2.385816,0.3961779,1.133621,0.3561294,-1.389176,0.009815658,7.7,1.9,-0.2917495,0.3479666,0.2806732,-0.5297384,-3.516729,-0.4313751,0.4895621,1.282763,0.2762756,-0.113189,0.3560734,0.2900805,-0.6661834,0.6784317,-0.2337598,0.6322159,1.363451,0.1824212,0.1163304,1.192525,0.2654841,277.9599,73.13619,180.9735,True
2,1.300002,-0.3338741,0.2181977,-0.0381742,-1.534939,1.543505,-2.383016,0.3924047,1.13304,0.3552866,-1.388834,0.03104232,7.7,1.9,-0.2940001,0.3288309,0.2742477,-0.5284495,-3.508692,-0.4349272,0.486036,1.28179,0.2751482,-0.1174959,0.3422577,0.2932332,-0.6640581,0.6854143,-0.2372096,0.6290667,1.36251,0.1820807,0.112537,1.193151,0.2651892,278.169,73.21093,180.8765,True
2,1.311113,-0.3221135,0.1883623,-0.04336826,-1.535188,1.542226,-2.379708,0.3887051,1.13244,0.3544025,-1.389161,-0.03017273,7.7,1.9,-0.2931626,0.326763,0.2518837,-0.5279504,-3.500282,-0.4393326,0.4824095,1.280678,0.2738042,-0.1153685,0.337995,0.2932045,-0.661746,0.6924117,-0.2415093,0.6256936,1.361788,0.1816325,0.1086751,1.193733,0.2651679,278.3721,73.05567,181.1712,True
2,1.322224,-0.3135133,0.1393093,-0.05805932,-1.534265,1.541472,-2.376487,0.3850494,1.131818,0.3534851,-1.38974,-0.05275388,7.7,1.9,-0.2782757,0.3224725,0.250638,-0.5269001,-3.491436,-0.4443319,0.4789519,1.279657,0.2726355,-0.1004458,0.3315911,0.2941297,-0.6592985,0.6992785,-0.2464084,0.6221321,1.361156,0.1811333,0.1048662,1.194232,0.2653209,278.5818,72.85129,181.6471,True
2,1.333336,-0.3070537,0.0944625,-0.08130354,-1.532604,1.5406,-2.373173,0.381527,1.131261,0.3525853,-1.38911,0.05782178,7.7,1.9,-0.2611986,0.3149651,0.2536232,-0.5255557,-3.483033,-0.4494585,0.4755313,1.278658,0.2712684,-0.07277274,0.311327,0.2949071,-0.6567771,0.7050914,-0.2510189,0.6186992,1.360256,0.1807272,0.1011657,1.194592,0.2654795,278.8067,72.8026,182.0203,True
2,1.344447,-0.3016778,0.06136584,-0.09926087,-1.531213,1.539645,-2.369934,0.3781596,1.130646,0.3517554,-1.388949,0.01408333,8.4,1.8,-0.2619774,0.3362213,0.2739448,-0.5241117,-3.471365,-0.4565569,0.4721395,1.277622,0.2701061,-0.07387942,0.3145448,0.2906707,-0.6546252,0.7123666,-0.2557948,0.6152049,1.3595,0.1802423,0.09756228,1.194811,0.2654916,279.0019,72.8979,182.2344,True
2,1.355558,-0.2952361,0.02932904,-0.1182902,-1.529359,1.538819,-2.366847,0.3747266,1.129982,0.3509231,-1.388734,0.01955491,8.4,1.8,-0.2525761,0.314925,0.2599398,-0.5230582,-3.46431,-0.4605231,0.4687686,1.276634,0.2687423,-0.07704434,0.3188006,0.2939044,-0.6523424,0.719595,-0.2605498,0.6119403,1.358713,0.1796908,0.09406535,1.194893,0.2652249,279.1507,73.39399,181.9842,True
2,1.366669,-0.2834847,0.01118024,-0.1309939,-1.527758,1.537788,-2.364094,0.3713471,1.129286,0.3500657,-1.388694,0.00338029,8.4,1.8,-0.2529975,0.293718,0.2279419,-0.5228046,-3.458496,-0.462819,0.4654571,1.275707,0.2673259,-0.06207025,0.3081178,0.3012119,-0.649627,0.7260154,-0.2655361,0.6086583,1.357878,0.1792557,0.09068916,1.194874,0.264636,279.2324,74.24078,181.249,True
2,1.37778,-0.2685432,-0.0005674446,-0.142658,-1.526087,1.536637,-2.361683,0.367926,1.128735,0.3491199,-1.388751,-0.005272712,8.4,1.8,-0.2529415,0.3128929,0.2290775,-0.5222437,-3.448551,-0.4685073,0.4621353,1.2748,0.2660182,-0.05989772,0.2495038,0.3095875,-0.6461021,0.7290484,-0.2674999,0.6054642,1.357033,0.1786649,0.08743443,1.1948,0.2637774,279.2998,75.20626,180.2621,True
2,1.388891,-0.2514854,-0.006966416,-0.1469009,-1.524426,1.535616,-2.35944,0.3645538,1.127818,0.347837,-1.389002,-0.02298354,8.4,1.8,-0.2625141,0.3267702,0.2281747,-0.5217617,-3.438693,-0.4737811,0.4587636,1.273781,0.2645066,-0.06626624,0.223928,0.3149078,-0.6430607,0.7333151,-0.269864,0.6023924,1.356293,0.1780744,0.08422332,1.194717,0.2627223,279.3974,76.32769,179.0487,True
2,1.400002,-0.2185059,0.02933498,-0.1396072,-1.524541,1.533613,-2.358237,0.3614596,1.127012,0.3468459,-1.389253,-0.02289009,6.9,1.6,-0.2617632,0.4097248,0.2742278,-0.5211892,-3.421636,-0.4857087,0.4556593,1.272724,0.2632022,-0.07255071,0.2239038,0.32669,-0.6397755,0.7392043,-0.2736076,0.5992964,1.355493,0.1775739,0.08100607,1.194642,0.2615661,279.5106,77.41708,177.8432,True
2,1.411114,-0.2058026,0.08058847,-0.1164032,-1.525911,1.531496,-2.356205,0.3583689,1.126102,0.3459115,-1.389295,-0.003790777,6.9,1.6,-0.2473612,0.4660413,0.3093918,-0.5204626,-3.404658,-0.498209,0.4525502,1.271635,0.2619116,-0.04388508,0.231359,0.3158039,-0.637581,0.7452636,-0.2788964,0.5963547,1.354539,0.1771681,0.07774876,1.194567,0.2603773,279.6594,78.43472,176.7691,True
2,1.422225,-0.2026626,0.1201079,-0.09634442,-1.527422,1.529312,-2.353973,0.3551934,1.125193,0.3449957,-1.390193,-0.08221836,6.9,1.6,-0.2654482,0.5023251,0.3054476,-0.5209575,-3.389789,-0.5073186,0.4495966,1.270273,0.2606752,-0.01942584,0.2196313,0.3134438,-0.6347623,0.7502645,-0.2833641,0.5934103,1.353722,0.1766968,0.07455405,1.194378,0.2591809,279.8308,79.23645,175.9342,True
2,1.433336,-0.1952778,0.1671036,-0.07205706,-1.52989,1.526876,-2.351959,0.3522571,1.124215,0.3441119,-1.389258,0.08616119,6.9,1.6,-0.2806371,0.4576638,0.291636,-0.5202634,-3.380856,-0.5114121,0.4467846,1.269176,0.2595913,-0.004601568,0.1983356,0.3047407,-0.6322147,0.7540667,-0.2869364,0.5906489,1.352848,0.1762493,0.07146356,1.194037,0.258132,279.9477,79.60618,175.4396,True
2,1.444447,-0.1953022,0.1852971,-0.05509757,-1.531697,1.524944,-2.349736,0.3493079,1.123317,0.3432674,-1.388771,0.04358692,14.3,1.9,-0.2831771,0.4407075,0.2617833,-0.5205825,-3.371697,-0.5159832,0.4440946,1.267932,0.2586243,-0.008882105,0.1887535,0.3036965,-0.6294317,0.7586312,-0.290305,0.5877868,1.352005,0.1757393,0.06834891,1.19362,0.2573726,280.0104,79.50865,175.4363,True
2,1.455558,-0.1835901,0.1864531,-0.03805494,-1.533206,1.523707,-2.348077,0.3465762,1.122457,0.3425286,-1.388836,-0.006424522,14.3,1.9,-0.2632667,0.4183579,0.2380453,-0.5209265,-3.363266,-0.5210901,0.4414057,1.266818,0.2576735,-0.0108853,0.1578216,0.3217473,-0.6256426,0.7617801,-0.2925048,0.5852419,1.350986,0.1750605,0.06516432,1.193209,0.2569638,280.0439,79.20004,175.7549,True
2,1.466669,-0.1718381,0.164155,-0.02623542,-1.533938,1.523038,-2.346576,0.343883,1.121677,0.3417799,-1.388523,0.02871264,14.3,1.9,-0.2149959,0.3640636,0.1872519,-0.521766,-3.358869,-0.5241945,0.4387343,1.265787,0.2568097,-0.003255337,0.1364542,0.3450761,-0.6213773,0.7655501,-0.2956599,0.582464,1.350146,0.174449,0.06203459,1.192817,0.2569126,280.0779,78.60991,176.4816,True
2,1.47778,-0.165395,0.1311917,-0.01649814,-1.534267,1.522787,-2.344964,0.3413171,1.1209,0.3410358,-1.388931,-0.03760129,14.3,1.9,-0.1821146,0.3448355,0.179362,-0.5218368,-3.351262,-0.529809,0.4363026,1.264698,0.2559791,0.01375404,0.1194059,0.3417012,-0.6179743,0.7689083,-0.2991412,0.5797884,1.349404,0.1739874,0.05901968,1.192472,0.2571194,280.1195,77.96724,177.3795,True
2,1.488891,-0.1600631,0.1205382,-0.008997377,-1.534766,1.5226,-2.343262,0.3389386,1.120182,0.3403041,-1.389013,-0.007254936,14.3,1.9,-0.1771637,0.3108013,0.1557596,-0.522093,-3.345978,-0.5323353,0.4340627,1.263558,0.2552171,0.02642602,0.1098333,0.3309127,-0.6151476,0.7721495,-0.3023636,0.5772737,1.34854,0.1735432,0.05624728,1.192148,0.2574274,280.193,77.35103,178.313,True
2,1.500003,-0.1611257,0.1194927,-0.004732512,-1.535762,1.521711,-2.34143,0.3366498,1.11933,0.3396511,-1.388774,0.02182437,14.6,2.8,-0.1848492,0.2767679,0.1450872,-0.5220557,-3.341136,-0.5339161,0.4317732,1.26265,0.2545078,0.03685027,0.09817889,0.304166,-0.6128967,0.7748805,-0.3054363,0.5749378,1.347687,0.1731753,0.05369758,1.191846,0.2576504,280.3057,76.90062,179.0909,True
2,1.511114,-0.1600626,0.1216562,-0.004730884,-1.537111,1.520374,-2.339616,0.3343459,1.118427,0.3392682,-1.388557,0.01957712,14.6,2.8,-0.1744496,0.2693472,0.1247018,-0.522827,-3.335466,-0.5372221,0.4296228,1.261611,0.2538533,0.03980979,0.09610906,0.2785653,-0.6111103,0.7777843,-0.3082013,0.5727104,1.346786,0.1728497,0.05135351,1.191561,0.2576363,280.4254,76.59467,179.6548,True
2,1.522225,-0.1622027,0.1269847,-0.003690407,-1.53823,1.519216,-2.337657,0.3323237,1.117571,0.3387308,-1.388361,0.01768687,14.6,2.8,-0.155688,0.2320977,0.09879571,-0.5233389,-3.332546,-0.5383782,0.4274243,1.260659,0.2530389,0.05045597,0.09290533,0.2774043,-0.6083523,0.7810559,-0.3118599,0.5704381,1.345945,0.172519,0.04918331,1.19131,0.257326,280.5386,76.44234,179.9268,True
2,1.533336,-0.1590134,0.1312602,-0.00157911,-1.539417,1.518132,-2.33593,0.3303052,1.116654,0.3382323,-1.388322,0.003387378,14.6,2.8,-0.1259947,0.2182019,0.08988721,-0.5237447,-3.328592,-0.5414219,0.4254009,1.259611,0.2524035,0.06221455,0.0875596,0.2815528,-0.6053956,0.7841616,-0.3155431,0.5683134,1.345215,0.1721241,0.04710627,1.191109,0.2568022,280.6763,76.55521,179.7515,True
2,1.544447,-0.1568993,0.1440548,-0.00163985,-1.540878,1.516619,-2.334265,0.3283322,1.115794,0.3377497,-1.388132,0.01735661,15.2,4.4,-0.1197802,0.234219,0.07282744,-0.5250092,-3.322529,-0.5453184,0.4234892,1.258716,0.2517648,0.06859469,0.08755391,0.2814984,-0.6027421,0.7873578,-0.3189623,0.5661603,1.344468,0.1715882,0.04507129,1.190948,0.2562368,280.8259,76.75433,179.3876,True
2,1.555558,-0.1537224,0.1589743,-0.001712538,-1.542425,1.51497,-2.332653,0.326524,1.11482,0.3371754,-1.388312,-0.01661131,15.2,4.4,-0.1188909,0.2044112,0.06527472,-0.525161,-3.319717,-0.5462303,0.4216119,1.257851,0.2512178,0.06961977,0.0875638,0.2772315,-0.600235,0.7906563,-0.3224356,0.5640901,1.343792,0.1712744,0.04314959,1.190781,0.2557278,280.9608,76.89494,179.1371,True
2,1.566669,-0.1505463,0.1781334,-0.005007081,-1.543999,1.513018,-2.331129,0.3247653,1.113919,0.3366673,-1.388372,-0.005366514,15.2,4.4,-0.09329054,0.1936795,0.07027337,-0.525268,-3.315657,-0.5495433,0.4198168,1.256906,0.2506962,0.06319401,0.09183341,0.2730328,-0.5979564,0.7941524,-0.3258351,0.5621011,1.342997,0.1711686,0.04130251,1.190602,0.2553326,281.1053,76.96719,179.0134,True
2,1.577781,-0.1441922,0.2037172,-0.00299149,-1.546264,1.510932,-2.329682,0.3230683,1.113136,0.3362756,-1.388387,-0.001395309,15.2,4.4,-0.08717544,0.1820153,0.04991546,-0.5263743,-3.312687,-0.5511055,0.4180369,1.256056,0.250257,0.06065078,0.09940927,0.2251376,-0.5974419,0.797027,-0.3287433,0.5603005,1.342283,0.1709812,0.03949589,1.190403,0.2551025,281.2522,76.93095,179.0544,True
2,1.588892,-0.1410222,0.221817,-0.006270081,-1.548381,1.508688,-2.328157,0.3213596,1.112378,0.3359499,-1.388433,-0.004224646,15.2,4.4,-0.0734771,0.1511081,0.04327,-0.5265181,-3.311258,-0.5519649,0.4162526,1.25517,0.2497857,0.06265973,0.1015769,0.2112719,-0.5961012,0.8001793,-0.3320954,0.558394,1.341554,0.170773,0.03776359,1.190143,0.2550529,281.3979,76.80689,179.2459,True
2,1.600003,-0.1367463,0.2143424,-0.01262859,-1.549707,1.506917,-2.326755,0.3197159,1.111673,0.3356311,-1.388461,-0.002595495,15.8,4.4,-0.05580063,0.1032193,0.01628099,-0.5269645,-3.31245,-0.5507388,0.4145936,1.254337,0.2493119,0.05004056,0.1207165,0.2295409,-0.5937012,0.8054723,-0.3365679,0.5566301,1.340905,0.1704557,0.03604963,1.189851,0.2551991,281.502,76.5923,179.5472,True
2,1.611114,-0.1303404,0.2057805,-0.02324142,-1.550749,1.505097,-2.325488,0.3180195,1.111049,0.3353126,-1.388334,0.0117069,15.8,4.4,-0.05283771,0.07342608,0.002305336,-0.5272446,-3.313306,-0.5495009,0.4128747,1.253617,0.2488463,0.03518987,0.1068511,0.2392179,-0.5910881,0.8083059,-0.3386617,0.5548462,1.340383,0.1700771,0.03430997,1.189585,0.2555654,281.5688,76.19975,180.0417,True
2,1.622225,-0.1174959,0.1620394,-0.04115197,-1.550197,1.504115,-2.324501,0.3165303,1.110616,0.3350539,-1.38838,-0.004416263,15.8,4.4,-0.0558646,0.07339181,0.01831991,-0.5270507,-3.310767,-0.5506935,0.4113281,1.253008,0.248255,0.02985007,0.07382755,0.2402517,-0.5883583,0.8091965,-0.3395288,0.5531859,1.339915,0.1697965,0.03254836,1.18937,0.2561369,281.639,75.81396,180.5955,True
2,1.633336,-0.1078249,0.1076065,-0.0664679,-1.548659,1.503396,-2.323609,0.3150024,1.110236,0.3348441,-1.388471,-0.008354443,15.8,4.4,-0.06185231,0.1031474,0.04724488,-0.5269001,-3.305447,-0.5543703,0.4098384,1.252363,0.2477169,0.03287672,0.07386214,0.2221049,-0.5869991,0.8114839,-0.3418394,0.5517754,1.339551,0.1696115,0.03081757,1.189189,0.2568219,281.7277,75.54173,181.1125,True
2,1.644447,-0.09816575,0.05640431,-0.08647407,-1.546936,1.502782,-2.322688,0.3136327,1.109787,0.3347037,-1.388682,-0.01923261,14.6,4.7,-0.06462359,0.1435524,0.07722829,-0.5269629,-3.298358,-0.5594828,0.4083919,1.251712,0.2472301,0.03592762,0.08348771,0.2061222,-0.5857602,0.8147871,-0.3449558,0.5502434,1.338979,0.1695096,0.02913675,1.189032,0.2575088,281.8146,75.37679,181.5594,True
2,1.655559,-0.0938559,0.02439334,-0.09911045,-1.545313,1.502214,-2.321759,0.3121362,1.10942,0.3344791,-1.388716,-0.00296534,14.6,4.7,-0.07346768,0.1817568,0.1349804,-0.5259178,-3.289191,-0.566139,0.4070627,1.251094,0.2468805,0.03784464,0.09100391,0.1816204,-0.5850437,0.8176963,-0.3477904,0.5489488,1.338499,0.1694036,0.02760857,1.188847,0.258047,281.876,75.53574,181.6783,True
2,1.66667,-0.09167925,-0.007584479,-0.1042886,-1.543683,1.502015,-2.320776,0.3108624,1.109086,0.3343537,-1.388602,0.01034721,14.6,4.7,-0.06481479,0.1753054,0.1476457,-0.5250806,-3.283781,-0.5703766,0.4058132,1.250536,0.2464621,0.02909499,0.08893681,0.157184,-0.5844371,0.8197473,-0.3493468,0.5477268,1.338,0.1692362,0.02621235,1.188618,0.2583312,281.9356,76.02586,181.3795,True
2,1.677781,-0.09164861,-0.02890286,-0.1084542,-1.542145,1.501593,-2.319695,0.3096083,1.108769,0.3342268,-1.388507,0.00854867,14.6,4.7,-0.06098079,0.1359775,0.1187163,-0.5250571,-3.283121,-0.5703777,0.4045996,1.250099,0.2461095,0.005580842,0.09003767,0.148865,-0.5834698,0.8224399,-0.3508358,0.5466118,1.337551,0.1690989,0.02492037,1.188334,0.2583385,281.9924,76.60043,180.88,True
2,1.688892,-0.08311222,-0.0384878,-0.1105393,-1.5407,1.501132,-2.319037,0.3084331,1.108534,0.3340878,-1.388372,0.01220389,14.6,4.7,-0.06029425,0.09130445,0.0951337,-0.5245975,-3.283275,-0.5696078,0.4034643,1.249729,0.2458019,-0.007284433,0.08795203,0.1404358,-0.5827113,0.8251686,-0.3525407,0.5454856,1.337045,0.168983,0.02362035,1.188048,0.2580893,282.0212,77.1375,180.3298,True
2,1.700003,-0.07137829,-0.04702184,-0.1179563,-1.539139,1.500431,-2.318639,0.3073204,1.108276,0.3340321,-1.388221,0.01366011,13.1,4.5,-0.06899939,0.06152734,0.08661629,-0.5239301,-3.282625,-0.568934,0.4022489,1.249376,0.245609,-0.01266553,0.07731626,0.1351322,-0.5815955,0.8269026,-0.3536742,0.5442449,1.336712,0.1688254,0.02237815,1.187749,0.2576374,282.0031,77.69519,179.6814,True
2,1.711114,-0.05537748,-0.06191286,-0.1178852,-1.537413,1.500278,-2.318542,0.3063239,1.108096,0.3339632,-1.388586,-0.03347784,13.1,4.5,-0.06236885,0.05931616,0.1078409,-0.5226352,-3.279685,-0.571023,0.4013203,1.248989,0.2453294,-0.01601396,0.07417736,0.117033,-0.5813105,0.828662,-0.3549112,0.5431321,1.3364,0.168659,0.02117626,1.18748,0.2570726,281.9604,78.31654,178.9232,True
2,1.722225,-0.05536132,-0.07042705,-0.1157172,-1.535805,1.50009,-2.317945,0.3052491,1.107917,0.3338025,-1.388827,-0.02182869,13.1,4.5,-0.05363049,0.06776743,0.1248129,-0.5215923,-3.275391,-0.5744675,0.4002826,1.248677,0.2450869,-0.01503437,0.07206867,0.1074327,-0.5807481,0.8305163,-0.356295,0.5422379,1.335939,0.1685631,0.02003926,1.187252,0.2564971,281.929,79.01132,178.0727,True
2,1.733337,-0.04790582,-0.07037732,-0.1071936,-1.53461,1.499986,-2.317671,0.3043367,1.107689,0.3337169,-1.389034,-0.01876318,13.1,4.5,-0.05600528,0.06783786,0.1035329,-0.5216594,-3.273695,-0.5752793,0.3993793,1.248373,0.2448936,-0.009809956,0.05823265,0.0998848,-0.5801057,0.8311647,-0.3565629,0.5414336,1.335523,0.1686199,0.01899551,1.187032,0.2560124,281.9249,79.73035,177.2097,True
2,1.744448,-0.04367592,-0.05327529,-0.0966208,-1.534191,1.499395,-2.317212,0.3034465,1.107475,0.3335466,-1.388452,0.05320414,13.1,4.5,-0.06360942,0.06684385,0.09188775,-0.5218059,-3.271862,-0.5756971,0.3985803,1.248169,0.2447312,-0.01414435,0.06464954,0.09247439,-0.5797648,0.833306,-0.3578455,0.5405214,1.335259,0.1685705,0.01803958,1.1868,0.2556513,281.9402,80.31372,176.5517,True
2,1.755559,-0.03945035,-0.03080547,-0.07648217,-1.534432,1.498998,-2.316911,0.3026241,1.107225,0.333467,-1.388624,-0.01626564,6.6,7.8,-0.04889482,0.05727242,0.07677433,-0.5216978,-3.270658,-0.5766479,0.3977584,1.247864,0.2445595,-0.01953901,0.06147494,0.08505607,-0.5793265,0.834772,-0.3586221,0.5397761,1.334936,0.1685596,0.01709444,1.186582,0.2554051,281.9535,80.73757,176.1156,True
2,1.76667,-0.0341863,0.008672237,-0.0649443,-1.535251,1.497754,-2.316592,0.3018669,1.106916,0.3333623,-1.388418,0.01899642,6.6,7.8,-0.04375681,0.04025359,0.06387952,-0.521382,-3.270573,-0.5764556,0.396919,1.24765,0.2444897,-0.01209395,0.05721184,0.08391716,-0.5786666,0.8361871,-0.359927,0.5389591,1.334645,0.1685128,0.01620732,1.186359,0.2552689,281.9615,80.98637,175.8745,True
2,1.777781,-0.02357986,0.03217131,-0.055464,-1.535793,1.496705,-2.316483,0.3012048,1.106576,0.3332734,-1.388483,-0.006115336,6.6,7.8,-0.04941667,0.02437117,0.03939258,-0.5216099,-3.270943,-0.575123,0.3961862,1.247498,0.2443402,-0.02294343,0.04129699,0.06266509,-0.5786623,0.8362619,-0.359323,0.5383286,1.334392,0.1684668,0.01533995,1.186165,0.2552528,281.9564,81.02673,175.8531,True
2,1.788892,-0.009748795,0.04077127,-0.04273853,-1.536022,1.495989,-2.316706,0.3005542,1.106282,0.333302,-1.388449,0.003132402,6.6,7.8,-0.05142257,0.02540951,0.05007238,-0.5210336,-3.26943,-0.5757951,0.3954419,1.24731,0.2442682,-0.03261007,0.01575358,0.05522864,-0.5780939,0.8353537,-0.3578937,0.5376451,1.334121,0.1684003,0.01451545,1.186002,0.2553675,281.9616,80.90811,175.9951,True
2,1.800003,0.006224451,0.04086087,-0.02995304,-1.536436,1.49563,-2.317195,0.2998948,1.106045,0.3333242,-1.388584,-0.01246877,3.6,10.8,-0.03653833,0.02752048,0.0477744,-0.5208983,-3.268057,-0.5769131,0.394785,1.247135,0.244164,-0.04111698,-0.01621408,0.05948635,-0.5768498,0.8336453,-0.3557006,0.5368783,1.333804,0.1683617,0.01374313,1.185859,0.2556372,281.9913,80.77085,176.185,True
2,1.811115,0.009428887,0.03343325,-0.02354697,-1.536183,1.495356,-2.317334,0.2992261,1.105778,0.3333027,-1.388843,-0.02362254,3.6,10.8,-0.009984519,0.05092777,0.03582161,-0.5216142,-3.265808,-0.5796255,0.3941006,1.246854,0.2441134,-0.03249253,-0.01091813,0.07114481,-0.5757637,0.834541,-0.3563765,0.5361122,1.333575,0.1683309,0.01306328,1.185692,0.2560401,282.0399,80.68006,176.3715,True
2,1.822226,0.01475831,0.03240891,-0.0160808,-1.536474,1.49521,-2.317695,0.2986173,1.105556,0.3332434,-1.389022,-0.01619331,3.6,10.8,-0.01444042,0.04352985,0.02093034,-0.5220547,-3.265706,-0.5792719,0.3934668,1.24662,0.24401,-0.02067199,0.002895325,0.08279715,-0.5746995,0.8363692,-0.3580284,0.5354104,1.3333,0.1683159,0.01244282,1.185485,0.256523,282.0878,80.5618,176.6081,True
2,1.833337,0.01473606,0.04837349,-0.01935017,-1.537065,1.494232,-2.317801,0.2980759,1.105228,0.3332114,-1.38858,0.04045597,3.6,10.8,-0.03286586,0.0287324,-0.003406601,-0.5226874,-3.266935,-0.5771824,0.3928033,1.246368,0.2440374,-0.006729528,0.01458805,0.09335054,-0.5737733,0.8384711,-0.3601622,0.5347567,1.333134,0.1686735,0.01182583,1.185231,0.2570094,282.1326,80.35709,176.9592,True
2,1.844448,0.01578468,0.05903778,-0.01726809,-1.537743,1.493441,-2.317931,0.2975931,1.104987,0.3331797,-1.388657,-0.007481404,3.6,10.8,-0.02322527,0.02656301,0.001795857,-0.5226624,-3.266557,-0.5774636,0.3921697,1.246276,0.2442343,-0.0004066676,0.02419828,0.08691355,-0.5735394,0.8399537,-0.3612919,0.5341114,1.332991,0.1686754,0.01117987,1.184925,0.2574097,282.1475,80.20146,177.2674,True
2,1.855559,0.01897825,0.0611582,-0.0204731,-1.538074,1.492667,-2.318222,0.2970621,1.104724,0.3331959,-1.388373,0.02598063,4.2,20.9,-0.008179497,0.05526731,0.008100361,-0.5232025,-3.263644,-0.5802634,0.3916113,1.246102,0.2444177,-0.002732601,0.006137904,0.06664804,-0.5732555,0.8390272,-0.3602287,0.5336035,1.332835,0.1687083,0.01052291,1.184575,0.2576795,282.1292,80.01642,177.5496,True
2,1.86667,0.0381595,0.05486857,-0.00553206,-1.538608,1.492565,-2.319269,0.2965929,1.104602,0.3334875,-1.388304,0.006021646,4.2,20.9,0.004716054,0.07652652,0.01334294,-0.5238065,-3.260626,-0.58337,0.3910562,1.245925,0.2444355,0.0003083721,0.002983697,0.04850402,-0.5732784,0.8388409,-0.3601667,0.5331377,1.332681,0.1687427,0.009872773,1.184191,0.2578578,282.0818,79.88559,177.7037,True
2,1.877781,0.04562753,0.04424846,-0.001220062,-1.538833,1.492516,-2.319954,0.2961553,1.104403,0.3335338,-1.388416,-0.01020017,4.2,20.9,0.001525935,0.06801301,0.01654844,-0.5238512,-3.259413,-0.584137,0.3905801,1.245765,0.244211,0.01406808,0.005131884,0.03773963,-0.5732694,0.8391055,-0.3609995,0.5326815,1.332569,0.1687834,0.009243007,1.183811,0.2579882,282.0157,79.79469,177.7876,True
2,1.888893,0.05417757,0.02297669,0.003109076,-1.538279,1.492595,-2.320763,0.2958583,1.104175,0.3333881,-1.389093,-0.06193561,4.2,20.9,-0.008224972,0.03076982,0.01015745,-0.5233825,-3.261057,-0.5822996,0.3902359,1.245597,0.2442181,0.01292069,-0.001243606,0.0302732,-0.5730963,0.8388133,-0.3606631,0.5322732,1.332466,0.1688142,0.008638749,1.183452,0.2581103,281.948,79.78493,177.7555,True
2,1.900004,0.05631,0.02402854,-9.221956E-05,-1.538418,1.492276,-2.321463,0.2955541,1.104005,0.3333614,-1.388704,0.03604612,3.8,45,-0.0148225,0.02124935,-0.004713013,-0.5239397,-3.26176,-0.581057,0.3898349,1.24539,0.2440796,0.01399683,0.001949102,0.03133716,-0.5727863,0.8392633,-0.361233,0.5318169,1.332354,0.1688306,0.008104882,1.1831,0.2582626,281.8976,79.67314,177.8196,True
2,1.911115,0.05202121,0.04420009,-0.01298013,-1.538688,1.490997,-2.321846,0.2953475,1.103736,0.3333223,-1.388672,0.00241612,3.8,45,7.330626E-05,0.01908611,-0.005954679,-0.5240899,-3.261571,-0.5817199,0.3894135,1.245175,0.2441745,0.01725102,0.0200411,0.03774032,-0.5725056,0.8410302,-0.3628981,0.5314651,1.332183,0.1688626,0.007662006,1.182716,0.2584059,281.8766,79.52823,178.0196,True
2,1.922226,0.05308783,0.04312039,-0.0161648,-1.538887,1.490569,-2.322442,0.2949909,1.103441,0.3333297,-1.388499,0.01589917,3.8,45,0.006136917,0.002105591,-0.03058286,-0.524917,-3.263539,-0.5801992,0.3890616,1.245043,0.2442646,0.0119419,0.0338904,0.0388837,-0.5723719,0.842832,-0.3643582,0.5310518,1.332073,0.1688988,0.00732957,1.182271,0.2584651,281.8536,79.5243,178.1142,True
2,1.933337,0.04668114,0.05268585,-0.01941285,-1.539289,1.489624,-2.322624,0.2947023,1.10322,0.3334091,-1.388138,0.03280427,3.8,45,0.003595237,-0.03189444,-0.05941831,-0.5254592,-3.267995,-0.5762936,0.3886087,1.244925,0.2442997,-0.0008506216,0.03922804,0.03794524,-0.572145,0.8442331,-0.3650142,0.530617,1.332112,0.1689,0.007017266,1.181819,0.2584673,281.8086,79.55386,178.0905,True
2,1.944448,0.04561751,0.05055726,-0.02153909,-1.539486,1.488894,-2.323059,0.2943901,1.102924,0.3333936,-1.388251,-0.01066086,3.8,45,-0.01237628,-0.03504914,-0.05818094,-0.5257879,-3.269417,-0.5743679,0.3883316,1.244722,0.2439899,-0.02434596,0.03927551,0.03492971,-0.5723597,0.8455132,-0.3645481,0.5302978,1.332168,0.1692047,0.006690381,1.181385,0.2585002,281.7669,79.65089,177.9516,True
2,1.955559,0.06053933,0.04628772,-0.02790742,-1.53938,1.488236,-2.324267,0.2940737,1.102772,0.3333917,-1.387855,0.03632776,8.3,59,-0.01824247,-0.004254777,-0.01860588,-0.5253543,-3.266402,-0.576565,0.3879487,1.24457,0.2439766,-0.0318481,0.03822719,0.02966348,-0.5723677,0.8462529,-0.3645316,0.5299853,1.332118,0.1693127,0.00630479,1.180984,0.2586014,281.7423,79.66443,177.901,True
2,1.966671,0.0722768,0.03034554,-0.02463694,-1.539147,1.488195,-2.325416,0.2937411,1.102616,0.3334699,-1.388054,-0.01856683,8.3,59,-0.01975678,0.03930193,0.02628221,-0.5248861,-3.260476,-0.5814402,0.3875897,1.244519,0.2438586,-0.03194404,0.04465268,0.02113669,-0.5729935,0.8475709,-0.3649159,0.5297487,1.332056,0.1694033,0.00587139,1.18063,0.2588055,281.7051,79.63013,177.9339,True
2,1.977782,0.07335886,0.01546687,-0.0171095,-1.538973,1.488491,-2.326236,0.2934718,1.102453,0.3335023,-1.388827,-0.07041927,8.3,59,-0.03587633,0.03297627,0.01579609,-0.5251434,-3.26085,-0.580101,0.3872313,1.244547,0.2441492,-0.03095378,0.05639811,0.01157462,-0.5734654,0.8493985,-0.3661207,0.5293559,1.331893,0.1695559,0.005440212,1.180299,0.2590923,281.6805,79.57585,178.0554,True
2,1.988893,0.07549585,0.01123682,-0.01496564,-1.538982,1.488169,-2.32713,0.29319,1.102317,0.333492,-1.388264,0.05131312,8.3,59,-0.04583669,-0.02020317,-0.005552199,-0.5246848,-3.265111,-0.5755469,0.3869078,1.24443,0.2442188,-0.03422195,0.06602647,0.004143286,-0.5744657,0.8513988,-0.3670331,0.5290678,1.331888,0.1696894,0.005026595,1.179935,0.2594188,281.6786,79.55324,178.1725,True
2,2.000004,0.07229,0.0197441,-0.0171358,-1.539185,1.487597,-2.327822,0.2929372,1.102116,0.3334591,-1.386843,0.1283029,8.3,59,-0.041901,-0.04997642,-0.02698638,-0.5246699,-3.268824,-0.571908,0.3865514,1.244439,0.2446866,-0.04385297,0.06817141,-3.318861E-05,-0.5748599,0.8526269,-0.3671338,0.5287514,1.331815,0.1697147,0.004625696,1.179458,0.259726,281.678,79.42319,178.3934,True
2,2.011115,0.0637546,0.03034886,-0.02677601,-1.539319,1.486508,-2.328174,0.2927198,1.101954,0.3334818,-1.385303,0.13821,11,53.1,-0.02831073,-0.0360868,-0.05266989,-0.5259898,-3.27044,-0.5706925,0.386091,1.244314,0.2446823,-0.03739282,0.06603393,0.009475295,-0.5750771,0.8542955,-0.3681463,0.5283769,1.331883,0.1698027,0.004203049,1.178835,0.2599541,281.6371,79.20226,178.6931,True
2,2.022226,0.0584188,0.03883507,-0.03320847,-1.539447,1.485565,-2.328615,0.2924528,1.101754,0.3334498,-1.383061,0.2021067,11,53.1,-0.02484502,-0.02336316,-0.03136926,-0.5258918,-3.269241,-0.571512,0.3856204,1.244415,0.2450397,-0.0299264,0.07135644,0.01156323,-0.5751554,0.8562824,-0.3696026,0.5280126,1.331809,0.1698563,0.003691711,1.178062,0.2601043,281.5488,79.03929,178.8975,True
2,2.033337,0.05308904,0.04203117,-0.03429618,-1.539627,1.48466,-2.329002,0.2921729,1.101533,0.3333805,-1.380139,0.2633787,11,53.1,-0.02467812,4.537031E-05,-0.02171484,-0.5262609,-3.267751,-0.5725192,0.3852155,1.244273,0.2449327,-0.0246002,0.08308229,0.009404298,-0.5758074,0.8586611,-0.3716716,0.5276979,1.331644,0.1700766,0.003076114,1.17712,0.2602188,281.4074,78.9108,179.0229,True
2,2.044448,0.05628558,0.03992047,-0.0321595,-1.539716,1.484125,-2.32971,0.2917962,1.101299,0.3332629,-1.377152,0.2684265,11,53.1,-0.02644293,0.02661649,0.005019743,-0.5261602,-3.264378,-0.5750087,0.3848191,1.244194,0.2445889,-0.02999718,0.09482791,-0.0001064576,-0.5766388,0.8610671,-0.3731403,0.5273567,1.331645,0.1701388,0.002340794,1.176027,0.2603673,281.203,78.80589,179.1079,True
2,2.055559,0.05735342,0.03783632,-0.02256834,-1.539948,1.483872,-2.330411,0.2914863,1.101127,0.3331566,-1.373667,0.3137583,13.1,63.9,-0.03492044,0.02982377,0.008321851,-0.5262151,-3.263406,-0.5751834,0.3844718,1.244061,0.2445066,-0.03423741,0.09377537,0.005229563,-0.5771161,0.8633155,-0.3741467,0.5270332,1.331749,0.1698785,0.001502566,1.174792,0.2605812,280.9703,78.57925,179.3523,True
2,2.06667,0.06161918,0.03146018,-0.02147834,-1.539876,1.483523,-2.331162,0.2912613,1.101004,0.3330481,-1.370039,0.326078,13.1,63.9,-0.06270989,0.03098254,0.0001130132,-0.5267914,-3.263691,-0.5732358,0.3842901,1.243928,0.2444255,-0.04704414,0.0874055,0.002114445,-0.5777084,0.8646258,-0.3743789,0.5270044,1.331423,0.1702175,0.0005766721,1.173416,0.2608518,280.7215,78.17822,179.826,True
2,2.077781,0.06056561,0.02508558,-0.01718561,-1.539899,1.483474,-2.331853,0.2910488,1.10086,0.3328853,-1.365675,0.3930099,13.1,63.9,-0.06046199,0.03521316,0.00969144,-0.5266896,-3.262185,-0.5739464,0.3841797,1.243694,0.2440217,-0.04808871,0.08420272,0.005314678,-0.5777824,0.866197,-0.3750817,0.5268487,1.331365,0.1702626,-0.0004222486,1.171892,0.2611298,280.4532,77.59594,180.5179,True
2,2.088892,0.05204275,0.02403038,-0.01399114,-1.540045,1.48318,-2.332132,0.2907964,1.100717,0.3328447,-1.360957,0.4244968,13.1,63.9,-0.05524462,0.02563386,0.002146967,-0.526827,-3.262472,-0.5732654,0.3838903,1.243558,0.2439916,-0.03205564,0.0746057,0.0147223,-0.5779358,0.8677191,-0.3762216,0.5265552,1.331424,0.1699369,-0.001436928,1.170213,0.2613642,280.1254,76.85927,181.3612,True
2,2.100003,0.04351322,0.02831995,-0.006561903,-1.540492,1.482842,-2.332342,0.2905498,1.100511,0.3327038,-1.355806,0.4637655,13.1,63.9,-0.05328899,0.01394667,-0.01069828,-0.5272745,-3.263578,-0.5718028,0.3836181,1.243393,0.2437162,-0.02359592,0.07248183,0.008258943,-0.5782745,0.8688922,-0.3771193,0.5262578,1.331299,0.1699674,-0.002420541,1.168397,0.2615248,279.7473,76.12958,182.1791,True
2,2.111114,0.03817386,0.03576743,-0.006591598,-1.540954,1.482427,-2.332539,0.2903289,1.100302,0.3326023,-1.349924,0.5298858,16,69.6,-0.05649735,-0.0009656549,-0.008573492,-0.5270172,-3.264498,-0.5702707,0.3833264,1.243278,0.2436459,-0.02367499,0.07463503,-0.001334626,-0.5791124,0.8701298,-0.3778589,0.5260491,1.331311,0.1704156,-0.003384878,1.166487,0.2615967,279.355,75.34871,183.0074,True
2,2.122225,0.02963564,0.04540922,0.008279869,-1.542004,1.482379,-2.332611,0.2900337,1.100089,0.332449,-1.344016,0.5315278,16,69.6,-0.05748194,0.00434579,-0.002161941,-0.5269837,-3.263809,-0.5700986,0.3829753,1.243212,0.2436445,-0.01727964,0.06823924,-0.001392625,-0.5791912,0.8711064,-0.3788035,0.5257027,1.331134,0.1704984,-0.004387595,1.164546,0.2616169,278.9601,74.50539,183.847,True
2,2.133336,0.02215434,0.06034127,0.01459462,-1.54302,1.481795,-2.332553,0.2898087,1.099812,0.3322906,-1.337917,0.5489437,16,69.6,-0.0615266,0.01815938,0.01390408,-0.5267818,-3.261995,-0.5708427,0.3827263,1.243006,0.2435691,-0.01407174,0.07142933,-0.0003504381,-0.5794964,0.8725647,-0.3799934,0.5255598,1.33081,0.170558,-0.005415043,1.162596,0.261619,278.582,73.5192,184.8233,True
2,2.144447,0.01893927,0.07102875,0.02093958,-1.544232,1.481255,-2.332629,0.2895808,1.099533,0.332263,-1.33144,0.5831061,16,69.6,-0.05407626,0.03094083,0.0106563,-0.527324,-3.260485,-0.5718006,0.3824427,1.242873,0.2434597,-0.006648086,0.071436,-0.004670829,-0.5799363,0.8738509,-0.3812754,0.5253472,1.330658,0.1705937,-0.006452674,1.160645,0.2616336,278.2181,72.34854,185.9896,True
2,2.155558,0.01789512,0.05826776,0.02632354,-1.544695,1.481424,-2.332855,0.2893075,1.099376,0.3321636,-1.324747,0.6024303,10.5,63.7,-0.04244257,0.006419517,0.008319744,-0.5270017,-3.261771,-0.5706257,0.3822176,1.242696,0.2433319,-0.00990383,0.05866687,-0.01105696,-0.5802048,0.8740252,-0.381224,0.5250861,1.330708,0.1705086,-0.007506432,1.158706,0.2616659,277.8771,70.84718,187.5072,True
2,2.166669,0.01684713,0.04017329,0.02960128,-1.544859,1.481815,-2.332927,0.2890744,1.09926,0.3321502,-1.31811,0.5970377,10.5,63.7,-0.02887513,-0.01806138,-0.01108133,-0.5270934,-3.264315,-0.5685308,0.3819438,1.2428,0.2437062,-0.01733136,0.05013824,-0.007820681,-0.5803102,0.8743876,-0.3811793,0.5248985,1.330552,0.1704316,-0.008536374,1.156757,0.2617399,277.5483,69.34034,189.0227,True
2,2.17778,0.01902006,0.01350897,0.02226958,-1.544298,1.482336,-2.333278,0.2888142,1.099189,0.3319685,-1.311318,0.6111329,10.5,63.7,-0.02454967,-0.02447927,-0.003694262,-0.5267509,-3.26474,-0.5679178,0.3816668,1.242685,0.2434127,-0.01819354,0.02238358,0.01769802,-0.5790154,0.8739913,-0.3807295,0.5245718,1.330534,0.1702447,-0.009539997,1.154788,0.2618869,277.2278,67.6785,190.6994,True
2,2.188891,0.01903161,0.008106465,0.004182778,-1.543976,1.481895,-2.333473,0.2886519,1.099126,0.3316734,-1.304078,0.6520168,10.5,63.7,-0.02458501,-0.01914071,-0.007940176,-0.5269416,-3.265094,-0.5673313,0.3813829,1.242548,0.2431717,-0.01493861,0.02023269,0.02405716,-0.5786399,0.8745036,-0.3812195,0.5242823,1.330472,0.170187,-0.0105223,1.152785,0.262058,276.8994,65.90399,192.5392,True
2,2.200002,0.01583317,0.01659484,-0.002244836,-1.54425,1.48141,-2.333655,0.2884035,1.098945,0.3314612,-1.297104,0.6271608,10.5,63.7,-0.02642716,0.003181169,0.01237965,-0.5267929,-3.262759,-0.5689819,0.3811544,1.242356,0.2429545,-0.007393744,0.03406119,0.03255903,-0.5782612,0.8766272,-0.3833037,0.5238786,1.330415,0.1700478,-0.01147839,1.150741,0.2621938,276.5559,64.0332,194.5035,True
2,2.211113,0.01154203,0.03684542,-0.0002086237,-1.5452,1.480612,-2.333607,0.2881644,1.098806,0.3312376,-1.289656,0.670666,8.6,75.2,-0.02607046,0.0734451,0.02855484,-0.5277879,-3.256185,-0.5744351,0.3808171,1.242157,0.2427392,0.001163725,0.03724366,0.03569005,-0.5779912,0.8778384,-0.3847282,0.5235959,1.330197,0.16977,-0.01241927,1.148641,0.2622239,276.2045,62.19971,196.4456,True
2,2.222224,0.0008609603,0.05709013,0.001829632,-1.546339,1.479744,-2.333252,0.2878712,1.098644,0.3311117,-1.282063,0.6832697,8.6,75.2,-0.03469928,0.04577798,0.02537603,-0.5275109,-3.256737,-0.5732763,0.380552,1.241867,0.2422214,0.003278214,0.03618305,0.03353959,-0.5778415,0.8785756,-0.3854734,0.5233088,1.330092,0.1696942,-0.01336651,1.146483,0.2621616,275.8458,60.21627,198.4774,True
2,2.233335,-0.008740318,0.06562859,0.008179342,-1.547289,1.479237,-2.332816,0.2875451,1.098497,0.3309093,-1.274084,0.7184667,8.6,75.2,-0.0390913,0.02237007,0.01896797,-0.5272287,-3.257608,-0.5719399,0.3802581,1.241746,0.2420638,-0.01059312,0.04472037,0.02940675,-0.5780647,0.8798571,-0.3860076,0.5231093,1.329795,0.1695752,-0.01437285,1.14427,0.2620725,275.5059,57.6132,201.0565,True
2,2.244446,-0.007684115,0.0709828,0.01349106,-1.548296,1.478917,-2.332822,0.2871985,1.098395,0.3306658,-1.265847,0.7416073,8.6,75.2,-0.03388604,-0.005325623,0.01456499,-0.5267328,-3.259454,-0.5701077,0.3800133,1.241672,0.2419777,-0.0116902,0.0425996,0.02514999,-0.5781227,0.8806484,-0.3866052,0.5229191,1.329738,0.1693933,-0.01546441,1.142024,0.262031,275.1675,54.13202,204.4924,True
2,2.255557,-0.01088028,0.07098327,0.01455549,-1.548999,1.478522,-2.332581,0.2868747,1.098301,0.3304276,-1.257694,0.7336844,7.5,83.2,-0.02527257,-0.007501081,0.02298383,-0.5262055,-3.259128,-0.5704299,0.3796752,1.241525,0.2417276,-0.00957394,0.04366933,0.023007,-0.578118,0.8816257,-0.3874282,0.5225641,1.329702,0.169287,-0.01663316,1.139769,0.2620916,274.8417,49.91452,208.6992,True
2,2.266668,-0.0130011,0.06351121,0.01033413,-1.549393,1.478145,-2.332358,0.2865963,1.098213,0.3301597,-1.249964,0.6950219,7.5,83.2,-0.0326986,-0.002154607,0.02414585,-0.5261202,-3.25842,-0.5705029,0.3794,1.241225,0.2410841,-0.01910285,0.0617687,0.02845558,-0.5780988,0.8841102,-0.3890505,0.5223444,1.329555,0.1691289,-0.01782467,1.137518,0.2622339,274.5504,44.94814,213.7351,True
2,2.277779,-0.02150846,0.05814353,0.003969446,-1.549672,1.47774,-2.331897,0.2861221,1.098102,0.3298912,-1.24148,0.7641416,7.5,83.2,-0.05163045,0.01595451,0.04145605,-0.5257208,-3.255974,-0.5714233,0.3790145,1.241055,0.2405913,-0.02660855,0.05646238,0.0242476,-0.5781456,0.885086,-0.3891826,0.5221,1.329594,0.1690309,-0.01898122,1.135261,0.2624041,274.3147,39.47058,219.3299,True
2,2.28889,-0.03428372,0.05062982,-0.004518319,-1.549715,1.477313,-2.331006,0.2856513,1.098022,0.3295622,-1.232952,0.7673503,7.5,83.2,-0.07081929,0.0149397,0.04060607,-0.5254145,-3.255209,-0.5706656,0.3785598,1.240964,0.2403288,-0.02665231,0.05754081,0.01892283,-0.5783811,0.8862512,-0.389883,0.5218317,1.329526,0.1690519,-0.02007429,1.132978,0.2625575,274.1141,33.70554,225.2157,True
2,2.300001,-0.0406468,0.03142044,-0.009755822,-1.549382,1.477343,-2.330366,0.2852164,1.098022,0.3292372,-1.224005,0.8055598,7.5,83.2,-0.09004326,7.267296E-05,0.03972116,-0.5247471,-3.255808,-0.5685439,0.3781919,1.241017,0.2402272,-0.03099944,0.06716122,0.008326514,-0.5790581,0.8880528,-0.3908889,0.5215867,1.329426,0.1690245,-0.02113292,1.130661,0.2626646,273.9464,27.81098,231.2137,True
2,2.311112,-0.03850539,0.02500754,-0.01505377,-1.549225,1.477014,-2.330051,0.2847506,1.097988,0.3289535,-1.214686,0.8391973,7.2,83.1,-0.09643193,0.001153879,0.03979679,-0.5243961,-3.255299,-0.5677044,0.3777655,1.240981,0.2399502,-0.04495542,0.06826617,-0.005405981,-0.5798777,0.8890443,-0.3908865,0.5213472,1.329338,0.1690443,-0.02228236,1.128324,0.2627152,273.818,21.59891,237.5098,True
2,2.322223,-0.02676108,0.005858527,-0.01283175,-1.548725,1.477363,-2.330146,0.2842179,1.09808,0.328716,-1.205885,0.7914424,7.2,83.1,-0.1043614,0.03834017,0.08366236,-0.523342,-3.249811,-0.5711229,0.3774194,1.240736,0.2393014,-0.05673342,0.07361749,-0.01273726,-0.5803438,0.8905835,-0.3911734,0.5208923,1.329212,0.1690974,-0.02350234,1.125967,0.2626895,273.7173,14.49972,244.6885,True
2,2.333334,-0.02355608,-0.001575565,-0.008532418,-1.548603,1.477627,-2.329996,0.283741,1.098132,0.3285301,-1.196984,0.800759,7.2,83.1,-0.1018736,0.0670294,0.1082153,-0.522574,-3.24483,-0.5745195,0.3770971,1.240727,0.2390757,-0.05897638,0.08004152,-0.02655342,-0.5814565,0.8919587,-0.3915931,0.5206439,1.3291,0.1690929,-0.0247147,1.123579,0.2625611,273.6522,6.841337,252.4015,True
2,2.344445,-0.03313234,-0.01429945,0.007507802,-1.548702,1.478536,-2.32933,0.2831165,1.098086,0.3282502,-1.187871,0.8199289,7.2,83.1,-0.1063404,0.04790275,0.0943639,-0.5220253,-3.244291,-0.5736697,0.3767198,1.240632,0.2388601,-0.04836559,0.07471751,-0.02983901,-0.5818996,0.8928618,-0.3920226,0.520287,1.328979,0.1691484,-0.02591277,1.121138,0.2623537,273.6479,359.0617,260.1878,True
2,2.355556,-0.04378555,-0.01428035,0.01496483,-1.548889,1.478935,-2.328523,0.2826074,1.098012,0.327949,-1.177883,0.8995013,7.2,83.1,-0.1043695,0.01382937,0.08785065,-0.520933,-3.245415,-0.5715879,0.3763363,1.240685,0.2389786,-0.04413134,0.07898358,-0.03305945,-0.5826933,0.894271,-0.3928283,0.5199923,1.328908,0.1692162,-0.02709229,1.118611,0.2620781,273.71,351.2302,267.9952,True
2,2.366668,-0.05230973,-0.0121449,0.01708597,-1.549117,1.479106,-2.327705,0.2820497,1.097962,0.3275597,-1.167374,0.9463872,6.9,87.8,-0.102725,-0.02016925,0.05258189,-0.5205857,-3.2487,-0.5677186,0.3759409,1.240507,0.2388647,-0.04835867,0.08537057,-0.02980883,-0.5833132,0.8961376,-0.3937359,0.5196929,1.328783,0.1692317,-0.02826264,1.115978,0.2617599,273.8672,343.6616,275.5315,True
2,2.377779,-0.06083407,-0.008960541,0.01707313,-1.549295,1.479281,-2.326798,0.2814805,1.097914,0.3272402,-1.157006,0.9329104,6.9,87.8,-0.1029365,-0.04676047,0.03972207,-0.5199795,-3.250637,-0.5649052,0.375518,1.240382,0.2386661,-0.05041175,0.08428104,-0.01914172,-0.5834991,0.897745,-0.3942355,0.5194463,1.328591,0.1691732,-0.0294754,1.113249,0.261382,274.1197,336.686,282.5012,True
2,2.38889,-0.07148875,-0.006821715,0.02025584,-1.54961,1.479442,-2.325692,0.2809232,1.097917,0.326952,-1.146589,0.9374241,6.9,87.8,-0.1026713,-0.03296698,0.05999874,-0.5189164,-3.249161,-0.5650413,0.3751128,1.240282,0.2385135,-0.04403717,0.08321854,-0.02133487,-0.584224,0.8990177,-0.3950419,0.5191964,1.328381,0.1690488,-0.03069142,1.110434,0.2609543,274.4341,330.1466,289.0305,True
2,2.400001,-0.07575563,-0.003604157,0.02663418,-1.550026,1.479823,-2.324723,0.2803791,1.09794,0.3266411,-1.135891,0.962942,6.9,87.8,-0.1069801,-0.03827871,0.05682805,-0.518168,-3.249742,-0.5632229,0.3747316,1.240402,0.2385337,-0.03562048,0.08750172,-0.03205345,-0.5854145,0.9004499,-0.3958341,0.5190004,1.328263,0.1690385,-0.0319264,1.107561,0.2605076,274.8024,324.1935,294.9587,True
2,2.411112,-0.08215382,-0.0003779177,0.0340789,-1.55062,1.480201,-2.323593,0.2798386,1.098,0.3263729,-1.12489,0.990315,7.4,80.3,-0.1143587,-0.03614679,0.06330988,-0.5171987,-3.249323,-0.5620524,0.3743466,1.240382,0.2383456,-0.0313664,0.07258711,-0.03212621,-0.5859178,0.9007742,-0.3958962,0.5187497,1.32814,0.1690621,-0.03316493,1.104656,0.2600839,275.2246,318.9373,300.167,True
2,2.422223,-0.07895775,0.002820934,0.03513111,-1.550944,1.480465,-2.322937,0.2793305,1.098032,0.3260713,-1.114051,0.9751621,7.4,80.3,-0.1193587,-0.01808536,0.08791393,-0.5159997,-3.246994,-0.5625571,0.3739716,1.240537,0.2384191,-0.03034799,0.06407999,-0.03642129,-0.5866928,0.9011921,-0.3958368,0.5185481,1.328179,0.1690295,-0.03438226,1.101756,0.2597165,275.7086,314.4806,304.586,True
2,2.433334,-0.07681816,-0.003567777,0.03516169,-1.551041,1.480902,-2.322165,0.2787933,1.098114,0.3257749,-1.10269,1.022828,7.4,80.3,-0.1063212,0.009540133,0.1038139,-0.5152439,-3.243552,-0.5648434,0.3736142,1.240612,0.238584,-0.03142016,0.06515263,-0.03642366,-0.587619,0.9022848,-0.396208,0.5182791,1.327915,0.1691792,-0.03554334,1.09888,0.2594045,276.2266,310.9492,308.1132,True
2,2.444445,-0.07361084,-0.01316001,0.03520339,-1.550832,1.481557,-2.321427,0.2782211,1.09817,0.3254752,-1.091676,0.9905532,7.4,80.3,-0.1019736,0.02443194,0.1080661,-0.5145121,-3.240801,-0.5662575,0.3732053,1.240594,0.2383955,-0.02927708,0.07047515,-0.03536724,-0.5883706,0.9035904,-0.3970574,0.518046,1.327762,0.1691899,-0.03664451,1.096038,0.25914,276.7526,308.1389,310.9434,True
2,2.455556,-0.07998218,-0.03125488,0.04061251,-1.550584,1.482664,-2.320306,0.2776669,1.098246,0.3252418,-1.079899,1.060423,7.4,80.3,-0.1083561,0.03404258,0.1071045,-0.5138484,-3.238328,-0.566942,0.3728891,1.240647,0.2383192,-0.02607418,0.05129335,-0.03011838,-0.5886263,0.903519,-0.3964179,0.5177429,1.327657,0.1691875,-0.03767015,1.09319,0.258907,277.2458,305.8631,313.2582,True
2,2.466667,-0.0852835,-0.04936479,0.04494349,-1.549975,1.483883,-2.319252,0.2771509,1.098259,0.3250012,-1.068006,1.070182,7.5,64.6,-0.1040312,0.05426944,0.1081749,-0.5135016,-3.234735,-0.5690514,0.3725678,1.240541,0.2382064,-0.02824979,0.04917317,-0.03543175,-0.589341,0.9038139,-0.3962877,0.5175185,1.327541,0.1691372,-0.0382502,1.091144,0.2587364,277.5547,304.1359,314.9577,True
2,2.477778,-0.09166378,-0.05574717,0.04923283,-1.549834,1.484955,-2.318117,0.2766542,1.098282,0.3247643,-1.055566,1.120223,7.5,64.6,-0.09474382,0.03512686,0.08671805,-0.5130228,-3.235026,-0.5679529,0.3723847,1.24061,0.2382445,-0.02708519,0.05447616,-0.02159136,-0.5896696,0.9054053,-0.3970288,0.5173983,1.327296,0.1691444,-0.03839369,1.090431,0.2585353,277.505,305.4294,313.544,True
2,2.488889,-0.09804048,-0.0643014,0.04712618,-1.549119,1.485966,-2.316859,0.2762522,1.098303,0.3244989,-1.043421,1.092657,7.5,64.6,-0.08219892,-0.005355768,0.07474914,-0.5118489,-3.237041,-0.5657218,0.3721542,1.240568,0.2381914,-0.01533881,0.05552831,-0.01849304,-0.5900372,0.9064409,-0.3981389,0.517204,1.327173,0.1690927,-0.03831537,1.090033,0.258437,277.2999,308.8528,310.36,True
2,2.5,-0.09910091,-0.0653649,0.04819982,-1.548985,1.486936,-2.315806,0.2758876,1.098358,0.3242738,-1.031209,1.099256,7.5,64.6,-0.07704636,0.002134532,0.05872734,-0.5119341,-3.236361,-0.5653992,0.3719956,1.240505,0.238209,-0.01429771,0.0502067,-0.01851998,-0.5905027,0.906966,-0.3981599,0.5170995,1.326993,0.1690745,-0.03825701,1.089679,0.258414,277.1216,311.8426,307.461,True
2,2.511111,-0.1023016,-0.05901619,0.04390656,-1.548703,1.487668,-2.314629,0.2756386,1.098399,0.3240755,-1.018965,1.102107,5.4,63.3,-0.06414926,0.00420706,0.06817467,-0.5110787,-3.234959,-0.56635,0.3717721,1.240432,0.2381423,-0.01004447,0.03529062,-0.01858809,-0.5906454,0.9065411,-0.3978273,0.5169213,1.32696,0.1690753,-0.03894755,1.089443,0.2581402,276.558,316.8073,302.3908,True
2,2.522222,-0.1023162,-0.04836821,0.04279225,-1.548874,1.488109,-2.313504,0.2753476,1.098423,0.3238842,-1.007063,1.070777,5.4,63.3,-0.05880535,0.01058428,0.06814115,-0.510471,-3.233282,-0.5673748,0.3716972,1.240401,0.2380488,-0.002521139,0.0480554,-0.009037999,-0.5908756,0.9084765,-0.3993482,0.5166585,1.326887,0.1690221,-0.03938683,1.089211,0.2576447,276.3188,317.7159,301.2317,True
2,2.533333,-0.1012624,-0.03984761,0.04913041,-1.548787,1.489007,-2.312499,0.2752133,1.098499,0.3237095,-0.9948846,1.096362,5.4,63.3,-0.05451782,0.02549023,0.0670663,-0.5103256,-3.231061,-0.5688651,0.3715757,1.240317,0.2379866,0.006195251,0.05439413,0.01327089,-0.5903935,0.9105601,-0.4015022,0.5164994,1.326859,0.1687894,-0.03978747,1.088936,0.2570308,276.0127,320.277,298.483,True
2,2.544444,-0.09595329,-0.02914804,0.05760516,-1.549465,1.489656,-2.311615,0.2751147,1.098507,0.3235204,-0.9828561,1.082395,5.4,63.3,-0.02481617,0.0360934,0.05398501,-0.5105013,-3.229514,-0.57088,0.3717331,1.240364,0.2379835,0.009360176,0.03628795,0.01213731,-0.5902864,0.9102027,-0.4012462,0.5162832,1.326904,0.1686671,-0.03974578,1.088675,0.2565778,275.6262,319.2038,299.4068,True
2,2.555555,-0.09276835,-0.01744632,0.05329014,-1.54985,1.489846,-2.310755,0.275024,1.098535,0.3233676,-0.9709054,1.075465,5.4,63.3,-0.01832532,0.03179356,0.06349202,-0.5096289,-3.227937,-0.5722499,0.3717397,1.240265,0.2376783,0.009386402,0.0352157,0.01533077,-0.590165,0.9109823,-0.4020071,0.516197,1.326859,0.1685081,-0.03952752,1.088352,0.2563677,275.3073,320.0708,298.5131,True
2,2.566666,-0.09278071,-0.006822277,0.05323093,-1.550088,1.490258,-2.309788,0.2750967,1.09846,0.3231821,-0.9590991,1.062493,5.3,55,0.01023592,0.02004046,0.04822174,-0.5094963,-3.22844,-0.572876,0.3718129,1.240278,0.2376318,-0.00332306,0.03520336,0.02714664,-0.5898731,0.9121708,-0.4021363,0.5163026,1.326931,0.1682556,-0.03925394,1.088028,0.256335,275.1242,322.9673,295.6347,True
2,2.577777,-0.0874721,0.008097082,0.05316906,-1.550928,1.490391,-2.309051,0.2750872,1.098426,0.3230507,-0.9473162,1.060451,5.3,55,0.02084319,0.02215921,0.04384007,-0.5095288,-3.227429,-0.5742795,0.3718058,1.240299,0.2376339,-0.004389644,0.04266184,0.02929333,-0.5899354,0.9136744,-0.4029722,0.5161918,1.326858,0.1680846,-0.0389933,1.087696,0.256407,275.0519,326.6718,291.9342,True
2,2.588888,-0.08322933,0.02191589,0.05203847,-1.551464,1.490596,-2.308306,0.2752565,1.098396,0.3230398,-0.9354902,1.064519,5.3,55,0.03216056,0.02648477,0.007500311,-0.5108071,-3.227922,-0.5746382,0.3719277,1.240315,0.2376003,0.003102642,0.03732164,0.033476,-0.5896116,0.9143963,-0.4039006,0.5162233,1.326888,0.1677735,-0.03874214,1.087352,0.2565188,275.0226,330.5204,288.05,True
2,2.599999,-0.0789711,0.02719828,0.04562204,-1.55176,1.490702,-2.307611,0.2752894,1.098426,0.3229344,-0.9240924,1.025403,5.3,55,0.03942752,0.01052022,-0.005401747,-0.5108928,-3.22914,-0.5741495,0.3719721,1.240411,0.2372513,0.01693601,0.01814613,0.03543974,-0.5891829,0.9141037,-0.4040191,0.5163287,1.32698,0.1675136,-0.03847277,1.087,0.2566192,274.9921,334.5071,284.0189,True
2,2.61111,-0.06619794,0.03675959,0.03599435,-1.552375,1.490219,-2.307312,0.2754512,1.098477,0.3228157,-0.9126914,1.026274,4.8,52.5,0.04689618,0.01049826,-0.004421195,-0.5109418,-3.228987,-0.5750731,0.3720282,1.24055,0.2372248,0.02010559,0.01602302,0.03220966,-0.5890635,0.9144549,-0.4046639,0.5164063,1.327083,0.167335,-0.03820899,1.086656,0.2567191,274.9771,338.4098,280.0554,True
2,2.622221,-0.05021651,0.03781257,0.03173194,-1.552655,1.490232,-2.307315,0.2754713,1.098554,0.3225625,-0.9015109,1.006169,4.8,52.5,0.0604583,-0.009728447,-0.02486194,-0.5111714,-3.231336,-0.5741243,0.3721679,1.240559,0.2368376,0.01687971,0.0117766,0.03116609,-0.5887951,0.9150008,-0.4048926,0.516377,1.327011,0.1671321,-0.0379414,1.086321,0.2568254,274.9834,342.3398,276.0565,True
2,2.633332,-0.03636662,0.0378174,0.02854057,-1.553093,1.490092,-2.307425,0.2755736,1.09866,0.3224196,-0.8908482,0.9591175,4.8,52.5,0.05408052,-0.03103818,-0.01845134,-0.5104944,-3.233241,-0.5727677,0.3723064,1.240616,0.2365165,0.01040654,-0.008441145,0.02265148,-0.5885474,0.913636,-0.4036718,0.5165003,1.327103,0.1668668,-0.03770545,1.085996,0.256931,275.023,345.9055,272.4207,True
2,2.644443,-0.015053,0.03564518,0.01575012,-1.552778,1.489571,-2.30796,0.2757485,1.09868,0.3220818,-0.8802258,0.9558593,4.8,52.5,0.04780586,-0.01399384,-0.01194349,-0.5106425,-3.23256,-0.573691,0.3724203,1.240817,0.236434,0.007200644,-0.011622,0.02054029,-0.5883988,0.9136072,-0.4037659,0.5164266,1.327383,0.1666682,-0.03762446,1.085707,0.2568439,275.3423,350.6501,267.5052,True
2,2.655554,-0.007594827,0.03350762,0.01150123,-1.553019,1.489346,-2.308049,0.2759181,1.098796,0.3219082,-0.8696238,0.9542258,4.8,52.5,0.05336793,0.01365246,0.002985818,-0.5107591,-3.22986,-0.5767584,0.3724935,1.240878,0.236177,-0.003444107,-0.009482644,0.02276175,-0.5881698,0.9140093,-0.403524,0.5164438,1.327407,0.1664915,-0.03749554,1.085612,0.2565245,275.3749,354.7911,263.1614,True
2,2.666665,-0.00333565,0.03347507,0.006168622,-1.552965,1.489083,-2.308071,0.2760919,1.098826,0.321907,-0.8595288,0.9080159,5,55.7,0.05108426,0.01049543,-0.009780968,-0.511247,-3.230465,-0.5767334,0.3725812,1.241078,0.2361057,-0.008816413,-0.01266521,0.01747299,-0.5880542,0.9135754,-0.4028993,0.5165575,1.32749,0.1662598,-0.03724167,1.085365,0.2562473,275.0309,357.9875,259.8535,True
2,2.677776,0.005196251,0.03133516,0.0008542025,-1.553096,1.488735,-2.308482,0.2761839,1.09905,0.321748,-0.8487825,0.9680907,5,55.7,0.03634595,0.0147543,0.005305523,-0.5109892,-3.229678,-0.5772362,0.3726404,1.241202,0.2360117,-0.005715164,-0.01903169,0.007843968,-0.5881607,0.9128156,-0.4021717,0.5165966,1.327593,0.1661117,-0.03695028,1.085038,0.2560766,274.8898,2.13237,255.7028,True
2,2.688887,0.0201035,0.03455709,0.002965519,-1.553362,1.48844,-2.309181,0.2762643,1.099281,0.3217013,-0.8385197,0.9234442,5,55.7,0.02894422,0.01262888,0.0107107,-0.5107901,-3.229192,-0.5777243,0.3727621,1.241404,0.2359838,-0.0004264414,-0.02861736,0.004582154,-0.5879509,0.9116722,-0.4013078,0.5167638,1.327708,0.1660006,-0.03667956,1.084712,0.2560796,274.9366,6.016141,251.7832,True
2,2.699998,0.02437514,0.03133774,-0.0002211053,-1.553248,1.488273,-2.309637,0.2764014,1.099466,0.3216543,-0.8289302,0.8624505,5,55.7,0.03000036,0.00197133,0.01280308,-0.5104332,-3.229454,-0.5778087,0.3728881,1.241479,0.2358732,-0.001515005,-0.02327525,0.001409568,-0.5880079,0.9117304,-0.4013051,0.5167263,1.327868,0.1658714,-0.03644582,1.084403,0.25622,275.1204,9.135273,248.5831,True
2,2.711109,0.02546202,0.01746596,-0.005483194,-1.552898,1.488279,-2.30997,0.2764831,1.099702,0.3216169,-0.8193992,0.8576676,5,55.7,0.03532097,-0.0001728721,0.01273719,-0.5102718,-3.229452,-0.578392,0.3729916,1.24174,0.2358873,-0.01120818,-0.01258457,-0.01340727,-0.5888116,0.9117098,-0.4010145,0.5169291,1.327852,0.1657925,-0.03626434,1.08412,0.256408,275.3591,11.3322,246.2978,True
2,2.72222,0.02549808,-0.008128096,-0.007517453,-1.551692,1.488765,-2.310212,0.2767002,1.099933,0.3215394,-0.8094172,0.89891,5.3,54.6,0.02888538,-0.008668546,0.0106545,-0.5100976,-3.229918,-0.5781336,0.3732008,1.242025,0.2359192,-0.01120798,-0.01897111,-0.01341699,-0.5887567,0.9110307,-0.4003927,0.5170254,1.32802,0.1656938,-0.0360914,1.083837,0.2565875,275.5805,13.32675,244.1882,True
2,2.733331,0.02661386,-0.03905921,-0.01589665,-1.550342,1.489384,-2.310612,0.2768785,1.100188,0.321485,-0.7997292,0.8719611,5.3,54.6,0.02122033,-0.0149973,-0.006313878,-0.510348,-3.231176,-0.5770071,0.3734016,1.242084,0.2353983,-0.004899306,-0.02747882,-0.02307578,-0.589039,0.9095123,-0.3993466,0.5172263,1.328055,0.1654003,-0.03590976,1.083545,0.2567256,275.7654,15.39812,241.995,True
2,2.744442,0.02557693,-0.0572437,-0.02648017,-1.548583,1.489808,-2.310844,0.2770785,1.100416,0.321615,-0.7903159,0.8472433,5.3,54.6,0.03419755,0.004111949,0.006373177,-0.5103389,-3.229489,-0.5792703,0.3735217,1.242289,0.2354195,0.0003352091,-0.04876245,-0.03381726,-0.5892638,0.9070678,-0.3976416,0.5174523,1.328123,0.1652448,-0.03571558,1.083257,0.2568078,275.9084,17.61293,239.6709,True
2,2.755553,0.02558435,-0.05938519,-0.02966465,-1.547874,1.48994,-2.311174,0.2772469,1.10065,0.3215818,-0.7813534,0.80634,5.3,54.6,0.03638906,0.0136858,0.009569309,-0.5104273,-3.228374,-0.5807294,0.3736634,1.24247,0.2354159,-0.007096902,-0.06475452,-0.0295255,-0.5888686,0.9047008,-0.3952978,0.5176592,1.328265,0.1650486,-0.03571895,1.083035,0.2564936,276.4172,19.82124,237.2169,True
2,2.766664,0.0234402,-0.04982823,-0.03077675,-1.5472,1.490002,-2.311349,0.2774261,1.10083,0.3216522,-0.7722586,0.8188248,4.2,35.8,0.02786702,0.02329721,0.007558761,-0.5107618,-3.227413,-0.5815478,0.3739114,1.242682,0.2355464,-0.01025387,-0.0807434,-0.02527099,-0.5884238,0.9022609,-0.3932232,0.517871,1.328415,0.1649632,-0.03564185,1.083025,0.2559244,276.5512,23.30104,233.3818,True
2,2.777775,0.02234933,-0.03383927,-0.02872011,-1.547177,1.489686,-2.311526,0.2776073,1.101092,0.3216796,-0.7635331,0.7850495,4.2,35.8,0.03010792,0.01474124,0.01922827,-0.5102036,-3.22696,-0.5823223,0.3741353,1.242852,0.2356336,-0.003910527,-0.08393088,-0.03171711,-0.5884979,0.900192,-0.3917859,0.5179348,1.328585,0.1648486,-0.03543075,1.082775,0.2556444,276.3408,26.97789,229.5048,True
2,2.788886,0.02020641,-0.02533318,-0.02664904,-1.54659,1.489542,-2.311685,0.27777,1.101269,0.3216588,-0.7547004,0.7952419,4.2,35.8,0.04783582,-0.02039376,-0.006632259,-0.5102553,-3.230422,-0.5804184,0.37427,1.24318,0.2357404,0.001341179,-0.08818442,-0.0402885,-0.5886965,0.8977163,-0.3899472,0.5180961,1.32868,0.1646345,-0.03523749,1.082515,0.2556207,276.4661,28.98843,227.4696,True
2,2.799997,0.02017751,-0.01042935,-0.0288465,-1.546596,1.489051,-2.311777,0.2780689,1.101499,0.3216636,-0.7461058,0.7733998,4.2,35.8,0.05846461,-0.03853475,-0.004668296,-0.5097243,-3.232186,-0.5798828,0.3744388,1.243482,0.2359855,-0.001784168,-0.08926595,-0.03280393,-0.5883541,0.8958932,-0.3884034,0.5183117,1.32887,0.1644411,-0.03506062,1.082261,0.2557943,276.7471,29.95831,226.4328,True
2,2.811108,0.02122683,0.001278218,-0.02784123,-1.546456,1.488677,-2.312061,0.2782944,1.101701,0.3217344,-0.7375864,0.7667894,4.2,35.8,0.06814901,-0.02898835,0.001638898,-0.5095325,-3.231895,-0.5812208,0.3745918,1.243698,0.2360485,0.000440605,-0.09355716,-0.02110715,-0.587684,0.8939929,-0.386875,0.5184429,1.329029,0.1642253,-0.03490829,1.082021,0.256048,277.0764,30.36348,225.9237,True
2,2.822219,0.0180048,0.01937516,-0.03005515,-1.546833,1.487825,-2.312144,0.2784063,1.101889,0.3217916,-0.7291032,0.7635229,2.4,23.7,0.07598182,-0.000319764,0.02826571,-0.5089583,-3.228878,-0.5849662,0.3747452,1.244002,0.2362101,0.006861657,-0.1020876,-0.01691875,-0.5872355,0.8916665,-0.3852158,0.5187074,1.329116,0.1640623,-0.03474858,1.081775,0.2562936,277.3941,30.87253,225.2866,True
2,2.83333,0.01267512,0.02254863,-0.03326796,-1.546773,1.487228,-2.312089,0.2785671,1.102121,0.3218207,-0.7209219,0.736037,2.4,23.7,0.07391428,0.009266064,0.03151618,-0.5087436,-3.227633,-0.5867961,0.374916,1.244192,0.2359951,0.01747151,-0.1042099,-0.02233493,-0.5871727,0.889419,-0.3839437,0.5188929,1.329141,0.1639488,-0.03457863,1.081535,0.2565266,277.7053,31.44019,224.5941,True
2,2.844441,0.0009827216,0.00653758,-0.03638924,-1.546078,1.487273,-2.311755,0.2785652,1.102272,0.3218958,-0.7125612,0.752845,2.4,23.7,0.06855948,0.002890766,0.030495,-0.5083895,-3.22747,-0.5875056,0.3750853,1.24439,0.2361217,0.02279857,-0.08610059,-0.02447069,-0.5873191,0.8886356,-0.383831,0.5191017,1.329214,0.1639192,-0.03442908,1.081293,0.2567709,278.0125,31.83872,224.0499,True
2,2.855552,-0.006456372,-0.004154613,-0.04273324,-1.545325,1.487058,-2.31144,0.2786492,1.102564,0.3222039,-0.7043795,0.7364568,2.4,23.7,0.07047779,-0.02157555,0.01656046,-0.5081013,-3.229752,-0.5865117,0.3752875,1.244514,0.2358985,0.0164008,-0.07970534,-0.02652874,-0.5873154,0.8872239,-0.3827141,0.5191517,1.329367,0.1638229,-0.03432562,1.081064,0.2570447,278.3183,31.83488,223.8897,True
2,2.866663,-0.01495206,-0.02123601,-0.04798443,-1.54423,1.487086,-2.310954,0.2787468,1.102843,0.3222969,-0.6962206,0.7345949,1.4,15.4,0.07680714,-0.04076449,0.01537393,-0.5073513,-3.231547,-0.5860129,0.375473,1.244684,0.2360275,0.01432003,-0.09143966,-0.0201476,-0.5868436,0.8846351,-0.3806573,0.5193298,1.329418,0.1635168,-0.03464705,1.080717,0.2568962,279.1761,29.9295,225.3563,True
2,2.877774,-0.02451028,-0.04258239,-0.05428177,-1.542861,1.487249,-2.310339,0.2789736,1.103213,0.3223495,-0.688637,0.682282,1.4,15.4,0.08200767,-0.0364804,0.00253938,-0.5076544,-3.232212,-0.5866669,0.375686,1.244969,0.2360597,0.01650724,-0.09039021,-0.01483184,-0.5863935,0.882991,-0.3797303,0.5193981,1.329622,0.1633878,-0.0346577,1.080436,0.2570653,279.2534,30.18035,224.6563,True
2,2.888885,-0.0266134,-0.05755226,-0.06274285,-1.541159,1.487337,-2.309998,0.2791215,1.103669,0.3225482,-0.681128,0.6760999,1.4,15.4,0.08009156,-0.02373248,0.01857439,-0.507141,-3.231092,-0.5884843,0.3758425,1.24523,0.236099,0.01758871,-0.07760631,-0.01588609,-0.5865176,0.882092,-0.3794557,0.5195983,1.329621,0.16325,-0.03481553,1.079922,0.257339,282.2381,26.03254,229.4543,True
2,2.899997,-0.02766135,-0.06398891,-0.07017219,-1.539726,1.487264,-2.309727,0.2792937,1.103955,0.3226643,-0.6738463,0.6553932,1.4,15.4,0.06311335,-0.01409958,0.02198946,-0.5069636,-3.230095,-0.5895189,0.3760575,1.245425,0.2359862,0.01752776,-0.06694125,-0.02332386,-0.5869223,0.8810618,-0.3787124,0.5198406,1.32964,0.1631615,-0.03499234,1.079611,0.2577957,284.0424,24.40373,230.6748,True
2,2.911108,-0.0329877,-0.06504709,-0.06697373,-1.53874,1.487311,-2.309181,0.279447,1.104298,0.3227122,-0.667271,0.5912746,1.4,15.4,0.06235532,0.001822293,0.04547706,-0.5061897,-3.227614,-0.5923517,0.3762587,1.245661,0.236022,0.01856244,-0.06587039,-0.02227971,-0.5871253,0.8797958,-0.3773603,0.5200057,1.329879,0.1626191,-0.03487826,1.079441,0.2583179,284.6705,24.02026,230.6356,True
2,2.922219,-0.04578868,-0.05120613,-0.06704895,-1.538231,1.486671,-2.3083,0.2795888,1.104593,0.3226998,-0.6607878,0.5835928,1.8,11.7,0.06246917,-0.005665027,0.05717647,-0.505142,-3.226931,-0.5936666,0.3764094,1.246006,0.2362335,0.01429231,-0.06372788,-0.02012618,-0.5873735,0.8788068,-0.3761656,0.5201294,1.330244,0.1624367,-0.03480032,1.079322,0.258645,285.0634,23.83506,230.5621,True
2,2.93333,-0.05006639,-0.03841096,-0.06284494,-1.537845,1.486328,-2.307672,0.2797153,1.104897,0.3227007,-0.6541448,0.5983294,1.8,11.7,0.05715326,-0.01098318,0.05935377,-0.5043628,-3.226607,-0.5944013,0.3765822,1.246259,0.2363012,0.01109582,-0.05732074,-0.02113995,-0.5873687,0.8782899,-0.3758061,0.5203106,1.330291,0.1623518,-0.03516315,1.079202,0.2583868,285.7536,23.24492,230.7451,True
2,2.944441,-0.05969754,-0.01174627,-0.0544527,-1.538223,1.48548,-2.306655,0.2798402,1.105298,0.3229342,-0.6477665,0.5742841,1.8,11.7,0.05923542,-0.01097918,0.05506982,-0.5039297,-3.226566,-0.5951896,0.3768369,1.24632,0.2359982,0.01108654,-0.04985831,-0.02220053,-0.587643,0.8775563,-0.3752266,0.520588,1.330326,0.1626456,-0.03512575,1.07907,0.2585077,285.9115,23.31943,230.4605,True
2,2.955552,-0.06185385,0.002150161,-0.04386191,-1.538517,1.485087,-2.30588,0.2800113,1.105542,0.3229685,-0.6422543,0.4955581,1.8,11.7,0.05914125,-0.01521348,0.04759287,-0.503722,-3.226645,-0.5958064,0.3770114,1.246586,0.2361398,0.01097298,-0.04877098,-0.03497534,-0.5880989,0.8761318,-0.3740466,0.520785,1.330285,0.162643,-0.03510175,1.078961,0.2586648,286.1871,23.09185,230.6216,True
2,2.966663,-0.06935371,0.02673198,-0.02481525,-1.539478,1.484461,-2.304888,0.2801274,1.10592,0.3231089,-0.6364444,0.5235916,3.9,8.3,0.05797489,-0.03544033,0.04329275,-0.5028879,-3.228047,-0.5951515,0.3772332,1.246841,0.2363408,0.004504628,-0.0519468,-0.04026353,-0.5885932,0.8745786,-0.3721834,0.521,1.3305,0.1625803,-0.0350779,1.078867,0.2588502,286.4534,22.83645,230.7861,True
2,2.977774,-0.0757632,0.03955026,-0.01529011,-1.540159,1.484009,-2.303911,0.2802374,1.106153,0.3231635,-0.6315058,0.4438762,3.9,8.3,0.06629171,-0.07059243,0.03351974,-0.5017587,-3.231168,-0.5933678,0.3774163,1.247174,0.2368486,0.003413603,-0.04128675,-0.04554628,-0.588948,0.8739198,-0.3717616,0.5211278,1.330522,0.1625853,-0.03507659,1.078805,0.25908,286.7235,22.38037,231.1169,True
2,2.988885,-0.0864514,0.05984961,-0.001533559,-1.54161,1.483415,-2.302589,0.2804067,1.106521,0.3234258,-0.626874,0.4172877,3.9,8.3,0.06499253,-0.09078919,0.01750212,-0.5011014,-3.234388,-0.5912332,0.377623,1.247459,0.2369878,0.01404418,-0.02850442,-0.04561679,-0.5895754,0.8738593,-0.3718162,0.5213786,1.330631,0.1624918,-0.03507544,1.078754,0.2592782,286.9763,21.97741,231.4171,True
2,2.999996,-0.09391187,0.05986353,0.00272974,-1.542173,1.483126,-2.301279,0.2805601,1.106857,0.3233974,-0.6230428,0.3446691,3.9,8.3,0.06280661,-0.1035611,0.01536871,-0.5001331,-3.236753,-0.5897946,0.377921,1.247697,0.2366462,0.00879766,-0.03172228,-0.03492362,-0.589381,0.8730323,-0.3709717,0.5217,1.330689,0.1624293,-0.03509543,1.078734,0.2594468,287.1867,21.50718,231.8094,True
2,3.011107,-0.100299,0.05662977,-0.002585288,-1.542457,1.482652,-2.299935,0.2807271,1.107227,0.3234766,-0.6194417,0.3245456,3.9,8.3,0.0532103,-0.08861136,0.01125421,-0.4998854,-3.237624,-0.5892864,0.3781307,1.248039,0.2367034,0.003460672,-0.04981754,-0.03493552,-0.5896393,0.8708357,-0.3689666,0.5219278,1.330931,0.1623685,-0.03511809,1.078733,0.2595874,287.351,21.08507,232.1674,True
2,3.022218,-0.08962534,0.03850558,-0.01101317,-1.542224,1.482427,-2.299211,0.2808771,1.107828,0.3236151,-0.6166347,0.252445,4.5,7.5,0.04314759,-0.05247901,0.05514719,-0.4983999,-3.233742,-0.5928194,0.378393,1.248476,0.2365539,0.01083942,-0.06578129,-0.04249349,-0.5899945,0.8682106,-0.3671029,0.5221348,1.331125,0.1622386,-0.03515873,1.07878,0.2597119,287.47,20.58857,232.6163,True
2,3.033329,-0.08853512,0.02145211,-0.01305942,-1.541934,1.482521,-2.298252,0.2809273,1.108288,0.3236501,-0.6142427,0.2153119,4.5,7.5,0.03619704,-0.03018797,0.09469818,-0.4967088,-3.230419,-0.5959547,0.3786154,1.248628,0.2362256,0.009803526,-0.04980816,-0.04031499,-0.5902385,0.8679585,-0.3669812,0.522341,1.331124,0.1622248,-0.03519943,1.078845,0.259775,287.5107,20.21083,232.9721,True
2,3.04444,-0.0895566,-0.009448933,-0.01611854,-1.540971,1.482917,-2.297205,0.2809028,1.108909,0.3238118,-0.6128131,0.1277888,4.5,7.5,0.03116487,-0.009988196,0.1161141,-0.4953618,-3.227025,-0.5991252,0.3788061,1.248986,0.2362416,0.008794621,-0.03704478,-0.03603585,-0.590606,0.86741,-0.3667474,0.5225785,1.331303,0.1624045,-0.03524551,1.078935,0.2598178,287.4977,19.84983,233.3165,True
2,3.055551,-0.0959238,-0.02545656,-0.02030858,-1.540159,1.483159,-2.295914,0.2809455,1.109384,0.3238661,-0.6108546,0.1769909,4.5,7.5,0.02153869,-0.007815525,0.1119729,-0.4944968,-3.225816,-0.6001926,0.3791658,1.249127,0.2356687,0.00881556,-0.03705508,-0.03496009,-0.5905709,0.8663208,-0.3661111,0.5227873,1.331416,0.1624026,-0.03529473,1.079042,0.2598507,287.4474,19.50046,233.6443,True
2,3.066662,-0.1118551,-0.05746114,-0.02656204,-1.538598,1.483832,-2.294125,0.2809396,1.109963,0.3239825,-0.6091906,0.1497621,4.5,7.5,0.01080671,-0.01523145,0.1067486,-0.4934108,-3.225293,-0.60044,0.3793794,1.249454,0.2356966,0.001297891,-0.03917792,-0.04236443,-0.5910923,0.8647054,-0.3645758,0.5230778,1.331622,0.1625233,-0.03535667,1.079139,0.2598682,287.3948,19.10013,234.0357,True
2,3.077773,-0.119301,-0.06387874,-0.02972939,-1.537692,1.484132,-2.292583,0.2809794,1.110468,0.3240349,-0.607638,0.1400046,6.2,6.1,0.01293973,-0.02482814,0.1088278,-0.4921224,-3.224919,-0.601056,0.3796098,1.249629,0.2352915,-0.00834186,-0.03809367,-0.04973052,-0.5915722,0.8635538,-0.3633207,0.5232713,1.331748,0.1625619,-0.03542482,1.07925,0.2598767,287.3118,18.68312,234.4418,True
2,3.088884,-0.1224858,-0.07029299,-0.0350232,-1.536693,1.484324,-2.291081,0.2810119,1.111103,0.3242712,-0.6060188,0.146277,6.2,6.1,0.01708202,-0.03333979,0.1002364,-0.4910598,-3.225039,-0.6012773,0.3798188,1.249983,0.2353313,-0.01266762,-0.03489659,-0.05608422,-0.5922247,0.8622013,-0.3617388,0.5235081,1.332044,0.162544,-0.03549048,1.079364,0.2598644,287.2079,18.31034,234.8154,True
2,3.099995,-0.1246163,-0.07239882,-0.02969064,-1.535955,1.484748,-2.289655,0.2809891,1.111651,0.3243415,-0.6053317,0.06110603,6.2,6.1,0.02773261,-0.0429568,0.1022153,-0.4897085,-3.224921,-0.6020526,0.3799439,1.25023,0.2351334,-0.01587559,-0.03063051,-0.05923771,-0.5927685,0.8613495,-0.3609388,0.5237081,1.332221,0.1625681,-0.0355681,1.079506,0.2598321,287.0634,17.8955,235.2412,True
2,3.111106,-0.1310123,-0.0713181,-0.02437248,-1.535324,1.485179,-2.288005,0.2810176,1.112208,0.3243659,-0.6046526,0.06124084,6.2,6.1,0.02340687,-0.04932671,0.09798653,-0.4885004,-3.2251,-0.6020118,0.3801625,1.25062,0.2351558,-0.01370728,-0.03063905,-0.05713424,-0.5932697,0.8602809,-0.3602913,0.5239369,1.332327,0.1624255,-0.03564674,1.079663,0.259788,286.9028,17.48065,235.6803,True
2,3.122217,-0.1332066,-0.03717759,-0.0128219,-1.535909,1.4848,-2.286348,0.2812119,1.112733,0.3243241,-0.6040673,0.05263451,8.4,4.9,0.01705675,-0.05251684,0.1023098,-0.4870666,-3.224806,-0.6022406,0.3805106,1.250988,0.2349823,-0.01689722,-0.03490368,-0.05499437,-0.5937166,0.8589875,-0.3587973,0.5242307,1.332474,0.1622484,-0.03573823,1.079834,0.2597677,286.7485,16.95136,236.2179,True
2,3.133328,-0.1364418,-0.01158478,-0.006546706,-1.536543,1.484475,-2.284747,0.2812536,1.113205,0.3243203,-0.6032843,0.07084733,8.4,4.9,0.01919495,-0.04506639,0.1012398,-0.4860125,-3.224007,-0.6032475,0.3808437,1.25122,0.2347531,-0.009421222,-0.02425677,-0.05503029,-0.5942482,0.8587226,-0.3588841,0.524368,1.332562,0.1622579,-0.03582892,1.079998,0.2597211,286.5988,16.44746,236.758,True
2,3.144439,-0.1439693,0.03108919,0.008166205,-1.538301,1.48373,-2.282872,0.2813746,1.113728,0.3242691,-0.602806,0.04287161,8.4,4.9,0.02042679,-0.03657922,0.1140319,-0.4845787,-3.222115,-0.6051714,0.3811411,1.251635,0.2347641,-0.01361775,-0.02853891,-0.0486216,-0.594458,0.8573967,-0.3576639,0.5246718,1.332773,0.1623416,-0.03591451,1.080171,0.2596287,286.4296,16.01806,237.2721,True
2,3.15555,-0.1450948,0.06736468,0.01971841,-1.540124,1.482951,-2.281188,0.281513,1.114292,0.3241906,-0.6024593,0.03112721,8.4,4.9,0.02784574,-0.06004326,0.1160246,-0.4825589,-3.223008,-0.6049466,0.3814555,1.252208,0.2349806,-0.01809283,-0.03488459,-0.07522502,-0.5956405,0.8551527,-0.3556292,0.5251172,1.333003,0.1623571,-0.03600091,1.080351,0.25952,286.2565,15.59295,237.8096,True
2,3.166661,-0.1579489,0.1121324,0.02909141,-1.543457,1.481307,-2.277281,0.2816419,1.115502,0.3243301,-0.601868,0.05361569,9.2,3.1,0.02339004,-0.08876873,0.1053472,-0.4794537,-3.225354,-0.6031998,0.3820084,1.253161,0.235117,-0.02448322,-0.03702457,-0.07623588,-0.5968197,0.8522738,-0.3527517,0.5257243,1.333469,0.1623893,-0.03610213,1.080533,0.2594352,286.1095,15.03671,238.4724,True
2,3.177772,-0.1664745,0.1132001,0.0322779,-1.544755,1.480832,-2.275136,0.2816556,1.116214,0.3243053,-0.5998477,0.1841341,9.2,3.1,0.02785747,-0.08349651,0.122356,-0.4774323,-3.224407,-0.6045074,0.3822753,1.253666,0.2351034,-0.02539053,-0.023206,-0.05916088,-0.5970658,0.8526174,-0.3528252,0.5260193,1.333602,0.1621594,-0.03624807,1.080793,0.2593715,286.0054,14.10588,239.5557,True
2,3.188883,-0.1749889,0.1057334,0.03549458,-1.545491,1.480695,-2.272936,0.2818256,1.117053,0.3244271,-0.6012544,-0.1301998,9.2,3.1,0.02923026,-0.0569212,0.1437141,-0.4756768,-3.221139,-0.6077754,0.3826652,1.254258,0.2351379,-0.01889824,-0.02003733,-0.04854947,-0.597085,0.8523446,-0.3527357,0.5263634,1.333858,0.1620717,-0.03692943,1.08121,0.2588685,286.1015,11.97371,241.4104,True
2,3.199994,-0.1770949,0.08868575,0.03557241,-1.546065,1.480742,-2.270892,0.2819131,1.117848,0.324419,-0.6010989,0.0154242,9.2,3.1,0.01991551,-0.04949607,0.1662109,-0.4733785,-3.21837,-0.6101185,0.3830368,1.254831,0.2351177,-0.01041584,-0.03495503,-0.0539763,-0.5975121,0.8501395,-0.351267,0.5265733,1.334108,0.1620693,-0.03714645,1.081538,0.2587141,285.6957,10.77129,242.5797,True
2,3.211105,-0.1770949,0.08868575,0.03557241,-1.546065,1.480742,-2.270892,0.2819131,1.117848,0.324419,-0.600864,0.02113961,9.2,3.1,0.01991551,-0.04949607,0.1662109,-0.4733785,-3.21837,-0.6101185,0.3830368,1.254831,0.2351177,-0.01041584,-0.03495503,-0.0539763,-0.5975121,0.8501395,-0.351267,0.5265733,1.334108,0.1620693,-0.03731459,1.081806,0.2586067,285.5049,9.746357,243.7218,True
2,3.222216,-0.1919793,0.07154524,0.02285399,-1.545903,1.480543,-2.268217,0.2819752,1.118674,0.3244724,-0.6028576,-0.1826005,9.9,2.5,0.03614259,-0.06451664,0.1915501,-0.4702951,-3.217088,-0.6121968,0.3834468,1.255259,0.2350123,-0.01797593,-0.04879331,-0.06459946,-0.5981694,0.847454,-0.3485308,0.5269846,1.334445,0.1619563,-0.03741762,1.082012,0.2585231,285.3085,9.120141,244.4084,True
2,3.233327,-0.2207228,0.06710657,-0.00271935,-1.546196,1.479142,-2.262539,0.2821718,1.120278,0.324542,-0.6008166,0.188025,9.9,2.5,0.0350118,-0.0495712,0.1820135,-0.4668708,-3.213313,-0.6163162,0.3841242,1.256254,0.2347016,-0.04044409,-0.04556295,-0.07824232,-0.5996618,0.8446151,-0.3448796,0.5275255,1.33475,0.1618528,-0.03742106,1.082081,0.2584474,285.1932,9.155156,244.4218,True
2,3.244438,-0.2356524,0.0755993,-0.00489456,-1.547066,1.478357,-2.259348,0.2822438,1.121143,0.3245621,-0.5972757,0.3219151,9.9,2.5,0.03691579,-0.06231757,0.1649134,-0.4652207,-3.213862,-0.6162957,0.3844779,1.256751,0.2345686,-0.03613551,-0.04237758,-0.07293586,-0.6000017,0.8437645,-0.3439741,0.5278739,1.335091,0.1618016,-0.0375523,1.082316,0.2583858,285.1425,8.277869,245.4462,True
2,3.255549,-0.2356524,0.0755993,-0.00489456,-1.547066,1.478357,-2.259348,0.2822438,1.121143,0.3245621,-0.5992986,-0.1874626,9.9,2.5,0.03691579,-0.06231757,0.1649134,-0.4652207,-3.213862,-0.6162957,0.3844779,1.256751,0.2345686,-0.03613551,-0.04237758,-0.07293586,-0.6000017,0.8437645,-0.3439741,0.5278739,1.335091,0.1618016,-0.03787062,1.082816,0.2583344,284.9292,6.083386,247.7471,True
2,3.26666,-0.2495127,0.08196358,-0.003876872,-1.547756,1.477662,-2.256069,0.2822964,1.121941,0.3246982,-0.6026505,-0.3044795,9.9,2.5,0.04946248,-0.09747274,0.1518983,-0.4628372,-3.216585,-0.614864,0.3847844,1.257273,0.2346096,-0.03397445,-0.04027462,-0.0697571,-0.6004512,0.8422073,-0.3424101,0.5282395,1.335317,0.1617703,-0.03809366,1.083185,0.2582578,284.6248,4.552795,249.2783,True
2,3.277771,-0.2686999,0.08831702,-0.001820525,-1.548188,1.476797,-2.252428,0.2823101,1.122901,0.3246593,-0.5997044,0.2717164,9.5,1.8,0.06956564,-0.1198797,0.1441557,-0.4605548,-3.21863,-0.6145785,0.3852457,1.257943,0.2347209,-0.04347736,-0.03283032,-0.06113105,-0.6006637,0.8418894,-0.341474,0.5286341,1.335715,0.1616387,-0.03847721,1.083307,0.2577932,284.6053,4.011596,249.5095,True
2,3.288882,-0.2814806,0.08825647,-0.01141373,-1.549365,1.475164,-2.245786,0.2826226,1.124863,0.3246903,-0.5991995,0.04352012,9.5,1.8,0.07728165,-0.09650508,0.1611617,-0.456616,-3.215989,-0.6189783,0.3859695,1.259439,0.2348554,-0.0531785,-0.05731967,-0.07387173,-0.6016049,0.8372332,-0.336312,0.5293913,1.336389,0.161242,-0.03863756,1.083508,0.2576641,284.4056,2.980184,250.5694,True
2,3.299993,-0.2825395,0.0850324,-0.01777027,-1.549999,1.474496,-2.242551,0.2827824,1.126087,0.3249626,-0.5954759,0.3404732,9.5,1.8,0.06709626,-0.06993376,0.1965008,-0.4539017,-3.211178,-0.6236867,0.3863979,1.260149,0.2347779,-0.05963498,-0.06263462,-0.08022083,-0.602366,0.835047,-0.3335228,0.5298736,1.336617,0.1609015,-0.03887834,1.083888,0.2576266,284.3504,1.249698,252.4366,True
2,3.311104,-0.2825395,0.0850324,-0.01777027,-1.549999,1.474496,-2.242551,0.2827824,1.126087,0.3249626,-0.5994829,-0.3690264,9.5,1.8,0.06709626,-0.06993376,0.1965008,-0.4539017,-3.211178,-0.6236867,0.3863979,1.260149,0.2347779,-0.05963498,-0.06263462,-0.08022083,-0.602366,0.835047,-0.3335228,0.5298736,1.336617,0.1609015,-0.03932306,1.084525,0.2575936,284.2574,358.066,255.763,True
2,3.322215,-0.2728654,0.03065632,-0.03346961,-1.548948,1.474188,-2.236743,0.2831543,1.128263,0.3251235,-0.6031154,-0.328608,8.4,1.4,0.06553052,-0.01995631,0.2350049,-0.4491943,-3.200612,-0.6346031,0.3874243,1.261462,0.2342205,-0.04701702,-0.1009675,-0.1016914,-0.6035863,0.8276497,-0.3272303,0.5307472,1.337166,0.1606596,-0.03959209,1.084978,0.2574595,283.9577,356.0646,257.8123,True
2,3.333326,-0.273891,0.005066584,-0.03865906,-1.548196,1.474359,-2.233653,0.2832667,1.129504,0.3253293,-0.5972634,0.5375149,8.4,1.4,0.07619458,-0.03490927,0.2391068,-0.4464374,-3.198707,-0.6376372,0.3879644,1.262273,0.2343085,-0.06299213,-0.1105523,-0.1015907,-0.6043096,0.8243014,-0.3233573,0.531302,1.337384,0.1605649,-0.03967101,1.085177,0.2573339,283.7871,355.4485,258.5143,True
2,3.344437,-0.2749381,-0.005597793,-0.04073779,-1.547624,1.474215,-2.230601,0.2833422,1.130453,0.3254445,-0.599868,-0.2430203,8.4,1.4,0.07826744,-0.04769275,0.2369183,-0.4438664,-3.197222,-0.6398956,0.3883789,1.263107,0.2344007,-0.06399225,-0.1244188,-0.09520346,-0.6042585,0.8207745,-0.3199714,0.5317836,1.337619,0.1604416,-0.03997181,1.085649,0.2572935,283.7598,353.2322,260.8601,True
2,3.355548,-0.2749289,-0.007748643,-0.04709668,-1.547346,1.473846,-2.227607,0.2834702,1.131552,0.3254724,-0.6001273,-0.02108254,8.4,1.4,0.07932797,-0.05408992,0.2379556,-0.4412576,-3.195051,-0.6427782,0.388828,1.263904,0.2344532,-0.05646037,-0.1382973,-0.08571176,-0.6042387,0.8168461,-0.3164394,0.5322673,1.337964,0.1603751,-0.04044072,1.086104,0.256956,283.6061,351.1666,262.6939,True
2,3.366659,-0.2696075,-0.003471232,-0.0449785,-1.547233,1.473491,-2.224852,0.2836848,1.132631,0.3255749,-0.600154,-0.002481718,7.7,1,0.07701527,-0.07430249,0.2262097,-0.4386913,-3.19505,-0.64358,0.3893268,1.264676,0.2346265,-0.05863234,-0.1265686,-0.093113,-0.6049642,0.8145599,-0.314028,0.5327318,1.338336,0.160296,-0.04069121,1.086469,0.2567615,283.3102,349.1347,264.7415,True
2,3.37777,-0.2600318,0.004013675,-0.04179504,-1.547416,1.473182,-2.222327,0.2838052,1.133773,0.3256998,-0.600202,-0.004376081,7.7,1,0.08555186,-0.07326196,0.2271812,-0.436213,-3.192915,-0.6467519,0.3897875,1.265377,0.2346654,-0.05758364,-0.1212491,-0.09631298,-0.6057435,0.8116584,-0.3111027,0.5332749,1.338647,0.1602092,-0.04089537,1.086769,0.2566448,283.2178,347.5741,266.4043,True
2,3.388881,-0.2610981,-0.00447433,-0.0385459,-1.547257,1.473089,-2.219249,0.2840924,1.134723,0.3256471,-0.6004155,-0.01950389,7.7,1,0.08887641,-0.06690554,0.2367459,-0.4335738,-3.189888,-0.6506729,0.3903592,1.265959,0.2343948,-0.05333336,-0.1244515,-0.09953789,-0.6061988,0.8083742,-0.308209,0.5338466,1.338887,0.1601524,-0.04108439,1.087082,0.2565618,283.1818,346.1351,267.9536,True
2,3.399992,-0.2589401,-0.02154055,-0.04379215,-1.546205,1.473077,-2.216517,0.2842574,1.1358,0.3257563,-0.6006163,-0.01824352,7.7,1,0.07601136,-0.06152464,0.2283817,-0.4315668,-3.187575,-0.6531517,0.3908278,1.266708,0.2344608,-0.05549452,-0.1255092,-0.1059012,-0.6068993,0.8052812,-0.3052957,0.5343265,1.339194,0.1599109,-0.04127637,1.087408,0.2564909,283.1517,344.652,269.5285,True
2,3.411103,-0.2567848,-0.04285648,-0.04795551,-1.544951,1.473169,-2.213639,0.2845334,1.136844,0.3259678,-0.6000283,0.05384745,7.7,1,0.07401739,-0.05515088,0.2390769,-0.4289527,-3.183918,-0.6571643,0.3913777,1.267428,0.2345603,-0.06198241,-0.1233522,-0.1175617,-0.6081387,0.8022897,-0.3019279,0.5348888,1.339478,0.1598389,-0.04147106,1.087729,0.2564145,283.1287,343.163,271.1091,True
2,3.422215,-0.2546438,-0.04925501,-0.0500553,-1.543962,1.473129,-2.210918,0.2847554,1.137862,0.3260934,-0.6002717,-0.02275518,8.4,1.7,0.08034183,-0.0636771,0.2347249,-0.4263934,-3.182113,-0.6599777,0.3919063,1.268122,0.2348192,-0.06734835,-0.1222688,-0.1270789,-0.6090516,0.7993031,-0.299065,0.5352298,1.339817,0.1597896,-0.04165167,1.088034,0.2563023,283.0716,341.7407,272.6346,True
2,3.433326,-0.2461267,-0.04817375,-0.04793148,-1.543254,1.473079,-2.20844,0.2850365,1.138834,0.3263626,-0.6001375,0.0125013,8.4,1.7,0.08960374,-0.06363036,0.2058554,-0.4250203,-3.181763,-0.6616142,0.3924294,1.268738,0.2349782,-0.05340941,-0.1286883,-0.1165583,-0.6095358,0.7960944,-0.2963715,0.535726,1.34006,0.1596553,-0.04194962,1.088338,0.256092,282.9174,339.982,274.2305,True
2,3.444437,-0.2440059,-0.04070329,-0.04582898,-1.542899,1.472878,-2.205845,0.2851951,1.13975,0.3264968,-0.600253,-0.01071544,8.4,1.7,0.08943753,-0.08276924,0.1951593,-0.4226655,-3.181668,-0.6627207,0.3929393,1.269461,0.2353187,-0.03946397,-0.1287199,-0.1060006,-0.6095986,0.7933977,-0.2943136,0.5362346,1.340379,0.1595759,-0.04212068,1.088632,0.255964,282.768,338.3535,275.8738,True
2,3.455548,-0.240827,-0.03005487,-0.04270361,-1.542291,1.472561,-2.203236,0.2855217,1.140641,0.3269269,-0.6004768,-0.0203465,8.4,1.7,0.08471063,-0.1178307,0.1620992,-0.420609,-3.185411,-0.6601074,0.3934323,1.270067,0.2354722,-0.02662513,-0.1244784,-0.100778,-0.6102229,0.7907189,-0.2923712,0.5367064,1.340706,0.1595631,-0.0422797,1.088915,0.2559013,282.7436,337.0102,277.2646,True
2,3.466659,-0.2387294,-0.01618655,-0.0395703,-1.542347,1.472118,-2.200475,0.285863,1.14153,0.3270509,-0.600341,0.01254045,8.4,1,0.08672193,-0.1305988,0.1545963,-0.4182116,-3.186567,-0.6600733,0.3939858,1.27069,0.2355285,-0.02232967,-0.1276887,-0.09760879,-0.6104674,0.7876574,-0.289856,0.5371748,1.34106,0.1594906,-0.04243214,1.089186,0.2558787,282.772,335.805,278.5052,True
2,3.47777,-0.2409101,0.01681537,-0.03762549,-1.54263,1.471039,-2.19769,0.2861924,1.142301,0.3274117,-0.6002669,0.006599844,8.4,1,0.1048218,-0.1157214,0.1501669,-0.416544,-3.185911,-0.6624706,0.3944474,1.271233,0.2356131,-0.02125408,-0.1266268,-0.09762183,-0.6111742,0.784667,-0.2873159,0.5376759,1.341308,0.1595693,-0.04258947,1.089444,0.255876,282.8266,334.6151,279.7141,True
