loc,t,aDotUA,bDotUA,gDotUA,aUA,bUA,gUA,xUA,yUA,zUA,qE,qDotE,emgA,emgB,aDotSH,bDotSH,gDotSH,aSH,bSH,gSH,xSH,ySH,zSH,aDotUB,bDotUB,gDotUB,aUB,bUB,gUB,xUB,yUB,zUB,xHand,yHand,zHand,aHand,bHand,gHand,enable
2,0,0.04266044,-0.2024548,0.07559042,-1.399013,-4.412741,-2.896376,0.7199798,1.114174,0.4326265,-1.235353,0.0004382076,3.8,0.6,-0.1063712,0.03627767,-0.04113881,-0.7036546,-4.371578,-0.07254211,0.7873864,1.289217,0.3592834,-0.0832138,0.1093305,-0.04964241,-0.9367445,0.1255639,-0.04263401,0.8771982,1.358449,0.2036972,0.4803366,0.9725195,0.2847419,300.2055,245.677,355.1081,True
2,0.01111111,0.04475059,-0.1768913,0.07546827,-1.39949,-4.411341,-2.897143,0.7197459,1.114139,0.4326193,-1.235323,0.002693292,3.8,0.6,-0.1062239,0.0532995,-0.03258359,-0.7039022,-4.369802,-0.07274877,0.7871339,1.289293,0.3594582,-0.07792404,0.1050768,-0.0539582,-0.9375494,0.1268144,-0.04267689,0.8772521,1.358432,0.2039118,0.4805572,0.9721303,0.2842249,300.268,245.537,355.1223,True
2,0.02222222,0.05112321,-0.1662086,0.07968208,-1.400102,-4.409623,-2.898198,0.7195061,1.114026,0.4326196,-1.235486,-0.01493503,3.5,0.5,-0.1092201,0.07777926,-0.02076776,-0.7038223,-4.367138,-0.07344466,0.7869474,1.289255,0.3595443,-0.07583387,0.09975909,-0.05824441,-0.9383461,0.1279664,-0.04254134,0.8773314,1.358344,0.204123,0.4807649,0.9717247,0.2836908,300.3534,245.4569,355.0355,True
2,0.03333334,0.05325361,-0.1651315,0.08181013,-1.40064,-4.407624,-2.89921,0.7192416,1.114036,0.4324749,-1.235339,0.01354353,3.5,0.5,-0.1109275,0.09688468,0.01232405,-0.7027028,-4.364075,-0.07439807,0.786811,1.289272,0.3597319,-0.07045906,0.08590158,-0.05191725,-0.9386327,0.1286441,-0.04236104,0.8774275,1.358377,0.2042956,0.480926,0.971334,0.2831857,300.4473,245.4737,354.8589,True
2,0.04444445,0.0532543,-0.1651407,0.07967925,-1.400971,-4.405609,-2.900129,0.7189705,1.113969,0.4324439,-1.235502,-0.01509676,3.5,0.5,-0.1171936,0.08408852,0.02621569,-0.7020189,-4.363268,-0.07351976,0.7866057,1.28927,0.3596563,-0.07045281,0.08057267,-0.05085384,-0.9390674,0.1294869,-0.04206463,0.877489,1.358304,0.2045045,0.4810582,0.9709871,0.2827429,300.5331,245.4648,354.7427,True
2,0.05555556,0.04689378,-0.1854507,0.06699555,-1.400647,-4.402716,-2.900831,0.7186621,1.113887,0.4323437,-1.23538,0.01124444,3.5,0.5,-0.128961,0.05215321,0.0294663,-0.7015123,-4.363984,-0.07112718,0.7864287,1.289228,0.3597405,-0.06086026,0.08802877,-0.05091475,-0.9396634,0.1310032,-0.04267076,0.8773878,1.358202,0.2047043,0.4811803,0.970683,0.2823491,300.5912,245.4597,354.679,True
2,0.06666667,0.04264104,-0.1897561,0.05849475,-1.400542,-4.400456,-2.901508,0.7183479,1.113785,0.4323244,-1.235223,0.01429909,3.5,0.5,-0.1259353,0.02553892,0.02083682,-0.7016657,-4.364876,-0.06918014,0.7861699,1.289144,0.3597982,-0.059779,0.09335629,-0.04985869,-0.9403696,0.13252,-0.04300233,0.8774455,1.358207,0.2049131,0.4812989,0.9704158,0.2819468,300.6455,245.4416,354.6599,True
2,0.07777778,0.04049278,-0.178036,0.05950414,-1.400835,-4.398736,-2.902171,0.7180723,1.113645,0.4323094,-1.234822,0.036522,3.2,0.9,-0.1070496,0.01382553,-0.001782054,-0.7025025,-4.365436,-0.06825735,0.7859389,1.28906,0.3599193,-0.06399769,0.0922827,-0.04449324,-0.9406444,0.1337135,-0.04283109,0.8774172,1.358156,0.2050791,0.4814224,0.9701631,0.2815099,300.6698,245.355,354.6855,True
2,0.08888889,0.04578069,-0.156717,0.05941338,-1.401358,-4.397642,-2.902962,0.7178323,1.113525,0.4323854,-1.234868,-0.004557352,3.2,0.9,-0.09236392,0.02343278,-0.02430285,-0.703629,-4.364385,-0.06859664,0.7856792,1.28905,0.3600922,-0.06079011,0.08162389,-0.0424149,-0.9411521,0.1343192,-0.04258235,0.8774276,1.358077,0.2052717,0.4815464,0.9699002,0.2809985,300.6897,245.1811,354.7575,True
2,0.1,0.05319006,-0.1278882,0.07100031,-1.402397,-4.396907,-2.903925,0.7175598,1.113441,0.4323847,-1.234969,-0.009124848,3.2,0.9,-0.08818515,0.02344281,-0.03180936,-0.7042308,-4.363993,-0.06805042,0.7854681,1.288864,0.3601453,-0.05760622,0.07523399,-0.04351877,-0.9417055,0.1350667,-0.0424657,0.8773593,1.358002,0.2054632,0.4816586,0.9696289,0.2804417,300.7139,245.0353,354.7393,True
2,0.1111111,0.06061096,-0.1097392,0.07624584,-1.403231,-4.396051,-2.904866,0.7173356,1.113407,0.4323642,-1.235212,-0.02223211,3.2,0.9,-0.09022236,0.01276887,-0.02115912,-0.7041121,-4.364287,-0.06675852,0.7852355,1.288862,0.3602605,-0.05551729,0.07204942,-0.04887791,-0.9426019,0.1359388,-0.04246437,0.8773341,1.357819,0.2056077,0.4817602,0.9693585,0.2799028,300.7424,244.9672,354.6194,True
2,0.1222222,0.05634202,-0.1065397,0.0783604,-1.403858,-4.39467,-2.905533,0.7171325,1.113411,0.4322684,-1.235446,-0.0211954,3.5,0.8,-0.09220754,-0.001114607,-0.005193548,-0.7036189,-4.364997,-0.06511722,0.785031,1.289082,0.3603914,-0.05664326,0.07206208,-0.05632509,-0.943517,0.1368978,-0.04235278,0.8773556,1.357676,0.2057934,0.4818443,0.9690991,0.2794564,300.7819,244.9704,354.4424,True
2,0.1333333,0.0510224,-0.1097634,0.07411163,-1.40421,-4.393203,-2.90618,0.716904,1.113374,0.4322734,-1.235383,0.005897687,3.5,0.8,-0.09083791,-0.01504121,0.02458616,-0.7022447,-4.365963,-0.06341626,0.7847682,1.289111,0.3604391,-0.05561375,0.06993526,-0.06060731,-0.9444683,0.1376801,-0.04220578,0.8774648,1.357639,0.2059417,0.4818861,0.9688529,0.2791254,300.8323,245.0486,354.2655,True
2,0.1444445,0.04036924,-0.1076727,0.06876951,-1.404503,-4.391968,-2.906461,0.7166919,1.113269,0.4322882,-1.234977,0.03706213,3.5,0.8,-0.09286552,-0.003327526,0.03102796,-0.7018378,-4.365148,-0.06290945,0.7845551,1.289043,0.3604743,-0.05455917,0.06354508,-0.06169261,-0.9452128,0.138239,-0.04196263,0.8774264,1.357552,0.2060931,0.4819238,0.9686249,0.2788964,300.8869,245.1197,354.1776,True
2,0.1555556,0.02225446,-0.101325,0.0655292,-1.404826,-4.390901,-2.906331,0.7163937,1.11309,0.4322653,-1.23489,0.007617126,3.5,0.8,-0.08858623,0.01690955,0.02783369,-0.7016891,-4.36377,-0.063106,0.7842425,1.288995,0.3605051,-0.04911258,0.05924961,-0.04683695,-0.9453045,0.1387733,-0.04189339,0.8773549,1.357451,0.2062154,0.481974,0.9684186,0.2787026,300.9432,245.1389,354.1761,True
2,0.1666667,0.01585671,-0.09602687,0.06230164,-1.405152,-4.389811,-2.906546,0.7160399,1.112929,0.4323423,-1.234578,0.02852714,3.5,0.8,-0.08335619,0.04141989,0.01399123,-0.7020226,-4.362108,-0.06353343,0.7839709,1.28874,0.3605309,-0.04996964,0.06133834,-0.02125859,-0.9446392,0.1399116,-0.04195597,0.8770909,1.357429,0.2064342,0.4820268,0.9682263,0.2785048,300.9748,245.1026,354.1895,True
2,0.1777778,0.01159511,-0.09392748,0.05696311,-1.405377,-4.388741,-2.906708,0.7157396,1.112834,0.4323552,-1.234216,0.03292327,3.2,0.8,-0.07593247,0.05632997,0.007551295,-0.7022409,-4.360344,-0.06428099,0.7836883,1.288662,0.3606026,-0.04786754,0.05921309,-0.02447092,-0.9450206,0.1406136,-0.04186809,0.8769932,1.357347,0.2065897,0.4820258,0.9680309,0.2782833,300.9877,245.0678,354.1688,True
2,0.1888889,0.01263374,-0.07475124,0.05793037,-1.405848,-4.388333,-2.907012,0.7153422,1.112857,0.4323418,-1.234592,-0.03461803,3.2,0.8,-0.06235776,0.05102549,-0.01499972,-0.7033073,-4.359818,-0.06438884,0.7834495,1.288707,0.3608224,-0.04264842,0.05496898,-0.03730784,-0.9459298,0.1410879,-0.04183906,0.8768413,1.357289,0.2067416,0.4819042,0.9678298,0.2780232,301.003,245.0406,354.1215,True
2,0.2,0.008370079,-0.07158151,0.05365219,-1.406124,-4.387553,-2.907086,0.7150285,1.112785,0.4323452,-1.234651,-0.005011671,3.2,0.8,-0.06571789,0.01270082,-0.02038427,-0.7036487,-4.361412,-0.06235658,0.7831227,1.288707,0.3609133,-0.04063444,0.05392817,-0.0511707,-0.9469157,0.1417396,-0.04181536,0.8766731,1.357236,0.2068729,0.4817205,0.9676501,0.277759,301.0152,245.0069,354.072,True
2,0.2111111,0.001976104,-0.06524651,0.04508839,-1.406076,-4.386916,-2.907071,0.7146584,1.112812,0.4322002,-1.23494,-0.02641924,3.2,0.8,-0.06896129,-0.01285888,-0.01828121,-0.7037004,-4.36282,-0.06036401,0.7828803,1.288639,0.3609161,-0.03961417,0.05393795,-0.0565104,-0.9477855,0.142449,-0.0418079,0.8764859,1.357199,0.206888,0.4815187,0.9675164,0.2775082,301.0504,244.9903,354.0198,True
2,0.2222222,-0.002294987,-0.05991559,0.04825042,-1.406482,-4.386226,-2.907051,0.7143697,1.112726,0.4321063,-1.234706,0.02165351,3.2,0.8,-0.06369495,-0.03418925,-0.0183902,-0.7037488,-4.364586,-0.0584444,0.7826929,1.288571,0.3609493,-0.04065315,0.05499754,-0.05329961,-0.9482169,0.1432193,-0.04177834,0.8763061,1.357174,0.2070041,0.4812805,0.9674478,0.2772872,301.0815,244.9972,353.9572,True
2,0.2333333,-0.01297142,-0.043952,0.04817025,-1.406973,-4.386145,-2.906571,0.7140101,1.112724,0.432111,-1.234642,0.005689448,2.3,0.7,-0.05509541,-0.02356993,-0.01420064,-0.7037744,-4.364501,-0.05817276,0.7823884,1.288581,0.3610148,-0.04478343,0.04964665,-0.03730004,-0.9481466,0.1437313,-0.04144438,0.8761516,1.357122,0.2070506,0.4810343,0.9674366,0.2770941,301.0819,244.9904,353.9446,True
2,0.2444444,-0.01511557,-0.03543153,0.0502566,-1.407494,-4.385773,-2.906429,0.7136846,1.112708,0.432132,-1.234665,-0.002083737,2.3,0.7,-0.05071588,-0.005487468,-0.00781373,-0.7036971,-4.363606,-0.05838581,0.7820905,1.288751,0.3611345,-0.03837006,0.04538552,-0.03523092,-0.9485061,0.1442682,-0.04163,0.876089,1.357204,0.2072043,0.4807572,0.967473,0.2768934,301.068,244.9673,353.9731,True
2,0.2555556,-0.01619018,-0.02799103,0.04702538,-1.407892,-4.385614,-2.906239,0.713311,1.112734,0.4321177,-1.234361,0.02784591,2.3,0.7,-0.05062237,0.001953479,-0.001403865,-0.7035294,-4.363173,-0.05817116,0.7817538,1.288805,0.3612015,-0.03622872,0.04112034,-0.03312333,-0.9488209,0.1446497,-0.04144704,0.8759357,1.357133,0.2073438,0.4804885,0.9675466,0.2766799,301.0328,244.9824,353.9428,True
2,0.2666667,-0.02259603,-0.02269057,0.04380394,-1.408262,-4.385366,-2.905708,0.7129813,1.112811,0.4320788,-1.234676,-0.02898814,2.3,0.7,-0.0600688,0.008345723,0.009387709,-0.7028828,-4.362679,-0.05756662,0.7815189,1.288797,0.3612051,-0.03632458,0.03900991,-0.04485126,-0.9497733,0.1450361,-0.04128299,0.8757071,1.357081,0.207437,0.480188,0.9676599,0.2764701,301.0141,245.0149,353.8562,True
2,0.2777778,-0.02792318,-0.01952489,0.03845966,-1.408489,-4.385225,-2.905253,0.7126275,1.112829,0.4320607,-1.234751,-0.006539866,2,0.9,-0.06855169,0.01368968,0.01162921,-0.7026948,-4.362149,-0.05690856,0.7811735,1.288838,0.3612418,-0.0320891,0.04114465,-0.04807637,-0.9504103,0.1456431,-0.04141562,0.8754942,1.357064,0.2075553,0.4798791,0.9678155,0.2762854,300.9838,245.0331,353.7871,True
2,0.2888889,-0.04071005,-0.01852527,0.02779912,-1.408445,-4.385093,-2.904276,0.7121794,1.112849,0.4320385,-1.234442,0.0282376,2,0.9,-0.07164825,0.02753688,0.01702783,-0.7023667,-4.360866,-0.05700869,0.7807729,1.288925,0.3613362,-0.02886133,0.04113764,-0.04384314,-0.9507895,0.1462311,-0.04149871,0.8751853,1.356959,0.2076409,0.4795404,0.9679988,0.276128,300.9543,245.0471,353.7426,True
2,0.3,-0.04814914,-0.02606938,0.01185098,-1.407922,-4.384629,-2.903556,0.7117113,1.112946,0.4320438,-1.234556,-0.01063063,2,0.9,-0.0598156,0.04240309,0.02332064,-0.701965,-4.359305,-0.05797808,0.7803186,1.288999,0.3613753,-0.02876361,0.04005048,-0.03212563,-0.9507464,0.1467073,-0.04146542,0.874828,1.356969,0.2077281,0.4791799,0.968215,0.2759905,300.9279,245.0563,353.7244,True
2,0.3111111,-0.06091205,-0.03573547,-0.0008941228,-1.407335,-4.384032,-2.902551,0.7112398,1.113047,0.4320738,-1.234125,0.03961826,2,0.9,-0.04383851,0.04022807,0.02313828,-0.7016465,-4.358748,-0.05854027,0.7799107,1.288984,0.361382,-0.02551384,0.03684182,-0.02469922,-0.9507565,0.1471014,-0.04143186,0.8744694,1.356943,0.2077849,0.4787667,0.968446,0.2758626,300.8793,245.0382,353.7279,True
2,0.3222222,-0.06835431,-0.04216334,-0.006189482,-1.407041,-4.383395,-2.901705,0.7107588,1.113179,0.4320889,-1.234365,-0.02222214,2,0.9,-0.03751375,0.03382715,0.0187897,-0.7015789,-4.358587,-0.05842762,0.77952,1.289056,0.3614666,-0.02548568,0.03363815,-0.02150869,-0.9508801,0.1473965,-0.04136794,0.8741914,1.356912,0.2078438,0.478256,0.9686847,0.2757359,300.8409,244.9785,353.7627,True
2,0.3333333,-0.07900867,-0.03901304,-0.01260159,-1.406603,-4.383175,-2.900473,0.7102878,1.113318,0.4321175,-1.234182,0.01693692,1.4,0.6,-0.03545604,0.0146492,0.01658233,-0.7015262,-4.359315,-0.05756236,0.7790692,1.289145,0.361438,-0.01701945,0.02513024,-0.02798338,-0.9514031,0.1474571,-0.04149445,0.8738301,1.356925,0.2079537,0.477705,0.9689541,0.2756313,300.8017,244.8551,353.853,True
2,0.3444445,-0.09180538,-0.02734375,-0.02012181,-1.406199,-4.383477,-2.899045,0.7097661,1.113464,0.4321845,-1.234399,-0.0199133,1.4,0.6,-0.03009762,-0.001365663,0.02286482,-0.7011549,-4.360176,-0.05675995,0.7784917,1.289291,0.3615329,-0.01171193,0.02619904,-0.03015589,-0.951826,0.1478852,-0.0417581,0.8735076,1.356905,0.207952,0.4771425,0.969269,0.2755516,300.7649,244.7465,353.9384,True
2,0.3555556,-0.1003338,-0.02099445,-0.02654781,-1.405692,-4.383614,-2.897607,0.7092752,1.113615,0.4322484,-1.234198,0.01867293,1.4,0.6,-0.02895484,-0.008846888,0.03135595,-0.7005152,-4.360641,-0.05612585,0.7780571,1.28939,0.3615534,-0.009583425,0.02193754,-0.0301786,-0.9521392,0.1480331,-0.04179938,0.8731359,1.356918,0.2079926,0.476584,0.9696395,0.2754825,300.7187,244.68,353.9971,True
2,0.3666667,-0.1088918,0.002427239,-0.02772839,-1.405561,-4.384504,-2.895992,0.7087131,1.113869,0.4323571,-1.234155,0.003836263,1.4,0.6,-0.024498,-0.002494915,0.04731084,-0.6993301,-4.359936,-0.0564734,0.777743,1.289401,0.3615549,-0.01169316,0.01980956,-0.02803339,-0.9523672,0.1482735,-0.04177807,0.8727101,1.356897,0.2080894,0.4759888,0.9700622,0.2754205,300.6685,244.6094,354.0431,True
2,0.3777778,-0.1206331,0.01730886,-0.03099992,-1.405315,-4.385226,-2.894168,0.7081342,1.114116,0.432447,-1.234218,-0.005732421,1.2,1,-0.02115056,0.00385881,0.05900746,-0.6982984,-4.359449,-0.05673332,0.7773058,1.289512,0.3615308,-0.008392191,0.01339241,-0.0152829,-0.9520204,0.1481526,-0.04177541,0.872334,1.356913,0.2081087,0.4753118,0.9705448,0.2753908,300.6062,244.5342,354.0812,True
2,0.3888889,-0.1366338,0.03431597,-0.03428203,-1.405065,-4.386195,-2.892058,0.7075421,1.114426,0.4325721,-1.23427,-0.004577357,1.2,1,-0.02948148,0.02516549,0.0719496,-0.6970329,-4.357556,-0.05741189,0.7769113,1.28963,0.361455,-0.004082544,0.009127876,-0.009998197,-0.9519512,0.1482514,-0.04202841,0.871945,1.357054,0.2081022,0.4745665,0.9710987,0.275418,300.5372,244.4696,354.1177,True
2,0.4,-0.1504882,0.04489739,-0.04605702,-1.404422,-4.387249,-2.889838,0.706936,1.114718,0.4326148,-1.234136,0.0123801,1.2,1,-0.03563169,0.03472088,0.09122711,-0.6953775,-4.356437,-0.05759778,0.7765105,1.289725,0.3613961,-0.001963331,0.0006063461,-0.01109146,-0.9520279,0.1478928,-0.04187288,0.8714974,1.357098,0.2080863,0.4737152,0.9717401,0.2755239,300.4705,244.4597,354.1206,True
2,0.4111111,-0.1739504,0.06822485,-0.06215787,-1.403582,-4.389065,-2.886829,0.7063004,1.115093,0.4326348,-1.233982,0.01394498,1.2,1,-0.02679757,0.05061837,0.1146039,-0.6933572,-4.354513,-0.0590556,0.7761195,1.289904,0.3613102,0.0001216577,-0.0004461813,-0.01643546,-0.9523826,0.1478936,-0.04192348,0.8710874,1.357125,0.2080634,0.4727657,0.9724783,0.2757087,300.3868,244.4557,354.1598,True
2,0.4222222,-0.214453,0.08408087,-0.07610302,-1.402663,-4.390764,-2.882819,0.7056815,1.115438,0.4326696,-1.233992,-0.0008921138,1.2,1,-0.0266888,0.04632877,0.1263162,-0.6915643,-4.353835,-0.05910753,0.7757287,1.290081,0.3613174,0.002224376,-0.005767763,-0.01965688,-0.9526985,0.1475956,-0.04184252,0.8706788,1.357162,0.2080152,0.471725,0.9733244,0.2759632,300.2811,244.4436,354.2426,True
2,0.4333333,-0.2410931,0.09462538,-0.0910804,-1.401558,-4.39255,-2.878921,0.7050031,1.115834,0.4327316,-1.233476,0.04725229,0.9,0.6,-0.03946549,0.007988511,0.1359547,-0.6896027,-4.355585,-0.05691042,0.7753663,1.290276,0.3612499,0.01718392,-0.008980718,-0.01339417,-0.9525861,0.1473367,-0.04229553,0.8702714,1.357241,0.2078691,0.4705791,0.974266,0.2762636,300.1481,244.4004,354.3802,True
2,0.4444444,-0.2890628,0.1189531,-0.1135935,-1.400126,-4.395117,-2.873685,0.7041883,1.1164,0.4327679,-1.232599,0.07994898,0.9,0.6,-0.04585227,0.002673561,0.1381431,-0.6880346,-4.35555,-0.05615009,0.7750934,1.290537,0.3611732,0.02460739,-0.01642969,-0.01666706,-0.9529163,0.1468626,-0.04245505,0.8699242,1.357358,0.2078238,0.4692951,0.9753154,0.2766073,300.0123,244.3506,354.531,True
2,0.4555556,-0.3093129,0.1263364,-0.1232248,-1.399028,-4.397101,-2.869359,0.70338,1.116898,0.4327745,-1.232894,-0.02746632,0.9,0.6,-0.04068885,-0.01222794,0.1273926,-0.68694,-4.356409,-0.05520147,0.7747943,1.290704,0.3611627,0.03427074,-0.03029933,-0.007182605,-0.952617,0.1458984,-0.042593,0.86945,1.357408,0.2077308,0.4678792,0.976516,0.2769792,299.8689,244.2936,354.7063,True
2,0.4666667,-0.3263588,0.1305282,-0.1328409,-1.397713,-4.399172,-2.864776,0.702431,1.117496,0.4327872,-1.232033,0.0792518,0.9,0.6,-0.03240792,-0.0441707,0.1144339,-0.6859872,-4.358549,-0.05338759,0.7745306,1.290905,0.3611338,0.05028458,-0.03562879,-0.00306447,-0.9525275,0.1453681,-0.04337757,0.8689586,1.357492,0.2076592,0.4663285,0.9779034,0.2773666,299.702,244.2024,354.9083,True
2,0.4777778,-0.3625465,0.1165566,-0.1455663,-1.396136,-4.400315,-2.859498,0.7013147,1.118162,0.4327698,-1.233053,-0.09368385,0.6,0.7,-0.02940251,-0.07824713,0.1057906,-0.6850066,-4.361707,-0.05073002,0.7742482,1.291135,0.3611312,0.06732597,-0.04415596,-0.003219571,-0.9525365,0.1444072,-0.04412245,0.8684449,1.35761,0.2075281,0.4645692,0.9795278,0.2777621,299.5305,244.103,355.1263,True
2,0.4888889,-0.4051175,0.09933246,-0.1689584,-1.393479,-4.401544,-2.853382,0.700152,1.118814,0.4326131,-1.23321,-0.01331018,0.6,0.7,-0.03493545,-0.1336244,0.101462,-0.6836942,-4.367149,-0.04578773,0.7739927,1.291414,0.3610895,0.07371599,-0.052678,-0.003294381,-0.9526564,0.1433662,-0.04453817,0.8679581,1.357651,0.2073944,0.462708,0.9814051,0.2781619,299.2522,244.0092,355.378,True
2,0.5,-0.4498277,0.08211994,-0.1902069,-1.390916,-4.402728,-2.846697,0.6989859,1.119615,0.4325778,-1.232608,0.05519212,0.6,0.7,-0.04643905,-0.1485715,0.1239314,-0.6814214,-4.370498,-0.04221057,0.7736908,1.291739,0.3610756,0.06965351,-0.06763646,0.02121414,-0.951548,0.1418812,-0.04433417,0.8674083,1.357841,0.2072806,0.4607503,0.9834723,0.2785253,298.9095,243.8824,355.6725,True
2,0.5111111,-0.4807049,0.07775648,-0.2019233,-1.388559,-4.404166,-2.84016,0.6977553,1.120411,0.4326019,-1.232016,0.05391685,0.6,0.7,-0.05471771,-0.1517932,0.1463921,-0.6789314,-4.372887,-0.03938975,0.7733986,1.291955,0.3610084,0.07184858,-0.06019381,0.02866622,-0.9509685,0.1414023,-0.04492966,0.8668551,1.357974,0.2072279,0.4586767,0.9856707,0.2787711,298.5451,243.6494,356.0753,True
2,0.5222223,-0.5286179,0.07015924,-0.2157542,-1.386136,-4.405457,-2.832613,0.6964064,1.12123,0.4325829,-1.231743,0.02474725,0.6,0.7,-0.05761401,-0.1433252,0.1709513,-0.6761068,-4.374778,-0.03714417,0.7729163,1.292223,0.3608985,0.07504985,-0.04207793,0.02867619,-0.9506335,0.1418113,-0.04612195,0.8661343,1.358145,0.2071266,0.4565008,0.9879809,0.2788628,298.1886,243.2614,356.5806,True
2,0.5333334,-0.5818915,0.08280608,-0.2275595,-1.383718,-4.407594,-2.823973,0.6950231,1.122158,0.4325881,-1.232294,-0.05017461,0.5,0.6,-0.06898365,-0.1231117,0.1967144,-0.672869,-4.375457,-0.03543016,0.7725148,1.292505,0.3607121,0.07392637,-0.04313335,0.02229397,-0.950561,0.1411324,-0.04643568,0.8655518,1.358292,0.2069023,0.4543014,0.9904507,0.278843,297.8519,242.8376,357.0338,True
2,0.5444446,-0.6224092,0.1082986,-0.2308959,-1.38181,-4.41042,-2.815211,0.6936494,1.123057,0.432523,-1.2317,0.05501455,0.5,0.6,-0.07085726,-0.1029063,0.2149027,-0.6698005,-4.376005,-0.03406609,0.7720664,1.292837,0.3606174,0.0728065,-0.05057524,0.01589244,-0.9506734,0.140119,-0.04660825,0.8648078,1.358442,0.2067587,0.4520733,0.9930832,0.2787611,297.4743,242.4188,357.4368,True
2,0.5555557,-0.6533288,0.1274085,-0.235262,-1.37986,-4.413366,-2.806285,0.6922503,1.123909,0.4324586,-1.231101,0.05455127,0.5,0.6,-0.07073282,-0.09760395,0.2245029,-0.666936,-4.37728,-0.03228151,0.771529,1.293181,0.3605132,0.07066277,-0.05589974,0.01483517,-0.9505248,0.1391233,-0.04668122,0.8641474,1.358588,0.2065423,0.4497327,0.9958699,0.2786278,297.0911,241.9864,357.847,True
2,0.5666668,-0.6874803,0.1678806,-0.2280082,-1.378869,-4.417411,-2.796748,0.6908063,1.124775,0.4323709,-1.231505,-0.03708523,0.5,0.6,-0.07401413,-0.09757777,0.2170872,-0.6647138,-4.379071,-0.02994884,0.7710237,1.293541,0.3604395,0.06957223,-0.05270679,0.01165932,-0.9503831,0.1384386,-0.047049,0.863387,1.358797,0.2063525,0.4472196,0.9988682,0.2784912,296.7144,241.5616,358.2527,True
2,0.577778,-0.7323049,0.2136889,-0.2133292,-1.378399,-4.421778,-2.786222,0.6892495,1.12573,0.4322331,-1.231858,-0.03153287,0.5,0.6,-0.0804184,-0.08477096,0.212935,-0.6623894,-4.379913,-0.02818929,0.7704343,1.293959,0.3603265,0.05904498,-0.0506046,0.02666827,-0.949492,0.1377846,-0.04699068,0.8626932,1.359028,0.2061925,0.4445499,1.002121,0.2784137,296.2645,241.1782,358.6657,True
2,0.5888891,-0.7493863,0.239239,-0.2113278,-1.377465,-4.425913,-2.776587,0.6876907,1.126657,0.4320741,-1.231895,-0.002879383,0.9,0.9,-0.08153297,-0.07515552,0.2065853,-0.6602072,-4.380444,-0.02679832,0.7698096,1.294348,0.3602638,0.04106575,-0.04956234,0.04279827,-0.9484571,0.1371881,-0.04649267,0.8619274,1.359202,0.2060816,0.4417547,1.005608,0.2784347,295.7265,240.8196,359.1014,True
2,0.6000003,-0.7750121,0.2712096,-0.1987005,-1.377306,-4.430281,-2.766407,0.6861128,1.127514,0.4319093,-1.231376,0.04775025,0.9,0.9,-0.08890548,-0.06449132,0.2109601,-0.6577268,-4.380874,-0.0253232,0.7690196,1.294785,0.3601854,0.03367462,-0.04318651,0.05032078,-0.9477705,0.136814,-0.04647908,0.8612463,1.359453,0.2059543,0.4387918,1.009307,0.2785712,295.1523,240.6095,359.4416,True
2,0.6111114,-0.7910585,0.3138565,-0.1871884,-1.377526,-4.43556,-2.756119,0.6843822,1.12842,0.4318073,-1.232562,-0.1085366,0.9,0.9,-0.1005348,-0.07193515,0.220665,-0.654866,-4.382368,-0.0226121,0.7682083,1.295173,0.3600345,0.02831968,-0.03572027,0.04611531,-0.9474323,0.1366636,-0.04660292,0.8604523,1.359664,0.205915,0.4356422,1.013224,0.2788001,294.5704,240.4592,359.7993,True
2,0.6222225,-0.8038775,0.3351982,-0.1766412,-1.377692,-4.44038,-2.745896,0.6826597,1.129293,0.4316587,-1.232546,0.002657718,0.9,0.9,-0.1239919,-0.06547484,0.2177502,-0.6526444,-4.38322,-0.01978835,0.7673938,1.295579,0.3599348,0.01124253,-0.02292495,0.04201644,-0.9471191,0.1368889,-0.04624206,0.8597054,1.359848,0.2058275,0.4324462,1.017315,0.2791131,293.9039,240.2067,0.3053978,True
2,0.6333337,-0.8198894,0.3575901,-0.167174,-1.37802,-4.445427,-2.735344,0.6807448,1.130182,0.4314561,-1.23289,-0.03134558,1.4,0.6,-0.1376312,-0.05162639,0.2328567,-0.649528,-4.383299,-0.01771189,0.7665274,1.295912,0.3597648,0.0006168783,-0.01013944,0.04531761,-0.9465812,0.1373448,-0.04615045,0.858829,1.360048,0.205703,0.4292189,1.021498,0.2794724,293.2,240.0232,0.7381663,True
2,0.6444448,-0.8380234,0.3703905,-0.1565888,-1.378504,-4.450161,-2.724565,0.6788436,1.131088,0.4313478,-1.233172,-0.02533206,1.4,0.6,-0.1459913,-0.01645017,0.2383707,-0.646705,-4.381271,-0.01753585,0.7655262,1.296206,0.3594875,0.0006294958,0.002642208,0.04640554,-0.9460518,0.137978,-0.04653182,0.8579532,1.360244,0.2056055,0.425919,1.025714,0.2798734,292.4958,239.8805,1.111619,True
2,0.655556,-0.8508195,0.3725141,-0.1523409,-1.378811,-4.454584,-2.713944,0.6768785,1.131997,0.4311073,-1.233148,0.002493956,1.4,0.6,-0.1491893,0.0133929,0.2320922,-0.6443508,-4.379534,-0.01705302,0.764515,1.296601,0.3592832,-0.002471101,0.01540493,0.05710523,-0.9451186,0.1386976,-0.04687802,0.8570486,1.360458,0.2055449,0.4225794,1.029901,0.2802949,291.806,239.7147,1.528869,True
2,0.6666671,-0.8657252,0.3650402,-0.1501825,-1.378962,-4.458683,-2.703157,0.6748792,1.132817,0.4308338,-1.233086,0.005877553,1.4,0.6,-0.1568627,0.0251947,0.2109067,-0.6427124,-4.378273,-0.01604821,0.7633332,1.296934,0.3590939,-0.002380393,0.03029757,0.06778583,-0.9440219,0.1397559,-0.04745513,0.8560835,1.360775,0.2054696,0.4191616,1.034027,0.2806948,291.1607,239.548,1.943811,True
2,0.6777782,-0.875327,0.3713849,-0.1555429,-1.379057,-4.463509,-2.69212,0.6726638,1.133781,0.4303408,-1.233403,-0.02885145,1.4,0.6,-0.168733,0.03591795,0.1950926,-0.6409776,-4.37703,-0.01477362,0.7620873,1.297314,0.3588586,-0.008686498,0.04413053,0.07744967,-0.9429092,0.1409808,-0.04789829,0.8550167,1.361074,0.2053993,0.4157517,1.038103,0.2810608,290.5573,239.3881,2.350427,True
2,0.6888894,-0.8700215,0.386311,-0.1545436,-1.379661,-4.468661,-2.68158,0.6704602,1.134712,0.429925,-1.233419,-0.001060861,3.3,0.8,-0.1709474,0.04234518,0.1866124,-0.6391273,-4.375702,-0.01381382,0.7607861,1.297668,0.3585799,-0.02038963,0.06010826,0.07863683,-0.9421007,0.1424738,-0.04816647,0.8539776,1.361255,0.2052217,0.41238,1.042132,0.2813405,289.9626,239.165,2.829843,True
2,0.7000005,-0.8583377,0.4023707,-0.1396928,-1.381017,-4.473734,-2.671348,0.6680717,1.135679,0.4294891,-1.2335,-0.007295704,3.3,0.8,-0.1784412,0.06368552,0.1792924,-0.63736,-4.373405,-0.01328225,0.7592266,1.297995,0.3583441,-0.0330693,0.07713407,0.09048848,-0.9407931,0.1442307,-0.04847992,0.8528218,1.36149,0.2051904,0.4090103,1.046111,0.2814742,289.3885,238.8876,3.339994,True
2,0.7111117,-0.8551641,0.4151946,-0.1312283,-1.382247,-4.47885,-2.660911,0.6656394,1.136495,0.429143,-1.23423,-0.06660417,3.3,0.8,-0.2039528,0.1074554,0.1743765,-0.6354718,-4.368768,-0.01382154,0.7576871,1.298244,0.3580987,-0.05321325,0.1026853,0.1013537,-0.9394045,0.1466562,-0.04870815,0.8517319,1.361725,0.2052052,0.4055218,1.050088,0.2814376,288.8637,238.5879,3.812117,True
2,0.7222228,-0.8488039,0.4216686,-0.113131,-1.384035,-4.483555,-2.650599,0.663204,1.137407,0.4287405,-1.234706,-0.04287712,3.3,0.8,-0.2155691,0.1714219,0.1682792,-0.6338323,-4.36186,-0.01654089,0.7560518,1.298621,0.3578906,-0.06370772,0.1154424,0.1195723,-0.9375973,0.1489144,-0.0490738,0.8505044,1.362044,0.20523,0.4019763,1.054104,0.2813178,288.3273,238.3308,4.173959,True
2,0.7333339,-0.8434845,0.4217472,-0.09821448,-1.385744,-4.488085,-2.640478,0.6607214,1.138303,0.4282682,-1.234604,0.009702682,3.9,0.6,-0.2123061,0.1990991,0.168319,-0.6318936,-4.356962,-0.01819259,0.754621,1.298988,0.3575854,-0.0700673,0.1207616,0.1238965,-0.9361379,0.1508341,-0.04918645,0.8492981,1.362324,0.2052217,0.3983632,1.058162,0.2811775,287.7429,238.1103,4.477345,True
2,0.7444451,-0.8402823,0.4132777,-0.08644789,-1.387344,-4.492076,-2.630618,0.6582549,1.139262,0.4277372,-1.23467,-0.006163573,3.9,0.6,-0.2039288,0.2001732,0.1554442,-0.6305769,-4.353227,-0.01928262,0.7527841,1.299356,0.3572209,-0.08065827,0.1282079,0.1314506,-0.9346119,0.1529188,-0.0491798,0.8480335,1.362681,0.2051306,0.3947314,1.06223,0.2810885,287.1253,237.8573,4.824821,True
2,0.7555562,-0.8349784,0.4186306,-0.08007804,-1.389087,-4.496629,-2.620607,0.6557761,1.140138,0.4271564,-1.234868,-0.01794363,3.9,0.6,-0.2253752,0.2013293,0.1429079,-0.6294504,-4.349337,-0.0192464,0.7509888,1.299758,0.3569314,-0.09559843,0.1335447,0.1283883,-0.9333543,0.155041,-0.04888259,0.8466885,1.363023,0.2050612,0.391131,1.066308,0.2810638,286.52,237.7023,5.136518,True
2,0.7666674,-0.8222287,0.4378836,-0.06844193,-1.391519,-4.50169,-2.611013,0.6531793,1.140903,0.4265497,-1.23506,-0.01744835,3.9,0.6,-0.267147,0.195098,0.1252605,-0.6286653,-4.345934,-0.01756222,0.7490332,1.300053,0.3565228,-0.1178499,0.146308,0.1435106,-0.9313671,0.1576603,-0.04837392,0.8453119,1.363371,0.204983,0.3875808,1.070379,0.281069,285.9275,237.5556,5.497859,True
2,0.7777785,-0.8126905,0.4667217,-0.05471808,-1.394496,-4.507047,-2.6014,0.650516,1.141602,0.4259565,-1.235025,0.003356518,3.9,0.6,-0.2883388,0.2100492,0.1319347,-0.6269838,-4.341244,-0.01755795,0.7469554,1.300267,0.3561521,-0.1326796,0.1601468,0.1532432,-0.9294885,0.1605834,-0.048216,0.8439037,1.363708,0.2049692,0.3841072,1.074428,0.2810511,285.3439,237.3597,5.923695,True
2,0.7888896,-0.801004,0.4870164,-0.04629266,-1.397324,-4.512426,-2.592008,0.6478086,1.142361,0.4254034,-1.235497,-0.04323252,4.2,0.5,-0.2956569,0.2420138,0.1363607,-0.625388,-4.334866,-0.01930366,0.744913,1.300459,0.3556724,-0.1390831,0.185719,0.1512109,-0.9280317,0.1643714,-0.04871827,0.8424981,1.363953,0.2050507,0.3806297,1.07844,0.2809857,284.75,237.1466,6.32423,True
2,0.8000008,-0.782918,0.4999093,-0.02715674,-1.400809,-4.517287,-2.58318,0.644839,1.14306,0.4248431,-1.235525,-0.002157307,4.2,0.5,-0.2988386,0.3123694,0.120598,-0.6247089,-4.324852,-0.02410321,0.7426962,1.300706,0.3551631,-0.1443515,0.2347113,0.156662,-0.9264221,0.16977,-0.05020378,0.8409429,1.364313,0.2050519,0.3770619,1.08239,0.2809001,284.1266,237.023,6.587758,True
2,0.8111119,-0.7669059,0.4776168,-0.01638684,-1.40345,-4.521142,-2.574516,0.6417687,1.143931,0.4243681,-1.235664,-0.01276297,4.2,0.5,-0.2925346,0.3560686,0.1025316,-0.6242833,-4.315696,-0.02852565,0.7403145,1.301095,0.3547423,-0.1559984,0.244287,0.1652969,-0.9244418,0.1736702,-0.05039154,0.8393948,1.364614,0.2050483,0.3733868,1.086251,0.2808499,283.5153,237.0014,6.73603,True
2,0.8222231,-0.7529978,0.4477995,-0.01836574,-1.405395,-4.524632,-2.566112,0.6387788,1.144681,0.4237773,-1.236047,-0.03497651,4.2,0.5,-0.2882376,0.3635047,0.1046308,-0.623112,-4.308571,-0.03111717,0.7379919,1.30137,0.3542638,-0.1643597,0.2410632,0.1856027,-0.92176,0.1771023,-0.05028075,0.8376714,1.365095,0.2050042,0.3696101,1.09002,0.2808783,282.9444,237.008,6.871752,True
2,0.8333342,-0.7337726,0.4083846,-0.02029827,-1.406889,-4.527346,-2.558233,0.6357698,1.145618,0.4230733,-1.235955,0.008568872,5.6,0.6,-0.2945183,0.3656377,0.1142923,-0.6216888,-4.301341,-0.03348899,0.7355322,1.301803,0.3540039,-0.1823863,0.2453164,0.1953463,-0.9194468,0.1808097,-0.04996942,0.8359684,1.365402,0.2050126,0.3657106,1.093688,0.2809718,282.3977,237.1485,6.914876,True
2,0.8444453,-0.7092264,0.3838634,-0.03189194,-1.408104,-4.530565,-2.550816,0.6326295,1.14652,0.4224458,-1.236007,-0.004947511,5.6,0.6,-0.3200602,0.3230598,0.1261994,-0.6199168,-4.297908,-0.03202504,0.7329154,1.302287,0.3533576,-0.1855274,0.2538309,0.2017795,-0.917222,0.1848561,-0.05030152,0.8342711,1.36575,0.2050261,0.361799,1.097245,0.2810902,281.8954,237.1454,7.150051,True
2,0.8555565,-0.6985632,0.3795841,-0.03932387,-1.409786,-4.534373,-2.54281,0.6294699,1.147335,0.4217515,-1.236273,-0.02435227,5.6,0.6,-0.3532393,0.3018601,0.1180057,-0.6189602,-4.293341,-0.03065298,0.7303818,1.302505,0.3527997,-0.1970719,0.2825654,0.2211002,-0.914301,0.1903586,-0.05115826,0.8324095,1.36608,0.2049618,0.358003,1.100672,0.281167,281.4218,236.9855,7.58285,True
2,0.8666676,-0.6815364,0.3965896,-0.05111295,-1.411785,-4.539013,-2.535123,0.6262436,1.14792,0.420907,-1.236681,-0.03728937,5.6,0.6,-0.4303226,0.3042821,0.08479804,-0.6193916,-4.287501,-0.02794162,0.7273822,1.302771,0.3520703,-0.2130487,0.3134617,0.2202202,-0.9121971,0.1961205,-0.05180381,0.8304737,1.366507,0.2049224,0.3543296,1.103978,0.2811045,280.9986,236.7056,8.10162,True
2,0.8777788,-0.6624049,0.4264286,-0.05336922,-1.414519,-4.544067,-2.527544,0.6228832,1.148547,0.4202423,-1.236051,0.05786302,5.6,0.6,-0.4583437,0.3383012,0.1416756,-0.6160259,-4.279047,-0.0288953,0.7244223,1.30313,0.351357,-0.2332325,0.3251749,0.2268011,-0.909641,0.2013609,-0.0517628,0.8284623,1.366843,0.2049105,0.3506704,1.107169,0.2808927,280.5855,236.2378,8.690744,True
2,0.8888899,-0.648578,0.4392872,-0.04383424,-1.417482,-4.548631,-2.520004,0.6194418,1.149309,0.4196148,-1.236261,-0.01985894,5.9,0.9,-0.4515731,0.4085639,0.1588226,-0.6139076,-4.266696,-0.034085,0.7214009,1.303515,0.3508658,-0.2405723,0.3453935,0.2407474,-0.9066652,0.2073665,-0.05248638,0.8264073,1.367197,0.2049613,0.3469055,1.11027,0.2805838,280.1683,235.8291,9.160136,True
2,0.900001,-0.6155692,0.446873,-0.02680716,-1.420793,-4.552765,-2.513608,0.6157396,1.150193,0.4189067,-1.236304,-0.003817496,5.9,0.9,-0.4115807,0.5149179,0.1842019,-0.6115524,-4.250246,-0.04426626,0.7179789,1.303945,0.3501706,-0.2573081,0.3730313,0.277153,-0.9026156,0.2141658,-0.05330344,0.8239733,1.367683,0.2049532,0.3429709,1.11329,0.2802699,279.7297,235.4587,9.564518,True
2,0.9111122,-0.5857029,0.4235002,-0.02454826,-1.422982,-4.556129,-2.507596,0.6119763,1.151123,0.4182937,-1.2361,0.0185366,5.9,0.9,-0.367259,0.5786104,0.2254058,-0.6080764,-4.235181,-0.05404033,0.7145969,1.304371,0.3493128,-0.2677485,0.379383,0.302816,-0.8987253,0.2200726,-0.0536808,0.8217021,1.368053,0.2049708,0.3388604,1.116255,0.2800755,279.3276,235.3823,9.665231,True
2,0.9222233,-0.5718073,0.3957862,-0.03186372,-1.424564,-4.559245,-2.501231,0.6082644,1.151903,0.4175656,-1.236971,-0.07988726,5.9,0.9,-0.3692426,0.5817711,0.2382209,-0.6053759,-4.223889,-0.05900446,0.7113074,1.304628,0.3485324,-0.2739992,0.3750882,0.3199056,-0.8948919,0.2253472,-0.05380358,0.8193772,1.368549,0.2049391,0.3345903,1.119228,0.2800474,278.9847,235.6964,9.455527,True
2,0.9333345,-0.5631961,0.3477395,-0.05933696,-1.42458,-4.562084,-2.494757,0.60436,1.152678,0.4165852,-1.237109,-0.0121068,5.9,0.9,-0.4181626,0.5648301,0.2504626,-0.602407,-4.213578,-0.06093712,0.7078046,1.304867,0.3475749,-0.2770883,0.3803912,0.3327228,-0.8910047,0.2312869,-0.05434527,0.816945,1.36895,0.2048469,0.3301861,1.122237,0.2801546,278.6294,236.0726,9.284534,True
2,0.9444456,-0.5578177,0.3210353,-0.07732356,-1.424965,-4.565201,-2.488277,0.6007266,1.153496,0.4157414,-1.23648,0.05732906,8.4,1,-0.4849786,0.5596262,0.2767812,-0.5989673,-4.202346,-0.06268495,0.704183,1.305477,0.3467104,-0.277036,0.3857011,0.3391263,-0.8872726,0.2372921,-0.05504434,0.8145334,1.369314,0.2048023,0.3257925,1.125218,0.2803462,278.2302,235.972,9.653492,True
2,0.9555568,-0.5385791,0.289006,-0.09633885,-1.424942,-4.567885,-2.482636,0.5965986,1.154167,0.4147453,-1.236066,0.03722906,8.4,1,-0.531417,0.5575162,0.3156663,-0.5944452,-4.191095,-0.06461068,0.7004679,1.305897,0.3457401,-0.2941444,0.4081007,0.3307767,-0.8842995,0.2444627,-0.05569256,0.8118407,1.369563,0.2048051,0.3214427,1.128109,0.2805171,277.7978,235.4122,10.53633,True
2,0.9666679,-0.5055371,0.2751726,-0.09732461,-1.425581,-4.570423,-2.477741,0.5925013,1.154969,0.414222,-1.235918,0.01319944,8.4,1,-0.528775,0.5904527,0.3519365,-0.5900654,-4.176629,-0.07087471,0.6966162,1.306435,0.3448591,-0.3112152,0.4251614,0.3266849,-0.8811175,0.2515602,-0.05621028,0.8092395,1.36993,0.2048066,0.3171085,1.130871,0.2805429,277.4127,234.3609,11.89425,True
2,0.977779,-0.4756728,0.2549694,-0.09720648,-1.426151,-4.572736,-2.473082,0.5883222,1.155788,0.4133925,-1.236544,-0.05741293,8.4,1,-0.4823475,0.6434877,0.3930813,-0.5851375,-4.159966,-0.08097181,0.6926299,1.306704,0.3438981,-0.3324113,0.4496464,0.3396803,-0.8772889,0.2594108,-0.05678792,0.8064359,1.370443,0.2047548,0.3128461,1.133511,0.2804027,277.0815,233.2793,13.19188,True
2,0.9888902,-0.4585434,0.2091016,-0.1087074,-1.425442,-4.574229,-2.468397,0.5840187,1.156666,0.4126763,-1.237148,-0.05487886,7.7,1.2,-0.4574799,0.6625369,0.4194664,-0.580486,-4.144605,-0.08958847,0.6886321,1.307242,0.3428814,-0.3278943,0.4581091,0.3716179,-0.872369,0.266761,-0.05796743,0.8035339,1.370848,0.2046528,0.30847,1.136026,0.2800582,276.7632,231.9561,14.60851,True
2,1.000001,-0.4522018,0.235787,-0.09816951,-1.427126,-4.577477,-2.462997,0.5797345,1.157351,0.411911,-1.237164,-0.001202402,7.7,1.2,-0.4562269,0.6731503,0.4333245,-0.5759618,-4.129506,-0.09714173,0.6844934,1.307382,0.3418264,-0.335231,0.4580777,0.3866011,-0.867782,0.2737233,-0.05847237,0.8006762,1.37133,0.2045784,0.3040579,1.13839,0.2796179,276.4862,230.8349,15.71287,True
2,1.011112,-0.4319531,0.2210309,-0.07038537,-1.428493,-4.578983,-2.458633,0.5753937,1.15788,0.4110003,-1.236758,0.03688157,7.7,1.2,-0.4854411,0.6711984,0.3931707,-0.5737578,-4.115635,-0.1025466,0.6802257,1.307789,0.3404996,-0.3595143,0.4654953,0.4145153,-0.8624983,0.2813102,-0.0584681,0.7975721,1.371696,0.204365,0.2995731,1.140594,0.2791027,276.2539,229.7021,16.87189,True
2,1.022224,-0.4170682,0.2433701,-0.08113252,-1.429691,-4.582511,-2.454058,0.57109,1.158409,0.4103444,-1.236041,0.06506592,7.7,1.2,-0.4984042,0.6691434,0.3783944,-0.5709125,-4.101455,-0.108506,0.6759018,1.307937,0.3394392,-0.3626749,0.4686869,0.4188125,-0.8580481,0.2886929,-0.05919648,0.7945546,1.372076,0.204268,0.2950127,1.14265,0.2785284,276.0858,228.3508,18.23186,True
2,1.033335,-0.3968487,0.2561864,-0.08118072,-1.431122,-4.585687,-2.449874,0.5666718,1.158731,0.4092031,-1.236579,-0.04977532,7.7,1.2,-0.5141712,0.6574236,0.3977086,-0.5667068,-4.087796,-0.1140424,0.671411,1.308327,0.3381965,-0.3786966,0.478291,0.4147029,-0.8538792,0.2966125,-0.05955707,0.7914058,1.372441,0.204211,0.2903478,1.144639,0.2779849,275.8947,227.9925,18.60737,True
2,1.044446,-0.3819678,0.2764209,-0.08766257,-1.432539,-4.589384,-2.44553,0.562153,1.159336,0.408462,-1.236542,0.00367871,8.9,1.2,-0.5419008,0.6585739,0.3959107,-0.5631861,-4.073117,-0.1193376,0.6668934,1.308687,0.3373039,-0.3915246,0.4910954,0.4084398,-0.8499628,0.3048028,-0.06022259,0.7882397,1.372867,0.2041047,0.2856931,1.146547,0.277472,275.6601,227.5098,19.15344,True
2,1.055557,-0.3585295,0.2796035,-0.09617855,-1.43359,-4.592562,-2.442,0.5576663,1.159794,0.4076166,-1.23667,-0.01187544,8.9,1.2,-0.5510936,0.7022217,0.4195604,-0.5590503,-4.054726,-0.1285862,0.6624212,1.308888,0.3359871,-0.3979563,0.5124209,0.402137,-0.8461763,0.3137426,-0.06155524,0.7849689,1.373128,0.2040308,0.2809983,1.148375,0.2770723,275.4258,226.4819,20.23738,True
2,1.066668,-0.3393356,0.264699,-0.09716368,-1.43426,-4.594945,-2.438526,0.5530872,1.160196,0.4067285,-1.236399,0.02475123,8.9,1.2,-0.5110489,0.789382,0.4544956,-0.5543678,-4.031238,-0.1440842,0.6578124,1.309009,0.3347154,-0.4149486,0.5326529,0.4076568,-0.8417522,0.322918,-0.06254221,0.7815245,1.373447,0.2039154,0.276176,1.150126,0.2767818,275.1875,225.6229,21.2101,True
2,1.077779,-0.3286768,0.2561931,-0.09605305,-1.435132,-4.59751,-2.434796,0.5485942,1.160649,0.4057679,-1.236906,-0.04677853,8.9,1.2,-0.4799817,0.8489518,0.455357,-0.5511209,-4.008661,-0.1589649,0.6532344,1.309079,0.3333721,-0.4148335,0.5464783,0.4225976,-0.8369516,0.3321119,-0.06401467,0.7779773,1.373811,0.2037988,0.2712219,1.151837,0.2766546,275.0129,225.0237,21.91659,True
2,1.08889,-0.3169663,0.262585,-0.1035456,-1.436052,-4.600974,-2.431132,0.5440109,1.16087,0.4045932,-1.236697,0.01941528,11.9,1.2,-0.4747528,0.8553796,0.4446731,-0.5481632,-3.98859,-0.170866,0.6485473,1.309317,0.3321879,-0.3922765,0.5507017,0.4447872,-0.8317574,0.3411037,-0.06649381,0.774323,1.374122,0.2037108,0.2662532,1.153478,0.2766819,274.8094,224.2229,22.91693,True
2,1.100002,-0.3191092,0.2732149,-0.1057196,-1.437353,-4.604261,-2.427158,0.5395215,1.161307,0.4035842,-1.236233,0.04209124,11.9,1.2,-0.4875169,0.8276932,0.4532718,-0.5443501,-3.97134,-0.1797535,0.6439101,1.309434,0.331008,-0.3783818,0.5410981,0.4510492,-0.8269653,0.3491869,-0.06823391,0.7706058,1.37455,0.203594,0.2613036,1.155012,0.2767578,274.594,223.5448,23.87681,True
2,1.111113,-0.3191965,0.32753,-0.1091696,-1.439962,-4.609375,-2.422905,0.5349002,1.161265,0.4024427,-1.2362,0.002544009,11.9,1.2,-0.4989042,0.727708,0.4137512,-0.5417434,-3.96042,-0.183013,0.6392282,1.309505,0.3298163,-0.3527323,0.5282948,0.4625329,-0.8218792,0.35716,-0.07051864,0.7666909,1.374747,0.2034767,0.2563662,1.156455,0.2767768,274.3929,223.08,24.64988,True
2,1.122224,-0.3160248,0.3424685,-0.1039127,-1.442001,-4.613156,-2.419062,0.530259,1.161488,0.4014294,-1.235728,0.04300675,11.9,1.2,-0.4981484,0.6457115,0.4050101,-0.5384896,-3.950288,-0.1862966,0.6345218,1.309526,0.3286185,-0.3516391,0.5240327,0.4667922,-0.8168506,0.3657082,-0.07232054,0.7629564,1.375061,0.2032766,0.2513892,1.157823,0.2766866,274.2085,222.5815,25.41041,True
2,1.133335,-0.3043013,0.3361508,-0.09215969,-1.443925,-4.616263,-2.415671,0.5253814,1.161581,0.4003892,-1.235531,0.01757419,11.9,1.2,-0.4986969,0.6074588,0.3686891,-0.5365945,-3.93835,-0.1906853,0.629639,1.309567,0.32739,-0.3442424,0.5283052,0.4592818,-0.8124069,0.3745092,-0.07476851,0.7590142,1.375268,0.2030759,0.2463786,1.159175,0.2765111,274.0483,222.3226,25.83463,True
2,1.144446,-0.2957237,0.3010535,-0.08239478,-1.444944,-4.618157,-2.412466,0.5205352,1.161655,0.399318,-1.235663,-0.01222135,11.1,1.2,-0.4558105,0.6203433,0.2978871,-0.5373961,-3.922768,-0.2000146,0.6245253,1.309703,0.3261104,-0.3368493,0.5304612,0.4507252,-0.8079951,0.3835338,-0.07747535,0.7550796,1.375568,0.2028458,0.2412493,1.160547,0.2763412,273.8311,222.0747,26.2014,True
2,1.155557,-0.2903525,0.278692,-0.08335347,-1.445839,-4.620647,-2.409172,0.5157683,1.16163,0.3981395,-1.235952,-0.02629272,11.1,1.2,-0.4249551,0.6394511,0.2901204,-0.535951,-3.906791,-0.2099551,0.6196016,1.309536,0.3247972,-0.3314559,0.5208948,0.4581197,-0.8030165,0.3922101,-0.07989962,0.7510165,1.375594,0.2024102,0.2360667,1.16195,0.2762018,273.6117,221.6489,26.78273,True
2,1.166668,-0.2850469,0.2925557,-0.08234972,-1.447663,-4.624043,-2.405755,0.5109327,1.161504,0.396965,-1.235903,0.004639435,11.1,1.2,-0.4110842,0.6586141,0.2878841,-0.5344778,-3.8896,-0.2204354,0.6145644,1.309215,0.323226,-0.3250356,0.5070426,0.4623013,-0.7981707,0.4001225,-0.08197369,0.7469745,1.375766,0.2021708,0.2308529,1.163337,0.2760342,273.3521,220.4884,28.16426,True
2,1.17778,-0.2765709,0.3192295,-0.07500911,-1.450259,-4.627717,-2.402525,0.506147,1.161277,0.3957815,-1.23577,0.01199854,11.1,1.2,-0.4238229,0.6628981,0.2912413,-0.5327941,-3.873746,-0.2288332,0.6095825,1.309017,0.321841,-0.3142311,0.4942206,0.4824301,-0.7925029,0.4079402,-0.08423632,0.7426603,1.375887,0.2018495,0.2257339,1.164621,0.2757408,273.0947,218.4329,30.47234,True
2,1.188891,-0.2692654,0.4077527,-0.05623882,-1.455317,-4.633276,-2.399047,0.5013038,1.160763,0.3945773,-1.235643,0.01134956,9.8,1.2,-0.4582872,0.6650202,0.3513197,-0.528703,-3.855372,-0.2381865,0.6043195,1.308987,0.3202782,-0.3066303,0.4877945,0.5004658,-0.7867931,0.4161197,-0.08680387,0.7383639,1.375987,0.2014663,0.2206929,1.165763,0.2752847,272.8695,215.86,33.22451,True
2,1.200002,-0.2671905,0.4440129,-0.04788432,-1.459193,-4.637919,-2.395705,0.4965518,1.160467,0.3933702,-1.235758,-0.01057475,9.8,1.2,-0.477109,0.6639282,0.3813862,-0.5252861,-3.838681,-0.2469288,0.5992002,1.308699,0.3183439,-0.3043551,0.4825951,0.5078419,-0.7813731,0.4248503,-0.08943082,0.7340581,1.376162,0.2011528,0.2156227,1.166785,0.2747347,272.6588,213.9232,35.23206,True
2,1.211113,-0.2640629,0.4824225,-0.03740144,-1.463699,-4.642834,-2.392328,0.4917614,1.160038,0.392246,-1.235644,0.01039869,9.8,1.2,-0.5066869,0.6874064,0.3977646,-0.5225069,-3.819994,-0.2564928,0.5941738,1.308322,0.3166788,-0.2873704,0.4888624,0.510968,-0.7760957,0.4333862,-0.09298134,0.7296724,1.376146,0.2008274,0.210476,1.167707,0.2742103,272.4237,213.0023,36.16076,True
2,1.222224,-0.2608555,0.4760456,-0.03734654,-1.46699,-4.646729,-2.389186,0.4868541,1.159812,0.3912551,-1.235558,0.007764135,9.8,1.2,-0.510987,0.7279319,0.3840678,-0.5214016,-3.800149,-0.2680187,0.5893172,1.307778,0.3150468,-0.2725124,0.4835632,0.5033789,-0.7713356,0.4416739,-0.09641895,0.7253687,1.376262,0.2004762,0.2051739,1.168572,0.2738799,272.1396,214.0569,35.14049,True
2,1.233335,-0.2544141,0.4461988,-0.0435949,-1.469122,-4.650007,-2.386254,0.4820378,1.15947,0.3901649,-1.235455,0.009322118,9.8,1.2,-0.4939148,0.7406788,0.378513,-0.5203721,-3.782505,-0.2790833,0.5841101,1.307801,0.3128467,-0.2544154,0.4782349,0.5032174,-0.766388,0.4497606,-0.09996867,0.7210766,1.376175,0.2001491,0.1998248,1.169396,0.2737976,271.9021,215.8053,33.54723,True
2,1.244446,-0.2585753,0.389679,-0.05713338,-1.470466,-4.652308,-2.383117,0.4769938,1.159327,0.3893421,-1.235492,-0.003466521,12.3,1.5,-0.46137,0.7182997,0.34292,-0.5198756,-3.767536,-0.2879503,0.5794638,1.307173,0.3115833,-0.2404911,0.4750369,0.5116148,-0.761051,0.4581861,-0.1038465,0.7166809,1.376039,0.1996992,0.1944502,1.170215,0.2739661,271.6693,218.1948,31.39344,True
2,1.255558,-0.2627717,0.3586966,-0.07509741,-1.471458,-4.655405,-2.379876,0.4721615,1.158933,0.3881657,-1.23557,-0.007222063,12.3,1.5,-0.4479837,0.6842505,0.3107219,-0.5195177,-3.754107,-0.2951829,0.5745127,1.306663,0.310034,-0.2458691,0.4750435,0.5073953,-0.7561566,0.466575,-0.1069262,0.7123843,1.375899,0.1992962,0.1890969,1.171046,0.2743049,271.447,219.6416,30.27586,True
2,1.266669,-0.2690712,0.3105661,-0.1142938,-1.470762,-4.658456,-2.376366,0.4673369,1.158445,0.3868883,-1.235213,0.03266932,12.3,1.5,-0.4304665,0.6437981,0.2699445,-0.5195827,-3.74248,-0.3010016,0.5694654,1.305846,0.3087335,-0.265048,0.4857082,0.5065004,-0.7512959,0.475774,-0.1100045,0.7079122,1.375815,0.1986957,0.1838369,1.17185,0.2746747,271.2265,218.4092,31.88001,True
2,1.27778,-0.2701205,0.3041295,-0.1269808,-1.472474,-4.661788,-2.373198,0.4625546,1.158219,0.3858616,-1.23511,0.00913167,12.3,1.5,-0.427321,0.6416969,0.267722,-0.5192514,-3.726783,-0.30972,0.5648046,1.305122,0.3070493,-0.268218,0.4846384,0.5097204,-0.7461985,0.484439,-0.1132786,0.7035927,1.375667,0.1982009,0.1786,1.172645,0.2749394,271.0243,214.8031,35.82894,True
2,1.288891,-0.2604899,0.2795944,-0.1375178,-1.472673,-4.664704,-2.370379,0.4577923,1.157807,0.3847685,-1.23482,0.02643118,12.3,1.5,-0.4193109,0.6639334,0.3113752,-0.5169851,-3.708132,-0.3215325,0.5599619,1.304437,0.3054473,-0.2413481,0.4867225,0.5393195,-0.7400025,0.493563,-0.1182412,0.6991795,1.375292,0.19768,0.1734573,1.173373,0.2750081,270.8323,204.078,46.90187,True
2,1.300002,-0.2561936,0.2614833,-0.1395625,-1.473204,-4.667454,-2.3675,0.453163,1.157434,0.3836479,-1.235157,-0.03103486,12.2,1.4,-0.4082244,0.6904677,0.3422066,-0.5152493,-3.688416,-0.3346126,0.554844,1.303416,0.3038065,-0.229544,0.4803334,0.5519723,-0.734291,0.5025051,-0.1225984,0.694912,1.375051,0.1971922,0.1683911,1.174009,0.2748272,270.7554,189.4404,61.77731,True
2,1.311113,-0.2603754,0.2124588,-0.142535,-1.472488,-4.66908,-2.364344,0.4485838,1.15693,0.3825371,-1.235488,-0.02997806,12.2,1.4,-0.4023406,0.7372267,0.3806117,-0.5133307,-3.666158,-0.3497221,0.5502264,1.302666,0.3022702,-0.2265013,0.4739841,0.5348971,-0.729605,0.5111694,-0.1265031,0.6906799,1.374559,0.1967933,0.1633726,1.174625,0.2744678,270.6856,179.679,71.63293,True
2,1.322224,-0.2614174,0.1986276,-0.1382111,-1.472782,-4.671322,-2.361227,0.4440798,1.156418,0.3813539,-1.235394,0.008798987,12.2,1.4,-0.4074348,0.7499451,0.3998329,-0.5117994,-3.647075,-0.361824,0.5451974,1.30213,0.3002133,-0.2288328,0.4686992,0.5104045,-0.7255266,0.5195267,-0.130125,0.6865366,1.374106,0.1963441,0.1584575,1.17518,0.2739747,270.6898,165.7375,85.65108,True
2,1.333336,-0.2635422,0.1943727,-0.1360615,-1.473132,-4.67374,-2.357991,0.4396459,1.155819,0.3802116,-1.234957,0.03986507,12.2,1.4,-0.4170014,0.7307804,0.4062879,-0.5100247,-3.629329,-0.3723879,0.5406125,1.301394,0.2986107,-0.2333778,0.4613017,0.4784601,-0.7220778,0.5275826,-0.1332483,0.6824604,1.373552,0.1958482,0.1536917,1.175652,0.273376,270.7559,152.0736,99.40197,True
2,1.344447,-0.263487,0.2370802,-0.125795,-1.474642,-4.677012,-2.35485,0.4353035,1.155215,0.3791089,-1.234998,-0.004151745,10.8,2.3,-0.4190578,0.6809815,0.3891825,-0.5089578,-3.614031,-0.3807114,0.5361202,1.30033,0.297009,-0.2238939,0.4421442,0.4676967,-0.7177927,0.5349681,-0.1366231,0.6782575,1.373007,0.1952848,0.1490801,1.176019,0.2726454,270.8812,141.847,109.7158,True
2,1.355558,-0.2594125,0.2732781,-0.1225774,-1.477433,-4.681415,-2.351644,0.4310694,1.154488,0.3780866,-1.234909,0.008235386,10.8,2.3,-0.4014018,0.64127,0.3920619,-0.5066829,-3.601464,-0.3884061,0.5317038,1.299546,0.2955101,-0.2003892,0.4133734,0.4812721,-0.7127551,0.541715,-0.1400943,0.6742259,1.372541,0.1946177,0.1445465,1.176325,0.271816,270.9907,134.6516,116.9476,True
2,1.366669,-0.2552281,0.3234113,-0.1100176,-1.480632,-4.685635,-2.348727,0.4268657,1.15357,0.3770754,-1.235078,-0.01549327,10.8,2.3,-0.3495871,0.5985507,0.3690052,-0.5054951,-3.589083,-0.3971702,0.527506,1.298215,0.2941499,-0.1896665,0.3877877,0.4907317,-0.7075412,0.5480375,-0.1432024,0.6701508,1.372043,0.19396,0.1400482,1.176605,0.2709747,271.0873,129.4759,122.1008,True
2,1.37778,-0.2531187,0.335162,-0.103679,-1.482898,-4.689191,-2.345689,0.4226135,1.152808,0.3760345,-1.235127,-0.004347121,10.8,2.3,-0.3296784,0.6049534,0.3389717,-0.5055963,-3.57354,-0.4076586,0.5232257,1.297192,0.2926643,-0.1544107,0.3398406,0.5148273,-0.7017014,0.5530937,-0.1459412,0.6662166,1.371504,0.1931388,0.1355443,1.176914,0.2702738,271.1526,124.1873,127.32,True
2,1.388891,-0.2552509,0.3341557,-0.09196571,-1.484948,-4.692275,-2.342452,0.4184492,1.151988,0.374958,-1.235367,-0.02195117,10.8,2.3,-0.3224004,0.6017675,0.3229172,-0.5054579,-3.558683,-0.4173634,0.5189719,1.296418,0.2917387,-0.1405196,0.3206533,0.5221422,-0.6961849,0.5591109,-0.1493778,0.6622667,1.370848,0.1925693,0.1310331,1.177277,0.269894,271.2205,116.0766,135.396,True
2,1.400002,-0.2563027,0.3235245,-0.08659162,-1.48662,-4.695028,-2.339317,0.4142939,1.151206,0.3738694,-1.235171,0.01805046,11.6,2,-0.3239276,0.5677466,0.2930242,-0.5053204,-3.547128,-0.4236245,0.5148855,1.295391,0.2903867,-0.1290389,0.3047529,0.5027941,-0.6921865,0.5650058,-0.1522718,0.6586524,1.370294,0.1919904,0.1265313,1.177658,0.2698968,271.3436,105.8204,145.7765,True
2,1.411114,-0.242418,0.2990789,-0.07901715,-1.487988,-4.697193,-2.336896,0.4104918,1.150442,0.3728518,-1.23488,0.0265174,11.6,2,-0.3246378,0.5103424,0.2428412,-0.5058669,-3.539199,-0.4270424,0.5109434,1.294496,0.2892859,-0.1304029,0.3047995,0.4687138,-0.6887425,0.5711918,-0.1553289,0.6549456,1.369621,0.1914468,0.1220319,1.178034,0.2701855,271.5053,97.55767,154.3487,True
2,1.422225,-0.2328225,0.2980305,-0.07794023,-1.48978,-4.70007,-2.334463,0.4064596,1.14969,0.3717241,-1.234922,-0.004086601,11.6,2,-0.3131008,0.4826227,0.235195,-0.5053945,-3.528417,-0.4332356,0.5069351,1.293553,0.2879708,-0.1465757,0.300595,0.4443372,-0.6849789,0.5775042,-0.1580551,0.6507722,1.368842,0.190943,0.117596,1.178382,0.2705989,271.6777,90.90913,161.4119,True
2,1.433336,-0.2200695,0.3172257,-0.07802399,-1.492197,-4.703619,-2.332176,0.4027419,1.148844,0.3707483,-1.235581,-0.06019872,11.6,2,-0.2937662,0.4750792,0.2488146,-0.5045438,-3.515925,-0.4417606,0.5030437,1.292535,0.2866378,-0.1370065,0.2846277,0.4421065,-0.6804755,0.5830715,-0.1611689,0.6469786,1.368034,0.1903293,0.1133099,1.178684,0.2709723,271.8436,85.83378,166.9088,True
2,1.444447,-0.214781,0.3428127,-0.07600804,-1.495095,-4.707487,-2.329682,0.3991461,1.147922,0.3697565,-1.235644,-0.005311743,12,2.3,-0.2924969,0.4814289,0.2648155,-0.503665,-3.501858,-0.450932,0.4992538,1.291737,0.2850161,-0.1198813,0.2792924,0.4515486,-0.6757217,0.5891973,-0.1651719,0.6433473,1.367272,0.1897142,0.1092757,1.178903,0.2711777,272.0175,82.17847,170.9166,True
2,1.455558,-0.2105303,0.3481702,-0.07070476,-1.497637,-4.710727,-2.327242,0.3953976,1.14705,0.3688266,-1.235756,-0.01031379,12,2.3,-0.2989053,0.493175,0.2606572,-0.5037657,-3.48836,-0.4592017,0.4954183,1.290747,0.2837296,-0.1091396,0.2867115,0.4600347,-0.6706372,0.5961621,-0.1699115,0.6395668,1.366558,0.1892254,0.105283,1.17908,0.2711719,272.2,79.51046,173.8072,True
2,1.466669,-0.2094488,0.3354488,-0.05999665,-1.499858,1.569877,-2.324667,0.3917956,1.146082,0.3679352,-1.235494,0.02397041,12,2.3,-0.3148908,0.4942889,0.2576891,-0.5035894,-3.475261,-0.4668617,0.4917247,1.289646,0.2823043,-0.1155725,0.2856704,0.4547499,-0.6664348,0.6026937,-0.1735116,0.6361179,1.365888,0.1888242,0.1014074,1.179179,0.2710513,272.3761,77.32352,176.085,True
2,1.47778,-0.1966113,0.2950422,-0.04809775,-1.501075,1.568411,-2.322715,0.3882678,1.145296,0.3668506,-1.235394,0.008908444,12,2.3,-0.3120869,0.4730575,0.2288389,-0.5042083,-3.464973,-0.4724272,0.4881209,1.28853,0.281049,-0.11909,0.2708141,0.4153413,-0.6635388,0.6077327,-0.1759572,0.6327793,1.365184,0.188395,0.0975877,1.17922,0.2709135,272.5404,75.21545,178.2522,True
2,1.488891,-0.173169,0.2887413,-0.03634198,-1.503224,1.566369,-2.321451,0.3847989,1.144454,0.3659568,-1.235152,0.02203823,12,2.3,-0.3175796,0.4518014,0.2171521,-0.504399,-3.454921,-0.4777064,0.4845892,1.287627,0.2798831,-0.1171155,0.2655273,0.3961354,-0.6603697,0.6134269,-0.1792017,0.6293775,1.364403,0.1880529,0.09375222,1.179228,0.2707896,272.7036,73.5248,180.0388,True
2,1.500003,-0.1689626,0.3238924,-0.03863305,-1.506372,1.562729,-2.319504,0.3814741,1.143601,0.3651471,-1.235623,-0.04325862,13.3,2.4,-0.3004025,0.4239906,0.2350352,-0.5028607,-3.444452,-0.4842242,0.4814269,1.286454,0.2787941,-0.09786332,0.2740383,0.4045278,-0.6561257,0.6204178,-0.184364,0.6261288,1.363723,0.1876767,0.09000717,1.179178,0.2706462,272.8521,71.86507,181.8767,True
2,1.511114,-0.1721705,0.32814,-0.04079075,-1.508798,1.55958,-2.317174,0.3783466,1.142631,0.3641331,-1.236319,-0.06336653,13.3,2.4,-0.2826384,0.3664718,0.2176377,-0.502358,-3.438366,-0.4871084,0.4781647,1.285491,0.2775443,-0.07651365,0.2889549,0.4107617,-0.6522012,0.6280223,-0.1900988,0.6231453,1.362828,0.1871626,0.08640499,1.179067,0.2703737,272.9733,70.6328,183.3138,True
2,1.522225,-0.174265,0.3067984,-0.04180425,-1.50981,1.55737,-2.314988,0.375307,1.140656,0.3607206,-1.235688,0.05814165,13.3,2.4,-0.2822398,0.3154603,0.1758908,-0.5025848,-3.433998,-0.4876016,0.4751122,1.284195,0.2764056,-0.0703162,0.295383,0.3862211,-0.649489,0.6348252,-0.1949237,0.6201295,1.362041,0.1867285,0.08291038,1.178898,0.2700115,273.0931,69.40878,184.5961,True
2,1.533336,-0.1752884,0.2812099,-0.04594709,-1.511068,1.555342,-2.312888,0.3721258,1.139793,0.3597927,-1.235098,0.05330718,13.3,2.4,-0.2869027,0.2782515,0.1471538,-0.5029273,-3.42951,-0.4882301,0.47182,1.283388,0.2751405,-0.079952,0.2634316,0.3819993,-0.6457377,0.6392924,-0.1972207,0.6170684,1.361284,0.1863546,0.07946629,1.178705,0.269724,273.2004,67.94971,186.0457,True
2,1.544447,-0.1603133,0.2481571,-0.05857047,-1.511626,1.553391,-2.311521,0.3691332,1.13892,0.3589389,-1.23509,0.000360787,13.3,2.4,-0.2866585,0.2739375,0.1705796,-0.501919,-3.420829,-0.4924906,0.4688693,1.28237,0.274044,-0.08843488,0.2506419,0.3873737,-0.6417968,0.6446021,-0.2001959,0.6140636,1.360551,0.1859453,0.07617162,1.178434,0.2694621,273.4761,66.31193,188.0819,True
2,1.555558,-0.1506966,0.2311022,-0.06276603,-1.512328,1.551327,-2.310038,0.3661284,1.138101,0.3581648,-1.235152,-0.005679789,12.7,3,-0.2780243,0.2834827,0.1779622,-0.5016037,-3.412262,-0.4972167,0.4658578,1.281362,0.2729356,-0.08961266,0.2496036,0.3735395,-0.6386697,0.6505743,-0.2039707,0.6111364,1.359873,0.1857028,0.0730568,1.177923,0.2687643,273.832,65.59961,189.4316,True
2,1.566669,-0.1346904,0.2140873,-0.06161573,-1.513243,1.549676,-2.309027,0.3632981,1.137308,0.3573756,-1.235848,-0.06359463,12.7,3,-0.2630127,0.3271161,0.1779166,-0.5023345,-3.40068,-0.5047956,0.4629735,1.280488,0.2719631,-0.09095135,0.2666974,0.3394849,-0.6368588,0.6572676,-0.2082475,0.6084089,1.359156,0.1853554,0.06993958,1.177316,0.2677131,273.8524,65.93958,189.0925,True
2,1.577781,-0.1293488,0.2023962,-0.05836764,-1.514318,1.547942,-2.307592,0.3606011,1.13663,0.3565226,-1.235736,0.01073914,12.7,3,-0.2544129,0.3185403,0.188446,-0.5017278,-3.392222,-0.5094707,0.4601231,1.279446,0.2709153,-0.0879021,0.2528639,0.3202752,-0.6343522,0.6619421,-0.2112497,0.605565,1.358543,0.1849897,0.0668655,1.176686,0.266577,273.7449,67.10764,187.6107,True
2,1.588892,-0.1133549,0.19709,-0.06151036,-1.515353,1.545825,-2.306753,0.3579161,1.135887,0.3557463,-1.236056,-0.02947769,12.7,3,-0.2842848,0.3175751,0.1845284,-0.5018205,-3.38404,-0.5124625,0.4572849,1.2788,0.2699513,-0.08495814,0.2252215,0.288249,-0.6326818,0.6651968,-0.2130582,0.6029605,1.357851,0.1846237,0.06380983,1.176115,0.2656091,273.6498,67.99562,186.422,True
2,1.600003,-0.09631029,0.1949735,-0.06257765,-1.51633,1.544055,-2.306163,0.3552942,1.135161,0.3550224,-1.235568,0.04475608,14.2,3.6,-0.2756203,0.3207153,0.197224,-0.5013347,-3.374436,-0.517955,0.4547216,1.277931,0.2691543,-0.07861549,0.2188311,0.280755,-0.6300815,0.670004,-0.2164103,0.6004547,1.357225,0.1842673,0.06087137,1.175614,0.2649218,273.6217,67.90457,186.4008,True
2,1.611114,-0.08565164,0.19183,-0.05509435,-1.517702,1.542416,-2.305436,0.3527489,1.134374,0.3543935,-1.236024,-0.0421198,14.2,3.6,-0.2367675,0.3599476,0.2309723,-0.5008213,-3.360881,-0.5285056,0.4522133,1.277059,0.2681282,-0.07226121,0.2177671,0.2785707,-0.6276485,0.6751215,-0.2197824,0.5978661,1.356538,0.1840923,0.05804653,1.175223,0.2645178,273.6373,67.30923,187.0551,True
2,1.622225,-0.08349419,0.1726975,-0.0464827,-1.518535,1.541317,-2.304507,0.3502297,1.133631,0.3537788,-1.23619,-0.01496204,14.2,3.6,-0.2136363,0.3375603,0.2114691,-0.500882,-3.353188,-0.533371,0.449693,1.275985,0.2673018,-0.05310458,0.2177689,0.2741755,-0.625135,0.6804978,-0.2242824,0.595382,1.355917,0.183826,0.05532202,1.174926,0.2643811,273.7318,67.04922,187.4524,True
2,1.633336,-0.08666456,0.1556612,-0.04427594,-1.519141,1.540151,-2.303336,0.3477762,1.13286,0.3531487,-1.235924,0.0243568,14.2,3.6,-0.2174816,0.2790883,0.1687472,-0.5010631,-3.350523,-0.5331821,0.447206,1.275123,0.2665064,-0.04782322,0.2188422,0.269869,-0.6229741,0.6856629,-0.2280209,0.5929091,1.355196,0.1835577,0.05269719,1.174663,0.2644618,273.8826,66.68675,187.988,True
2,1.644447,-0.08663467,0.1354456,-0.03885502,-1.519593,1.539413,-2.30233,0.3454188,1.132169,0.3525393,-1.235548,0.03407472,14.2,3.6,-0.2146716,0.2269283,0.1494052,-0.5004852,-3.348277,-0.5324841,0.4448814,1.274225,0.2658746,-0.04790565,0.2295153,0.2581744,-0.6211903,0.6915807,-0.2322804,0.5908749,1.354746,0.1833436,0.05014864,1.174388,0.2646903,274.0511,65.94594,188.9332,True
2,1.655559,-0.08555766,0.1290358,-0.04308631,-1.520079,1.538138,-2.301327,0.3430893,1.131551,0.3519206,-1.235201,0.03141357,11,3,-0.2006104,0.1588581,0.09260504,-0.5009151,-3.34913,-0.5296897,0.4425733,1.273479,0.265224,-0.04915982,0.226366,0.2336667,-0.6201559,0.6963622,-0.2355995,0.5886114,1.354211,0.1831093,0.04764566,1.174078,0.2649486,274.1963,65.33176,189.7931,True
2,1.66667,-0.07063093,0.1194518,-0.04623386,-1.520417,1.536982,-2.300923,0.3408552,1.131012,0.3512955,-1.235269,-0.006481178,11,3,-0.1829678,0.1312009,0.05823859,-0.501576,-3.348705,-0.5286023,0.4404233,1.272629,0.2645643,-0.04823828,0.208275,0.2176512,-0.6187083,0.6998706,-0.2378829,0.5865192,1.353585,0.1829278,0.04519148,1.173726,0.2651303,274.2977,64.86079,190.5047,True
2,1.677781,-0.06528657,0.1077494,-0.04511455,-1.52074,1.536033,-2.300302,0.3386719,1.130456,0.3506386,-1.23528,-0.0008994536,11,3,-0.1712808,0.1258429,0.05808888,-0.5016026,-3.345368,-0.5297738,0.438211,1.271988,0.2638612,-0.04077558,0.1869683,0.2196888,-0.616582,0.7033121,-0.2404432,0.5843996,1.353111,0.1826172,0.04280257,1.173349,0.265153,274.3525,64.42491,191.1293,True
2,1.688892,-0.05885484,0.08219763,-0.04392811,-1.520485,1.535669,-2.299838,0.3366426,1.129954,0.3500161,-1.235819,-0.0493833,11,3,-0.1657653,0.1140612,0.07717165,-0.5007494,-3.342083,-0.5309896,0.4361966,1.27137,0.2631536,-0.03755774,0.1773743,0.2228439,-0.614468,0.7071038,-0.2432052,0.5822886,1.352561,0.1821702,0.04044902,1.172988,0.2650035,274.3695,64.17819,191.4875,True
2,1.700003,-0.0556485,0.07154373,-0.04494393,-1.520429,1.534952,-2.29916,0.3347318,1.129438,0.3494031,-1.235577,0.02254122,9.8,3.1,-0.1687768,0.125756,0.09109202,-0.5003403,-3.337093,-0.5332698,0.4342552,1.270697,0.2624063,-0.04303506,0.1624955,0.2036923,-0.6132163,0.7102342,-0.2451144,0.5804388,1.352046,0.1818509,0.03817694,1.172635,0.264698,274.3894,64.20902,191.5131,True
2,1.711114,-0.05032042,0.07153228,-0.04920334,-1.52058,1.533889,-2.298723,0.3327815,1.128874,0.3488266,-1.235591,-0.00157666,9.8,3.1,-0.170518,0.1661873,0.1167872,-0.5002546,-3.328922,-0.5383093,0.4323086,1.270167,0.2616711,-0.03561437,0.1582512,0.1993647,-0.6116354,0.7141945,-0.2481941,0.5784556,1.351481,0.1817889,0.03601323,1.172271,0.2642477,274.4133,64.33924,191.4121,True
2,1.722225,-0.03970112,0.09180138,-0.04716273,-1.521566,1.532387,-2.298523,0.3310482,1.12822,0.3483469,-1.235335,0.02336112,9.8,3.1,-0.1584617,0.1831353,0.1422614,-0.4995312,-3.321769,-0.5431975,0.4304595,1.269498,0.2609994,-0.03033264,0.1540004,0.1939813,-0.6102101,0.7177033,-0.2508426,0.5765845,1.350951,0.1815696,0.03401797,1.171877,0.2636546,274.4238,64.77486,190.9742,True
2,1.733337,-0.03865241,0.1056693,-0.04402699,-1.52256,1.53104,-2.298136,0.3291341,1.127607,0.3478172,-1.235508,-0.01604102,9.8,3.1,-0.1478305,0.196972,0.1379239,-0.499658,-3.315487,-0.5473155,0.4285529,1.268872,0.2603338,-0.01650059,0.1561313,0.1917443,-0.6086932,0.7216512,-0.2543875,0.5747077,1.350483,0.1813593,0.03213593,1.171477,0.2629756,274.4272,65.39283,190.2953,True
2,1.744448,-0.03761581,0.118549,-0.02385605,-1.524025,1.530072,-2.297668,0.3273711,1.127181,0.3481791,-1.235724,-0.01961569,9.8,3.1,-0.1469339,0.1980732,0.1230013,-0.5000916,-3.310415,-0.55013,0.4267135,1.268262,0.2597907,-0.008103192,0.1657417,0.1767817,-0.6077717,0.7261602,-0.2582062,0.5728814,1.350092,0.1811264,0.03030087,1.171085,0.2623197,274.4511,66.04293,189.5261,True
2,1.755559,-0.0291277,0.1399507,-0.005843058,-1.525985,1.528978,-2.297656,0.3256742,1.126569,0.3477273,-1.235477,0.0226783,8.6,2.6,-0.1357667,0.1533994,0.0865292,-0.500457,-3.310078,-0.5490434,0.4248832,1.267718,0.2592564,-0.02545968,0.1274612,0.1406306,-0.6075698,0.726779,-0.2575721,0.5712731,1.34966,0.1807632,0.02850672,1.170679,0.2618189,274.5035,66.22794,189.2237,True
2,1.76667,-0.03021505,0.1591301,0.0004115105,-1.527187,1.527355,-2.297287,0.3240273,1.125859,0.3471389,-1.235283,0.01743595,8.6,2.6,-0.1309739,0.0991445,0.05224121,-0.5005789,-3.311785,-0.5462388,0.4231877,1.267213,0.2587593,-0.02436271,0.1178771,0.1427272,-0.6063661,0.7293383,-0.2596161,0.5695965,1.349109,0.1804671,0.02663767,1.170292,0.2615552,274.5212,66.14056,189.1817,True
2,1.777781,-0.02814866,0.1953369,-0.004023179,-1.529609,1.524859,-2.296784,0.3226417,1.125335,0.346648,-1.235671,-0.03552609,8.6,2.6,-0.1213065,0.0809716,0.06487203,-0.4996197,-3.309729,-0.5467387,0.4216035,1.26669,0.2582636,-0.02117008,0.1253375,0.143777,-0.6052007,0.7331502,-0.2624801,0.5679644,1.348722,0.1802399,0.02477557,1.169945,0.2616535,274.5077,65.27987,189.9413,True
2,1.788892,-0.02072327,0.2198381,-0.004160739,-1.531625,1.522556,-2.296785,0.3212363,1.124671,0.3462515,-1.235322,0.03209001,8.6,2.6,-0.1116379,0.08412622,0.07116155,-0.4992671,-3.306741,-0.5484599,0.4201259,1.266138,0.2577817,-0.01690133,0.1295962,0.1437395,-0.604219,0.7364743,-0.2652591,0.5663532,1.348349,0.1802602,0.0229778,1.169609,0.2620283,274.5989,63.85147,191.5612,True
2,1.800003,-0.01753457,0.2241217,-0.0009820834,-1.53368,1.520912,-2.29662,0.3198049,1.12419,0.3458061,-1.235132,0.01701151,5.4,2.5,-0.1041282,0.09795345,0.07324566,-0.4993885,-3.302532,-0.5511231,0.4187041,1.265686,0.2573471,-0.02017102,0.1360084,0.1352492,-0.6035538,0.740097,-0.2677816,0.5649462,1.347948,0.1800919,0.02126305,1.169242,0.262543,274.702,62.61071,193.1143,True
2,1.811115,-0.01858335,0.2134722,0.0001327991,-1.535229,1.519582,-2.296312,0.318444,1.123642,0.345403,-1.235569,-0.04007535,5.4,2.5,-0.09679763,0.07771028,0.0667171,-0.499038,-3.301669,-0.5510642,0.4172319,1.265105,0.2568738,-0.01693484,0.1296208,0.1405277,-0.6023697,0.7431986,-0.2702195,0.5635192,1.347495,0.180043,0.0196607,1.168881,0.2631526,274.7651,61.02898,194.9592,True
2,1.822226,-0.01856005,0.1975011,0.0002040789,-1.536518,1.51837,-2.29602,0.3171916,1.123092,0.3450418,-1.235375,0.01806323,5.4,2.5,-0.09580718,0.074523,0.06243381,-0.4988948,-3.299828,-0.5513686,0.4158168,1.264621,0.2566366,-0.005208984,0.1274862,0.1414973,-0.6011602,0.7462251,-0.2730515,0.5620677,1.347136,0.1799083,0.01814414,1.168527,0.2638108,274.8513,59.63476,196.59,True
2,1.833337,-0.01854996,0.187931,0.00237529,-1.537959,1.517106,-2.295689,0.3158213,1.122668,0.3446698,-1.235145,0.02082513,5.4,2.5,-0.0928779,0.07031438,0.04001842,-0.4995041,-3.298821,-0.5513215,0.4143993,1.264127,0.256274,-0.0009879321,0.1381463,0.1372105,-0.6004587,0.7500961,-0.2762478,0.5606747,1.346669,0.179858,0.01665337,1.168209,0.2644189,274.9412,58.19254,198.2843,True
2,1.844448,-0.01960197,0.179407,0.00241489,-1.53925,1.51601,-2.295399,0.3144904,1.122185,0.3443258,-1.235106,0.00333485,5.4,2.5,-0.08909676,0.04056608,0.00474111,-0.5002066,-3.300979,-0.5485683,0.4129958,1.263702,0.2559431,-0.007458761,0.136021,0.1276699,-0.5997902,0.7528037,-0.2781512,0.559283,1.346326,0.1797664,0.01523661,1.167901,0.2648789,275.0308,57.23993,199.4669,True
2,1.855559,-0.005713026,0.1570334,-0.003868856,-1.53987,1.515044,-2.295781,0.3132748,1.121774,0.3440135,-1.235054,0.004806835,5.4,2.5,-0.09586323,0.002303034,-0.01871871,-0.5004485,-3.304102,-0.5444137,0.4116551,1.263362,0.2554438,-0.01705536,0.1264384,0.1277327,-0.5986711,0.7553511,-0.2796404,0.5580093,1.346145,0.179682,0.01388899,1.167603,0.2651416,275.1027,56.60091,200.2624,True
2,1.86667,0.003906406,0.1389036,-0.01123654,-1.540316,1.51415,-2.296122,0.3120227,1.121412,0.3437068,-1.235072,-0.001739308,5.4,2.5,-0.1008346,0.03101667,0.00591529,-0.5003834,-3.300821,-0.5460226,0.4103239,1.262966,0.2550583,-0.02136579,0.1307099,0.1213809,-0.5980362,0.7585834,-0.2819102,0.5567245,1.345847,0.1795864,0.01250964,1.167359,0.2652118,275.1601,56.0709,200.8686,True
2,1.877781,0.01353987,0.1080217,-0.01322261,-1.540298,1.513778,-2.296497,0.310863,1.121078,0.3434017,-1.235713,-0.05857164,5.4,2.5,-0.09533067,0.0522796,0.01762204,-0.5005624,-3.297451,-0.5479627,0.4091719,1.262599,0.2546599,-0.02902287,0.1499268,0.1022822,-0.5984512,0.763056,-0.2843396,0.5557092,1.345524,0.1794775,0.01115606,1.16714,0.2651191,275.2113,55.862,201.0951,True
2,1.888893,0.01678753,0.08135612,-0.01950298,-1.5398,1.513384,-2.296837,0.3098053,1.120767,0.3434308,-1.235675,0.003929889,5.4,2.5,-0.08341444,0.0490076,0.03558875,-0.4999622,-3.295577,-0.5491017,0.408043,1.262207,0.2542086,-0.02157894,0.146728,0.10222,-0.597747,0.7660742,-0.286721,0.5546416,1.345124,0.1793435,0.009889973,1.166885,0.2649041,275.2501,56.15998,200.7752,True
2,1.900004,0.01574277,0.07175945,-0.02265463,-1.540023,1.512693,-2.296984,0.308671,1.120378,0.3432002,-1.235598,0.006846962,5.4,2.5,-0.07873473,0.07448783,0.06755748,-0.4993336,-3.290675,-0.5524893,0.4069245,1.261733,0.2537985,-0.01721744,0.1477735,0.1160358,-0.5964857,0.7698129,-0.2896859,0.5533888,1.344883,0.1792383,0.008672554,1.166571,0.2646153,275.2699,56.50221,200.3939,True
2,1.911115,0.009365698,0.06959131,-0.02480539,-1.539891,1.511854,-2.296938,0.3075707,1.119996,0.3428543,-1.235484,0.01035206,15.5,61.2,-0.08529767,0.07880591,0.05166288,-0.4998801,-3.288752,-0.5529891,0.4058636,1.261376,0.2534552,-0.01618603,0.1392654,0.111747,-0.595943,0.7726746,-0.2918787,0.5523633,1.344551,0.1792598,0.00753985,1.166166,0.2642838,275.2479,56.9228,199.9046,True
2,1.922226,0.0008603979,0.05999111,-0.02583161,-1.53998,1.511288,-2.296652,0.306512,1.11966,0.3426092,-1.235232,0.02292293,15.5,61.2,-0.09151989,0.0830496,0.06559192,-0.4995126,-3.28583,-0.5542691,0.404855,1.260973,0.2531934,-0.004536197,0.1328893,0.1073722,-0.59547,0.7755066,-0.2941067,0.5514688,1.344292,0.1792521,0.006463731,1.165681,0.2639928,275.1931,57.38872,199.3297,True
2,1.933337,-0.008723118,0.05574024,-0.02048942,-1.540332,1.510947,-2.296193,0.3055226,1.11933,0.3423669,-1.234988,0.02212076,15.5,61.2,-0.09497146,0.06819155,0.0474885,-0.4996431,-3.285148,-0.5535393,0.403922,1.260704,0.2530966,-0.00137721,0.1446131,0.1020366,-0.5951707,0.7794931,-0.297564,0.5504738,1.343987,0.1793885,0.005334334,1.165169,0.2637929,275.1595,57.34002,199.3429,True
2,1.944448,-0.01087696,0.06643103,-0.01308663,-1.541278,1.510202,-2.295942,0.304656,1.118975,0.34216,-1.234715,0.02474788,15.5,61.2,-0.09730117,0.0288029,0.03889217,-0.4989986,-3.286757,-0.5509393,0.4030338,1.260321,0.252883,-0.001570344,0.1467825,0.081785,-0.5956682,0.7826741,-0.299665,0.5496876,1.343733,0.1794195,0.004155392,1.164656,0.2636805,275.1152,57.08852,199.6341,True
2,1.955559,-0.01620882,0.07280411,-0.01524566,-1.541926,1.509385,-2.29564,0.3037621,1.118586,0.3420093,-1.23454,0.01577401,15.7,63.5,-0.09243773,-0.01480053,0.008887317,-0.4990892,-3.290548,-0.5466266,0.4021943,1.259927,0.252703,-0.009191349,0.1404261,0.06265841,-0.5959739,0.785109,-0.3010861,0.5485115,1.34335,0.1793756,0.002982126,1.164182,0.2636374,275.0539,56.46045,200.3204,True
2,1.966671,-0.02152831,0.06643438,-0.008826135,-1.542422,1.509127,-2.295214,0.3029511,1.118261,0.3418176,-1.234786,-0.02255968,15.7,63.5,-0.07521895,0.001105584,0.02044993,-0.4988111,-3.288919,-0.5477781,0.4014013,1.259536,0.2525234,-0.01775653,0.1468242,0.05528353,-0.5962061,0.7884266,-0.303337,0.5476982,1.342997,0.1792459,0.001892896,1.163786,0.2636377,275.0016,55.54013,201.2968,True
2,1.977782,-0.02897425,0.06111556,-0.005606823,-1.542861,1.508831,-2.29471,0.3021723,1.117901,0.3416314,-1.2348,-0.001071899,15.7,63.5,-0.0575313,-0.02656335,-0.009650582,-0.4991009,-3.291938,-0.5449432,0.4005098,1.259318,0.2523575,-0.01245023,0.1393763,0.05734619,-0.5959627,0.7911826,-0.3053575,0.5468326,1.3428,0.1791184,0.0009326302,1.163489,0.2636917,274.9961,54.84887,202.0266,True
2,1.988893,-0.03535355,0.05466083,-0.01195936,-1.542818,1.508647,-2.294137,0.301496,1.117457,0.3413196,-1.234688,0.0102749,15.7,63.5,-0.05797822,-0.04884835,-0.0437936,-0.4998854,-3.2963,-0.5404518,0.3997032,1.259007,0.2521353,-0.002843782,0.121253,0.06044177,-0.5953678,0.7925781,-0.3068079,0.5460473,1.342693,0.1790075,7.226365E-05,1.163291,0.2638034,275.038,54.6523,202.2723,True
2,2.000004,-0.03855005,0.05675682,-0.01943034,-1.543067,1.507738,-2.29356,0.3008577,1.11715,0.341104,-1.234635,0.004801332,15.7,63.5,-0.04941548,-0.04247854,-0.04174646,-0.5001464,-3.297099,-0.5393934,0.3989173,1.258741,0.2519438,-0.01246581,0.1084814,0.05624332,-0.595094,0.7944456,-0.3078819,0.5451521,1.342592,0.1788764,-0.0006852928,1.163175,0.2639249,275.1091,54.61161,202.3956,True
2,2.011115,-0.03643214,0.06422719,-0.01733406,-1.543722,1.506989,-2.293206,0.3001332,1.11687,0.3408921,-1.234602,0.003011592,15.8,65.5,-0.03508959,1.658872E-05,-0.008782871,-0.5000186,-3.293409,-0.5425695,0.398205,1.258401,0.2517622,-0.003937393,0.08823678,0.05827035,-0.5946264,0.7952788,-0.3086809,0.5443577,1.342416,0.1787717,-0.001348719,1.163112,0.2640029,275.2102,54.87656,202.2349,True
2,2.022226,-0.02581168,0.07920884,-0.006744158,-1.545002,1.506296,-2.293235,0.2993885,1.116711,0.3406899,-1.234169,0.03893434,15.8,65.5,-0.04435784,0.04793639,0.008489227,-0.5005406,-3.288978,-0.5456625,0.3975266,1.258155,0.251483,0.003499605,0.07119407,0.05818419,-0.5941294,0.7959911,-0.3093421,0.5437179,1.342098,0.1786833,-0.0019278,1.163039,0.2639865,275.3173,55.5092,201.6867,True
2,2.033337,-0.02475125,0.08244543,0.001761131,-1.545912,1.50585,-2.293032,0.2986719,1.116524,0.3404717,-1.233447,0.06460347,15.8,65.5,-0.04076155,0.07235057,0.03939876,-0.500172,-3.285012,-0.548556,0.3968157,1.257884,0.2513742,0.006691314,0.0679922,0.05921865,-0.5936825,0.7974256,-0.310568,0.5429841,1.341924,0.1787126,-0.002540923,1.162943,0.2639174,275.393,56.02631,201.1734,True
2,2.044448,-0.02902385,0.08570011,0.01559277,-1.547153,1.505649,-2.292582,0.2979766,1.116339,0.3402934,-1.23233,0.1001765,15.8,65.5,-0.05138334,0.06064626,0.04481743,-0.4997065,-3.283575,-0.5488674,0.3961925,1.25772,0.2512264,0.008742854,0.06374311,0.05066875,-0.5936873,0.7984876,-0.3113968,0.5423306,1.341708,0.1786251,-0.003279829,1.162797,0.2638483,275.457,55.98024,201.1889,True
2,2.055559,-0.02582015,0.07511016,0.02523785,-1.548033,1.505717,-2.292363,0.2973613,1.116014,0.3402588,-1.230093,0.2019634,16.1,67.4,-0.03773539,0.01374739,0.03815245,-0.4987419,-3.286316,-0.5463829,0.3955511,1.257731,0.2516444,0.02669121,0.06803593,0.0292401,-0.5942034,0.7999883,-0.3135643,0.5416089,1.341596,0.1786566,-0.00414853,1.162542,0.2638104,275.5077,55.37962,201.7805,True
2,2.06667,-0.02368068,0.06978206,0.02419872,-1.548624,1.505498,-2.292169,0.2966765,1.115847,0.3401079,-1.22723,0.2578712,16.1,67.4,-0.02750916,-0.02882163,0.0102289,-0.4985006,-3.290246,-0.5429757,0.3949695,1.257529,0.2515314,0.02231076,0.06592479,0.01221506,-0.5949219,0.8007072,-0.3143864,0.5409748,1.34144,0.1785929,-0.005090012,1.162094,0.2637925,275.5217,54.54261,202.6445,True
2,2.077781,-0.01940812,0.05912732,0.02105279,-1.548947,1.505297,-2.292012,0.2960443,1.115772,0.3399148,-1.224379,0.2560619,16.1,67.4,-0.03200206,-0.04261506,-0.006804654,-0.4986838,-3.292392,-0.5405354,0.3943892,1.257454,0.251642,0.02536546,0.04891521,-0.002756828,-0.5956138,0.8006128,-0.3142826,0.5405846,1.341246,0.1784513,-0.006045534,1.161411,0.2637815,275.4922,53.34936,203.8605,True
2,2.088892,-0.0204412,0.04097555,0.01261564,-1.548705,1.505301,-2.291735,0.295399,1.115699,0.3397138,-1.220846,0.3181154,16.1,67.4,-0.03305341,-0.06073566,-0.001511399,-0.4979051,-3.294709,-0.5380845,0.3937946,1.25731,0.2514794,0.0254409,0.05209996,0.006823024,-0.5955952,0.801998,-0.315746,0.5399823,1.340962,0.178246,-0.006976538,1.160448,0.2637736,275.4206,52.00304,205.2186,True
2,2.100003,-0.02040856,0.02390967,-0.0001355289,-1.548136,1.504229,-2.291404,0.2947221,1.115662,0.3391151,-1.216802,0.3638901,16.1,67.4,-0.03729469,-0.08204382,0.004867442,-0.4968702,-3.297073,-0.5354863,0.3932028,1.257236,0.2514436,0.02122154,0.0606171,0.01219714,-0.5955313,0.8039308,-0.3174171,0.539372,1.340759,0.1781361,-0.007986466,1.159248,0.2637649,275.27,50.14457,207.11,True
2,2.111114,-0.01932893,0.01747413,-0.009692268,-1.54781,1.503927,-2.291215,0.2940679,1.115579,0.3388665,-1.212061,0.426919,16.4,65.6,-0.05657536,-0.08090533,-0.00449805,-0.4967733,-3.299059,-0.5324309,0.3926129,1.257045,0.2512083,0.02015251,0.06487565,0.01220928,-0.5956916,0.8053451,-0.3187098,0.53877,1.34058,0.1780596,-0.009074247,1.157848,0.2637417,275.0539,47.75654,209.5529,True
2,2.122225,-0.02889534,0.004628929,-0.02560972,-1.547357,1.50335,-2.290435,0.2933888,1.115348,0.3386638,-1.206924,0.4622511,16.4,65.6,-0.05712002,-0.02878468,0.02973054,-0.4963019,-3.294611,-0.5355796,0.3919926,1.256803,0.2510507,0.01801727,0.0766056,0.01224166,-0.5960106,0.8078051,-0.3207959,0.5381718,1.340409,0.1779678,-0.010254,1.156288,0.2636713,274.8081,45.02748,212.3783,True
2,2.133336,-0.03421643,0.001415815,-0.02772678,-1.547083,1.503124,-2.289878,0.2926805,1.115217,0.3383977,-1.201547,0.4837513,16.4,65.6,-0.05046547,-0.004337952,0.04781983,-0.4958667,-3.292236,-0.5373077,0.3913876,1.256539,0.2507973,0.01483746,0.08725835,0.01653197,-0.59626,0.8101863,-0.3225618,0.5377597,1.340019,0.1780128,-0.01153459,1.154608,0.2635346,274.54,42.01369,215.4892,True
2,2.144447,-0.03422624,0.007807526,-0.02775708,-1.547088,1.502679,-2.289491,0.2919753,1.115073,0.3381846,-1.195134,0.5781002,16.4,65.6,-0.05254836,-7.928163E-05,0.05105034,-0.4953437,-3.291152,-0.5376019,0.3907789,1.2563,0.2505493,0.009470299,0.1011112,0.01126315,-0.5968016,0.8126752,-0.3245482,0.5372475,1.339798,0.1780119,-0.01282473,1.152805,0.2633585,274.2881,38.60021,218.9077,True
2,2.155558,-0.03742294,0.006762581,-0.02242712,-1.547082,1.502601,-2.28895,0.2912704,1.114972,0.3379321,-1.189162,0.5367694,16.7,64.3,-0.05369939,-0.008586403,0.04571741,-0.4948798,-3.291836,-0.5362765,0.3902035,1.256344,0.2503965,0.004050329,0.09686904,0.001712464,-0.597379,0.8142311,-0.3254212,0.5367181,1.339469,0.1778452,-0.01413299,1.150905,0.2631876,274.0511,34.54447,222.9374,True
2,2.166669,-0.03634928,-0.0006957098,-0.02238676,-1.546773,1.502675,-2.288565,0.2906263,1.114822,0.3376763,-1.18298,0.556231,16.7,64.3,-0.05705539,-0.02346567,0.03506491,-0.4944297,-3.29309,-0.5344362,0.3895925,1.256209,0.250102,-0.00124079,0.08727035,0.005996265,-0.5974109,0.815249,-0.3261339,0.5361654,1.33932,0.1776571,-0.01545766,1.148958,0.2630366,273.8385,29.47355,228.0043,True
2,2.17778,-0.03528131,-0.001780953,-0.02663787,-1.546471,1.502446,-2.28821,0.2901291,1.114721,0.3373547,-1.176216,0.6091433,16.7,64.3,-0.05394796,-0.0202535,0.02651777,-0.4943684,-3.293166,-0.5339009,0.3890704,1.256014,0.2496104,-0.01077252,0.06703313,0.01456448,-0.5970189,0.815915,-0.3261299,0.5356106,1.339223,0.1774342,-0.0167799,1.146992,0.2629233,273.672,23.62952,233.8645,True
2,2.188891,-0.03634516,-0.001797716,-0.02983418,-1.546162,1.502136,-2.287768,0.289534,1.114627,0.337055,-1.169529,0.6014838,16.7,64.3,-0.05687134,0.009540543,0.04367105,-0.4939967,-3.289991,-0.5360014,0.388471,1.255868,0.2492642,-0.01821025,0.06808801,0.01781806,-0.596971,0.817313,-0.3267691,0.5350799,1.339032,0.1772282,-0.01806628,1.145021,0.2628258,273.5564,17.34382,240.2029,True
2,2.200002,-0.03634515,-0.002844647,-0.02663345,-1.546017,1.502006,-2.287357,0.2889996,1.11451,0.3367565,-1.162591,0.6245309,16.7,64.3,-0.05538003,0.03928344,0.07462044,-0.4930955,-3.285421,-0.5393799,0.3879602,1.25585,0.2495501,-0.01290806,0.06277674,0.01563906,-0.5971361,0.8186114,-0.3277454,0.5346122,1.338898,0.1770847,-0.01924689,1.14303,0.2627088,273.4777,11.10254,246.5113,True
2,2.211113,-0.03742071,0.003550475,-0.02559897,-1.546048,1.501653,-2.286906,0.2884045,1.114397,0.3364649,-1.155368,0.6501769,15.8,64.8,-0.05413631,0.04243939,0.08952926,-0.4920973,-3.282694,-0.5412334,0.3874365,1.255659,0.2492702,-0.003347207,0.07557162,0.01131206,-0.5977417,0.820759,-0.3298818,0.5341988,1.33854,0.1769998,-0.02032177,1.141019,0.2625634,273.4312,4.717956,252.9485,True
2,2.222224,-0.04062625,0.007859671,-0.01389799,-1.546397,1.501775,-2.286409,0.2878398,1.114263,0.3360507,-1.148123,0.6519452,15.8,64.8,-0.06422606,0.005270116,0.05439902,-0.4920297,-3.285682,-0.5375138,0.3870466,1.255612,0.2491758,-0.001262665,0.09156279,0.0091796,-0.5983431,0.8235404,-0.3318131,0.5338403,1.338269,0.1768224,-0.02138569,1.139011,0.2624026,273.4284,358.3251,259.3702,True
2,2.233335,-0.04170285,0.01427494,-0.008602827,-1.546704,1.501582,-2.28593,0.2872474,1.114138,0.335674,-1.140728,0.6656126,15.8,64.8,-0.07174177,-0.01494846,0.05443377,-0.4911018,-3.286479,-0.5356781,0.3866542,1.255419,0.2490985,-0.002304383,0.08409794,0.01130001,-0.5984453,0.8245939,-0.332697,0.5333925,1.338203,0.1767588,-0.02244986,1.137001,0.2622331,273.4818,352.0848,265.6292,True
2,2.244446,-0.04278827,0.02706175,-0.007598441,-1.547236,1.501048,-2.285392,0.2867134,1.113995,0.3352885,-1.133216,0.6761916,15.8,64.8,-0.06220338,-0.02881957,0.05322518,-0.4902347,-3.287381,-0.534493,0.38623,1.255257,0.248857,-0.007691536,0.05855337,0.007034617,-0.5986115,0.8243122,-0.331759,0.5329661,1.337958,0.1766016,-0.02355288,1.134989,0.2620634,273.5973,346.1494,271.5978,True
2,2.255557,-0.04494192,0.0388143,0.0008713417,-1.548046,1.500794,-2.284814,0.2861956,1.113896,0.3349099,-1.125711,0.6753449,15.8,64.8,-0.05899385,-0.0128324,0.05109098,-0.490215,-3.285752,-0.5353441,0.3857345,1.25516,0.2486303,0.002979841,0.06495011,0.009086486,-0.5988794,0.8261366,-0.3336999,0.5323904,1.33787,0.1764312,-0.02466197,1.132965,0.2618574,273.7744,340.66,277.1507,True
2,2.266668,-0.04923547,0.05486763,0.01783837,-1.549425,1.500636,-2.284114,0.2857242,1.11375,0.3345687,-1.118075,0.6873603,11.4,63.7,-0.05057861,-0.0117656,0.04140932,-0.4900903,-3.285486,-0.5353116,0.3853605,1.255026,0.2484112,0.01786348,0.07454234,0.004721224,-0.5994211,0.8280541,-0.3360222,0.5319972,1.337609,0.1761241,-0.02577772,1.130921,0.261611,273.9716,335.5268,282.3238,True
2,2.277779,-0.05351204,0.06022571,0.02526923,-1.550429,1.500476,-2.283313,0.2852857,1.113639,0.3342452,-1.110381,0.6924997,11.4,63.7,-0.05067926,-0.02559776,0.03604116,-0.4896163,-3.286793,-0.5334996,0.3849205,1.254985,0.2485733,0.0210265,0.07348244,0.003618572,-0.5998073,0.8293023,-0.3370161,0.5316252,1.337455,0.175838,-0.02686565,1.128856,0.2613558,274.2087,330.7069,287.1524,True
2,2.28889,-0.05778453,0.06662592,0.028433,-1.551446,1.500149,-2.282535,0.2849182,1.113542,0.3338766,-1.102566,0.7034867,11.4,63.7,-0.04438892,-0.03625153,0.0295508,-0.4891273,-3.288099,-0.5320902,0.3845943,1.254929,0.2483366,0.01786278,0.06069642,0.008948214,-0.5996736,0.8299043,-0.3374734,0.5312325,1.337431,0.1754699,-0.02790174,1.126784,0.2611096,274.5079,326.408,291.4543,True
2,2.300001,-0.06203862,0.0633909,0.02098978,-1.551854,1.499718,-2.281672,0.2845993,1.113422,0.3334889,-1.094737,0.7047176,11.4,63.7,-0.04208051,-0.01497125,0.0402305,-0.4887529,-3.285934,-0.533601,0.3843082,1.254632,0.2474828,0.01149491,0.03938232,0.01641141,-0.5993732,0.8296111,-0.336684,0.5309234,1.33743,0.1752183,-0.02886801,1.124725,0.2608789,274.8507,322.8243,295.0505,True
2,2.311112,-0.06310462,0.06225061,0.007137561,-1.552094,1.499154,-2.280865,0.2842544,1.113334,0.3331399,-1.087009,0.6954149,9.2,66,-0.02392176,-0.008630576,0.04322831,-0.4884419,-3.285186,-0.5345265,0.3839709,1.254372,0.2468987,0.01473087,0.03617958,0.02170952,-0.5990824,0.8303369,-0.3375565,0.5305568,1.337324,0.1749177,-0.02976327,1.122695,0.2606616,275.189,319.6529,298.2503,True
2,2.322223,-0.06307103,0.0547483,-0.003471939,-1.552035,1.498506,-2.280336,0.2838743,1.113312,0.332725,-1.079157,0.7067838,9.2,66,-0.02286023,-0.005434874,0.04215871,-0.4880935,-3.284644,-0.534795,0.3835533,1.254341,0.2465549,0.02319234,0.03086869,0.01522972,-0.5994728,0.8306723,-0.3382002,0.5300717,1.337115,0.1747651,-0.03057682,1.120698,0.2604589,275.5093,316.9296,301.0145,True
2,2.333334,-0.05663225,0.02807252,-0.01828484,-1.551063,1.497887,-2.27984,0.2834848,1.113404,0.3323009,-1.071404,0.6975754,9.2,66,-0.02060183,0.0009351373,0.05173105,-0.4875651,-3.283254,-0.5358517,0.3831571,1.254395,0.2463295,0.02315792,0.03087559,0.009902554,-0.599705,0.8311815,-0.3389621,0.529609,1.337115,0.1744571,-0.03133006,1.118724,0.2602745,275.7968,314.4808,303.5033,True
2,2.344445,-0.05447735,0.01314668,-0.02140913,-1.550583,1.49785,-2.279314,0.2830702,1.113425,0.3319867,-1.063853,0.6792395,9.2,66,-0.01850582,0.006266476,0.0474588,-0.4873308,-3.282276,-0.5365953,0.3827843,1.254329,0.2459235,0.01678257,0.03194381,0.01314615,-0.5996235,0.8321867,-0.3396297,0.5292779,1.336948,0.1741791,-0.03208864,1.116771,0.260124,276.0806,312.2443,305.7783,True
2,2.355556,-0.0555149,-0.001819357,-0.03199185,-1.549733,1.497659,-2.278672,0.2826445,1.113431,0.33163,-1.056036,0.703696,9.2,66,-0.01434115,-0.001180615,0.04100052,-0.4870389,-3.282641,-0.5362147,0.3824111,1.254187,0.2452877,0.009260273,0.0298306,0.006808685,-0.599827,0.8327732,-0.3397022,0.528857,1.336733,0.1738391,-0.03288523,1.114818,0.260005,276.3633,310.0952,307.9936,True
2,2.366668,-0.06296572,-0.002933105,-0.0405129,-1.549289,1.497104,-2.277686,0.2822413,1.113379,0.3312881,-1.047961,0.7268132,6.6,63.6,-0.02077422,0.01057,0.03471036,-0.4871316,-3.281456,-0.5368326,0.3819656,1.254169,0.2449176,0.005013984,0.03089686,0.007906262,-0.5998568,0.8335396,-0.3403618,0.5285122,1.336653,0.1734867,-0.03370665,1.112834,0.2599005,276.642,307.8619,310.3,True
2,2.377779,-0.06830097,0.006596511,-0.05120888,-1.549106,1.496174,-2.276741,0.2817576,1.11341,0.3309293,-1.039673,0.7460521,6.6,63.6,-0.03009985,0.02760324,0.05403222,-0.486632,-3.278331,-0.5389335,0.3815657,1.254252,0.2448072,-0.004630616,0.03304684,0.004767498,-0.6003495,0.8344426,-0.3402718,0.5283266,1.336652,0.173166,-0.03452886,1.110786,0.2597859,276.9489,305.9717,312.2562,True
2,2.38889,-0.0640584,0.01937636,-0.05339805,-1.549173,1.495234,-2.276134,0.2813036,1.113502,0.3305912,-1.031057,0.7758836,6.6,63.6,-0.03205274,0.03503197,0.06792246,-0.4859273,-3.275837,-0.5407184,0.3811549,1.254277,0.2444513,-0.01432051,0.02985526,-0.009017145,-0.6009588,0.834143,-0.3395797,0.5280442,1.336594,0.17293,-0.03535572,1.108651,0.2596437,277.2702,304.1631,314.122,True
2,2.400001,-0.05873752,0.02259869,-0.05021118,-1.549246,1.494713,-2.275686,0.2808571,1.113589,0.3302596,-1.022723,0.7497643,6.6,63.6,-0.02351217,0.01475944,0.0741685,-0.4848109,-3.275477,-0.5410779,0.3807768,1.254401,0.2441869,-0.01227739,0.01921878,-0.01969594,-0.6014259,0.8336861,-0.339063,0.5275086,1.336463,0.17272,-0.03621597,1.106442,0.2594995,277.6442,302.3897,315.9252,True
2,2.411112,-0.05553688,0.01731244,-0.04272755,-1.549122,1.494547,-2.275191,0.2803545,1.113766,0.3299303,-1.014633,0.7276282,4.5,72.9,-0.02452239,0.01261863,0.07950163,-0.4839432,-3.274228,-0.5418774,0.3803911,1.254487,0.2439013,-0.01657856,0.02561698,-0.02498245,-0.6020305,0.8342312,-0.3391845,0.5272151,1.33636,0.1724803,-0.03714387,1.104208,0.2593956,278.0799,300.677,317.66,True
2,2.422223,-0.04911871,-0.00074152,-0.03198312,-1.548626,1.495023,-2.274926,0.2798293,1.114089,0.3296051,-1.006279,0.7518498,4.5,72.9,-0.02876312,-0.003360575,0.08483949,-0.4826292,-3.27389,-0.5418284,0.3800863,1.254569,0.2434645,-0.02290935,0.01708348,-0.0143097,-0.6020491,0.834164,-0.3383477,0.5269122,1.336242,0.1720858,-0.038064,1.101972,0.2593524,278.5409,299.2036,319.178,True
2,2.433334,-0.05546942,-0.02736248,-0.02759507,-1.547714,1.495652,-2.274157,0.2793351,1.114274,0.3293152,-0.9976127,0.7801527,4.5,72.9,-0.04154453,-0.009716436,0.08710305,-0.4816487,-3.273073,-0.541577,0.3797886,1.25467,0.2433131,-0.01323674,0.004289203,0.001567182,-0.6016395,0.8339343,-0.3378366,0.526852,1.336061,0.1718438,-0.03892959,1.099738,0.2593414,278.9991,298.0045,320.4653,True
2,2.444445,-0.05862698,-0.0508288,-0.03281214,-1.546392,1.496076,-2.273416,0.2787557,1.114478,0.32903,-0.9891263,0.7634602,4.5,72.9,-0.05203832,0.004134558,0.09791011,-0.480634,-3.270503,-0.5429016,0.3794273,1.254721,0.2430341,-0.02596043,-0.004250797,0.008039624,-0.6013066,0.8332939,-0.336766,0.5265794,1.336009,0.1717021,-0.03975866,1.097523,0.2593027,279.4658,296.8742,321.7152,True
2,2.455556,-0.06288101,-0.05615167,-0.03065829,-1.5456,1.496391,-2.272575,0.2782054,1.114659,0.3287263,-0.9799042,0.8308301,4.5,72.9,-0.05174099,0.03498699,0.1171501,-0.4798702,-3.265661,-0.5466045,0.3791077,1.254665,0.2427309,-0.02592647,-0.004251916,0.01124431,-0.6009833,0.833497,-0.336781,0.5260898,1.336021,0.171505,-0.04053291,1.095333,0.2591596,279.9075,295.7138,322.9889,True
2,2.466667,-0.07671176,-0.0742268,-0.01885775,-1.544658,1.49744,-2.271223,0.2776542,1.114726,0.328476,-0.9710034,0.8006988,3.3,73.2,-0.04546524,0.03712648,0.1064301,-0.4793876,-3.263738,-0.5480011,0.3787421,1.254664,0.2425275,-0.02600967,-0.003173996,-0.0004782928,-0.6014472,0.8332024,-0.3363362,0.5258293,1.335983,0.1712737,-0.04122903,1.093277,0.2589448,280.2148,294.2523,324.5551,True
2,2.477778,-0.08312115,-0.06671157,-0.003981002,-1.544575,1.498105,-2.270118,0.2771268,1.114901,0.3280933,-0.9619008,0.8194022,3.3,73.2,-0.04775866,0.02011421,0.09575535,-0.4786798,-3.263796,-0.5474189,0.3784768,1.254649,0.2422502,-0.02613955,-0.006348522,-0.01540171,-0.6021237,0.8325807,-0.3352595,0.5255458,1.335907,0.1711192,-0.04148742,1.092454,0.2588138,280.3469,294.665,324.064,True
2,2.488889,-0.08420152,-0.05708729,0.003427897,-1.544484,1.498445,-2.269229,0.2765459,1.115166,0.3278363,-0.9522346,0.8706169,3.3,73.2,-0.05423789,0.0009637363,0.09258649,-0.4775671,-3.263854,-0.5465355,0.3781417,1.254734,0.2420557,-0.01443696,-0.01380547,-0.01763276,-0.6022717,0.8316583,-0.3347157,0.5253211,1.335826,0.1708333,-0.04149693,1.092102,0.2587854,280.2559,296.4023,322.5013,True
2,2.5,-0.0831461,-0.05388771,0.004480386,-1.544117,1.498882,-2.268283,0.2760792,1.115433,0.327548,-0.9432176,0.8107917,3.3,73.2,-0.06159534,-0.006498836,0.103308,-0.4760347,-3.26296,-0.5463331,0.3777792,1.254953,0.2421415,-0.01544572,-0.01167475,-0.008063217,-0.6024448,0.8318134,-0.3343958,0.5250579,1.335758,0.1708212,-0.04175891,1.091882,0.2587535,279.9405,298.0625,320.915,True
2,2.511111,-0.0842048,-0.06342725,0.01304532,-1.543658,1.499769,-2.267291,0.2755649,1.115834,0.3275349,-0.9341463,0.816279,2.6,76.9,-0.05180169,0.02114995,0.114981,-0.4752869,-3.258478,-0.5500669,0.3775367,1.254916,0.241575,-0.01648574,-0.01273992,-0.001677053,-0.6024401,0.8317036,-0.3337386,0.5248067,1.335706,0.1706202,-0.04180855,1.09164,0.2588045,279.9614,299.9089,319.1682,True
2,2.522222,-0.08630963,-0.08152023,0.01739109,-1.542708,1.501015,-2.266311,0.2751528,1.116089,0.3273163,-0.924673,0.8528714,2.6,76.9,-0.04436366,0.02326593,0.1127707,-0.4744784,-3.256519,-0.5515734,0.3772815,1.255053,0.2413816,-0.01535877,-0.02019479,0.004684971,-0.6022792,0.8311962,-0.3333881,0.5246304,1.335624,0.1704972,-0.04215967,1.091454,0.258702,279.7813,300.8406,318.3204,True
2,2.533333,-0.09162936,-0.08471213,0.02059768,-1.542054,1.501935,-2.265192,0.2747768,1.116359,0.3270798,-0.9149583,0.8743153,2.6,76.9,-0.04854643,0.02539877,0.1192237,-0.4732757,-3.253971,-0.5531383,0.3770967,1.255227,0.2411125,-0.01962842,-0.02124906,0.005786235,-0.6020571,0.8311199,-0.3327394,0.5243899,1.335537,0.1703172,-0.04233487,1.09129,0.2585991,279.7589,300.9698,318.2281,True
2,2.544444,-0.09376942,-0.07727852,0.01630034,-1.541601,1.502365,-2.264085,0.2744647,1.116575,0.3268223,-0.9051179,0.8856019,2.6,76.9,-0.05826687,0.02545274,0.1076154,-0.4727377,-3.252553,-0.553395,0.3769719,1.255283,0.2409337,-0.02290721,-0.01590669,-0.005912411,-0.6026456,0.830857,-0.3322549,0.5242704,1.335517,0.1700921,-0.04246113,1.091087,0.2585466,279.6733,301.81,317.3975,True
2,2.555555,-0.09380902,-0.05277448,0.01618987,-1.54198,1.50235,-2.263007,0.2742079,1.116959,0.3268287,-0.8949957,0.9111888,2.6,76.9,-0.03265713,0.03817201,0.1084161,-0.4722578,-3.24947,-0.5566297,0.3769054,1.255149,0.2403488,-0.02515941,-0.01694525,-0.0229244,-0.6031639,0.8303508,-0.331558,0.5239321,1.335528,0.1698935,-0.04248488,1.090865,0.2586106,279.655,302.5658,316.4818,True
2,2.566666,-0.09596972,-0.03149731,0.01076183,-1.542206,1.502078,-2.261847,0.2739879,1.117157,0.3266668,-0.88488,0.9102549,1.7,59.5,-0.0136744,0.02110731,0.09537435,-0.4715468,-3.2492,-0.5573668,0.3767699,1.255248,0.2401714,-0.009275313,-0.03078649,-0.03584807,-0.6037567,0.8282572,-0.330285,0.5238438,1.335559,0.1697299,-0.04238873,1.090634,0.2586801,279.6123,304.0831,315.0064,True
2,2.577777,-0.09811938,-0.01763655,0.01389523,-1.54256,1.502157,-2.260732,0.2737158,1.117357,0.3264916,-0.8746769,0.9182433,1.7,59.5,-0.01169511,0.006212655,0.08572339,-0.4708373,-3.249452,-0.5569935,0.3766223,1.255423,0.2402129,0.001384664,-0.04037384,-0.03168385,-0.6037865,0.8269129,-0.3291678,0.5237982,1.335577,0.1695313,-0.04224226,1.090425,0.2586479,279.3858,304.209,314.7679,True
2,2.588888,-0.1013178,-0.01444105,0.01388084,-1.542649,1.502348,-2.259544,0.2734642,1.117513,0.3263204,-0.8642527,0.9382942,1.7,59.5,-0.001070648,0.00938792,0.08241405,-0.470253,-3.248131,-0.5585093,0.3764663,1.255537,0.2400393,-0.005966252,-0.02759728,-0.01457083,-0.6035117,0.8276446,-0.3291539,0.5236794,1.335524,0.1692793,-0.04228782,1.090117,0.2585823,279.2819,305.6201,313.527,True
2,2.599999,-0.1066487,-0.01125841,0.01279814,-1.542719,1.502437,-2.258167,0.2732551,1.117684,0.3261633,-0.8538355,0.937465,1.7,59.5,0.01370218,0.01150566,0.06946621,-0.4700399,-3.247243,-0.5599083,0.3763725,1.255799,0.2401912,-0.005918438,-0.03080013,-0.008182714,-0.6032417,0.8269759,-0.3285348,0.5235844,1.335531,0.1690233,-0.042458,1.089851,0.2585862,279.27,309.4196,309.9079,True
2,2.61111,-0.1077209,-0.004898597,0.006375614,-1.542754,1.502198,-2.256923,0.2730624,1.117877,0.3260205,-0.8432436,0.9534308,1.7,59.5,0.01674662,0.009397533,0.05664204,-0.4698967,-3.246965,-0.5604564,0.3762439,1.255943,0.2400134,0.001449633,-0.04356179,-0.01677546,-0.6035191,0.8253573,-0.3271265,0.5234846,1.3356,0.1687391,-0.04279025,1.089725,0.2582469,279.0597,306.3726,312.1313,True
2,2.622221,-0.1023965,-0.003849554,0.001047057,-1.542626,1.502057,-2.25594,0.2729919,1.118152,0.3258674,-0.8324711,0.9697139,1.1,51.5,0.01480654,0.02641085,0.06949362,-0.4692506,-3.244026,-0.5631206,0.3762004,1.256152,0.2398875,-0.003883742,-0.0393083,-0.01780269,-0.6036992,0.8244686,-0.3261555,0.5234519,1.335698,0.1685028,-0.04282128,1.089446,0.2577937,278.7492,303.8313,314.465,True
2,2.633332,-0.09813836,-0.001717056,-2.190471E-05,-1.542709,1.502069,-2.255011,0.2729102,1.118319,0.3257756,-0.8219655,0.9452071,1.1,51.5,0.01712418,0.0444874,0.08229704,-0.4686823,-3.240081,-0.566767,0.3762943,1.256128,0.2396257,-0.004915982,-0.03931773,-0.0103369,-0.603418,0.8238655,-0.3252367,0.5233861,1.33561,0.1683502,-0.04286894,1.089236,0.2573855,278.5758,304.5623,313.5197,True
2,2.644443,-0.09601901,0.00469298,0.003144656,-1.543021,1.502011,-2.254031,0.2728705,1.118567,0.325645,-0.8115525,0.9368558,1.1,51.5,0.01573548,0.01897739,0.05987839,-0.4684293,-3.241402,-0.5657135,0.3763628,1.256276,0.2395785,-0.004920093,-0.02866086,-0.01245939,-0.603663,0.8237721,-0.325287,0.5234364,1.335655,0.1682105,-0.0428096,1.089092,0.2573304,278.6154,309.9623,308.2939,True
2,2.655554,-0.09389649,0.008962546,0.004194506,-1.543298,1.501967,-2.253052,0.272846,1.118804,0.3255234,-0.8008764,0.9609644,1.1,51.5,0.02211135,0.00404381,0.06189766,-0.4676133,-3.24156,-0.5660293,0.3764481,1.256301,0.2391961,0.0003435165,-0.01586794,-0.01569501,-0.604226,0.8240739,-0.3251608,0.5235546,1.33565,0.1680045,-0.04264929,1.088852,0.2574996,278.581,312.2614,305.9192,True
2,2.666665,-0.09070175,0.01002778,0.003125592,-1.543399,1.501868,-2.252175,0.272788,1.119059,0.3254056,-0.7900278,0.9764965,0.9,35.7,0.02952481,-0.01195546,0.06177472,-0.4666774,-3.24214,-0.5661013,0.3765276,1.256505,0.2391758,0.00246932,-0.03611566,-0.01787149,-0.6042106,0.8217773,-0.323499,0.523626,1.335762,0.1677983,-0.04249266,1.088595,0.2576694,278.5652,314.5657,303.5466,True
2,2.677776,-0.08963824,0.01321179,0.0009800522,-1.54352,1.501693,-2.251257,0.2728094,1.119382,0.3253119,-0.7791877,0.9755554,0.9,35.7,0.0388504,-0.03643487,0.04455811,-0.4662327,-3.244316,-0.5649017,0.3765748,1.256803,0.2393558,0.007799029,-0.03716791,-0.01578298,-0.6042606,0.8212947,-0.3231823,0.5234761,1.335819,0.1675708,-0.04235199,1.088342,0.2578135,278.5543,316.6273,301.4215,True
2,2.688887,-0.08110985,0.01212376,-0.00755139,-1.543229,1.501116,-2.250653,0.2727036,1.119758,0.3251259,-0.7685542,0.9568643,0.9,35.7,0.04842242,-0.03752324,0.04338121,-0.4656633,-3.244673,-0.5654237,0.3765769,1.257044,0.2392373,0.01097726,-0.03929788,-0.02114393,-0.6045983,0.820101,-0.32274,0.5235918,1.335953,0.1674256,-0.04222751,1.088089,0.2579299,278.5427,318.4469,299.5447,True
2,2.699998,-0.0725695,-0.0006644456,-0.0117443,-1.542794,1.501206,-2.250099,0.2727509,1.119992,0.3250878,-0.7578888,0.960051,0.9,35.7,0.03797605,-0.01940989,0.05739797,-0.4649405,-3.242279,-0.567648,0.3766023,1.257374,0.2391825,0.01632946,-0.04248156,-0.02225409,-0.6047953,0.8192385,-0.3228705,0.5234873,1.336064,0.1672103,-0.0421099,1.087838,0.2580358,278.5323,320.1394,297.7929,True
2,2.711109,-0.07149184,-0.009197,-0.01597621,-1.542267,1.501012,-2.249289,0.2727103,1.120323,0.3250101,-0.7476463,0.9213203,0.9,35.7,0.03393845,0.00933354,0.07029763,-0.4645059,-3.238775,-0.5710105,0.3766548,1.25759,0.2390671,0.01101933,-0.05313693,-0.02009486,-0.6046324,0.8175395,-0.3214017,0.5235562,1.336158,0.1670022,-0.04200641,1.087598,0.2581481,278.5468,321.7426,296.1276,True
2,2.72222,-0.06509098,-0.01559584,-0.01913946,-1.541723,1.501017,-2.24877,0.2728632,1.120568,0.3249626,-0.7373345,0.9282355,0.8,34.3,0.04492142,0.04121758,0.09155502,-0.4639844,-3.233549,-0.5765533,0.3767182,1.257703,0.2386527,0.001497116,-0.04674002,-0.00830471,-0.6043836,0.8176471,-0.3208297,0.5236789,1.336187,0.1668231,-0.04208174,1.087414,0.2580907,278.8818,326.257,291.6206,True
2,2.733331,-0.06403066,-0.009231809,-0.0255604,-1.541554,1.500541,-2.248082,0.2729369,1.120789,0.3249712,-0.7268928,0.9401106,0.8,34.3,0.03955199,0.04763643,0.08630477,-0.4637597,-3.231195,-0.5789153,0.3768438,1.257879,0.2385862,-0.004879814,-0.04673394,-0.006135968,-0.6044023,0.8169549,-0.3199737,0.5237468,1.336116,0.1665409,-0.04192796,1.08719,0.2581304,278.6933,327.3136,290.3763,True
2,2.744442,-0.05978815,0.002491334,-0.02775061,-1.541677,1.499831,-2.247527,0.2730556,1.121223,0.3250973,-0.7172489,0.8673882,0.8,34.3,0.04349511,0.01891347,0.06487957,-0.4634332,-3.233021,-0.5779201,0.3770278,1.258222,0.238869,-0.002733763,-0.05526424,-0.006160043,-0.6041812,0.8151726,-0.3187641,0.5239085,1.336297,0.1664217,-0.04178996,1.086952,0.2582138,278.6808,329.0258,288.6139,True
2,2.755553,-0.05233408,0.00143073,-0.0288057,-1.541436,1.499592,-2.247107,0.2731914,1.121612,0.325141,-0.70749,0.8787216,0.8,34.3,0.04878848,0.0007936805,0.06584622,-0.4624324,-3.232976,-0.578743,0.377192,1.258505,0.238816,-0.005947547,-0.04566123,-0.006128179,-0.6042712,0.8151802,-0.3183511,0.5240089,1.336326,0.1662364,-0.04162389,1.086714,0.2583472,278.6978,331.0588,286.5032,True
2,2.766664,-0.05126197,-0.001783621,-0.03305122,-1.541045,1.49927,-2.246578,0.2733339,1.121974,0.3252013,-0.6982015,0.8357041,0.6,21.7,0.06367793,-0.003504999,0.06460101,-0.4617916,-3.232577,-0.5803134,0.3773732,1.258821,0.2388353,-0.01237462,-0.0573912,-0.01141512,-0.6041482,0.8130085,-0.3162661,0.5241952,1.336526,0.1660428,-0.04148483,1.086495,0.2585445,278.8041,332.9918,284.4589,True
2,2.777775,-0.04912994,-0.003928901,-0.03729992,-1.540648,1.498932,-2.24604,0.2735153,1.122284,0.3252447,-0.6892421,0.8062462,0.6,21.7,0.07967317,-0.01100752,0.06759848,-0.4609591,-3.231832,-0.5824214,0.377584,1.25921,0.2387981,-0.01352902,-0.07548887,-0.01995698,-0.6043735,0.8103264,-0.3134738,0.5243345,1.336676,0.1658571,-0.04137235,1.086317,0.2587938,278.9879,334.726,282.5925,True
2,2.788886,-0.04275426,0.009889336,-0.04588214,-1.540634,1.497982,-2.24576,0.2736825,1.122563,0.3253524,-0.6803396,0.8014683,0.6,21.7,0.06778263,-0.01200235,0.05281517,-0.4607839,-3.231937,-0.5826408,0.3777772,1.259544,0.2389631,-0.01026032,-0.07657478,-0.01253548,-0.604088,0.808559,-0.3122801,0.5245041,1.33676,0.1656804,-0.04125879,1.086143,0.2590229,279.1637,336.3807,280.8137,True
2,2.799997,-0.03745319,0.02693862,-0.0459615,-1.540952,1.497063,-2.245481,0.2738174,1.122882,0.3254311,-0.6717637,0.7717352,0.6,21.7,0.07108495,0.009284608,0.05709005,-0.4605958,-3.229548,-0.5856315,0.3779302,1.259768,0.2389901,-0.01133015,-0.06591345,-0.01144325,-0.6039996,0.808225,-0.311649,0.5244574,1.33696,0.1655548,-0.04113627,1.085961,0.2592196,279.3013,337.9698,279.1042,True
2,2.811108,-0.03534195,0.03760267,-0.04387139,-1.54135,1.496404,-2.245101,0.2740151,1.123261,0.3256605,-0.6638259,0.7140294,0.6,21.7,0.07967585,0.02096756,0.06021553,-0.4602363,-3.227492,-0.5886987,0.3781509,1.259942,0.2390215,-0.009205088,-0.06059296,-0.01251601,-0.6039889,0.8072014,-0.3108151,0.5246156,1.337126,0.1652935,-0.04166043,1.085902,0.2584035,278.8639,335.9891,279.9488,True
2,2.822219,-0.04067973,0.04504059,-0.04603649,-1.541591,1.495496,-2.244433,0.2742732,1.123548,0.3258526,-0.6559371,0.7101893,0.3,15.1,0.07846845,0.01780258,0.04850265,-0.46019,-3.227165,-0.5898369,0.3783103,1.260213,0.2391257,0.004717153,-0.05953711,-0.007287048,-0.603606,0.8061005,-0.3109057,0.5245984,1.33744,0.1653199,-0.04174921,1.085701,0.2580513,279.6004,341.4985,274.7599,True
