loc,t,aDotUA,bDotUA,gDotUA,aUA,bUA,gUA,xUA,yUA,zUA,qE,qDotE,emgA,emgB,aDotSH,bDotSH,gDotSH,aSH,bSH,gSH,xSH,ySH,zSH,aDotUB,bDotUB,gDotUB,aUB,bUB,gUB,xUB,yUB,zUB,xHand,yHand,zHand,aHand,bHand,gHand,enable
0,0,0.05207852,-0.1407291,0.05187392,-1.373104,-4.369983,-3.00633,0.7360921,1.115314,0.4409425,-1.364391,-0.008438049,3.6,0.9,-0.04653699,0.03063406,-0.01416584,-0.699703,-4.3892,-0.09430706,0.7898864,1.291812,0.360255,0.0007874295,0.02068498,-0.04535544,-0.9683584,0.09698407,-0.02708568,0.8796117,1.35728,0.2012415,0.5062419,0.9781693,0.286913,299.2625,240.0274,358.5758,True
0,0.01111111,0.05846579,-0.1385514,0.06038784,-1.373859,-4.368405,-3.007519,0.7360222,1.115266,0.4409103,-1.365119,-0.06656625,2.6,1.3,-0.0623752,0.01040888,0.003033246,-0.6990718,-4.390148,-0.09229877,0.7898961,1.291867,0.3603077,0.0008343421,0.02603632,-0.03471433,-0.9684367,0.09769554,-0.02748276,0.8796426,1.357265,0.2013521,0.5064765,0.9778727,0.2864972,299.3366,240.0353,358.4604,True
0,0.02222222,0.06165188,-0.137474,0.06145037,-1.37434,-4.366839,-3.008443,0.7359241,1.115141,0.4409089,-1.364831,0.02692517,2.6,1.3,-0.07407595,-0.009821746,0.008479587,-0.6986494,-4.391516,-0.08991364,0.7899736,1.291877,0.3601725,-0.008676431,0.03457166,-0.01869978,-0.9681405,0.09867091,-0.02768249,0.8796535,1.357197,0.2014773,0.506789,0.977559,0.2860613,299.4373,240.0764,358.3087,True
0,0.03333334,0.05633124,-0.141766,0.05614274,-1.374538,-4.365047,-3.009213,0.7359087,1.114997,0.4408426,-1.364676,0.0137175,2.6,1.3,-0.07186274,-0.0353938,0.02017171,-0.697924,-4.393435,-0.0876654,0.7899272,1.29189,0.3601944,-0.01078275,0.02604649,-0.01760888,-0.9682918,0.09863683,-0.02745852,0.879715,1.357142,0.2015076,0.5071595,0.977228,0.2856159,299.5273,240.0853,358.1843,True
0,0.04444445,0.05206032,-0.1332566,0.05396768,-1.37486,-4.363796,-3.009887,0.7358283,1.114907,0.4406958,-1.364324,0.03206697,2.6,1.3,-0.05696352,-0.03328604,0.01896114,-0.697672,-4.393767,-0.08725075,0.7899038,1.291811,0.36027,-0.009769656,0.01750277,-0.03037682,-0.9690024,0.09841326,-0.0273014,0.8797754,1.357067,0.2015295,0.507548,0.9768692,0.2851638,299.5863,240.0678,358.0726,True
0,0.05555556,0.05309531,-0.1044827,0.05596199,-1.375539,-4.363543,-3.010577,0.7358369,1.114749,0.4406323,-1.364044,0.0252719,2.6,1.3,-0.05069962,-0.008790553,0.00292143,-0.6982393,-4.392694,-0.08771653,0.7898136,1.291757,0.3603151,-0.01190534,0.01429891,-0.03249029,-0.9694386,0.09846492,-0.02711977,0.8798393,1.357012,0.2015696,0.5079139,0.9764677,0.2847162,299.631,240.0157,357.994,True
0,0.06666667,0.06264856,-0.0767485,0.06115952,-1.376411,-4.363521,-3.011545,0.7358007,1.114596,0.4405587,-1.364014,0.002597067,2.9,1.4,-0.05505077,0.006128002,-0.007690357,-0.6988246,-4.391865,-0.0874939,0.7896761,1.29171,0.360271,-0.01086148,0.01216597,-0.03781343,-0.9699541,0.09863017,-0.02720685,0.8798211,1.35689,0.2015655,0.5082551,0.9760359,0.2842752,299.6997,239.9598,357.941,True
0,0.07777778,0.06795627,-0.05967824,0.06534115,-1.377285,-4.363333,-3.012523,0.7357863,1.114494,0.4405127,-1.364215,-0.01839548,2.9,1.4,-0.04551703,0.02955235,-0.01630618,-0.6994409,-4.390097,-0.08867421,0.7896399,1.291666,0.3602917,-0.00979748,0.01962529,-0.03569289,-0.9701698,0.09917266,-0.02748489,0.8798637,1.356796,0.2015958,0.5085198,0.9756087,0.2838475,299.7964,239.9501,357.8419,True
0,0.08888889,0.07752332,-0.04366064,0.07059196,-1.378201,-4.363287,-3.013645,0.7356518,1.114455,0.440491,-1.364529,-0.02858467,2.9,1.4,-0.04114793,0.03167705,-0.005694076,-0.6990718,-4.389459,-0.08882415,0.7896359,1.291592,0.3603706,-0.003373602,0.01858212,-0.03040075,-0.9703382,0.09937705,-0.02778609,0.8798928,1.356726,0.2016098,0.5087168,0.9752257,0.2835039,299.8732,240.0129,357.6719,True
0,0.1,0.0711267,-0.04474881,0.06526848,-1.37867,-4.362743,-3.014196,0.7356565,1.114339,0.4404948,-1.364487,0.004007638,2.9,1.4,-0.03038329,0.003964717,0.009107254,-0.6983544,-4.390788,-0.08782386,0.7895961,1.291618,0.3603878,-0.007641841,0.0207072,-0.03144192,-0.9706753,0.09976841,-0.02784042,0.879918,1.356702,0.2016346,0.5088501,0.9748948,0.2832854,299.9221,240.1206,357.5013,True
0,0.1111111,0.05730102,-0.06399538,0.05363517,-1.378642,-4.361295,-3.014656,0.7356392,1.114192,0.4404616,-1.364585,-0.009058801,2.9,1.4,-0.02503874,-0.03759301,0.01650125,-0.6978089,-4.3936,-0.08558947,0.7896241,1.291565,0.3604631,-0.007623881,0.02071232,-0.02824608,-0.9709081,0.1000077,-0.0278833,0.8799568,1.356641,0.2016468,0.5089418,0.9746131,0.283195,299.969,240.2382,357.3672,True
0,0.1222222,0.05198503,-0.07891599,0.05263399,-1.378968,-4.359903,-3.01527,0.7355459,1.114095,0.4404547,-1.363884,0.06418552,2.7,1.2,-0.02301618,-0.05995907,0.009030349,-0.6977386,-4.395613,-0.08384057,0.7896447,1.291484,0.3604524,-0.00870874,0.02176283,-0.03143505,-0.9713417,0.1001942,-0.02786279,0.8799829,1.356576,0.2016475,0.5089847,0.9743672,0.2832124,300.0008,240.3412,357.286,True
0,0.1333333,0.04773239,-0.08534732,0.04520609,-1.379055,-4.358696,-3.015872,0.7355071,1.114019,0.4404523,-1.363542,0.03065834,2.7,1.2,-0.02237085,-0.05782031,-0.03252449,-0.6994702,-4.396577,-0.08287384,0.7895908,1.29145,0.3604767,-0.003365004,0.01644938,-0.03039127,-0.9716495,0.1001744,-0.02799009,0.8800178,1.356545,0.2016518,0.509052,0.9741411,0.2832989,300.0069,240.3837,357.3153,True
0,0.1444445,0.04879786,-0.08001906,0.044111,-1.379369,-4.358064,-3.016685,0.7354837,1.114087,0.4402828,-1.363717,-0.0161938,2.7,1.2,-0.02138108,-0.04930631,-0.04105806,-0.7001749,-4.397096,-0.08224934,0.7896532,1.291441,0.360564,-0.001202203,0.01007149,-0.02719071,-0.9717736,0.1001089,-0.0280327,0.8800586,1.35656,0.2016881,0.5091554,0.9739146,0.2833541,300.0196,240.3714,357.4047,True
0,0.1555556,0.04347306,-0.08109985,0.04198396,-1.379637,-4.357091,-3.017175,0.7354465,1.114059,0.4402604,-1.363801,-0.007454285,2.7,1.2,-0.01914274,-0.04185378,-0.03149143,-0.7001988,-4.397428,-0.08185545,0.7896229,1.29144,0.3605974,-0.001223888,0.008999368,-0.03145013,-0.9722679,0.1001655,-0.02805028,0.8800951,1.356523,0.2016981,0.5092888,0.973689,0.2833115,300.0529,240.3778,357.4293,True
0,0.1666667,0.04346378,-0.07792173,0.03876277,-1.379713,-4.356272,-3.017743,0.7354927,1.113962,0.4401267,-1.364146,-0.03146199,3,1.2,-0.02003672,-0.03227101,-0.01549633,-0.6996646,-4.397495,-0.08149166,0.7896974,1.291368,0.3605194,-0.004418734,0.007926229,-0.03249599,-0.9726738,0.1002511,-0.02800234,0.8801419,1.356397,0.2017715,0.5094605,0.9734775,0.2831575,300.1138,240.3916,357.4035,True
0,0.1777778,0.04026724,-0.0779149,0.04089237,-1.380123,-4.355331,-3.018255,0.7354907,1.113923,0.4401209,-1.363801,0.03178601,3,1.2,-0.02507296,-0.01841887,0.0111908,-0.6986132,-4.396882,-0.0815119,0.7896867,1.291408,0.3605113,-0.007581411,0.01006394,-0.02608868,-0.9727505,0.10055,-0.02803989,0.8800424,1.356322,0.2018569,0.5096547,0.9733026,0.2828974,300.1798,240.4042,357.3465,True
0,0.1888889,0.02537062,-0.09500342,0.03563594,-1.380066,-4.353614,-3.018389,0.7354237,1.113965,0.4401293,-1.363876,-0.007192867,3,1.2,-0.02170794,-0.002445616,0.02607205,-0.6979208,-4.396068,-0.08196571,0.7896633,1.291479,0.3605814,-0.008642778,0.002601213,-0.02820139,-0.9731201,0.1002763,-0.02777943,0.8800284,1.356283,0.2018926,0.5098745,0.9731579,0.2825581,300.2039,240.3697,357.3004,True
0,0.2,0.0147193,-0.09714976,0.03563754,-1.380233,-4.352344,-3.018478,0.7353947,1.113981,0.4400775,-1.363829,0.004374322,3,1.2,-0.02056447,0.001811995,0.03352064,-0.6973695,-4.395854,-0.08189487,0.7895976,1.291471,0.3605454,-0.003291667,0.004755504,-0.02290261,-0.9731276,0.1004885,-0.0280327,0.8799682,1.35624,0.2018852,0.5101279,0.9730271,0.282168,300.1962,240.309,357.2594,True
0,0.2111111,0.009389412,-0.09185889,0.02921907,-1.380225,-4.35145,-3.018566,0.7354558,1.113925,0.4400475,-1.363333,0.04532271,3,1.2,-0.01637922,0.001807136,0.02602068,-0.6973157,-4.395822,-0.08186211,0.7895889,1.291466,0.3605385,0.00316255,-0.002677394,-0.01440727,-0.9730493,0.1001428,-0.02806732,0.8799423,1.356188,0.2018731,0.5104132,0.9729049,0.2817645,300.2034,240.251,357.1892,True
0,0.2222222,0.002960578,-0.05884814,0.02799094,-1.380479,-4.351853,-3.018288,0.7355585,1.113869,0.4400003,-1.363383,-0.004859079,2.4,1.5,-0.0121897,0.00500107,0.01852117,-0.6974078,-4.395537,-0.08207889,0.7895434,1.29149,0.3605444,0.00531207,-0.0154609,-0.01545974,-0.9731883,0.09938544,-0.02773203,0.8799335,1.356199,0.2017546,0.5106944,0.9728004,0.2813437,300.2483,240.1502,357.1602,True
0,0.2333333,0.007173394,-0.01194622,0.0330973,-1.381159,-4.353166,-3.018251,0.7356722,1.113812,0.4399331,-1.363537,-0.01395658,2.4,1.5,-0.002723013,0.003924032,0.006706014,-0.6977679,-4.395521,-0.08235506,0.7895913,1.2915,0.3605821,0.00108791,-0.02718476,-0.0132866,-0.9732272,0.09852431,-0.02711551,0.8799145,1.356177,0.2017376,0.5109508,0.9727386,0.2809213,300.2805,240.0614,357.1296,True
0,0.2444444,0.003948129,0.01894717,0.0329472,-1.381615,-4.354349,-3.018012,0.7357867,1.113779,0.4398906,-1.363498,0.003723246,2.4,1.5,0.00474374,-0.001410418,0.008767294,-0.6974446,-4.39571,-0.08242989,0.789657,1.291508,0.3605633,-0.002085702,-0.03251671,-0.01218866,-0.973233,0.09791019,-0.0266886,0.8800045,1.356179,0.2017,0.5111805,0.9727206,0.2805485,300.275,239.9898,357.0811,True
0,0.2555556,0.004980242,0.05092688,0.03705787,-1.38239,-4.355985,-3.017799,0.7359198,1.113721,0.4398627,-1.363951,-0.04140015,2.4,1.5,0.01323383,-0.01633639,0.007613492,-0.6973343,-4.396766,-0.08205572,0.7897419,1.291487,0.3606224,0.002143001,-0.02292343,-0.01435838,-0.9734706,0.09803908,-0.02694373,0.8799877,1.356137,0.2017131,0.5113069,0.9727476,0.280289,300.2614,240.0089,356.9574,True
0,0.2666667,-0.0003614221,0.06691462,0.04123944,-1.38308,-4.357016,-3.017441,0.7359421,1.113695,0.439898,-1.363801,0.01411008,1.7,1.2,0.03124611,-0.03127886,-2.518191E-05,-0.6974435,-4.398173,-0.08188608,0.7899101,1.291397,0.3606586,-0.001096824,-0.01548021,-0.01861314,-0.9738418,0.09818822,-0.02685825,0.8801147,1.356107,0.2016985,0.5113044,0.9728211,0.2802093,300.2304,240.113,356.8141,True
0,0.2777778,-0.01633579,0.06367281,0.03485809,-1.383314,-4.35764,-3.016562,0.7360678,1.113639,0.439918,-1.363906,-0.00977933,1.7,1.2,0.04394877,-0.03449163,-0.007612131,-0.6977418,-4.398988,-0.08219394,0.7900222,1.29137,0.3607147,0.00745384,-0.01758754,-0.01546132,-0.9738818,0.0978223,-0.02710326,0.8801346,1.356113,0.2016654,0.5111952,0.9729324,0.2803293,300.1938,240.2358,356.7331,True
0,0.2888889,-0.03763019,0.05083846,0.02958118,-1.383399,-4.357588,-3.015389,0.7361664,1.113611,0.4399176,-1.363683,0.02052739,1.7,1.2,0.05553996,-0.0419659,-0.01945302,-0.6983399,-4.400185,-0.08232896,0.7901976,1.291408,0.3607905,0.01713839,-0.03779246,-0.005895665,-0.9736043,0.09651642,-0.02685239,0.8801328,1.3561,0.2015989,0.5109974,0.9730716,0.2806329,300.1476,240.406,356.6757,True
0,0.3,-0.04295709,0.05186197,0.02211522,-1.383433,-4.358202,-3.014649,0.7362775,1.113608,0.4399853,-1.36311,0.05225063,1.7,1.2,0.04816414,-0.0547347,-0.01085317,-0.698039,-4.401617,-0.08163654,0.7902979,1.29142,0.3607445,0.02461038,-0.0473702,-0.006986854,-0.9737108,0.09545875,-0.02674932,0.8801039,1.356043,0.201484,0.5107474,0.9732229,0.2810566,300.0982,240.5665,356.687,True
0,0.3111111,-0.05361747,0.06350462,0.008208402,-1.383228,-4.359343,-3.013486,0.7364477,1.113641,0.4399924,-1.36273,0.03433948,1.7,1.2,0.05270653,-0.05474471,0.01679981,-0.6969503,-4.402461,-0.08167462,0.7905561,1.291444,0.3607142,0.03309978,-0.05162517,-0.01448498,-0.9740884,0.09457218,-0.02689899,0.8801094,1.356018,0.2014091,0.5105225,0.9733886,0.2815117,300.0541,240.6748,356.789,True
0,0.3222222,-0.06534596,0.06984968,0.001778878,-1.383114,-4.360301,-3.01217,0.7366284,1.113574,0.4400139,-1.363377,-0.05930026,2,1.7,0.05491801,-0.05155283,0.02423976,-0.6963208,-4.403081,-0.08190019,0.7907487,1.291417,0.360683,0.03519554,-0.05589067,-0.02301641,-0.9746727,0.09373634,-0.02692083,0.8800642,1.355952,0.2013843,0.5103461,0.9735874,0.2818865,300.0313,240.7387,356.9054,True
0,0.3333333,-0.08133917,0.08578331,-0.00469242,-1.383018,-4.36184,-3.010467,0.7368395,1.113576,0.440068,-1.363233,0.01381841,2,1.7,0.06909508,-0.04518596,0.05499068,-0.6946664,-4.403341,-0.0830387,0.7909994,1.291385,0.3607068,0.04690244,-0.05906679,-0.02627307,-0.9750696,0.09282448,-0.02732883,0.8800583,1.355951,0.2012949,0.5102255,0.9738352,0.2821607,299.9962,240.7743,356.9654,True
0,0.3444445,-0.100526,0.09531143,-0.01433149,-1.382712,-4.363329,-3.008358,0.7369758,1.113519,0.4401655,-1.363115,0.01063663,2,1.7,0.08084829,-0.03667436,0.0570076,-0.6939788,-4.403335,-0.08435776,0.7912576,1.291246,0.3607295,0.0565611,-0.06860927,-0.01778698,-0.9749029,0.09173404,-0.02770566,0.8800162,1.356024,0.2011693,0.5101241,0.9741293,0.2823482,299.9407,240.7848,357.0005,True
0,0.3555556,-0.1271648,0.1037779,-0.02077082,-1.382455,-4.364898,-3.005701,0.737208,1.11354,0.4402452,-1.362938,0.01616054,2,1.7,0.09888494,-0.03349907,0.04936797,-0.6937194,-4.40361,-0.08584061,0.7916094,1.291195,0.360703,0.06624648,-0.08029076,-0.003972518,-0.9744394,0.09011152,-0.02775147,0.8799363,1.356015,0.200984,0.5100225,0.9744624,0.2824665,299.8593,240.783,357.0179,True
0,0.3666667,-0.151679,0.1165057,-0.02936194,-1.382123,-4.366768,-3.002847,0.7374011,1.113664,0.4402406,-1.36264,0.02723604,1.7,0.9,0.1158604,-0.03884696,0.04279969,-0.693476,-4.404479,-0.08706725,0.792031,1.291148,0.3607013,0.07481549,-0.0994463,-0.002924819,-0.9743814,0.08800869,-0.02768889,0.8799022,1.35602,0.2008049,0.5098836,0.9748437,0.2825564,299.7743,240.7681,357.0193,True
0,0.3777778,-0.1793986,0.1366841,-0.03905146,-1.381715,-4.369169,-2.999473,0.737733,1.113743,0.4403014,-1.362246,0.03589099,1.7,0.9,0.1350699,-0.05485553,0.04793018,-0.692636,-4.406163,-0.08791441,0.7925363,1.291095,0.3607731,0.08975231,-0.1079393,-0.001935072,-0.9744411,0.08621944,-0.02811765,0.8799698,1.355924,0.2005153,0.5096676,0.9752837,0.282658,299.6845,240.7313,357.0414,True
0,0.3888889,-0.2124554,0.172837,-0.04668791,-1.381399,-4.372336,-2.995501,0.7380908,1.113805,0.4403226,-1.362271,-0.002372123,1.7,0.9,0.1628876,-0.07620278,0.0625593,-0.6913609,-4.408343,-0.08887315,0.7930874,1.29108,0.3608246,0.1014819,-0.1217683,-0.005174895,-0.9745598,0.08409171,-0.02837758,0.8799551,1.355894,0.2003028,0.5093928,0.9758366,0.2828014,299.6132,240.7231,357.0762,True
0,0.4,-0.2327147,0.1994514,-0.04788508,-1.381325,-4.37556,-2.991828,0.7383846,1.113843,0.4403307,-1.36208,0.01766786,1.7,0.9,0.1842244,-0.0986025,0.06767202,-0.6902045,-4.410941,-0.08968115,0.793653,1.291037,0.3607492,0.1046863,-0.1292211,-0.00731315,-0.9746876,0.0821235,-0.02857066,0.8799398,1.355867,0.2000914,0.5090457,0.9765528,0.2829941,299.5268,240.7169,357.1458,True
0,0.4111111,-0.2636478,0.2399126,-0.04595347,-1.381498,-4.379733,-2.987053,0.7387882,1.113934,0.4403753,-1.361845,0.02152031,1.7,0.9,0.2130328,-0.1114277,0.07376933,-0.6890242,-4.413441,-0.09110008,0.7943368,1.291025,0.3607843,0.1089769,-0.1430608,-0.007315244,-0.9747286,0.0796646,-0.02854376,0.8799399,1.355846,0.1998315,0.5086481,0.9774622,0.2832745,299.3778,240.7132,357.2315,True
0,0.4222222,-0.2839044,0.2633287,-0.04607518,-1.381512,-4.383453,-2.982695,0.7391194,1.114088,0.4403553,-1.362374,-0.04837555,2.9,1.3,0.2311631,-0.1167816,0.07571501,-0.6880261,-4.415561,-0.09265137,0.794973,1.291038,0.3608084,0.1175658,-0.154751,0.0001119263,-0.9744267,0.07717308,-0.02867346,0.8799212,1.355886,0.1996334,0.5081319,0.9785646,0.28365,299.1681,240.7519,357.3115,True
0,0.4333333,-0.3265303,0.2792469,-0.05042417,-1.381433,-4.387291,-2.976871,0.7395314,1.114257,0.4403646,-1.361752,0.05745825,2.9,1.3,0.2512051,-0.1263953,0.05739899,-0.6878892,-4.418268,-0.09407084,0.7957577,1.290977,0.3607767,0.1389608,-0.1770651,0.007484457,-0.974008,0.07391058,-0.02912353,0.8799274,1.355874,0.1993208,0.507498,0.9798342,0.2841245,298.8938,240.8359,357.3878,True
0,0.4444444,-0.3531592,0.2781011,-0.06001619,-1.380951,-4.39028,-2.971606,0.7399607,1.114378,0.4403279,-1.362251,-0.04596852,2.9,1.3,0.2531219,-0.1594125,0.04140032,-0.6876559,-4.422574,-0.09347429,0.7966039,1.290872,0.3606977,0.1496828,-0.2100678,0.007476782,-0.9738264,0.0697607,-0.02877439,0.8799698,1.355884,0.1989911,0.5067573,0.9812644,0.2847044,298.6111,240.9812,357.4547,True
0,0.4555556,-0.3925733,0.282234,-0.07922317,-1.379996,-4.393866,-2.965165,0.7404019,1.114477,0.4403119,-1.361141,0.1021869,2.9,1.3,0.2402754,-0.2073283,0.04258713,-0.6868132,-4.428473,-0.09101167,0.7974397,1.290742,0.3606756,0.1635257,-0.2249631,-3.448641E-05,-0.974,0.06622683,-0.02908918,0.8800207,1.35587,0.1986401,0.5059559,0.9828373,0.2853531,298.2979,241.0943,357.6057,True
0,0.4666667,-0.4341176,0.2884863,-0.09951284,-1.378822,-4.397556,-2.958371,0.7409133,1.11456,0.4402571,-1.361708,-0.05259509,2.9,1.3,0.2467158,-0.233971,0.05104049,-0.6856297,-4.433826,-0.08977436,0.7983155,1.290658,0.3606508,0.1699053,-0.2281517,-0.00326031,-0.9740325,0.06305127,-0.02938532,0.8800472,1.35587,0.1983261,0.5051346,0.9845474,0.2860139,297.9735,241.1742,357.8229,True
0,0.4777778,-0.4692868,0.3054503,-0.1113243,-1.377997,-4.40193,-2.951286,0.7414575,1.114639,0.4402635,-1.36105,0.06088895,1.5,0.8,0.2572874,-0.2425012,0.04454584,-0.6850135,-4.438053,-0.08964387,0.7991041,1.290624,0.3605552,0.1720471,-0.2260092,-8.564489E-05,-0.9739281,0.06022086,-0.02969345,0.8799111,1.355796,0.1980474,0.5043661,0.9863635,0.2866157,297.588,241.1394,358.1431,True
0,0.4888889,-0.4938207,0.3395006,-0.1146879,-1.377555,-4.407018,-2.944076,0.7418793,1.11481,0.4403024,-1.360987,0.005479047,1.5,0.8,0.2731484,-0.241457,0.03266539,-0.6847919,-4.442203,-0.08995865,0.7998672,1.290607,0.3605716,0.1699607,-0.2270671,0.007384987,-0.9735313,0.05716542,-0.02975177,0.8799378,1.355807,0.1977582,0.5036102,0.9882441,0.2871244,297.1903,241.0215,358.483,True
0,0.5,-0.5023643,0.3608241,-0.110519,-1.377571,-4.411955,-2.937345,0.7422351,1.115126,0.4404106,-1.361195,-0.01876061,1.5,0.8,0.2719461,-0.2371879,0.01883136,-0.6847621,-4.445996,-0.08992802,0.8006836,1.290565,0.3605626,0.1732444,-0.2313026,0.02016473,-0.9726914,0.05387735,-0.03005457,0.8800285,1.355812,0.1974757,0.5028692,0.9901915,0.2875539,296.7934,240.8684,358.8013,True
0,0.5111111,-0.5098617,0.3981721,-0.09578247,-1.378144,-4.417681,-2.93033,0.7425615,1.11549,0.4403758,-1.361579,-0.03462172,1.5,0.8,0.2578811,-0.229708,-0.003397521,-0.6853629,-4.449714,-0.08944812,0.8014073,1.290633,0.3605139,0.165843,-0.2376983,0.02767373,-0.9720644,0.05045039,-0.02969265,0.8801106,1.355831,0.1971514,0.5021,0.9922195,0.2879541,296.4095,240.7645,359.0168,True
0,0.5222223,-0.5183984,0.4141228,-0.1001214,-1.378005,-4.422997,-2.923338,0.7429031,1.115765,0.4403484,-1.362359,-0.07088805,2.1,0.9,0.2305265,-0.2243607,0.02991008,-0.6837038,-4.453483,-0.08813359,0.802173,1.29075,0.3603532,0.1658287,-0.2462243,0.02341752,-0.9720357,0.04689347,-0.02938692,0.8801692,1.355794,0.1967938,0.5012218,0.9943559,0.2883881,296.0492,240.7358,359.1405,True
0,0.5333334,-0.5365287,0.4375067,-0.1076939,-1.377855,-4.428887,-2.91568,0.7431946,1.11605,0.4403012,-1.362533,-0.01506438,2.1,0.9,0.2052525,-0.2094144,0.05680256,-0.6820153,-4.456145,-0.08750535,0.8028847,1.290803,0.3602004,0.1667855,-0.2515824,0.002114377,-0.9726658,0.04325693,-0.02922446,0.8802744,1.355788,0.1964469,0.5002459,0.9966282,0.288914,295.6838,240.7926,359.2235,True
0,0.5444446,-0.5482629,0.4523785,-0.1152235,-1.377528,-4.434577,-2.908155,0.7435868,1.116292,0.4403415,-1.362671,-0.0124639,2.1,0.9,0.1842701,-0.1870208,0.08578916,-0.6798193,-4.457952,-0.08742039,0.8035963,1.290814,0.3599887,0.1677846,-0.2494666,-0.008550185,-0.9730823,0.04001866,-0.02928758,0.8803653,1.355711,0.1960907,0.4991506,0.9990292,0.2895436,295.2708,240.8996,359.3468,True
0,0.5555557,-0.5770343,0.4671749,-0.1344773,-1.376782,-4.440722,-2.89958,0.7438358,1.116555,0.4403143,-1.36231,0.0331889,2.1,0.9,0.1614783,-0.1454496,0.1435559,-0.6760456,-4.45751,-0.08866835,0.804304,1.290845,0.3597188,0.1677958,-0.2462656,-0.0053594,-0.9729678,0.03683884,-0.02936295,0.8804408,1.355708,0.1957686,0.4979908,1.001507,0.2902768,294.7909,240.8936,359.6298,True
0,0.5666668,-0.5972806,0.4724171,-0.1483593,-1.376009,-4.44653,-2.891086,0.7441055,1.116842,0.4402761,-1.362555,-0.02250826,2.1,0.9,0.1513282,-0.09643708,0.1862803,-0.6724269,-4.455782,-0.09129582,0.8050334,1.290867,0.359483,0.1635813,-0.2419944,0.005316607,-0.9723175,0.03386929,-0.02928731,0.8804483,1.355657,0.1955492,0.4967735,1.004026,0.2911143,294.2965,240.8569,359.9521,True
0,0.577778,-0.6185901,0.4861426,-0.1718654,-1.374832,-4.453021,-2.882312,0.7442811,1.117186,0.4402142,-1.361838,0.0659203,2.1,1,0.1617673,-0.08791618,0.1638248,-0.6712918,-4.456699,-0.09293207,0.8057716,1.290959,0.3593762,0.1582623,-0.2505275,0.004287314,-0.9723462,0.03016403,-0.02874616,0.8804612,1.355631,0.1951716,0.4955644,1.006553,0.2920667,293.7965,240.7872,0.3158874,True
0,0.5888891,-0.626061,0.5031368,-0.1815364,-1.374158,-4.459697,-2.87381,0.7443504,1.117641,0.4400902,-1.362014,-0.01650278,2.1,1,0.1708834,-0.1134911,0.1211127,-0.6713025,-4.460183,-0.09239332,0.8065224,1.291022,0.3592958,0.1603195,-0.2526757,-0.00956993,-0.9728463,0.02668687,-0.02864283,0.8806055,1.355601,0.1948214,0.4942553,1.009079,0.2930904,293.3462,240.701,0.7211348,True
0,0.6000003,-0.6239511,0.5265557,-0.1869682,-1.373827,-4.466954,-2.865497,0.7444228,1.118137,0.4399776,-1.362149,-0.01200264,2.1,1,0.1597894,-0.1582217,0.08499107,-0.6712897,-4.465642,-0.08938075,0.8074056,1.29111,0.3591895,0.1602727,-0.2580147,-0.0180912,-0.9733369,0.02299826,-0.02822232,0.8807772,1.355656,0.1944273,0.4928822,1.011639,0.2941546,292.9238,240.5927,1.172303,True
0,0.6111114,-0.6228969,0.5393253,-0.1902235,-1.37348,-4.473816,-2.857324,0.7443914,1.118688,0.4398632,-1.362692,-0.04943103,2.1,1,0.137205,-0.2103875,0.07136223,-0.6706393,-4.472081,-0.08513433,0.8081977,1.291229,0.3591158,0.1528182,-0.2761506,-0.02441234,-0.9737369,0.01850178,-0.02714347,0.8808932,1.355626,0.1941185,0.4913951,1.014266,0.2952375,292.5259,240.4724,1.631534,True
0,0.6222225,-0.6282293,0.5478436,-0.1913277,-1.37323,-4.480652,-2.848872,0.7444206,1.11919,0.4397483,-1.363223,-0.04798344,1.2,0.8,0.1169984,-0.2508392,0.08007202,-0.6691719,-4.478319,-0.08091136,0.8089368,1.291269,0.359024,0.1538857,-0.2654838,-0.02018165,-0.9738179,0.01550399,-0.02720499,0.8810539,1.355569,0.1937568,0.4898064,1.017007,0.2963372,292.1238,240.4304,2.01818,True
0,0.6333337,-0.645273,0.5509582,-0.2051965,-1.372402,-4.487692,-2.839612,0.7441336,1.119739,0.4396937,-1.363447,-0.0200246,1.2,0.8,0.08510739,-0.2880812,0.09210896,-0.6673573,-4.48558,-0.07505108,0.8097456,1.291369,0.3588567,0.1453542,-0.2441858,-0.01377559,-0.9737103,0.01305375,-0.02718075,0.8811545,1.355562,0.1934266,0.4881739,1.019873,0.2974748,291.6817,240.4243,2.379291,True
0,0.6444448,-0.648457,0.5477375,-0.2073058,-1.372059,-4.494081,-2.831143,0.7440646,1.120208,0.4396265,-1.363268,0.01660026,1.2,0.8,0.07353033,-0.2869981,0.1060842,-0.6653663,-4.490242,-0.07187525,0.8104659,1.291401,0.3585227,0.1411029,-0.2367297,-0.007366784,-0.9734461,0.01012547,-0.0268191,0.8812227,1.355573,0.1930401,0.4865444,1.022839,0.2986387,291.1927,240.3724,2.804286,True
0,0.655556,-0.6771787,0.509295,-0.2209833,-1.370643,-4.499182,-2.821513,0.7436423,1.120818,0.4396131,-1.362587,0.06211733,1.2,0.8,0.06404832,-0.2528895,0.1115149,-0.6638179,-4.492602,-0.07051891,0.8111416,1.291484,0.3582559,0.145379,-0.2409802,-0.006318766,-0.9734061,0.006697451,-0.02666543,0.8813643,1.355569,0.1926444,0.484912,1.02586,0.2998019,290.6769,240.2313,3.303346,True
0,0.6666671,-0.6888648,0.4815335,-0.2314968,-1.369319,-4.504382,-2.812374,0.7434275,1.121517,0.439748,-1.363308,-0.06633689,1.2,0.8,0.05455475,-0.2326363,0.1180063,-0.6621098,-4.495606,-0.06844457,0.8118156,1.291611,0.3580153,0.1582482,-0.2430566,0.01065822,-0.972603,0.003279683,-0.02684253,0.8815471,1.355463,0.1922247,0.4831709,1.028922,0.3009478,290.1767,239.989,3.872895,True
0,0.6777782,-0.7111931,0.4430668,-0.2515643,-1.367119,-4.508957,-2.802622,0.7430691,1.122234,0.4396207,-1.362137,0.1078719,1.4,0.9,0.0567299,-0.231561,0.1222329,-0.6606546,-4.499465,-0.06612895,0.8124238,1.291826,0.3578045,0.1624888,-0.2505168,0.00532119,-0.9726573,-0.0004472779,-0.02661909,0.8816279,1.355378,0.1917481,0.4814914,1.032003,0.3020799,289.6533,239.7157,4.491545,True
0,0.6888894,-0.7207613,0.4280675,-0.2696037,-1.365153,-4.514481,-2.793125,0.7428472,1.12305,0.4395473,-1.362685,-0.05112002,1.4,0.9,0.04925181,-0.2390074,0.1212424,-0.6591356,-4.504104,-0.0627787,0.813028,1.291979,0.3575747,0.1560185,-0.2558819,-0.01061368,-0.973233,-0.004165051,-0.02606542,0.8818129,1.355334,0.1913452,0.4798071,1.035098,0.3031098,289.2033,239.2813,5.236058,True
0,0.7000005,-0.7282419,0.4461415,-0.275014,-1.364184,-4.521169,-2.783363,0.7426263,1.123784,0.4393582,-1.362231,0.04226209,1.4,0.9,0.02798384,-0.2432403,0.1257231,-0.6573779,-4.508721,-0.05868435,0.8136749,1.292081,0.3573081,0.1463412,-0.2516621,-0.02441541,-0.9738834,-0.007412376,-0.02551388,0.8819464,1.355373,0.1909833,0.4782499,1.038247,0.3040472,288.7713,238.7297,6.058507,True
0,0.7111117,-0.7389295,0.482341,-0.2773169,-1.363561,-4.528642,-2.773298,0.7422684,1.124484,0.4392612,-1.362813,-0.05344506,1.4,0.9,0.003602102,-0.2357501,0.1366254,-0.6553565,-4.512393,-0.05498336,0.8142395,1.292206,0.3570704,0.1334705,-0.2357246,-0.03395622,-0.9745433,-0.009955429,-0.02513305,0.8821195,1.35535,0.1906531,0.4767337,1.04147,0.3048317,288.3603,238.0431,7.000631,True
0,0.7222228,-0.7464204,0.5089958,-0.2699763,-1.363532,-4.535844,-2.763353,0.7420304,1.125073,0.439126,-1.363028,-0.0190463,1.4,0.9,-0.007059246,-0.2314799,0.135668,-0.6537768,-4.516295,-0.05144908,0.8149135,1.292377,0.3567135,0.1259902,-0.2250867,-0.03393346,-0.9748528,-0.01254069,-0.02482892,0.8824013,1.35536,0.1902575,0.4752781,1.044806,0.3055219,287.9328,237.3324,7.897926,True
0,0.7333339,-0.7592221,0.5250022,-0.2615327,-1.363466,-4.542836,-2.753087,0.7416424,1.125693,0.439049,-1.363037,-0.0005588965,0.8,1,-0.01455446,-0.23573,0.1325475,-0.6523147,-4.520695,-0.04751665,0.8154167,1.292537,0.356456,0.1174703,-0.2176424,-0.03070146,-0.9750344,-0.01514287,-0.02436073,0.8825587,1.355337,0.1898878,0.4737604,1.048266,0.3062016,287.4479,236.709,8.668978,True
0,0.7444451,-0.7666958,0.5303456,-0.2541126,-1.363306,-4.549483,-2.742887,0.7413977,1.126282,0.438906,-1.363216,-0.01629515,0.8,1,-0.01646161,-0.230406,0.1538669,-0.6498747,-4.524488,-0.04429369,0.816019,1.292683,0.3561375,0.1111451,-0.2133757,-0.01895544,-0.974808,-0.01790829,-0.02398443,0.8827281,1.355336,0.1894836,0.4721141,1.051841,0.3069832,286.9042,236.0828,9.454412,True
0,0.7555562,-0.7752405,0.5517004,-0.2424968,-1.363874,-4.556876,-2.732444,0.741052,1.126866,0.4388044,-1.362983,0.02144434,0.8,1,-0.01637994,-0.2186888,0.1602599,-0.6477559,-4.527701,-0.04155171,0.8165294,1.29279,0.3558772,0.1058217,-0.2091224,-0.01680164,-0.9748725,-0.0205375,-0.02350905,0.8828522,1.355308,0.1891172,0.4704376,1.055488,0.3079297,286.3097,235.4723,10.30853,True
0,0.7666674,-0.7795249,0.5687674,-0.2383148,-1.364384,-4.564517,-2.721949,0.7407308,1.127488,0.4386652,-1.363067,-0.007709119,0.8,1,-0.01739407,-0.1909886,0.1623988,-0.6459348,-4.529451,-0.03979881,0.8170304,1.292863,0.3556378,0.0962732,-0.2123226,-0.0103498,-0.9746898,-0.02346751,-0.02254632,0.8829798,1.355204,0.1887016,0.4687438,1.059165,0.3090273,285.7184,234.8309,11.27592,True
0,0.7777785,-0.7763778,0.6104274,-0.2129454,-1.366414,-4.572743,-2.711803,0.7402456,1.128108,0.4384871,-1.363104,-0.003284928,0.9,1,-0.01200587,-0.1888618,0.1676641,-0.6439364,-4.532645,-0.03734444,0.817537,1.292841,0.3553693,0.09522038,-0.2016731,-0.003964414,-0.9744315,-0.02591615,-0.02222621,0.8830178,1.355293,0.1884456,0.4671218,1.062841,0.3102356,285.1448,234.174,12.3086,True
0,0.7888896,-0.783846,0.6243304,-0.1991743,-1.367864,-4.580253,-2.701482,0.7398614,1.128693,0.4382613,-1.363214,-0.009879684,0.9,1,-0.01627585,-0.1952477,0.1677065,-0.6420029,-4.536468,-0.03397182,0.8179977,1.292911,0.3551128,0.09948079,-0.1899391,0.000254319,-0.9742466,-0.0279532,-0.02233886,0.8831695,1.3553,0.1881382,0.4654903,1.066519,0.3115242,284.5922,233.6111,13.24419,True
0,0.8000008,-0.7923807,0.6349697,-0.1992269,-1.368956,-4.587853,-2.690991,0.7394993,1.129254,0.4381077,-1.363765,-0.05032175,0.9,1,-0.0345836,-0.2186567,0.1519049,-0.6408354,-4.541855,-0.02859809,0.8184534,1.292928,0.354845,0.0952009,-0.1846278,-0.0008002743,-0.9743345,-0.03032142,-0.02188346,0.8833327,1.355216,0.1877348,0.4638072,1.070217,0.3128779,284.0618,233.1352,14.09467,True
0,0.8111119,-0.8030538,0.655229,-0.1929118,-1.370867,-4.595852,-2.680276,0.7391466,1.129758,0.4380088,-1.363551,0.02011454,0.9,1,-0.05820605,-0.2282082,0.1350984,-0.6398644,-4.546557,-0.02338868,0.8188195,1.292973,0.3546467,0.09410273,-0.1803756,-0.005062088,-0.9744986,-0.03253744,-0.02163099,0.8834558,1.355197,0.1874304,0.4620373,1.073951,0.3142829,283.4987,232.8467,14.79349,True
0,0.8222231,-0.8094699,0.6829364,-0.1887856,-1.372884,-4.604502,-2.669411,0.7387701,1.130236,0.4378362,-1.363408,0.01278773,0.9,1,-0.06571692,-0.2356605,0.1319684,-0.6385248,-4.551425,-0.01841496,0.8192294,1.293087,0.3544581,0.08657447,-0.1590913,-0.01038087,-0.9747841,-0.03377075,-0.02169624,0.8835599,1.355193,0.1871333,0.4603258,1.077685,0.3156942,282.9246,232.3365,15.75241,True
0,0.8333342,-0.805223,0.694704,-0.1792518,-1.375144,-4.61272,-2.658944,0.7383289,1.130732,0.4376819,-1.363312,0.008780059,0.9,1,-0.05525494,-0.2324767,0.1126861,-0.6378782,-4.55563,-0.01478081,0.8195182,1.293104,0.3543091,0.07266308,-0.1378196,-0.01353232,-0.9750243,-0.03474386,-0.02149118,0.8836691,1.355183,0.1868999,0.458721,1.0814,0.3170858,282.3627,231.5649,16.92091,True
0,0.8444453,-0.7871261,0.7107754,-0.1633249,-1.378037,-4.620858,-2.64927,0.7378242,1.131299,0.4376621,-1.363349,-0.003413692,0.9,1,-0.03529234,-0.2133193,0.08265549,-0.637964,-4.558333,-0.01295868,0.8198009,1.293103,0.3541112,0.05985342,-0.1208024,-0.01134813,-0.9749109,-0.03578077,-0.02110555,0.883804,1.355221,0.1866572,0.4571773,1.085112,0.3184745,281.7998,230.8391,17.98948,True
0,0.8555565,-0.7679609,0.7225789,-0.1484613,-1.381011,-4.62898,-2.639807,0.7372892,1.131879,0.43752,-1.363719,-0.03366948,0.9,1,-0.0290996,-0.2026708,0.06234762,-0.6378569,-4.561557,-0.01017594,0.8199414,1.293206,0.354001,0.05026599,-0.1037676,-0.004929437,-0.9747116,-0.03639223,-0.02095002,0.883936,1.355237,0.1864266,0.455621,1.088845,0.3198886,281.2407,230.0893,19.08025,True
0,0.8666676,-0.7424062,0.73014,-0.1292965,-1.384479,-4.636716,-2.631034,0.7367252,1.132461,0.437396,-1.364537,-0.07446274,0.9,1,-0.04425976,-0.1983888,0.03693905,-0.6382553,-4.565188,-0.00632048,0.820144,1.293338,0.3537965,0.04488151,-0.09526501,-0.01130066,-0.9749939,-0.0373764,-0.02070501,0.8839908,1.355217,0.1862381,0.4540517,1.092605,0.3213403,280.6834,229.3258,20.18753,True
0,0.8777788,-0.7221512,0.7195351,-0.1260368,-1.387123,-4.64428,-2.622122,0.7362458,1.132972,0.4372821,-1.364764,-0.02021217,1.8,1,-0.08258393,-0.1908727,0.03838719,-0.6378473,-4.568334,-0.001663144,0.820192,1.293437,0.3536761,0.03634347,-0.09209837,-0.01339271,-0.975265,-0.03865632,-0.02017025,0.884066,1.355206,0.1860216,0.452486,1.096376,0.3228492,280.1079,228.5891,21.27299,True
0,0.8888899,-0.6997805,0.7195674,-0.1238997,-1.389986,-4.652007,-2.613641,0.7356513,1.133414,0.4371116,-1.365268,-0.04603244,1.8,1,-0.1249785,-0.1844234,0.05906126,-0.6365541,-4.571455,0.003591006,0.8201994,1.293513,0.3534343,0.02240273,-0.06976693,-0.02507145,-0.9757614,-0.03920972,-0.01981898,0.884155,1.355202,0.1858633,0.4509277,1.100121,0.3244041,279.5239,227.8457,22.40535,True
0,0.900001,-0.6891187,0.7174562,-0.1217375,-1.393011,-4.659567,-2.605032,0.735131,1.133798,0.4370098,-1.364998,0.0249392,1.8,1,-0.1493613,-0.180141,0.06995219,-0.6355559,-4.574975,0.008680574,0.820188,1.293641,0.3531311,0.01593651,-0.04315471,-0.02401056,-0.976178,-0.03836217,-0.02008077,0.8842863,1.355185,0.1856911,0.449439,1.103776,0.3259835,278.9277,226.955,23.70744,True
0,0.9111122,-0.6731231,0.7014825,-0.1237897,-1.395504,-4.666648,-2.596872,0.734493,1.134126,0.4369247,-1.365257,-0.02406583,1.8,1,-0.172602,-0.157739,0.08617277,-0.6340651,-4.576669,0.0127656,0.8200272,1.293723,0.3529122,0.01055599,-0.0058738,-0.01977815,-0.9762722,-0.03693138,-0.0208419,0.8843694,1.355168,0.1855452,0.4480383,1.107271,0.327559,278.3647,225.6746,25.39308,True
0,0.9222233,-0.6507345,0.6780733,-0.1226109,-1.397867,-4.673247,-2.589113,0.7339047,1.134487,0.4368572,-1.364973,0.02612927,1.8,1,-0.1810092,-0.1438777,0.0958382,-0.6328906,-4.578584,0.01653557,0.8199871,1.293806,0.352654,0.004130405,0.006896201,-0.01975841,-0.9764368,-0.03643364,-0.02087465,0.8845091,1.35514,0.1854563,0.4466598,1.110575,0.3291204,277.8312,224.2716,27.16978,True
0,0.9333345,-0.6208636,0.6557425,-0.1225013,-1.400138,-4.67962,-2.582308,0.7332935,1.134759,0.4367776,-1.365147,-0.0162162,1.1,1,-0.1799958,-0.1044614,0.08518122,-0.6323447,-4.578135,0.01814039,0.8196939,1.29391,0.3525403,-0.01504973,0.01218452,-0.01859395,-0.9766105,-0.03604322,-0.02023603,0.8846129,1.35512,0.1853235,0.445307,1.11367,0.3306739,277.3442,222.9125,28.88235,True
0,0.9444456,-0.5942236,0.6536586,-0.1171739,-1.402863,-4.686273,-2.575627,0.7326123,1.135088,0.4366267,-1.365327,-0.01644738,1.1,1,-0.1653578,-0.0618644,0.05200826,-0.6330403,-4.57679,0.0183055,0.8193957,1.293972,0.3524563,-0.02895449,0.01960089,-0.02492564,-0.9771996,-0.03563989,-0.01962031,0.884696,1.35509,0.1852825,0.4439589,1.116553,0.3322002,276.9164,221.4295,30.71575,True
0,0.9555568,-0.5356233,0.6590644,-0.1139882,-1.405876,-4.693322,-2.570694,0.731953,1.13544,0.4365041,-1.366063,-0.06723193,1.1,1,-0.1613598,-0.03417417,0.02214653,-0.6336725,-4.576172,0.01946318,0.8191188,1.294125,0.3522611,-0.05251495,0.04403248,-0.03761538,-0.9780598,-0.03413041,-0.01910232,0.884833,1.35506,0.1852412,0.442667,1.11923,0.333678,276.5416,219.966,32.52356,True
0,0.9666679,-0.4802448,0.66342,-0.1033303,-1.409308,-4.700059,-2.566172,0.7313102,1.135826,0.4364505,-1.366067,-3.637337E-05,1.1,1,-0.1807386,-0.03307779,0.002102243,-0.6343628,-4.57672,0.02253327,0.8186719,1.294214,0.3521762,-0.06320294,0.06319072,-0.03652589,-0.9785178,-0.0324618,-0.0189902,0.8849218,1.355004,0.1852114,0.44142,1.121699,0.3350938,276.1877,218.5023,34.31203,True
0,0.977779,-0.4344352,0.6485472,-0.1021872,-1.411968,-4.70629,-2.561668,0.7307714,1.136029,0.436424,-1.367549,-0.1357661,1.7,1.3,-0.2030666,-0.03198671,0.006585033,-0.6341173,-4.577486,0.02617674,0.8183158,1.294298,0.3520875,-0.07923007,0.09085259,-0.03435544,-0.978937,-0.03026536,-0.0187878,0.8851142,1.355012,0.1851351,0.4401351,1.124,0.3364611,275.8712,217.4483,35.65993,True
0,0.9888902,-0.3960522,0.6145158,-0.09775579,-1.414319,-4.71164,-2.557727,0.7301048,1.136211,0.436425,-1.367659,-0.009179018,1.7,1.3,-0.2339821,-0.01063552,0.001576606,-0.634268,-4.576448,0.02902899,0.8177736,1.294402,0.3519487,-0.08988532,0.1121482,-0.02687211,-0.9790004,-0.02785507,-0.01877688,0.8851937,1.354987,0.1851037,0.4388653,1.126123,0.337852,275.5649,216.4807,36.88377,True
0,1.000001,-0.3736461,0.5921564,-0.09976073,-1.416683,1.565969,-2.553417,0.7294025,1.136354,0.4365306,-1.367137,0.04739434,1.7,1.3,-0.2520728,0.01816267,-0.0003714543,-0.6344076,-4.574263,0.03064659,0.8171326,1.294468,0.3518054,-0.1047924,0.1195764,-0.02360938,-0.9792699,-0.02608074,-0.01821709,0.8851854,1.355007,0.1850953,0.4376552,1.128033,0.3393207,275.2617,215.6008,38.03066,True
0,1.011112,-0.3331494,0.5751714,-0.09540883,-1.419137,1.560525,-2.550255,0.7287028,1.136523,0.4364731,-1.367081,0.004409417,1.7,1.3,-0.2530612,0.04905723,0.002840336,-0.6342196,-4.571549,0.03134754,0.8165078,1.294664,0.3517115,-0.1143538,0.118498,-0.01929278,-0.9793578,-0.02451906,-0.01747513,0.8852698,1.354998,0.1850631,0.4365392,1.129689,0.3408584,274.9863,214.47,39.47489,True
0,1.022224,-0.2841216,0.5592624,-0.08998808,-1.421737,1.555183,-2.54798,0.727998,1.13687,0.4363952,-1.366374,0.06441789,1.7,1.3,-0.2540441,0.06929404,0.008172946,-0.633982,-4.569342,0.03240215,0.8159226,1.294821,0.3515375,-0.1261003,0.1248603,-0.02350569,-0.9799442,-0.02256829,-0.01689882,0.8853203,1.354938,0.1851079,0.4354289,1.131098,0.3424104,274.748,213.4559,40.81067,True
0,1.033335,-0.2351277,0.5763453,-0.09111987,-1.424752,1.548707,-2.545997,0.7274191,1.137009,0.4362729,-1.367066,-0.06406506,1.1,1.3,-0.2528802,0.09272781,0.01455764,-0.63355,-4.566189,0.03265488,0.8152652,1.294934,0.3514194,-0.1368147,0.1376109,-0.02985651,-0.9805003,-0.02020434,-0.0163337,0.8854232,1.354913,0.1851401,0.4342448,1.13232,0.3439598,274.5585,213.2267,41.34959,True
0,1.044446,-0.2010423,0.5742581,-0.08791059,-1.427548,1.542884,-2.543999,0.7267953,1.137194,0.4361022,-1.367635,-0.05173956,1.1,1.3,-0.2549438,0.1129697,0.01778408,-0.6331298,-4.563011,0.03293451,0.8147416,1.294934,0.3511949,-0.148577,0.1514307,-0.03301112,-0.9810761,-0.01761215,-0.01575047,0.885446,1.354847,0.1852121,0.433019,1.133408,0.3454808,274.3958,213.8299,41.0778,True
0,1.055557,-0.1541817,0.5956498,-0.08054106,-1.431104,1.536449,-2.543082,0.7262381,1.137257,0.4359901,-1.3677,-0.005801518,1.1,1.3,-0.2695448,0.1087225,0.04882186,-0.6316177,-4.561432,0.03507037,0.8140391,1.294958,0.3510733,-0.1496339,0.1588922,-0.02875566,-0.9812843,-0.01520625,-0.01540426,0.8855127,1.354807,0.185256,0.4318019,1.134391,0.3469641,274.2479,214.78,40.44688,True
0,1.066668,-0.1158077,0.5722831,-0.07190666,-1.433783,1.531596,-2.542463,0.7255613,1.137249,0.4358652,-1.367133,0.05152022,1.1,1.3,-0.2757289,0.1097932,0.0691266,-0.6301305,-4.559457,0.0367399,0.8134147,1.29497,0.3509564,-0.140013,0.1727871,-0.01711563,-0.9811075,-0.0122299,-0.01580187,0.8855116,1.35486,0.1853659,0.4306428,1.135257,0.3484609,274.0787,215.5325,39.99633,True
0,1.077779,-0.1019519,0.5649007,-0.05800942,-1.437061,1.526486,-2.540979,0.7249204,1.137268,0.4359376,-1.367787,-0.06063277,1.1,1.3,-0.2630478,0.09911963,0.06153251,-0.6297513,-4.558145,0.03833221,0.8127911,1.294999,0.3509774,-0.1357205,0.1738729,-0.01181753,-0.9811645,-0.009832124,-0.01581678,0.8855209,1.354832,0.1854546,0.4295195,1.136026,0.3499771,273.9086,216.525,39.30834,True
0,1.08889,-0.08489291,0.5500073,-0.05687283,-1.439734,1.521439,-2.539886,0.7243266,1.137118,0.4358141,-1.367491,0.02743106,0.6,1.4,-0.2529086,0.0810034,0.0134852,-0.631084,-4.557496,0.04031227,0.8121587,1.294997,0.3509359,-0.1388864,0.1738746,-0.006473205,-0.9810851,-0.007486279,-0.01547616,0.8855331,1.354816,0.1855228,0.4284601,1.13667,0.3515412,273.6978,217.425,38.72378,True
0,1.100002,-0.07105375,0.5564435,-0.04944953,-1.443067,1.515887,-2.538821,0.7236981,1.137082,0.4357018,-1.366201,0.1173426,0.6,1.4,-0.2520371,0.07035318,-0.004639579,-0.6317449,-4.556659,0.04238367,0.8114767,1.295028,0.350996,-0.1388922,0.172808,-0.007533866,-0.9812129,-0.005213138,-0.01512729,0.8854418,1.354767,0.1855786,0.4274263,1.137134,0.3530921,273.4972,218.4268,38.05217,True
0,1.111113,-0.04548906,0.5586042,-0.04838687,-1.446218,1.510321,-2.538515,0.7230482,1.136959,0.4355118,-1.366114,0.006747398,0.6,1.4,-0.2417463,0.04477687,-0.03670946,-0.6332533,-4.557158,0.04513073,0.8108222,1.295017,0.3510168,-0.125046,0.1653746,-0.01079584,-0.9814808,-0.003286607,-0.01526151,0.8854126,1.35474,0.1856532,0.4263674,1.137463,0.3546148,273.3453,220.4596,36.3265,True
0,1.122224,-0.02200767,0.5043495,-0.03639215,-1.448534,1.507125,-2.538654,0.7225313,1.136834,0.4355671,-1.365936,0.01609009,0.6,1.4,-0.2454024,0.04052192,-0.08140926,-0.6353429,-4.556569,0.04749189,0.8101343,1.295011,0.3507929,-0.1165341,0.1653878,-0.01193304,-0.9817578,-0.001160872,-0.01528015,0.885447,1.35475,0.1857431,0.4253066,1.13769,0.3560859,273.2311,222.823,34.27713,True
0,1.133335,-0.01240132,0.4862464,-0.03843546,-1.450866,1.502776,-2.538194,0.7219703,1.136708,0.4355543,-1.366399,-0.04260806,0.5,1.4,-0.2499713,0.04479495,-0.1122573,-0.6376124,-4.555295,0.0493798,0.8094395,1.295019,0.3507824,-0.1165418,0.1717823,-0.01085881,-0.9818739,0.001409877,-0.01551025,0.8853854,1.354782,0.1858656,0.4241996,1.13789,0.3575259,273.1388,225.9552,31.44103,True
0,1.144446,0.0003957935,0.4639176,-0.03192189,-1.45335,1.49915,-2.53815,0.7213508,1.136787,0.4355736,-1.366309,0.008363136,0.5,1.4,-0.2414691,0.05330271,-0.1155385,-0.6388775,-4.553715,0.05049806,0.8086978,1.295202,0.3507659,-0.116451,0.1771387,0.008313256,-0.9810942,0.003992611,-0.01554993,0.8852762,1.354758,0.1859236,0.4231578,1.138045,0.3589337,273.0283,228.6954,29.00333,True
0,1.155557,0.01853071,0.4352369,-0.01793386,-1.455753,1.496141,-2.538665,0.7207196,1.136704,0.4354784,-1.365562,0.06800646,0.5,1.4,-0.2069914,0.07134533,-0.07965691,-0.6383054,-4.551722,0.05005198,0.8080114,1.295129,0.3507087,-0.1132251,0.185681,0.01680427,-0.9806494,0.006825948,-0.01599495,0.8851899,1.354794,0.1860373,0.4223081,1.138097,0.3602305,272.9214,230.9674,27.01117,True
0,1.166668,0.01539824,0.3680943,-0.02293919,-1.456716,1.494312,-2.538569,0.7202895,1.136458,0.4353106,-1.365579,-0.002303241,0.5,1.4,-0.1831823,0.1053953,-0.04793213,-0.637646,-4.547938,0.04820322,0.8073109,1.295077,0.3505824,-0.1121429,0.1856875,0.01999763,-0.9802723,0.009251955,-0.0161337,0.8850362,1.354787,0.1861293,0.4214779,1.138104,0.3614169,272.8696,233.6577,24.54491,True
0,1.17778,0.001536544,0.3713133,-0.01442929,-1.459292,1.490845,-2.537657,0.7198714,1.136197,0.4350915,-1.365863,-0.02604577,0.5,1.4,-0.2031714,0.1469649,-0.02854355,-0.6373248,-4.54312,0.04738216,0.8067465,1.295062,0.3505199,-0.104719,0.1867601,0.01356041,-0.9804358,0.01177037,-0.01668524,0.8848962,1.354744,0.1862285,0.4206182,1.138136,0.3624942,272.8436,237.0176,21.39609,True
0,1.188891,0.001520615,0.388338,-0.01876974,-1.461738,1.486653,-2.537198,0.7195486,1.135936,0.4348941,-1.364951,0.08352023,0.5,4.5,-0.230467,0.1544544,0.01008811,-0.6359202,-4.539924,0.04822319,0.8061485,1.295012,0.3503892,-0.1058215,0.1931429,0.009295339,-0.9805125,0.01457921,-0.01705568,0.8847445,1.35474,0.1864064,0.4198368,1.138137,0.3634062,272.7595,239.5409,19.12351,True
0,1.200002,0.00149538,0.4096679,-0.01246713,-1.46491,1.482393,-2.536824,0.7191283,1.135695,0.4348438,-1.364089,0.07796807,0.5,4.5,-0.231364,0.1501921,0.02714301,-0.6350398,-4.537641,0.04890975,0.8054672,1.295054,0.3502815,-0.116541,0.2026913,0.0008232994,-0.9807389,0.01758206,-0.01707539,0.8846012,1.354705,0.1866164,0.4192183,1.138042,0.3640657,272.6806,241.0302,17.84834,True
0,1.211113,-0.0006366037,0.4096905,-0.007141232,-1.467584,1.478686,-2.536349,0.718783,1.135494,0.434818,-1.364475,-0.03598566,0.5,4.5,-0.209178,0.1427062,0.009870363,-0.6353871,-4.535344,0.04863838,0.8049068,1.295021,0.3502641,-0.1218791,0.2112043,0.001905219,-0.9807314,0.02074123,-0.0172975,0.8844187,1.354724,0.1868002,0.4186124,1.137942,0.364555,272.6486,243.4651,15.49645,True
0,1.222224,0.005781692,0.3831191,0.005771518,-1.469922,1.476289,-2.536435,0.718392,1.13535,0.4348886,-1.364559,-0.007299358,0.5,4.5,-0.1775373,0.1362713,-0.020278,-0.6366175,-4.533085,0.04771772,0.8043786,1.295036,0.3504267,-0.1165504,0.2122842,0.004006383,-0.9805897,0.02362783,-0.01769724,0.884232,1.354743,0.187012,0.4179966,1.137895,0.3650361,272.6385,245.717,13.23415,True
0,1.233335,0.01647957,0.3405471,0.01236357,-1.471613,1.47447,-2.536855,0.7179384,1.135283,0.4348187,-1.364333,0.02067731,0.5,15.9,-0.1184527,0.1095632,-0.07308597,-0.6392801,-4.532394,0.04639839,0.8038174,1.295038,0.3505917,-0.1079495,0.1888738,0.009321418,-0.9803298,0.02523199,-0.01767833,0.8840367,1.354789,0.1871428,0.417329,1.137941,0.3656637,272.6087,248.3767,10.56376,True
0,1.244446,0.02823648,0.2968661,0.009373859,-1.472708,1.472905,-2.537325,0.7175182,1.135267,0.4348135,-1.364666,-0.0306073,0.5,15.9,-0.07129106,0.04239233,-0.140691,-0.6430154,-4.535007,0.04773796,0.803183,1.294943,0.3507276,-0.09935893,0.1612009,0.01145022,-0.980144,0.02635065,-0.01746794,0.8837507,1.354835,0.1872377,0.4166931,1.138068,0.366479,272.5591,251.1488,7.882882,True
0,1.255558,0.0346566,0.2744482,-0.001178339,-1.473694,1.470719,-2.537711,0.7170807,1.135194,0.4347739,-1.364898,-0.02108401,0.5,15.9,-0.07458656,0.02002434,-0.148122,-0.6447657,-4.53553,0.0491497,0.802616,1.295056,0.3506742,-0.09511405,0.1580029,0.007165661,-0.9802942,0.02836786,-0.01766901,0.8836495,1.35485,0.1873419,0.4161313,1.138245,0.3674071,272.4765,254.1455,5.100275,True
0,1.266669,0.04639859,0.254165,-0.01279914,-1.474423,1.468677,-2.538417,0.716684,1.135082,0.4347608,-1.364839,0.005469867,0.5,15.9,-0.09555674,0.004069023,-0.112755,-0.6449276,-4.536383,0.05158836,0.8020172,1.295072,0.3506546,-0.09405099,0.1590703,0.007158016,-0.9802638,0.03049492,-0.01786955,0.8833762,1.35486,0.1874764,0.4156274,1.13842,0.3683139,272.3818,256.8104,2.719852,True
0,1.27778,0.04853732,0.246719,-0.009565845,-1.475907,1.466655,-2.538835,0.7163131,1.134887,0.4347787,-1.364704,0.01220958,0.5,15.9,-0.1120043,0.04989347,-0.06037829,-0.6437851,-4.532919,0.05057609,0.8014295,1.294953,0.350539,-0.09403191,0.1633374,0.01141094,-0.9800486,0.03286141,-0.01818406,0.8831829,1.354831,0.1876712,0.4151573,1.138543,0.3691129,272.3004,258.5136,1.254529,True
0,1.288891,0.05067794,0.2339873,0.001147121,-1.47743,1.465075,-2.539312,0.7158924,1.134802,0.4348059,-1.364896,-0.01771875,0.6,21.2,-0.1127639,0.09143575,-0.03585923,-0.643343,-4.529072,0.04875582,0.8008456,1.295021,0.3505125,-0.09823656,0.1505533,0.01678122,-0.9797029,0.03431496,-0.0177545,0.8829095,1.354864,0.1878235,0.4146692,1.138584,0.3698027,272.2331,259.5394,0.3831781,True
0,1.300002,0.05281581,0.2212476,0.008655094,-1.478821,1.463435,-2.539702,0.7155505,1.134773,0.4348147,-1.364533,0.03326296,0.6,21.2,-0.1048759,0.1393553,0.0002856646,-0.6420972,-4.524031,0.045678,0.8002762,1.295198,0.3505416,-0.09709831,0.1367196,0.0242577,-0.9791809,0.03559262,-0.01747673,0.8826063,1.354989,0.1880176,0.414187,1.138498,0.3704082,272.1843,260.6078,359.404,True
0,1.311113,0.05710643,0.1914338,0.01092595,-1.479589,1.462682,-2.540394,0.7151604,1.134803,0.4347742,-1.36443,0.009157861,0.6,21.2,-0.08981128,0.1553103,0.01291981,-0.6414687,-4.520515,0.04335413,0.7997613,1.295328,0.35057,-0.08107956,0.1133099,0.0220767,-0.9789839,0.03615414,-0.01745676,0.8823159,1.355051,0.1881199,0.4136854,1.138291,0.3709615,272.1918,263.1697,356.9085,True
0,1.322224,0.06033318,0.1573694,0.01534998,-1.480253,1.462332,-2.54112,0.714825,1.134743,0.4346378,-1.364286,0.01297249,0.6,21.2,-0.07297981,0.1297145,-0.005369026,-0.6421403,-4.519627,0.04280818,0.7991792,1.295559,0.3506494,-0.07788968,0.09732966,0.0146247,-0.9791112,0.03690236,-0.01713238,0.8820697,1.355126,0.1881423,0.4131489,1.138013,0.3714606,272.277,266.1022,354.0567,True
0,1.333336,0.06141087,0.1456425,0.01327427,-1.480998,1.461374,-2.541765,0.7145054,1.134717,0.4345086,-1.364445,-0.01462401,1.7,21,-0.07842812,0.1020154,-0.01384497,-0.6425957,-4.519399,0.04367691,0.7986934,1.295688,0.3507199,-0.07893744,0.07920776,0.01040059,-0.9790621,0.03723245,-0.01641439,0.8817619,1.35517,0.188293,0.4126257,1.137717,0.3718944,272.4079,268.2969,351.9622,True
0,1.344447,0.06565625,0.1584293,0.01322215,-1.482434,1.459652,-2.542435,0.7142028,1.134598,0.4344256,-1.364412,0.003109657,1.7,21,-0.08811191,0.07220166,-0.01907864,-0.6430133,-4.519796,0.04531768,0.7981013,1.295749,0.3507698,-0.09172803,0.08557482,0.01152771,-0.9789039,0.03860705,-0.01571105,0.8814387,1.355225,0.1884594,0.4121602,1.137432,0.3722057,272.517,269.7226,350.6578,True
0,1.355558,0.06670476,0.1712392,0.01955616,-1.484123,1.458,-2.543057,0.713783,1.13452,0.4344194,-1.364331,0.007394879,1.7,21,-0.09327957,0.09245476,-0.006232895,-0.6424823,-4.516733,0.0440865,0.7976167,1.295612,0.3507624,-0.09067782,0.1090252,0.01787826,-0.9785146,0.04106594,-0.01606019,0.8810558,1.355292,0.1886351,0.411779,1.137158,0.3723432,272.5854,270.8608,349.6098,True
0,1.366669,0.06882472,0.1787256,0.02591088,-1.485796,1.456415,-2.543751,0.7132944,1.134417,0.4345191,-1.364368,-0.003534916,1.7,21,-0.08577228,0.126527,-0.006309094,-0.6424929,-4.51251,0.04138872,0.7970357,1.295562,0.3508418,-0.08105162,0.1271745,0.0316385,-0.9778446,0.04348543,-0.01680055,0.8807371,1.355466,0.1887298,0.4114178,1.136919,0.3723544,272.6354,271.616,348.8469,True
0,1.37778,0.06459698,0.1489122,0.03137223,-1.486478,1.456251,-2.544386,0.7127951,1.134291,0.4345434,-1.364275,0.00850933,1.7,21,-0.08059898,0.1222539,-0.02127379,-0.643147,-4.510706,0.0405959,0.7964343,1.295488,0.3506675,-0.0788471,0.1229349,0.04335792,-0.9769391,0.0448475,-0.01675661,0.8803042,1.355491,0.1888695,0.4110095,1.136733,0.3723686,272.668,272.6812,347.6951,True
0,1.388891,0.06250682,0.1094896,0.03049001,-1.486656,1.456536,-2.545046,0.7122883,1.13423,0.4345806,-1.364291,-0.001533539,4.7,29.1,-0.06900004,0.1073248,-0.03098254,-0.6437824,-4.509512,0.04002118,0.7958587,1.295519,0.3507223,-0.07566345,0.1144108,0.03802685,-0.9767132,0.04598387,-0.01667378,0.8799688,1.355584,0.1889982,0.4104817,1.136615,0.3724983,272.6925,274.0831,346.2056,True
0,1.400002,0.06043243,0.05722841,0.01794265,-1.485691,1.457307,-2.545669,0.7118784,1.134192,0.4345777,-1.364083,0.01903517,4.7,29.1,-0.05546698,0.0796156,-0.05882205,-0.6453286,-4.509419,0.04003796,0.7952278,1.295657,0.3508887,-0.06499718,0.1123017,0.03903162,-0.9763415,0.04739042,-0.01709962,0.8797499,1.355671,0.1891227,0.4098786,1.136532,0.3727896,272.6893,275.6447,344.6396,True
0,1.411114,0.06047645,0.02521257,0.005304966,-1.484935,1.457672,-2.546477,0.7114041,1.134234,0.4345081,-1.364032,0.004504372,4.7,29.1,-0.03743984,0.06467454,-0.06433273,-0.6461266,-4.508986,0.03964382,0.7946535,1.295719,0.3509901,-0.0628899,0.1091019,0.03369825,-0.9761695,0.04871321,-0.0172224,0.8794475,1.355767,0.18926,0.409312,1.136418,0.3731426,272.6743,276.9476,343.4528,True
0,1.422225,0.06475151,0.01131256,-0.00634349,-1.484442,1.45771,-2.547302,0.7110281,1.134268,0.4343925,-1.363946,0.00774708,4.7,29.1,-0.04467589,0.07107329,-0.0440175,-0.6459359,-4.507293,0.03893568,0.7939101,1.295749,0.3510559,-0.07364592,0.1143822,0.0167085,-0.976553,0.05045345,-0.01706474,0.879054,1.355897,0.1894903,0.4088359,1.136236,0.3734344,272.6729,277.4853,343.0712,True
0,1.433336,0.07327034,0.02196399,-0.008523534,-1.484663,1.457074,-2.548451,0.7105523,1.134347,0.4343934,-1.364153,-0.01895597,4.7,29.1,-0.05174989,0.1062259,-0.0119751,-0.6449622,-4.503754,0.03681074,0.7933033,1.29581,0.3510242,-0.08010229,0.1271422,0.01033937,-0.9765673,0.05266548,-0.01716327,0.87865,1.356029,0.1896732,0.4084656,1.135972,0.373563,272.6984,276.7955,343.8822,True
0,1.444447,0.0775283,0.02626003,-0.001085918,-1.485069,1.456874,-2.549463,0.7100493,1.134402,0.4345512,-1.36421,-0.004992283,7.2,34.4,-0.05472053,0.1349903,0.006171081,-0.6442336,-4.499763,0.03432362,0.7926595,1.295898,0.3510454,-0.08427557,0.1314297,0.02739236,-0.9758339,0.05476737,-0.01727033,0.8782233,1.356094,0.1899099,0.4081055,1.135665,0.3735144,272.7619,275.9101,344.8054,True
0,1.455558,0.07540747,0.01562458,0.003224328,-1.485128,1.457132,-2.550236,0.7095956,1.13441,0.4346023,-1.364558,-0.03188983,7.2,34.4,-0.06516557,0.1552296,0.02439378,-0.6433532,-4.496271,0.03263464,0.7920795,1.296013,0.3510542,-0.08632825,0.1293188,0.04018997,-0.9750115,0.05645116,-0.01721787,0.8778808,1.356229,0.1900516,0.4077197,1.135348,0.3733378,272.8533,275.1834,345.4758,True
0,1.466669,0.07754827,0.0007514255,0.01288936,-1.48531,1.457949,-2.551219,0.7091094,1.134398,0.4345865,-1.364002,0.05062216,7.2,34.4,-0.06406581,0.1413784,0.02970697,-0.6428083,-4.494423,0.03183063,0.791478,1.296175,0.3510993,-0.08630362,0.1101383,0.03809078,-0.9746531,0.05714784,-0.01660747,0.8775094,1.356331,0.1901484,0.4072251,1.135049,0.3731555,272.9351,274.7967,345.7239,True
0,1.47778,0.07649973,-0.006733637,0.007597739,-1.485051,1.458179,-2.552154,0.7085187,1.134452,0.4344673,-1.362797,0.1087552,7.2,34.4,-0.06615832,0.1211468,0.03718492,-0.642151,-4.49324,0.03180267,0.7909001,1.296156,0.351203,-0.08631906,0.1026778,0.03277875,-0.9744927,0.05832469,-0.016306,0.8770996,1.356395,0.1903164,0.4066635,1.134724,0.3730511,272.9913,274.8399,345.5579,True
0,1.488891,0.07543388,-0.006724766,0.009728028,-1.485165,1.45835,-2.552969,0.7080561,1.13446,0.4344354,-1.361604,0.1068943,7.2,32.1,-0.07054394,0.1019791,0.02763814,-0.6421536,-4.492452,0.03209881,0.7903135,1.296236,0.3512509,-0.08421488,0.09521346,0.02532146,-0.9745178,0.05927238,-0.01598722,0.8767406,1.356443,0.1904607,0.4061133,1.13431,0.373012,273.0402,275.1637,345.2088,True
0,1.500003,0.07648871,0.003901646,0.004354152,-1.485318,1.457954,-2.553828,0.7076807,1.134414,0.4344478,-1.359923,0.1513324,7.2,32.1,-0.07601849,0.09345882,0.01384043,-0.6424642,-4.491241,0.03207458,0.7896543,1.296403,0.3512769,-0.08532608,0.09946479,0.01786623,-0.9745572,0.0609025,-0.01596938,0.8763705,1.356448,0.1906238,0.4055609,1.133767,0.3729775,273.1074,275.7275,344.6925,True
0,1.511114,0.08179636,0.02417275,0.009586399,-1.486071,1.457294,-2.554883,0.7072076,1.134364,0.4344354,-1.357782,0.1928923,7.2,32.1,-0.07384317,0.09452039,0.0180799,-0.6420817,-4.489457,0.0313976,0.7890078,1.296425,0.3513367,-0.09283273,0.1090287,0.01256676,-0.9746381,0.06278309,-0.01572623,0.8759946,1.35649,0.1907918,0.4049475,1.133074,0.3729234,273.2204,275.7331,344.7251,True
0,1.522225,0.07432982,0.03163969,0.01380702,-1.486594,1.456957,-2.555408,0.706719,1.134283,0.4344707,-1.355558,0.1999839,7.2,32.1,-0.06969044,0.1168827,0.00419298,-0.6424056,-4.486014,0.02927427,0.7884315,1.296496,0.3512435,-0.09179674,0.1175491,0.01042389,-0.9745007,0.06473266,-0.01583515,0.8755338,1.356476,0.1909328,0.4043508,1.132213,0.3728754,273.3876,275.6331,344.7996,True
0,1.533336,0.06899741,0.03911877,0.02016214,-1.487327,1.456634,-2.55601,0.7061728,1.134283,0.4344659,-1.353236,0.2087608,7.2,32.1,-0.06336018,0.1435038,-0.005455457,-0.6427667,-4.481857,0.02647661,0.7878226,1.296536,0.3513203,-0.08854069,0.1122468,0.02000368,-0.973918,0.06608009,-0.01565246,0.8751085,1.356532,0.1910875,0.4037688,1.131199,0.3729022,273.5956,275.6208,344.7544,True
0,1.544447,0.06475282,0.0199926,0.03197068,-1.487795,1.457424,-2.556703,0.7057101,1.134318,0.4344761,-1.349945,0.2970601,6.2,50.8,-0.04949176,0.153075,-0.005604938,-0.642943,-4.478392,0.02369308,0.787219,1.296682,0.3513558,-0.08526021,0.0984153,0.02959186,-0.9733092,0.06676172,-0.01522449,0.8747278,1.356616,0.1911569,0.4031272,1.130063,0.3730588,273.8311,276.1157,344.2372,True
0,1.555558,0.06051107,0.006135011,0.03097388,-1.487889,1.45793,-2.557384,0.705273,1.134336,0.4343886,-1.347047,0.2603496,6.2,50.8,-0.03674519,0.1253641,-0.00574002,-0.6429957,-4.477571,0.02300865,0.7867496,1.29665,0.3514395,-0.07669101,0.08885397,0.03382158,-0.9728022,0.06764669,-0.01519813,0.8743473,1.356686,0.1912639,0.4024048,1.128844,0.3733368,274.1114,276.7311,343.6652,True
0,1.566669,0.05519836,-0.006668695,0.02783617,-1.487782,1.458467,-2.557857,0.7048906,1.134332,0.4342849,-1.344008,0.2735411,6.2,50.8,-0.03362259,0.08913983,-0.007908528,-0.6431662,-4.477829,0.02347603,0.7862662,1.296692,0.3514762,-0.06919882,0.07182461,0.03380617,-0.9724421,0.06790235,-0.01482582,0.8739605,1.356736,0.1913469,0.4016394,1.127601,0.3736807,274.4327,277.472,343.0336,True
0,1.577781,0.0498667,0.001821437,0.02353977,-1.488104,1.458336,-2.558283,0.7044668,1.134228,0.4342725,-1.340842,0.2849594,6.2,50.8,-0.04216462,0.06997802,-0.007828814,-0.6433031,-4.477452,0.02385713,0.7856348,1.2968,0.3513582,-0.06387327,0.07184143,0.0327067,-0.9722003,0.06903313,-0.01497788,0.8735875,1.356753,0.1914814,0.4009595,1.126356,0.3739702,274.7531,278.0873,342.5684,True
0,1.588892,0.05091767,0.01567618,0.02454086,-1.488745,1.457923,-2.558836,0.7040582,1.134145,0.4342422,-1.337219,0.3263709,6,45.2,-0.05699445,0.06786723,0.0008443054,-0.6429851,-4.476437,0.02421319,0.7850877,1.296816,0.3513737,-0.06066769,0.07291663,0.03481767,-0.9717475,0.07006057,-0.01498028,0.8731953,1.356755,0.1915863,0.4003807,1.125121,0.3741223,275.0297,278.2676,342.5146,True
0,1.600003,0.04452541,0.02100199,0.02557755,-1.489235,1.457683,-2.559158,0.7035322,1.134109,0.434247,-1.33358,0.3273628,6,45.2,-0.04940608,0.09343543,0.01035631,-0.642576,-4.472868,0.02165603,0.7845784,1.296713,0.3515446,-0.06175353,0.07291005,0.02949212,-0.9717166,0.07110893,-0.01496164,0.8728036,1.356769,0.191679,0.3998678,1.123901,0.37412,275.2634,278.145,342.6713,True
0,1.611114,0.04453522,0.007181883,0.03203372,-1.489481,1.458351,-2.559694,0.7031274,1.134041,0.4343324,-1.329919,0.3292589,6,45.2,-0.04508359,0.1062122,0.01457596,-0.6422394,-4.47016,0.01983655,0.7840412,1.296736,0.3516092,-0.05964624,0.06971018,0.02415874,-0.9716581,0.07192905,-0.01484872,0.8724059,1.35673,0.191797,0.3993271,1.122695,0.374042,275.4715,278.113,342.636,True
0,1.622225,0.03816333,-0.01305509,0.0342569,-1.489405,1.459309,-2.559978,0.7026803,1.134026,0.4343996,-1.325708,0.3794259,6,45.2,-0.03983485,0.09234948,0.009197798,-0.642266,-4.469437,0.01955399,0.7836893,1.296628,0.3516579,-0.05434298,0.06864803,0.01881189,-0.9715132,0.07281682,-0.01499466,0.8719561,1.356793,0.1920187,0.3987157,1.12149,0.3739754,275.6842,278.2419,342.4195,True
0,1.633336,0.0339313,-0.03651426,0.03010154,-1.48888,1.460348,-2.56035,0.7022457,1.134003,0.4344463,-1.3217,0.3603709,6,45.2,-0.0377914,0.06570835,0.00383998,-0.642469,-4.469846,0.02017185,0.7832742,1.296712,0.3515482,-0.03946191,0.0697351,0.01340506,-0.9715153,0.07377063,-0.01560186,0.8715756,1.356791,0.1921084,0.3980314,1.120271,0.3739624,275.9137,278.3172,342.2898,True
0,1.644447,0.02330809,-0.06643692,0.01212854,-1.487586,1.461521,-2.560264,0.7019055,1.134094,0.4344332,-1.317204,0.4050977,4.7,41.7,-0.02843229,0.03480414,-0.01437127,-0.6432759,-4.470948,0.02106853,0.7828476,1.296659,0.3515666,-0.02988036,0.06548897,0.01122684,-0.9714594,0.07448875,-0.01595953,0.8712188,1.356735,0.1922016,0.3974121,1.118992,0.373973,276.1498,278.3441,342.253,True
0,1.655559,0.01904626,-0.06539194,0.006798115,-1.487281,1.461888,-2.560378,0.7015575,1.134031,0.4344187,-1.312796,0.3964479,4.7,41.7,-0.01997533,0.02520036,-0.01871784,-0.6435923,-4.471037,0.02119344,0.7824039,1.29661,0.3516133,-0.03306067,0.05802515,0.01125591,-0.9713459,0.07494535,-0.01571585,0.87086,1.356713,0.1922617,0.3968411,1.117646,0.3739644,276.4012,278.2057,342.409,True
0,1.66667,0.01690747,-0.05478587,-0.002839616,-1.486843,1.461901,-2.560486,0.70116,1.134007,0.4344025,-1.307685,0.4607274,4.7,41.7,-0.0125903,0.0294493,-0.02625633,-0.6441718,-4.470266,0.02051326,0.781916,1.29656,0.3517106,-0.0308473,0.04739693,0.02085116,-0.9707659,0.07520607,-0.01564314,0.8705152,1.35681,0.1922903,0.3963271,1.116215,0.3739029,276.6646,277.7674,342.8659,True
0,1.677781,0.01796617,-0.04626502,-0.003947159,-1.486674,1.461988,-2.560775,0.7007681,1.133974,0.4344547,-1.303077,0.4140288,4.7,41.7,-0.01891805,0.04755949,-0.02298947,-0.6442314,-4.46854,0.01950872,0.7814631,1.296583,0.3516636,-0.02445294,0.05274574,0.02400117,-0.9704351,0.07625256,-0.01611079,0.8701423,1.356801,0.1923885,0.3958602,1.114719,0.3737753,276.9623,277.0627,343.5552,True
0,1.688892,0.01901348,-0.02920452,-0.000830411,-1.486918,1.46178,-2.561002,0.7003752,1.133971,0.4344358,-1.298145,0.4439988,4.7,41.7,-0.019866,0.05395103,-0.01232528,-0.6439673,-4.46715,0.01864106,0.7810119,1.296621,0.3517158,-0.02661118,0.05166776,0.01868838,-0.9703941,0.07691036,-0.01610946,0.8697808,1.356784,0.1924493,0.3953686,1.113182,0.3736429,277.2595,276.6891,343.8653,True
0,1.700003,0.01901046,-0.02598967,0.003412581,-1.486925,1.462053,-2.56125,0.6999599,1.134049,0.4344342,-1.29318,0.4466285,3.5,39,-0.00809763,0.04008531,-0.004983054,-0.6437121,-4.467256,0.01847408,0.7806383,1.296604,0.3518338,-0.02875893,0.04313198,0.0133907,-0.9704021,0.07710277,-0.01574088,0.8694175,1.356792,0.1924605,0.3948055,1.111611,0.3735724,277.5629,276.4146,344.0678,True
0,1.711114,0.0222082,-0.02914666,0.00981794,-1.486946,1.462514,-2.561646,0.6995882,1.134083,0.4344201,-1.287884,0.4768013,3.5,39,-0.004876826,0.03261819,-0.0007535126,-0.6435673,-4.467161,0.01845171,0.7801884,1.296705,0.3518765,-0.03307261,0.03671318,0.001706455,-0.9708021,0.07729692,-0.01534673,0.8690668,1.356818,0.1924984,0.3941997,1.110004,0.3736056,277.8819,276.3243,344.1115,True
0,1.722225,0.02647347,-0.03339802,0.01090781,-1.486829,1.463062,-2.562111,0.6992304,1.134104,0.4343174,-1.282473,0.4869975,3.5,39,-0.005882177,0.0240915,0.005643952,-0.6433606,-4.467291,0.01857368,0.779771,1.296703,0.3517275,-0.03308642,0.03350767,-0.001486559,-0.9709252,0.07756829,-0.01512116,0.8687683,1.356865,0.1925068,0.3935709,1.108374,0.3737504,278.2321,276.458,343.9945,True
0,1.733337,0.0254087,-0.03232497,0.01196575,-1.486782,1.463344,-2.562387,0.6988515,1.134115,0.4342794,-1.277126,0.4809885,3.5,39,-0.02077577,0.02623823,0.007927416,-0.6431646,-4.466814,0.01899979,0.779295,1.296749,0.3516963,-0.03303457,0.02925679,0.005979071,-0.9705757,0.0777924,-0.01491051,0.8683469,1.356908,0.1925387,0.3929665,1.106732,0.3739599,278.5959,276.58,343.9466,True
0,1.744448,0.02325139,-0.008912468,0.006530536,-1.487135,1.462663,-2.562464,0.6984042,1.134023,0.4341664,-1.271644,0.4934543,2.4,32.5,-0.02926309,0.03583321,0.009076883,-0.6430842,-4.465723,0.01859419,0.7787645,1.296789,0.3515992,-0.03400742,0.03248268,0.02302129,-0.9698061,0.07850599,-0.01493288,0.8679583,1.356912,0.1925051,0.3924402,1.105074,0.3741683,278.9405,276.7148,343.9168,True
0,1.755559,0.02004137,0.003881204,0.007537121,-1.487561,1.462281,-2.562537,0.697956,1.13395,0.4341922,-1.265855,0.521236,2.4,32.5,-0.02927906,0.04541554,0.00695008,-0.6430117,-4.464461,0.01800137,0.7782966,1.296805,0.3516109,-0.03393119,0.03144256,0.03580993,-0.9690098,0.07900041,-0.01487322,0.8674818,1.356989,0.1925471,0.3919748,1.103388,0.3743176,279.2684,276.8012,343.9249,True
0,1.76667,0.01789412,0.01882283,0.01385878,-1.488272,1.461879,-2.562634,0.6975383,1.133919,0.4341331,-1.260049,0.522656,2.4,32.5,-0.02496736,0.06990916,0.007968905,-0.643,-4.46187,0.01597098,0.7778237,1.296903,0.3517177,-0.03179627,0.02931633,0.03580127,-0.9686215,0.07933557,-0.01478214,0.8671483,1.357056,0.1925802,0.3914783,1.101676,0.3744126,279.5936,276.8336,343.9287,True
0,1.777781,0.01788611,0.0252418,0.01916024,-1.488909,1.461729,-2.562821,0.6972087,1.133981,0.4341049,-1.254304,0.5169557,2.4,32.5,-0.02169921,0.0762987,0.01326191,-0.6426809,-4.46013,0.01459599,0.7773918,1.296951,0.351707,-0.02970505,0.03357106,0.0304534,-0.9685288,0.07992133,-0.01483381,0.8668751,1.357057,0.1926069,0.390875,1.099947,0.3745143,279.9224,276.9108,343.841,True
0,1.788892,0.01788474,0.02631205,0.02022055,-1.489313,1.461604,-2.563012,0.6968545,1.134012,0.4340479,-1.248591,0.5141304,2.4,32.5,-0.01633575,0.07202931,0.01746819,-0.6423444,-4.459021,0.01369184,0.7770152,1.297032,0.351716,-0.03192364,0.03567402,0.01554815,-0.9688601,0.08046342,-0.01471769,0.86657,1.357053,0.1926818,0.3902189,1.098209,0.3746636,280.2764,277.0569,343.6816,True
0,1.800003,0.01682627,0.02206442,0.02344053,-1.489733,1.461804,-2.563244,0.6965747,1.13407,0.4340436,-1.24289,0.5130182,1.5,38.6,-0.01844006,0.0592423,0.02175218,-0.641931,-4.458848,0.01381808,0.7767857,1.297065,0.3516064,-0.029842,0.03779671,0.00701739,-0.9689794,0.08108646,-0.01484925,0.8663436,1.357102,0.1926522,0.3895971,1.096479,0.3748557,280.663,277.3017,343.4703,True
0,1.811115,0.01257576,0.01353328,0.02241309,-1.48982,1.462011,-2.563295,0.6962389,1.134098,0.4340301,-1.237089,0.5221376,1.5,38.6,-0.02481541,0.04007537,0.02607532,-0.6414751,-4.45926,0.01464153,0.7764585,1.297083,0.3515701,-0.03200522,0.04204689,0.002761643,-0.9691232,0.08183575,-0.01483114,0.8660737,1.357146,0.1926904,0.3892452,1.095182,0.3750508,280.9897,278.3948,342.3617,True
0,1.822226,0.007254526,0.009249447,0.01922998,-1.489817,1.462093,-2.563212,0.6958917,1.134117,0.433919,-1.231261,0.524462,1.5,38.6,-0.03660802,0.03689719,0.01873403,-0.6415954,-4.458681,0.01492196,0.7761079,1.29712,0.3514447,-0.0213196,0.03888442,0.008032905,-0.9688031,0.08227064,-0.01515685,0.8657775,1.357086,0.1926782,0.3891572,1.094668,0.3752235,281.014,279.9354,340.7832,True
0,1.833337,-0.001272919,0.009241926,0.01816005,-1.490046,1.461999,-2.562839,0.6955234,1.134109,0.4338584,-1.225221,0.5438896,1.5,38.6,-0.03655287,0.04116217,0.02298885,-0.6412828,-4.457531,0.01430251,0.7758219,1.297114,0.3514271,-0.01066402,0.02398159,0.002673158,-0.9688937,0.08196331,-0.01525219,0.8654275,1.357136,0.1926849,0.389209,1.09438,0.3752969,280.8843,281.2283,339.4475,True
0,1.844448,-0.01512413,0.01240897,0.01494568,-1.49025,1.461799,-2.5622,0.6951493,1.134098,0.4338973,-1.219212,0.5408626,1.1,41.9,-0.02805691,0.03049725,0.02183558,-0.641058,-4.457554,0.01436829,0.7755638,1.297112,0.3514583,-0.00535581,0.01652476,-0.003731288,-0.9690572,0.08188128,-0.0152972,0.8650895,1.357061,0.1927209,0.3892263,1.094125,0.375294,280.7604,282.1492,338.4751,True
0,1.855559,-0.02151002,0.006030282,0.01710753,-1.490503,1.461978,-2.561791,0.6947615,1.134162,0.4339442,-1.213062,0.5537681,1.1,41.9,-0.00801318,0.01129827,0.005653566,-0.6414916,-4.458301,0.01447108,0.7752821,1.297091,0.3515851,-0.005423874,0.01224484,-0.01757311,-0.9696905,0.08195026,-0.01527483,0.8647416,1.357122,0.1927571,0.3892367,1.093828,0.3753249,280.6477,283.596,336.9691,True
0,1.86667,-0.02789141,-0.004624027,0.01822077,-1.490476,1.462461,-2.561284,0.6944554,1.134245,0.4339507,-1.206929,0.552196,1.1,41.9,0.007816116,-0.01322848,-0.006235534,-0.6420295,-4.459979,0.0151414,0.7750549,1.297119,0.3516657,-0.002271922,0.001580203,-0.02929267,-0.9703909,0.08155464,-0.01513528,0.8644477,1.357129,0.1927516,0.3890899,1.093572,0.3752779,280.5682,284.4565,336.0156,True
0,1.877781,-0.03215364,-0.005690288,0.01822726,-1.490641,1.462597,-2.560782,0.6942425,1.134267,0.4339263,-1.201259,0.5098286,1.1,41.9,0.02364767,-0.04200739,-0.0170541,-0.6425302,-4.462011,0.01603436,0.7748573,1.297155,0.3517029,-0.002228122,-0.002675924,-0.0239617,-0.9704527,0.08131563,-0.01504233,0.8642203,1.357131,0.192739,0.388829,1.093322,0.3752809,280.4811,285.747,334.6167,True
0,1.888893,-0.03534569,-0.007853826,0.01184464,-1.490474,1.462682,-2.560291,0.6939803,1.134336,0.4339132,-1.195301,0.5365058,1.1,41.9,0.02460364,-0.05798703,-0.0255891,-0.6431087,-4.46393,0.01726288,0.7745987,1.297174,0.351727,0.003151618,-0.01117744,-0.01758676,-0.9704106,0.08082774,-0.01501597,0.8638881,1.357151,0.1927209,0.3886328,1.093071,0.3752933,280.5218,287.2019,333.0072,True
0,1.900004,-0.04174647,-0.001503156,0.004350829,-1.490341,1.462327,-2.559537,0.6937529,1.134383,0.4338865,-1.189443,0.5271052,0.8,32.6,0.007565834,-0.06329401,-0.02434614,-0.6432647,-4.465366,0.01890631,0.7742697,1.297065,0.3515682,0.007489901,-0.01754444,-0.00589001,-0.9701768,0.08034717,-0.01493953,0.8636637,1.357229,0.1925905,0.3885482,1.092907,0.3754223,280.6339,288.8127,331.3056,True
0,1.911115,-0.04280906,0.0006022397,-0.0009869002,-1.490246,1.462145,-2.559072,0.6933965,1.134462,0.4338768,-1.18357,0.5286472,0.8,32.6,-0.005121645,-0.04942816,-0.01675771,-0.6431896,-4.465472,0.01948369,0.7739754,1.297072,0.3515494,0.007521382,-0.0154039,0.0004983726,-0.9699499,0.08023452,-0.01495977,0.8633745,1.357239,0.1925561,0.3885952,1.092583,0.3754638,280.5637,289.175,330.881,True
0,1.922226,-0.04494459,0.006998456,0.001111282,-1.490455,1.461954,-2.558517,0.6930227,1.13453,0.4338806,-1.177442,0.5518143,0.8,32.6,-0.002681092,-0.01427956,0.008795801,-0.6421046,-4.463589,0.01788046,0.7737824,1.297231,0.3515043,0.007520873,-0.0207389,-0.0005605299,-0.9700367,0.07963384,-0.01462235,0.8630887,1.357184,0.1924882,0.388625,1.092274,0.3754875,280.5027,289.4462,330.56,True
0,1.933337,-0.04920385,0.007008843,0.005366315,-1.49056,1.46203,-2.55788,0.6927044,1.134576,0.4338744,-1.171779,0.5090798,0.8,32.6,0.003956235,0.01233487,0.02896915,-0.6411869,-4.462108,0.01636912,0.7735181,1.297254,0.3514631,0.009643568,-0.0260653,-0.003759823,-0.9701928,0.0790602,-0.01446443,0.8627914,1.357188,0.1924496,0.3885823,1.092068,0.375543,280.366,291.9995,327.8969,True
0,1.944448,-0.04920142,0.004873318,0.004310964,-1.490547,1.462059,-2.557344,0.692409,1.13468,0.4338562,-1.165793,0.5390842,0.6,39.7,0.006168705,0.009134681,0.03746901,-0.6404817,-4.462081,0.01619335,0.7732877,1.297346,0.3514493,0.006412193,-0.03140913,-0.01119593,-0.9706237,0.0784518,-0.0140298,0.8624727,1.357102,0.1924045,0.3883046,1.0918,0.3756373,280.4612,295.9799,324.3274,True
0,1.955559,-0.04600044,0.00593434,0.002176375,-1.490585,1.46192,-2.557024,0.6920885,1.134866,0.4339027,-1.159739,0.5449119,0.6,39.7,0.004030271,-0.003644645,0.03855475,-0.6400498,-4.462928,0.01691161,0.7730417,1.297433,0.351439,0.006406639,-0.03567247,-0.01226017,-0.970866,0.07779613,-0.01360076,0.8622286,1.35707,0.1923389,0.388106,1.091573,0.3758542,280.5609,296.9695,323.1665,True
0,1.966671,-0.04067126,0.003799206,5.710148E-05,-1.490502,1.461923,-2.556746,0.6918644,1.134999,0.433877,-1.153889,0.5263119,0.6,39.7,0.002854804,-0.01854556,0.02897216,-0.6401515,-4.463905,0.01756861,0.7727438,1.297554,0.3514605,0.004239634,-0.03248926,-0.01757956,-0.9712421,0.07747535,-0.01337706,0.861975,1.357057,0.1922772,0.3879829,1.091405,0.3759663,280.606,297.0734,322.8203,True
0,1.977782,-0.0417367,0.008026101,-0.007419674,-1.490356,1.461536,-2.556246,0.6916327,1.135048,0.4338536,-1.148171,0.5143756,0.6,39.7,-0.0003165547,-0.02280281,0.03220624,-0.6395933,-4.464515,0.01819365,0.7726786,1.297431,0.3515186,0.001029175,-0.03463067,-0.02075135,-0.971495,0.07695923,-0.01299223,0.8616798,1.357089,0.1922269,0.3878986,1.091259,0.3759789,280.5889,297.2318,322.4815,True
0,1.988893,-0.04599509,0.01011541,-0.01488852,-1.490082,1.461204,-2.555618,0.6914219,1.135116,0.4338443,-1.142242,0.5337202,0.6,39.7,0.0007778872,-0.01747816,0.03432666,-0.6391512,-4.464536,0.01817394,0.7724545,1.297446,0.3515079,-0.001110144,-0.03037386,-0.02074599,-0.9717219,0.07670157,-0.01277545,0.8614424,1.357061,0.1921713,0.3878215,1.09112,0.3759746,280.5633,297.8506,321.7386,True
0,2.000004,-0.04173421,0.0101038,-0.01807884,-1.489928,1.461002,-2.555276,0.6911938,1.135164,0.433907,-1.136058,0.5568411,0.5,28.6,0.009197017,-0.001504482,0.02146292,-0.6392492,-4.463583,0.01696114,0.772164,1.297585,0.3513234,-0.002195697,-0.02399245,-0.02287836,-0.9720207,0.07654498,-0.01269875,0.8612309,1.357089,0.1921449,0.3877579,1.09097,0.3759737,280.5159,298.9867,320.5238,True
0,2.011115,-0.03960344,0.01223723,-0.01808945,-1.489863,1.460719,-2.554917,0.6909168,1.135218,0.4338851,-1.129922,0.5522729,0.5,28.6,0.01131193,0.002754004,0.0193114,-0.6391059,-4.463301,0.01653876,0.7719235,1.297604,0.3512986,-0.00323887,-0.01439535,-0.01543027,-0.9719276,0.07674764,-0.01274855,0.8610103,1.357083,0.1921182,0.387693,1.090803,0.3759976,280.4778,300.2652,319.1461,True
0,2.022226,-0.03854921,0.01969037,-0.01919427,-1.489867,1.460136,-2.554396,0.6907029,1.135347,0.4338927,-1.124204,0.5141627,0.5,28.6,0.002724318,0.009151993,0.01194425,-0.6391597,-4.462948,0.01651932,0.7716951,1.297655,0.3511536,-0.001101865,-0.01331983,-0.01331069,-0.9719627,0.07664804,-0.01270568,0.8607829,1.357126,0.1921086,0.38763,1.090673,0.3760263,280.4446,301.2093,318.0386,True
0,2.033337,-0.03856501,0.03141301,-0.01924898,-1.490153,1.459316,-2.553824,0.6905075,1.135384,0.4338896,-1.118237,0.537294,0.5,28.6,-0.004705176,0.007028765,0.01521588,-0.6388652,-4.463019,0.01693318,0.7715467,1.297657,0.351136,-0.002179187,-0.015459,-0.01649456,-0.9722381,0.07630382,-0.01245614,0.8605521,1.357093,0.1920805,0.3875547,1.090519,0.3760568,280.428,302.5699,316.5607,True
0,2.044448,-0.03538398,0.04207184,-0.01823473,-1.490448,1.458532,-2.553427,0.6903742,1.135511,0.4337418,-1.112098,0.5526274,0.5,28.6,-0.007851884,-0.01001512,0.02163674,-0.6383911,-4.46426,0.01800457,0.771413,1.297693,0.3510592,-0.005396336,-0.01013793,-0.01755075,-0.9724873,0.07644351,-0.01229715,0.8604044,1.357069,0.191998,0.3874566,1.090363,0.3760966,280.4508,303.9122,315.0874,True
0,2.055559,-0.03006499,0.0474158,-0.01718465,-1.490853,1.457847,-2.553203,0.6902809,1.13555,0.433821,-1.106061,0.5433246,0.3,25.9,-0.005684271,-0.01854769,0.02694114,-0.6379091,-4.465275,0.01886344,0.7712548,1.29771,0.3510492,-0.005425231,0.002641587,-0.0186356,-0.9727313,0.07701383,-0.0126082,0.8602552,1.357039,0.1919911,0.3873473,1.090217,0.3761447,280.499,305.1991,313.644,True
0,2.06667,-0.03326426,0.05165886,-0.02040122,-1.49098,1.45705,-2.552669,0.6901494,1.135575,0.4338529,-1.10024,0.5235819,0.3,25.9,0.0006617308,-0.02175357,0.02260796,-0.6379006,-4.465854,0.01904932,0.7711253,1.297719,0.3509481,-0.009741322,0.01540937,-0.0239602,-0.9732187,0.07779852,-0.01280075,0.8601081,1.357018,0.1919086,0.3872374,1.090075,0.3761913,280.5616,306.6707,312.0277,True
0,2.077781,-0.03326445,0.05591067,-0.02255342,-1.491107,1.45624,-2.552265,0.6899404,1.135646,0.4339571,-1.09442,0.5236664,0.3,25.9,-0.003584167,-0.02068266,0.02370665,-0.6377685,-4.466152,0.01946877,0.7708466,1.29776,0.3510611,-0.01397659,0.009012232,-0.02286804,-0.9735271,0.07765138,-0.01252485,0.8599308,1.357016,0.191915,0.3872433,1.090118,0.3756569,279.9852,306.8004,311.4601,True
0,2.088892,-0.03752553,0.05695185,-0.02682065,-1.491102,1.455439,-2.551633,0.6897849,1.135646,0.4340341,-1.088126,0.5670801,0.3,25.9,-0.01307118,-0.01108263,0.0323272,-0.6371208,-4.465849,0.01970606,0.7706416,1.29774,0.3510883,-0.02140782,0.007938065,-0.01749665,-0.9735302,0.07765591,-0.01192377,0.8597832,1.356975,0.1919425,0.3870398,1.090022,0.3750741,279.6038,307.0382,310.961,True
0,2.100003,-0.04285285,0.05478212,-0.03320052,-1.490936,1.454749,-2.550873,0.689644,1.135684,0.434041,-1.082341,0.5202177,0.3,22,-0.0162939,-0.00149384,0.02810743,-0.6368204,-4.465423,0.0196022,0.7704577,1.297726,0.3508611,-0.0182644,0.01751486,-0.02285953,-0.9740182,0.07813728,-0.01208622,0.8596379,1.356947,0.1919019,0.3865011,1.089895,0.3747962,279.7702,305.3615,312.1817,True
0,2.111114,-0.04179317,0.05904771,-0.03215411,-1.491103,1.45396,-2.550358,0.6895534,1.135667,0.4341316,-1.076379,0.5369458,0.3,22,-0.01317274,0.01448248,0.01848995,-0.6369355,-4.46416,0.01860884,0.7702636,1.297694,0.350883,-0.01297177,0.02603627,-0.02716557,-0.9745151,0.07867511,-0.01240101,0.8594941,1.356908,0.1919219,0.386324,1.089726,0.3748255,279.8568,304.6707,312.6401,True
0,2.122225,-0.0375413,0.06437559,-0.03217928,-1.491294,1.453026,-2.549966,0.6894575,1.135679,0.4341483,-1.070591,0.5209857,0.3,22,-0.01001314,0.02087904,0.01526901,-0.6368049,-4.463226,0.01803067,0.7701627,1.297641,0.3510938,-0.01080211,0.01326029,-0.02395577,-0.9745705,0.07833994,-0.01221485,0.8593484,1.356771,0.1919475,0.3862809,1.089582,0.3750525,279.9817,305.4815,311.686,True
0,2.133336,-0.0300947,0.07182512,-0.03540391,-1.491485,1.451887,-2.549731,0.6894152,1.135687,0.4343295,-1.065302,0.4755423,0.3,22,-0.001470833,0.009154629,0.01944782,-0.6363267,-4.463589,0.01813586,0.7700198,1.297662,0.3511703,-0.006548004,-0.002723425,-0.03141023,-0.9751377,0.07756963,-0.0118729,0.8591553,1.356773,0.1919093,0.3863178,1.089453,0.3753391,280.091,306.8334,310.2134,True
0,2.144447,-0.02903034,0.07498233,-0.04394078,-1.491369,1.450617,-2.54936,0.6894218,1.135747,0.4344437,-1.060003,0.4769236,0.3,22,0.009160189,-0.01004134,0.01932986,-0.6362324,-4.465036,0.01874865,0.769895,1.29773,0.3511519,0.004096618,-0.002708008,-0.03146864,-0.9754978,0.07745311,-0.01211046,0.8590068,1.356736,0.1919336,0.3863897,1.089323,0.3756085,280.1643,308.1665,308.7479,True
0,2.155558,-0.02583432,0.08026782,-0.05355248,-1.491205,1.449224,-2.549097,0.689342,1.135807,0.4345593,-1.054767,0.471035,0.2,16,0.02396081,-0.03562666,0.01278198,-0.6363671,-4.467143,0.01986185,0.7697526,1.297857,0.3511617,0.007338289,-0.00162342,-0.02296532,-0.9754136,0.07751171,-0.01234695,0.8587418,1.356814,0.1918945,0.3864583,1.08919,0.375843,280.2148,309.2726,307.4887,True
