loc,t,aDotUA,bDotUA,gDotUA,aUA,bUA,gUA,xUA,yUA,zUA,qE,qDotE,emgA,emgB,aDotSH,bDotSH,gDotSH,aSH,bSH,gSH,xSH,ySH,zSH,aDotUB,bDotUB,gDotUB,aUB,bUB,gUB,xUB,yUB,zUB,xHand,yHand,zHand,aHand,bHand,gHand,enable
0,0,-0.07839827,-0.6350132,-0.1383121,-1.416943,-4.351981,3.055494,0.7046789,1.105998,0.4403028,-1.579194,0.001413465,0.9,0.6,-0.1810191,0.1521472,0.06210256,-0.7861529,-4.287352,-0.1306632,0.7351228,1.288585,0.3639352,-0.08423825,0.1015589,0.005288986,-0.8933712,0.1880455,-0.04947248,0.8368479,1.363473,0.2121525,0.491225,0.9735829,0.2836186,299.3787,245.6122,352.4958,True
0,0.01111111,-0.07524769,-0.5859446,-0.1257715,-1.416429,-4.346877,3.055385,0.7039642,1.106135,0.4400468,-1.579217,-0.002103397,0.9,0.6,-0.1757844,0.1340286,0.05564633,-0.7858648,-4.286081,-0.1297921,0.7348254,1.288641,0.3637679,-0.07994363,0.1005111,0.01059223,-0.8931097,0.1895806,-0.04966502,0.8367831,1.363448,0.2121623,0.4911764,0.9736075,0.2826272,299.4237,244.503,353.2809,True
0,0.02222222,-0.07209361,-0.5443521,-0.1174667,-1.415782,-4.342042,3.055305,0.7033212,1.106256,0.4398904,-1.578994,0.02040194,0.9,0.6,-0.1631028,0.1276186,0.04699131,-0.7857678,-4.284404,-0.1294781,0.7346331,1.288667,0.363651,-0.07996447,0.09198545,0.005271474,-0.8932999,0.1905353,-0.04935583,0.8367739,1.363453,0.2121975,0.4913262,0.973608,0.2812929,299.4727,243.9556,353.4484,True
0,0.03333334,-0.06471915,-0.4889022,-0.10816,-1.415129,-4.338298,3.055405,0.7028987,1.106422,0.4396219,-1.579261,-0.0246456,0.9,0.6,-0.1461072,0.1190742,0.04254912,-0.7856352,-4.282867,-0.1295641,0.7343339,1.288691,0.3635385,-0.07994481,0.09198856,0.008472627,-0.8930884,0.191848,-0.04929112,0.8367324,1.363471,0.2121739,0.491547,0.9735715,0.2796807,299.5149,243.5368,353.4196,True
0,0.04444445,-0.06370635,-0.436637,-0.09564736,-1.414731,-4.335066,3.055542,0.7024287,1.106492,0.4394252,-1.579279,-0.001420375,0.6,0.6,-0.1301225,0.1179822,0.04345206,-0.7852767,-4.281015,-0.1299167,0.7340829,1.288779,0.3634586,-0.07996824,0.09092079,0.00421154,-0.8932498,0.1931031,-0.04920563,0.8367102,1.363453,0.2121696,0.4918545,0.9735399,0.277933,299.5555,243.1028,353.3518,True
0,0.05555556,-0.06268274,-0.4014557,-0.09049544,-1.414204,-4.331608,3.05573,0.7018809,1.10651,0.4392352,-1.579232,0.004350608,0.6,0.6,-0.1119843,0.1254163,0.04433668,-0.7850365,-4.278513,-0.131154,0.7338791,1.288795,0.3632913,-0.07565282,0.08773884,0.01271215,-0.8928359,0.1942487,-0.04918885,0.83666,1.363478,0.2121456,0.4922509,0.9735392,0.2762132,299.5859,242.6486,353.2834,True
0,0.06666667,-0.06164971,-0.3683451,-0.07362731,-1.414154,-4.328496,3.05583,0.7014554,1.106509,0.4390161,-1.579235,-0.0004023053,0.6,0.6,-0.1013643,0.1211417,0.04209689,-0.7847617,-4.276669,-0.1315977,0.7336828,1.288783,0.3630207,-0.06389564,0.08457041,0.01902865,-0.8925195,0.1954479,-0.0495601,0.8366871,1.363547,0.2121048,0.4926706,0.9735873,0.2746586,299.6059,242.2406,353.2124,True
0,0.07777778,-0.05424714,-0.3267273,-0.05998551,-1.414112,-4.32593,3.055912,0.7011539,1.106524,0.4387696,-1.579124,0.01017194,0.6,0.6,-0.09823432,0.1147488,0.03673404,-0.7846823,-4.275129,-0.1316028,0.733524,1.288815,0.3628576,-0.05215538,0.0760679,0.02002847,-0.8923113,0.1962356,-0.04989938,0.8366914,1.3636,0.2120569,0.4929691,0.9736595,0.2733458,299.5939,241.8999,353.1511,True
0,0.08888889,-0.05000433,-0.3085468,-0.04729772,-1.414205,-4.323011,3.055851,0.7008049,1.106536,0.4385612,-1.579229,-0.009754697,0.5,0.9,-0.09506738,0.09130912,0.03668571,-0.784318,-4.274753,-0.1309716,0.7335575,1.28886,0.3627434,-0.04149681,0.06329737,0.01890985,-0.8921302,0.1965409,-0.04992149,0.8367187,1.3636,0.2119958,0.4930895,0.9737306,0.2722974,299.5634,241.6263,353.1439,True
0,0.1,-0.03937653,-0.2711988,-0.03577176,-1.414304,-4.32115,3.055581,0.7005334,1.106635,0.438349,-1.579318,-0.008056731,0.5,0.9,-0.09509764,0.05828027,0.03880018,-0.7836645,-4.275452,-0.1294131,0.7334608,1.288966,0.3625677,-0.03513534,0.04412905,0.01036213,-0.8923321,0.1964253,-0.04960697,0.8367769,1.363587,0.2119207,0.4931066,0.9738064,0.2715167,299.5304,241.478,353.1521,True
0,0.1111111,-0.0319549,-0.2445308,-0.03058165,-1.414267,-4.319343,3.055394,0.7003006,1.106628,0.4381528,-1.579376,-0.00525824,0.5,0.9,-0.08772333,0.04230081,0.0323234,-0.7835302,-4.275355,-0.12882,0.7333635,1.28892,0.3623919,-0.03621379,0.04412563,0.008238167,-0.8923417,0.1970497,-0.04956089,0.8367774,1.363581,0.2118766,0.493087,0.9738843,0.2709643,299.5049,241.4022,353.1945,True
0,0.1222222,-0.02561253,-0.2018796,-0.02334229,-1.414259,-4.318445,3.05541,0.7001948,1.106634,0.4379439,-1.5797,-0.0296152,0.5,0.9,-0.06025866,0.04653026,0.008615486,-0.7842439,-4.274633,-0.1295639,0.7332572,1.288929,0.3622472,-0.04380222,0.07713348,-0.00453283,-0.893,0.1998154,-0.05044959,0.8367455,1.363588,0.2117467,0.4930586,0.9739539,0.2705544,299.5015,241.3542,353.2488,True
0,0.1333333,-0.02351495,-0.1763092,-0.02133805,-1.414203,-4.317148,3.055522,0.7000138,1.106582,0.4377425,-1.579589,0.01037261,0.5,0.9,-0.04434349,0.05716443,-5.939207E-05,-0.7845971,-4.273283,-0.1305966,0.7331724,1.288872,0.3620493,-0.04052686,0.06756007,0.006108771,-0.8926075,0.2003718,-0.05046051,0.8367463,1.363603,0.2116084,0.4930323,0.9740127,0.2702412,299.5031,241.3176,353.2937,True
0,0.1444445,-0.02246692,-0.1560816,-0.02357731,-1.413897,-4.315974,3.0555,0.6998805,1.10659,0.437593,-1.57944,0.01344749,0.3,0.8,-0.03371888,0.06566953,-0.004418391,-0.7848336,-4.271971,-0.1315253,0.7330811,1.288866,0.3618963,-0.0308427,0.05586867,0.01884485,-0.8919241,0.2006756,-0.05068022,0.8367426,1.363645,0.2114708,0.4930122,0.9740355,0.2699846,299.4901,241.2794,353.339,True
0,0.1555556,-0.01714795,-0.1475746,-0.02574718,-1.413733,-4.314358,3.055277,0.6997286,1.106512,0.437392,-1.579214,0.02048213,0.3,0.8,-0.02928502,0.06991374,0.01152057,-0.7842759,-4.270566,-0.1323905,0.7330384,1.28883,0.3616805,-0.01694736,0.03991674,0.02303002,-0.8916039,0.2006326,-0.05093402,0.8367317,1.36371,0.2112627,0.4929929,0.9740164,0.2697624,299.4807,241.2605,353.3688,True
0,0.1666667,-0.01502322,-0.1401167,-0.02685082,-1.413495,-4.313049,3.055151,0.6995749,1.106617,0.4371662,-1.579306,-0.008548227,0.3,0.8,-0.03033067,0.06245594,0.01472191,-0.7840543,-4.269931,-0.1324246,0.733025,1.288816,0.3614955,-0.001979664,0.03781563,0.03146333,-0.8909659,0.2011696,-0.05173111,0.8367552,1.363758,0.2110252,0.4929629,0.9739496,0.2695275,299.4865,241.2199,353.4152,True
0,0.1777778,-0.01185402,-0.1198665,-0.02482281,-1.413328,-4.312306,3.05515,0.6995368,1.106596,0.4369843,-1.579412,-0.009630822,0.3,0.8,-0.02922042,0.04114016,0.02215448,-0.7835414,-4.270385,-0.1318385,0.7329217,1.288777,0.3613029,-0.0009435154,0.02609071,0.02401103,-0.8909387,0.2010563,-0.05165787,0.8367977,1.363693,0.2108686,0.4929664,0.9738541,0.2692698,299.5028,241.1445,353.4813,True
0,0.1888889,-0.002295362,-0.08999505,-0.01858354,-1.413309,-4.312338,3.05483,0.6995857,1.106651,0.4368305,-1.579329,0.007606062,0.3,0.8,-0.02604552,0.02835308,0.02211938,-0.7832186,-4.270459,-0.131602,0.732946,1.28884,0.3610818,-0.007436465,0.01860589,0.005944802,-0.8915027,0.2009556,-0.05129408,0.8368765,1.363753,0.2106576,0.4930153,0.9737305,0.2689506,299.5338,241.0792,353.5291,True
0,0.2,0.007252282,-0.05268937,-0.01663917,-1.413149,-4.312939,3.054575,0.6996862,1.106712,0.4366589,-1.57924,0.007996822,0.3,0.6,-0.01762936,0.01129927,0.01456588,-0.7832857,-4.271118,-0.1311546,0.7330211,1.288988,0.3609309,-0.009613404,0.01646835,-0.00256369,-0.8918426,0.2011671,-0.05128716,0.8369426,1.363769,0.2104616,0.493113,0.973612,0.2685652,299.5926,241.0025,353.5524,True
0,0.2111111,0.01255671,-0.03133538,-0.008223955,-1.413321,-4.313362,3.054329,0.699765,1.106785,0.4364793,-1.579627,-0.03544826,0.3,0.6,-0.01343158,0.004904516,0.009192821,-0.7833661,-4.271382,-0.1309708,0.7330443,1.289088,0.360765,-0.0127926,0.01753339,0.0006481024,-0.8917637,0.2015399,-0.05127916,0.8369634,1.363797,0.2102227,0.4932633,0.9735237,0.2681633,299.6359,240.9345,353.5261,True
0,0.2222222,0.01146577,-0.007883916,-0.004077433,-1.413429,-4.31396,3.054396,0.6998811,1.106845,0.4364576,-1.57963,3.062274E-05,0.3,0.6,0.004748932,-0.002583669,0.01752879,-0.7827829,-4.271654,-0.1314078,0.7331346,1.289117,0.3605299,-0.01167549,0.009018209,0.007039024,-0.8914745,0.2013149,-0.05104055,0.8370128,1.363781,0.2100129,0.4934506,0.9734838,0.2678222,299.6635,240.8965,353.4578,True
0,0.2333333,0.008249448,0.01130732,8.611497E-05,-1.413489,-4.314717,3.054576,0.6999118,1.106979,0.4363568,-1.579515,0.01037016,0.3,0.6,0.009112081,0.0006000847,0.02707461,-0.7821938,-4.271367,-0.1318643,0.7331697,1.289243,0.3603435,-0.01376386,-0.003763055,0.01132341,-0.8911976,0.2007854,-0.05046877,0.8369946,1.36381,0.2097354,0.4936114,0.9734797,0.2675908,299.6798,240.8872,353.3965,True
0,0.2444444,0.001858602,0.01234994,-0.003116188,-1.413327,-4.3148,3.05476,0.6999352,1.10701,0.4361925,-1.57916,0.03235493,0.2,0.5,0.01885316,0.00696815,0.04189547,-0.7812463,-4.270774,-0.132749,0.7332804,1.289318,0.360111,-0.01271193,-0.006957486,0.008124079,-0.8912205,0.2006139,-0.05027436,0.8370621,1.363836,0.2094829,0.4937208,0.973504,0.26748,299.6881,240.9138,353.3458,True
0,0.2555556,-0.00132986,0.00483028,-0.01373282,-1.412852,-4.314462,3.054846,0.7000254,1.107129,0.4360614,-1.579006,0.01379436,0.2,0.5,0.02318956,0.01015381,0.0482456,-0.7805715,-4.270312,-0.1335647,0.7335192,1.289399,0.3598495,-0.004284723,-0.02614054,-0.01109006,-0.8920588,0.1992885,-0.04965091,0.8371862,1.363835,0.2091887,0.4937616,0.9735566,0.2674988,299.7018,240.9553,353.3081,True
0,0.2666667,-0.006642778,-0.005850483,-0.01794381,-1.412531,-4.314008,3.05496,0.7000808,1.10721,0.4359295,-1.578882,0.0111976,0.2,0.5,0.0146729,0.01016743,0.04939705,-0.7800133,-4.270016,-0.133561,0.7336824,1.289465,0.3596866,0.007380478,-0.04531225,-0.02392846,-0.8927097,0.1976919,-0.04913026,0.8373133,1.363835,0.2089326,0.4936724,0.9736391,0.267604,299.7151,241.0079,353.3264,True
0,0.2777778,-0.006634939,-0.0154706,-0.02428756,-1.412096,-4.313471,3.054971,0.7001699,1.107331,0.4357908,-1.57891,-0.002655186,0.2,0.5,0.0127189,-0.0004890915,0.06858297,-0.7786396,-4.27018,-0.1334883,0.7339786,1.289476,0.3595085,0.02227965,-0.06127314,-0.02933675,-0.8931773,0.1962099,-0.04886368,0.8373484,1.363834,0.208689,0.4935241,0.9737486,0.2677402,299.6999,241.033,353.4345,True
0,0.2888889,-0.01194577,-0.02726173,-0.0370113,-1.411359,-4.312653,3.055138,0.7002841,1.107443,0.4357078,-1.578883,0.002587347,0.2,0.5,0.01702194,-0.007956676,0.07386184,-0.777626,-4.270477,-0.1336068,0.734231,1.289574,0.3593261,0.03188581,-0.07297792,-0.02832555,-0.8934538,0.194678,-0.04847486,0.837446,1.363813,0.2083712,0.4934352,0.9738913,0.2678634,299.6742,241.0171,353.5812,True
0,0.3,-0.02366864,-0.02733336,-0.04873109,-1.410435,-4.312274,3.055827,0.7004439,1.107596,0.4355741,-1.578978,-0.008724174,0.3,0.6,0.02984097,-0.03248205,0.08117397,-0.7763477,-4.272007,-0.1332497,0.7345759,1.289651,0.3590186,0.03403902,-0.07936007,-0.02620137,-0.8936418,0.1933245,-0.04806819,0.8375749,1.363825,0.2080786,0.4934238,0.9740498,0.2679138,299.646,241.0008,353.6918,True
0,0.3111111,-0.04496262,-0.03490428,-0.06680551,-1.409153,-4.311487,3.05687,0.7006392,1.10767,0.4355183,-1.578801,0.01625979,0.3,0.6,0.05015116,-0.04316387,0.08948415,-0.775015,-4.272818,-0.1338768,0.7348093,1.289639,0.3588555,0.04045477,-0.08147889,-0.0230392,-0.8936951,0.1921143,-0.04797898,0.8376573,1.363873,0.2077482,0.4935203,0.9742122,0.2678669,299.6175,240.9405,353.7933,True
0,0.3222222,-0.06201184,-0.03176048,-0.07215136,-1.408217,-4.311037,3.058069,0.7008268,1.107788,0.4354293,-1.578359,0.0402751,0.3,0.6,0.08969812,-0.03896853,0.1018703,-0.7734683,-4.272936,-0.136054,0.7352291,1.289667,0.3585999,0.05553785,-0.08249724,0.003503704,-0.8926703,0.1910166,-0.04845595,0.8377345,1.363981,0.207371,0.4937174,0.9743626,0.2677187,299.5966,240.8074,353.9016,True
0,0.3333333,-0.0918316,-0.03716616,-0.08064471,-1.407169,-4.310236,3.05994,0.7009708,1.107823,0.4354634,-1.577971,0.03522471,0.3,0.6,0.1100549,-0.0219578,0.1101958,-0.7720749,-4.272157,-0.1385643,0.7356825,1.289593,0.3584149,0.06520344,-0.1016548,0.01198031,-0.8922559,0.1887071,-0.04800987,0.8378428,1.363993,0.2069442,0.4939577,0.9745076,0.2674844,299.5869,240.6199,354.0164,True
0,0.3444445,-0.1227123,-0.04578746,-0.09339235,-1.405722,-4.309261,3.062107,0.701233,1.107977,0.4354463,-1.577944,0.002217279,0.2,0.5,0.1231241,-0.0006848276,0.1356416,-0.7698815,-4.270631,-0.1414085,0.7363076,1.289713,0.3582702,0.09080195,-0.1346452,0.009722772,-0.8921014,0.1853962,-0.04774808,0.8380525,1.363976,0.2064955,0.4942142,0.9746663,0.267197,299.5771,240.394,354.1365,True
0,0.3555556,-0.1514531,-0.06292605,-0.1060908,-1.404266,-4.307895,3.064418,0.7015209,1.108192,0.435498,-1.577365,0.05310838,0.2,0.5,0.1280663,0.007789299,0.2016484,-0.7655891,-4.269324,-0.1439207,0.7371304,1.28993,0.3581617,0.1109942,-0.1495426,-0.002115645,-0.892575,0.1826514,-0.04796913,0.8382354,1.363865,0.205976,0.4944377,0.9748698,0.2668847,299.5607,240.1937,354.2208,True
0,0.3666667,-0.1737952,-0.08645462,-0.1198311,-1.402527,-4.305964,3.066669,0.7017906,1.108435,0.4355998,-1.577165,0.01795925,0.2,0.5,0.1549052,0.04167393,0.3357008,-0.7594212,-4.266745,-0.1477964,0.7380397,1.290055,0.3579829,0.1236038,-0.1665993,-0.03413726,-0.8939539,0.1794441,-0.04780401,0.8384882,1.363797,0.2054572,0.4946188,0.975149,0.2665786,299.5298,239.9742,354.3324,True
0,0.3777778,-0.2206174,-0.1398865,-0.1430048,-1.40039,-4.302305,3.07015,0.7022085,1.108659,0.4357519,-1.577161,0.0004196761,0.2,0.5,0.1903122,0.07359421,0.4482222,-0.7493379,-4.260791,-0.156062,0.7393688,1.290262,0.3577924,0.1459283,-0.1868196,-0.04703876,-0.8947209,0.1759821,-0.04798058,0.8387817,1.363841,0.204891,0.4948191,0.9755691,0.2663066,299.4945,239.7076,354.5193,True
0,0.3888889,-0.2866026,-0.208303,-0.175699,-1.397622,-4.297393,3.074732,0.7026744,1.108853,0.4359419,-1.577349,-0.0169895,0.2,0.5,0.2730559,0.1074611,0.6199921,-0.7371028,-4.254149,-0.1668558,0.7409385,1.290363,0.3576162,0.1875707,-0.2314956,-0.04192518,-0.8947347,0.1709319,-0.04824609,0.8389961,1.363765,0.2042327,0.4950723,0.9761714,0.266069,299.4294,239.4049,354.7505,True
0,0.4,-0.3621843,-0.2564971,-0.2116895,-1.394345,-4.292727,3.080342,0.7031888,1.109103,0.4360397,-1.576097,0.1147696,0.3,0.6,0.3406199,0.06685019,0.6704208,-0.7283778,-4.253034,-0.1736602,0.7424145,1.290378,0.3574288,0.2260394,-0.2751114,-0.03146716,-0.8944663,0.1651455,-0.04831933,0.839256,1.363749,0.203588,0.495423,0.9769503,0.2658439,299.29,239.0347,355.0631,True
0,0.4111111,-0.4005322,-0.2545301,-0.2351331,-1.391224,-4.289748,3.085414,0.703674,1.109302,0.436079,-1.574983,0.1010822,0.3,0.6,0.3662814,-0.08441326,0.5954947,-0.7235313,-4.260681,-0.1728847,0.7442049,1.29041,0.3573873,0.2708541,-0.3453639,-0.03593628,-0.8946842,0.1571872,-0.04784342,0.8395355,1.363731,0.2028358,0.4959538,0.9778862,0.2655427,299.0958,238.5473,355.5033,True
0,0.4222222,-0.4421319,-0.1960444,-0.2482252,-1.387895,-4.289462,3.091652,0.7043703,1.109619,0.4359977,-1.574357,0.05679279,0.3,0.6,0.3650419,-0.2516091,0.4941844,-0.7202594,-4.273096,-0.16792,0.7457262,1.290683,0.3571799,0.2953693,-0.4060601,-0.04774886,-0.8952962,0.1487238,-0.04673288,0.8398638,1.363691,0.2021868,0.4966353,0.9789718,0.2650258,298.887,237.9088,356.0361,True
0,0.4333333,-0.4603748,-0.06286668,-0.2414397,-1.385221,-4.292954,3.09792,0.7050989,1.110173,0.4358625,-1.575635,-0.1168371,0.3,0.6,0.3740866,-0.5295381,0.2702059,-0.7223196,-4.297057,-0.1544199,0.7473068,1.2907,0.3575025,0.2921427,-0.4305737,-0.05835716,-0.8960078,0.1417731,-0.04544258,0.8401624,1.363659,0.2014375,0.497326,0.9802365,0.264208,298.6864,237.1761,356.5444,True
0,0.4444444,-0.4593543,-0.01805861,-0.2288836,-1.383026,-4.294092,3.103109,0.7057447,1.110543,0.435883,-1.575559,0.008372717,0.3,0.6,0.4256986,-0.6168821,0.1194135,-0.7240821,-4.311491,-0.1499496,0.7488741,1.29077,0.3578546,0.3039331,-0.4305466,-0.04671156,-0.8959252,0.1356201,-0.04533286,0.8404453,1.363682,0.200774,0.4978918,0.9817008,0.2631767,298.4302,236.4474,356.933,True
0,0.4555556,-0.4541983,0.143047,-0.1796228,-1.38247,-4.301234,3.109299,0.7064934,1.111109,0.435797,-1.576589,-0.09405012,0.3,0.6,0.4474511,-0.6477836,0.06271353,-0.7236949,-4.323559,-0.1465463,0.7503884,1.290967,0.3579121,0.2996623,-0.4316201,-0.04881263,-0.8962538,0.1294828,-0.04470941,0.8406305,1.363674,0.2000825,0.498194,0.9834076,0.2621487,298.175,235.8028,357.1924,True
0,0.4666667,-0.4606543,0.2060298,-0.1533094,-1.381426,-4.305565,3.115393,0.7072893,1.111457,0.4358497,-1.577659,-0.09676529,0.3,0.6,0.4386854,-0.6616094,0.03934638,-0.7227755,-4.335125,-0.1425593,0.7517358,1.291248,0.357589,0.2857766,-0.4391049,-0.05617846,-0.8969862,0.122817,-0.04319701,0.8409137,1.363656,0.199425,0.4981305,0.9854218,0.2614122,297.853,235.3078,357.4016,True
0,0.4777778,-0.4916355,0.2839723,-0.112157,-1.381441,-4.311346,3.123079,0.7080939,1.111743,0.435956,-1.578075,-0.03712955,0.3,0.6,0.3833872,-0.6189225,0.04204668,-0.7215468,-4.343272,-0.1389885,0.7530204,1.291517,0.3573077,0.2793801,-0.4412486,-0.05719838,-0.8973867,0.1164002,-0.04204705,0.8412045,1.363634,0.1987367,0.4978061,0.9876816,0.2611201,297.4178,234.9679,357.6255,True
0,0.4888889,-0.5268677,0.3554461,-0.08588991,-1.381048,-4.317582,3.131286,0.7091969,1.111857,0.4360087,-1.577826,0.02316633,0.3,0.6,0.3560787,-0.5677658,0.07324973,-0.7190742,-4.349841,-0.1370867,0.7542338,1.291763,0.3570573,0.2719987,-0.4359156,-0.04544903,-0.8974501,0.1105113,-0.04127793,0.8415941,1.363495,0.1979582,0.4971001,0.9901265,0.2614064,296.9192,234.9546,357.7453,True
0,0.5,-0.5631812,0.4513665,-0.07146333,-1.380589,-4.325892,3.140251,0.7102726,1.112031,0.4360232,-1.576648,0.1075332,0.3,0.7,0.3399863,-0.4708481,0.1533553,-0.714541,-4.352062,-0.1386673,0.755592,1.291959,0.3567982,0.2677925,-0.4220604,-0.03372063,-0.8972786,0.1051179,-0.04076314,0.8418925,1.36342,0.1971676,0.4962117,0.9926372,0.2622657,296.3455,234.9896,358.0767,True
0,0.5111111,-0.6124072,0.6654583,-0.06828435,-1.380054,-4.340322,-3.131738,0.7116158,1.112155,0.4360976,-1.576349,0.02657679,0.3,0.7,0.3492723,-0.3430658,0.2108687,-0.7103098,-4.350747,-0.1438008,0.7567989,1.291989,0.3564141,0.2635472,-0.4082152,-0.02731966,-0.8972999,0.09981062,-0.04019775,0.8422438,1.363353,0.1964827,0.4951721,0.9951387,0.2635503,295.7818,235.1877,358.4252,True
0,0.5222223,-0.6423039,0.73478,-0.04838991,-1.380315,-4.351087,-3.121538,0.7127366,1.112335,0.4360824,-1.576287,0.005785337,0.3,0.7,0.3504919,-0.2567865,0.2130233,-0.7081239,-4.350454,-0.1480739,0.7578392,1.292169,0.3561387,0.2517975,-0.3965161,-0.03045436,-0.8975897,0.09458935,-0.03942251,0.8425575,1.363314,0.195802,0.4940866,0.9976001,0.265112,295.2508,235.4217,358.8389,True
0,0.5333334,-0.6359656,0.7860118,-0.02947028,-1.380876,-4.361436,-3.112755,0.7136976,1.112495,0.4359827,-1.575571,0.06569539,0.3,0.7,0.357024,-0.1492091,0.210889,-0.7062479,-4.347052,-0.1549076,0.7590407,1.292127,0.355906,0.2399595,-0.3752453,-0.04531775,-0.8984973,0.08987702,-0.03883848,0.8429699,1.363308,0.1952047,0.492817,1.00004,0.2668536,294.7964,235.6525,359.1856,True
0,0.5444446,-0.6328123,0.8308291,-0.01585117,-1.381416,-4.372251,-3.103925,0.7146375,1.112688,0.4358184,-1.576178,-0.05574188,0.3,0.7,0.392105,-0.06189093,0.1903343,-0.7051486,-4.343348,-0.163255,0.7602364,1.292069,0.3557575,0.2248766,-0.3454584,-0.06549287,-0.899741,0.08613782,-0.03850345,0.843348,1.363129,0.1945605,0.4911873,1.002582,0.2688974,294.3839,236.0261,359.4018,True
0,0.5555557,-0.6466776,0.8467543,-0.0244579,-1.381228,-4.382268,-3.094334,0.7155811,1.112901,0.4356012,-1.577906,-0.1571587,0.3,0.5,0.41076,-0.08746716,0.1432552,-0.704779,-4.34636,-0.1660295,0.7615321,1.29209,0.3555369,0.2109482,-0.3252465,-0.07394148,-0.9005911,0.08224574,-0.03798893,0.8436489,1.363068,0.193851,0.4893646,1.005322,0.2711485,293.9239,236.5519,359.6798,True
0,0.5666668,-0.6712018,0.8679856,-0.03522325,-1.381041,-4.392704,-3.084122,0.7165424,1.11315,0.435364,-1.578309,-0.03534534,0.3,0.5,0.4016758,-0.2067511,0.1038366,-0.7041361,-4.356287,-0.1627865,0.7627392,1.292188,0.3552961,0.2079508,-0.3092383,-0.03878136,-0.8997559,0.0785735,-0.03794525,0.8439113,1.363031,0.1931894,0.4875327,1.008224,0.2734138,293.3537,237.0893,0.04272683,True
0,0.577778,-0.6861314,0.8849878,-0.04063079,-1.381108,-4.403291,-3.074026,0.7174765,1.113325,0.4351792,-1.577544,0.07007729,0.3,0.5,0.3704565,-0.2844641,0.08387618,-0.7028567,-4.365251,-0.1588645,0.7639781,1.292073,0.3550839,0.213313,-0.3102939,-0.03348692,-0.8998731,0.07403401,-0.03768826,0.8442334,1.363028,0.1925716,0.4858143,1.011195,0.2755548,292.717,237.5318,0.4647229,True
0,0.5888891,-0.6989728,0.9414063,-0.04624394,-1.381324,-4.41584,-3.06349,0.7183183,1.113513,0.4348829,-1.577082,0.0416555,0.3,0.5,0.31376,-0.369597,0.07265586,-0.7015262,-4.375365,-0.1528007,0.765119,1.292084,0.3547742,0.2230121,-0.3177183,-0.01649439,-0.8993458,0.06932142,-0.0374784,0.8444515,1.362937,0.1918671,0.4842711,1.014168,0.2774586,292.0978,237.7749,0.9679382,True
0,0.6000003,-0.7043268,0.9712362,-0.04532799,-1.381777,-4.427855,-3.05323,0.7190981,1.11366,0.4346633,-1.577399,-0.02910382,0.3,0.6,0.3117131,-0.3685398,0.08012141,-0.69994,-4.38127,-0.15185,0.7663667,1.292097,0.354357,0.2261628,-0.3155863,-0.02397266,-0.8997298,0.06498965,-0.03743339,0.8448241,1.362839,0.1911912,0.4828797,1.017143,0.2790895,291.5222,237.9059,1.420058,True
0,0.6111114,-0.7086238,1.002154,-0.03909281,-1.382664,-4.440146,-3.042913,0.7198508,1.113881,0.4343865,-1.577574,-0.01548095,0.3,0.6,0.3204472,-0.3557762,0.09922059,-0.6977061,-4.386134,-0.1519781,0.767584,1.292131,0.3539727,0.2207696,-0.3092119,-0.03353329,-0.9002885,0.060823,-0.03710902,0.8452314,1.362781,0.1905122,0.4815535,1.020126,0.2804918,290.957,237.9866,1.773122,True
0,0.6222225,-0.7203248,0.9893327,-0.0443598,-1.383034,-4.450933,-3.032534,0.7204454,1.11414,0.4342248,-1.57793,-0.03239675,0.3,0.6,0.3184316,-0.3323395,0.1066914,-0.6959245,-4.390073,-0.1524785,0.7688588,1.292104,0.3535841,0.2185459,-0.3039044,-0.0484452,-0.9012867,0.05668965,-0.0369463,0.8456903,1.362573,0.1897674,0.4801208,1.023131,0.2817938,290.3938,238.043,2.072131,True
0,0.6333337,-0.7373316,0.9444684,-0.06437919,-1.382772,-4.460227,-3.022054,0.7211932,1.114454,0.4339025,-1.578097,-0.0147828,0.3,0.6,0.2991448,-0.3376223,0.09624556,-0.694652,-4.395768,-0.1507786,0.770131,1.292153,0.3531933,0.2227249,-0.3039101,-0.06125593,-0.902271,0.05238544,-0.03686135,0.846227,1.362559,0.1890752,0.4786076,1.026169,0.283147,289.8172,238.1209,2.364681,True
0,0.6444448,-0.752214,0.916642,-0.08767709,-1.38225,-4.469859,-3.011436,0.7217724,1.114722,0.4336531,-1.577886,0.01946512,0.3,0.6,0.2617006,-0.383352,0.08702669,-0.6932991,-4.40431,-0.1459359,0.7713158,1.292329,0.3528793,0.220549,-0.31138,-0.07081641,-0.9031381,0.04760627,-0.03630315,0.8466551,1.362431,0.1884286,0.4770422,1.029247,0.2846389,289.2416,238.2434,2.685431,True
0,0.655556,-0.7702886,0.87814,-0.1141179,-1.381348,-4.478799,-3.000552,0.7223968,1.115012,0.433377,-1.577619,0.02427606,0.3,0.7,0.2351211,-0.4046588,0.09565662,-0.6913609,-4.411743,-0.1422695,0.7726454,1.292343,0.3523889,0.2237498,-0.311378,-0.0697718,-0.9037453,0.0431512,-0.03612791,0.847017,1.36233,0.1876917,0.4755237,1.032355,0.2862661,288.67,238.281,3.193466,True
0,0.6666671,-0.7841066,0.8502948,-0.1416765,-1.380273,-4.488031,-2.989634,0.7228705,1.11535,0.4330916,-1.577679,-0.005619436,0.3,0.7,0.2234553,-0.3993058,0.1000925,-0.6894658,-4.418261,-0.1392189,0.773842,1.292369,0.3520145,0.2248117,-0.3039202,-0.06871758,-0.9043786,0.03905739,-0.03616972,0.8473721,1.362151,0.1869683,0.4741669,1.035487,0.287927,288.1086,238.1696,3.910665,True
0,0.6777782,-0.7904825,0.8363491,-0.1597178,-1.379317,-4.497356,-2.978775,0.7232836,1.11574,0.4328525,-1.577474,0.01890178,0.3,0.7,0.2319208,-0.387576,0.09372994,-0.6880527,-4.424325,-0.1372178,0.7749615,1.292365,0.3516262,0.2216115,-0.3060556,-0.06975964,-0.9050412,0.03459579,-0.03576146,0.8477563,1.362119,0.1863198,0.4728852,1.038634,0.2895425,287.5422,237.9147,4.720728,True
0,0.6888894,-0.7925818,0.8075112,-0.1755554,-1.378282,-4.505919,-2.968242,0.7236435,1.116135,0.432663,-1.577657,-0.01667827,0.3,0.7,0.2362116,-0.3588369,0.09258076,-0.6867451,-4.428856,-0.1366497,0.7761449,1.292387,0.3512864,0.2173396,-0.3018041,-0.07080098,-0.9057357,0.0304125,-0.03549435,0.8481419,1.362006,0.1856084,0.4716553,1.0418,0.2910638,286.9908,237.538,5.598864,True
0,0.7000005,-0.7893389,0.7616507,-0.1870364,-1.377186,-4.513441,-2.958068,0.7239087,1.116648,0.4324446,-1.57793,-0.02470429,0.3,0.5,0.2235216,-0.3343059,0.09699163,-0.6851765,-4.432969,-0.1356431,0.7772218,1.292569,0.350738,0.2236871,-0.3145915,-0.07934824,-0.9067605,0.02529364,-0.03497263,0.848547,1.361901,0.1848242,0.4703749,1.045006,0.2924769,286.4598,237.0407,6.524835,True
0,0.7111117,-0.7871755,0.7285408,-0.2049809,-1.375726,-4.521197,-2.947711,0.7241184,1.117199,0.4322557,-1.57828,-0.03168976,0.3,0.5,0.1927789,-0.3385393,0.1132679,-0.6828329,-4.438838,-0.1322126,0.7783794,1.292781,0.3502181,0.2247094,-0.3156626,-0.08680438,-0.9077885,0.02067945,-0.03471564,0.8489558,1.361813,0.1840687,0.469057,1.048271,0.2938285,285.9283,236.4651,7.486353,True
0,0.7222228,-0.7892911,0.7210247,-0.2177269,-1.374516,-4.529791,-2.937073,0.7243109,1.117827,0.4321346,-1.578576,-0.02680676,0.3,0.5,0.158052,-0.3512792,0.1573349,-0.6791365,-4.445223,-0.1278014,0.7795558,1.292744,0.3498034,0.2225088,-0.3252655,-0.1016975,-0.9093257,0.01553369,-0.03408207,0.8493514,1.361742,0.1832476,0.4677761,1.051583,0.2951389,285.3854,235.8135,8.529614,True
0,0.7333339,-0.7839491,0.703899,-0.235751,-1.372918,-4.537889,-2.926816,0.7245281,1.118384,0.4320173,-1.57854,0.003554688,0.3,0.5,0.1294848,-0.3619235,0.17889,-0.6758959,-4.451655,-0.1233171,0.780673,1.292947,0.3493316,0.2150375,-0.3199514,-0.1037918,-0.9104543,0.01115292,-0.03364372,0.8497279,1.361615,0.1825714,0.4665642,1.05492,0.2963725,284.8514,235.0393,9.695116,True
0,0.7444451,-0.7860669,0.6931992,-0.2452869,-1.371611,-4.545914,-2.916452,0.7248371,1.118913,0.4318538,-1.578482,0.005308514,0.3,0.5,0.1200069,-0.3640317,0.189646,-0.6730857,-4.457476,-0.1198628,0.7817376,1.29314,0.3489521,0.1979759,-0.3125152,-0.1047634,-0.9116032,0.007095327,-0.03278804,0.850139,1.361579,0.1818585,0.4653827,1.058272,0.29754,284.3488,234.0606,10.99813,True
0,0.7555562,-0.7828588,0.6814575,-0.2505546,-1.370377,-4.553691,-2.906365,0.7249178,1.119442,0.4317162,-1.578825,-0.03137863,0.3,0.6,0.1210151,-0.3512455,0.1821855,-0.670902,-4.462625,-0.1171924,0.782636,1.293243,0.3485317,0.1883861,-0.3061359,-0.1036447,-0.9126152,0.003072356,-0.03206712,0.8505032,1.361487,0.1811574,0.464199,1.061659,0.2987281,283.8629,232.9591,12.37737,True
0,0.7666674,-0.7732535,0.6707913,-0.2568905,-1.369134,-4.561542,-2.896574,0.7250559,1.11998,0.4316196,-1.578788,0.003646467,0.3,0.6,0.1250798,-0.3352668,0.1608475,-0.6694703,-4.467643,-0.114798,0.7835468,1.293146,0.3480351,0.1766516,-0.3072119,-0.105701,-0.9137258,-0.0012405,-0.03097549,0.8508472,1.361393,0.180598,0.4630835,1.065054,0.3000003,283.3547,231.702,13.9465,True
0,0.7777785,-0.7615493,0.6835665,-0.2601473,-1.36823,-4.570087,-2.886892,0.7251763,1.120458,0.431432,-1.579035,-0.02254935,0.3,0.6,0.1270573,-0.3267219,0.1437882,-0.6680907,-4.472497,-0.1125095,0.7842969,1.293262,0.3475797,0.1691736,-0.3008335,-0.1056561,-0.9147586,-0.005229915,-0.03005883,0.8511737,1.361219,0.179971,0.4620306,1.06843,0.3013543,282.8408,230.4309,15.58163,True
0,0.7888896,-0.7530282,0.6963786,-0.2591469,-1.367584,-4.578903,-2.87717,0.7253941,1.121022,0.4312117,-1.579377,-0.03114493,0.3,0.6,0.1227652,-0.3182016,0.1406374,-0.6662489,-4.477558,-0.1096391,0.7851211,1.293421,0.3471968,0.1670964,-0.2848395,-0.09287744,-0.9153247,-0.008482967,-0.02980663,0.8514405,1.361121,0.1793361,0.4609436,1.071765,0.3027534,282.3406,229.0903,17.30407,True
0,0.8000008,-0.7264382,0.7359085,-0.2412211,-1.36807,-4.588847,-2.867893,0.7254846,1.121518,0.4310844,-1.579625,-0.02240039,0.3,0.6,0.1132283,-0.2990048,0.1428917,-0.6641679,-4.481439,-0.107486,0.7857959,1.29352,0.3467624,0.151207,-0.2656721,-0.07362121,-0.9154409,-0.01150099,-0.02912859,0.8517275,1.36097,0.1786072,0.4598535,1.07503,0.3042032,281.8655,227.6593,19.11908,True
0,0.8111119,-0.7179211,0.7434092,-0.2359329,-1.368003,-4.598043,-2.858188,0.7256288,1.122057,0.430928,-1.579602,0.002167272,0.5,0.6,0.1089818,-0.2819682,0.1429275,-0.6624672,-4.485569,-0.1052537,0.7864647,1.29368,0.3464143,0.1341697,-0.2592982,-0.07139307,-0.9161599,-0.01493421,-0.02799675,0.8519849,1.360808,0.1780131,0.4587479,1.07821,0.3057207,281.4203,226.2727,20.90668,True
0,0.8222231,-0.6763858,0.7499911,-0.2061122,-1.369247,-4.606782,-2.850346,0.7255555,1.122682,0.4309711,-1.580176,-0.05255258,0.5,0.6,0.1006032,-0.2542595,0.1526219,-0.6602344,-4.488126,-0.1040947,0.7870685,1.293761,0.3459876,0.1118218,-0.2529365,-0.06700318,-0.9167298,-0.01832747,-0.02649978,0.8522787,1.360652,0.1773767,0.4576356,1.081325,0.3073297,281.022,225.0217,22.55835,True
0,0.8333342,-0.6571963,0.7415206,-0.2007411,-1.369541,-4.615165,-2.842012,0.7255487,1.123231,0.4308186,-1.579556,0.0571279,0.5,0.6,0.07942978,-0.2329326,0.1635042,-0.657845,-4.490839,-0.1020406,0.787414,1.293957,0.3456256,0.09145164,-0.2316707,-0.08288061,-0.9181935,-0.02066493,-0.02541668,0.8524851,1.360461,0.1768661,0.4564659,1.0844,0.3090858,280.6151,223.8715,24.12173,True
0,0.8444453,-0.6401558,0.741609,-0.1868727,-1.370585,-4.623648,-2.833822,0.7255863,1.123673,0.4306791,-1.581101,-0.1419421,0.5,0.6,0.06781982,-0.2233277,0.1721463,-0.6555105,-4.493927,-0.1000406,0.7879415,1.294069,0.345221,0.0795795,-0.2040084,-0.1020092,-0.9199528,-0.0224362,-0.0249184,0.8527647,1.36035,0.176322,0.4552768,1.087453,0.3109739,280.2444,222.7975,25.65277,True
0,0.8555565,-0.6220509,0.7501817,-0.180522,-1.371473,-4.632507,-2.825798,0.7256495,1.123962,0.4305243,-1.580527,0.05366595,0.8,0.9,0.04341322,-0.2094424,0.1809306,-0.6530119,-4.496528,-0.09746557,0.7882448,1.294266,0.3448391,0.06886946,-0.1933764,-0.1083458,-0.9212897,-0.02479456,-0.02389548,0.8529608,1.360211,0.1758327,0.4540941,1.09048,0.3129619,279.8318,221.7628,27.18048,True
0,0.8666676,-0.615679,0.769385,-0.176339,-1.37275,-4.642068,-2.81725,0.7257047,1.124334,0.4304626,-1.580392,0.01157928,0.8,0.9,0.01905863,-0.1923564,0.1928921,-0.65059,-4.498499,-0.09534489,0.7886815,1.294417,0.3446326,0.06140335,-0.1869965,-0.1083078,-0.922454,-0.02727476,-0.0228683,0.8532917,1.360079,0.1753855,0.4529714,1.093415,0.3149652,279.4211,220.4946,29.00163,True
0,0.8777788,-0.5911959,0.7918248,-0.1668503,-1.374425,-4.65187,-2.80953,0.7257715,1.124645,0.4303188,-1.580442,-0.004747018,0.8,0.9,0.01689419,-0.1721138,0.1865322,-0.6485751,-4.500412,-0.09394833,0.7890321,1.294451,0.3442373,0.05715935,-0.1614282,-0.09871553,-0.9231843,-0.02852592,-0.02254712,0.8534834,1.360044,0.1750314,0.4519417,1.096229,0.3169263,279.0065,219.0961,30.93544,True
0,0.8888899,-0.5741545,0.8004318,-0.1541081,-1.376222,-4.661287,-2.801814,0.7258404,1.124928,0.4301431,-1.579892,0.05020195,0.8,0.9,0.02949479,-0.1561455,0.1672359,-0.6472675,-4.502344,-0.09308174,0.789462,1.29455,0.3439336,0.04657583,-0.1358611,-0.08162746,-0.9235081,-0.02939784,-0.02217588,0.8537394,1.35992,0.1746352,0.4509799,1.098895,0.3188349,278.6234,217.5143,32.98327,True
0,0.900001,-0.5464875,0.83145,-0.1340075,-1.378967,-4.671385,-2.794797,0.7257493,1.125245,0.4299653,-1.580541,-0.05992394,0.8,0.9,0.04300255,-0.1465556,0.1319464,-0.6469069,-4.504433,-0.09241435,0.7896403,1.29464,0.3435893,0.03269868,-0.1167091,-0.08156131,-0.9244556,-0.03038147,-0.02148771,0.8539214,1.359791,0.1741495,0.449999,1.101465,0.3207398,278.3054,216.1265,34.77517,True
0,0.9111122,-0.5123958,0.8357969,-0.1233718,-1.381194,-4.680722,-2.788509,0.7256744,1.1255,0.4298277,-1.58037,0.01616307,1.4,0.7,0.03723346,-0.1369328,0.08833632,-0.6471748,-4.506571,-0.09070593,0.7898299,1.294834,0.343359,0.02308626,-0.1103335,-0.08363399,-0.9253867,-0.03171359,-0.02058783,0.8540932,1.359753,0.1737716,0.4490175,1.103971,0.3226913,277.9888,214.8061,36.52261,True
0,0.9222233,-0.4878978,0.8337612,-0.1094896,-1.383798,-4.689819,-2.782141,0.7256006,1.12567,0.4296415,-1.580955,-0.05381498,1.4,0.7,0.02092457,-0.1262269,0.05441571,-0.647602,-4.508204,-0.08910724,0.7899773,1.294771,0.3429697,0.007051975,-0.08692594,-0.08675231,-0.9264711,-0.03204142,-0.0199058,0.8542473,1.359701,0.1735153,0.4480134,1.106431,0.324689,277.6698,213.611,38.17776,True
0,0.9333345,-0.4729782,0.8199863,-0.09663813,-1.386228,-4.69832,-2.775684,0.725516,1.125913,0.4294443,-1.581349,-0.03572257,1.4,0.7,0.001554251,-0.1197929,0.03544144,-0.6476206,-4.510123,-0.08683903,0.7899898,1.294898,0.3427784,-0.003650457,-0.0677679,-0.08990005,-0.9275742,-0.03221053,-0.01938222,0.8543663,1.359686,0.1732454,0.4469389,1.108869,0.3267521,277.3253,212.3827,39.88326,True
0,0.9444456,-0.4644566,0.8189492,-0.09235759,-1.388765,-4.707279,-2.769145,0.725432,1.126067,0.4293244,-1.580971,0.03462451,1.4,0.7,-0.01124927,-0.1208403,0.03448765,-0.6473228,-4.512438,-0.08441448,0.7900854,1.295062,0.3425176,-0.01425166,-0.05392519,-0.0781287,-0.9280328,-0.03250601,-0.01870684,0.8544632,1.359628,0.1729727,0.4459047,1.11121,0.3288742,276.9694,210.7681,42.0061,True
0,0.9555568,-0.4506094,0.8286188,-0.07855533,-1.391844,1.566859,-2.763097,0.7252644,1.126087,0.4290733,-1.580462,0.04602173,2,1,-0.03352073,-0.1272051,0.04536315,-0.646314,-4.514981,-0.08124612,0.7900251,1.295137,0.342315,-0.01528625,-0.04646739,-0.07174236,-0.9286714,-0.03295715,-0.01829112,0.8545563,1.359613,0.1727219,0.4449305,1.113414,0.3310095,276.6183,209.2209,44.08688,True
0,0.9666679,-0.4357251,0.8542612,-0.06587799,-1.395559,1.556932,-2.757021,0.7251765,1.12611,0.4288747,-1.580199,0.02350384,2,1,-0.04408098,-0.1101368,0.05187195,-0.6455071,-4.515646,-0.07987486,0.790007,1.295103,0.341995,-0.02487398,-0.02730153,-0.06744365,-0.9293591,-0.03250495,-0.01792227,0.8547277,1.359549,0.172503,0.4440054,1.115493,0.3330944,276.317,207.8355,45.99134,True
0,0.977779,-0.4144782,0.903385,-0.04481822,-1.400206,1.545916,-2.75118,0.7250929,1.126179,0.4287198,-1.580491,-0.0269184,2,1,-0.04826634,-0.06006459,0.0530156,-0.6449206,-4.513679,-0.08061442,0.7898942,1.295141,0.3417745,-0.03661171,-0.006011002,-0.06632568,-0.9300893,-0.03174448,-0.01761947,0.8547885,1.35951,0.1724896,0.4430875,1.117484,0.3351272,276.04,206.3685,47.93113,True
0,0.9888902,-0.3921011,0.9131128,-0.02352601,-1.40464,1.53625,-2.745993,0.7249745,1.126238,0.4286411,-1.58045,0.003918467,2,1,-0.03974593,-0.002543611,0.04444138,-0.6449079,-4.510389,-0.08308983,0.7898161,1.295141,0.3415432,-0.04506099,0.01103871,-0.05031165,-0.9301495,-0.03085458,-0.01731747,0.8550067,1.359479,0.1723785,0.442144,1.119411,0.3371268,275.7419,204.8123,49.93198,True
0,1.000001,-0.370792,0.8983119,-0.004273176,-1.40898,1.527615,-2.741149,0.7247162,1.126286,0.428467,-1.580634,-0.01704461,2,1,-0.04095542,0.03795861,0.02422422,-0.6456978,-4.507331,-0.08502035,0.7896122,1.295171,0.3414752,-0.0503376,0.01743159,-0.040697,-0.9302763,-0.03038906,-0.01685595,0.8551064,1.359429,0.172236,0.4411747,1.121302,0.3391804,275.446,203.4672,51.6731,True
0,1.011112,-0.3515504,0.8429645,0.0002575219,-1.412006,1.520681,-2.736822,0.7244689,1.126366,0.4282591,-1.580831,-0.01803694,1.8,1.2,-0.05285881,0.04011491,0.006237004,-0.6462485,-4.50673,-0.08441049,0.7894862,1.295298,0.3414028,-0.05244275,0.02063651,-0.0353654,-0.9305884,-0.02983153,-0.01649855,0.8551832,1.359432,0.1721256,0.4401821,1.123206,0.3414066,275.1347,202.2861,53.2606,True
0,1.022224,-0.3323334,0.7992759,-0.004854709,-1.414696,1.51377,-2.732696,0.7242088,1.126469,0.4280117,-1.580765,0.006083561,1.8,1.2,-0.06262145,0.01138365,-0.006477318,-0.6468056,-4.507987,-0.08239634,0.7893183,1.295375,0.3413517,-0.05566446,0.02062469,-0.03854137,-0.9311854,-0.0296531,-0.0158048,0.8552798,1.359373,0.172029,0.4392312,1.125102,0.3437981,274.7887,200.8047,55.25319,True
0,1.033335,-0.3195023,0.7683973,-0.004697949,-1.417708,1.506672,-2.728576,0.7239622,1.126479,0.4279242,-1.580749,0.001228755,1.8,1.2,-0.08417739,-0.03438039,-0.02333067,-0.6473825,-4.511167,-0.07814141,0.7890514,1.295455,0.3412571,-0.06315236,0.0259361,-0.04169361,-0.9317538,-0.02913165,-0.01510598,0.8552588,1.359358,0.1719849,0.4383336,1.126948,0.3462187,274.4217,198.805,57.88806,True
0,1.044446,-0.3003181,0.7609685,-0.002526134,-1.421142,1.499193,-2.724794,0.7237444,1.126504,0.4277086,-1.580707,0.003653649,1.8,1.2,-0.1045329,-0.04499058,-0.03379013,-0.6481319,-4.51248,-0.07539063,0.7888057,1.295543,0.3410411,-0.07279681,0.03870083,-0.04803746,-0.9325346,-0.02805427,-0.01460318,0.8553052,1.359325,0.1719337,0.4375602,1.128662,0.3484638,274.1118,196.1361,61.21817,True
0,1.055557,-0.2811367,0.767431,0.008091122,-1.42508,1.49129,-2.721236,0.7233722,1.126471,0.4274151,-1.58051,0.01774207,0.8,1.2,-0.1332449,-0.03110138,-0.03029383,-0.6483599,-4.512202,-0.0731083,0.7884396,1.295403,0.3409564,-0.08669969,0.06851204,-0.05010332,-0.9331045,-0.02570217,-0.01454219,0.8552109,1.359337,0.1719341,0.4368674,1.130218,0.3504254,273.8755,193.1323,64.75137,True
0,1.066668,-0.2587438,0.7547401,0.02306587,-1.428937,1.484319,-2.718181,0.7229664,1.126404,0.4275277,-1.580664,-0.01434759,0.8,1.2,-0.1267669,0.02428143,-0.03031873,-0.648771,-4.508818,-0.07471099,0.78808,1.295166,0.3407238,-0.09089134,0.09089138,-0.03305165,-0.9328489,-0.02351838,-0.01462288,0.8551774,1.359293,0.1719403,0.4362003,1.131623,0.3521358,273.6716,190.3116,67.93197,True
0,1.077779,-0.2459356,0.7291982,0.02638845,-1.432279,1.477861,-2.714982,0.7225671,1.126346,0.4274883,-1.580737,-0.006667994,0.8,1.2,-0.1097341,0.05941439,-0.03686077,-0.6495525,-4.505806,-0.07650063,0.7876765,1.295111,0.3406558,-0.08764077,0.09942763,-0.02242518,-0.932752,-0.02187853,-0.01477921,0.8550149,1.359264,0.1719449,0.4354807,1.132918,0.3536771,273.4729,187.8014,70.73034,True
0,1.08889,-0.2352381,0.6738757,0.03943969,-1.435347,1.473148,-2.712031,0.7222292,1.126321,0.427484,-1.580866,-0.01186951,0.8,1.2,-0.09278268,0.09350625,-0.05086154,-0.650834,-4.501907,-0.07912225,0.7872558,1.295068,0.3407998,-0.08223733,0.09093326,-0.0107377,-0.9325677,-0.0208126,-0.01456856,0.8550478,1.359347,0.1719253,0.4346359,1.134132,0.355154,273.2836,185.1254,73.64557,True
0,1.100002,-0.2181284,0.6067562,0.03550945,-1.437436,1.469149,-2.709675,0.7218173,1.126245,0.4273331,-1.580426,0.04023288,0.8,1.2,-0.09824902,0.07861407,-0.06253468,-0.6519455,-4.501376,-0.07827643,0.7867731,1.29508,0.3407731,-0.07791676,0.08668392,-0.002240087,-0.9323609,-0.01980433,-0.01446629,0.8550198,1.359296,0.1719215,0.4337506,1.135235,0.3566625,273.1094,182.1504,76.83199,True
0,1.111113,-0.2085034,0.568368,0.0250455,-1.439544,1.464361,-2.706983,0.7215753,1.126162,0.427249,-1.58018,0.02199448,0.6,1,-0.1239632,0.04243764,-0.07081638,-0.6529208,-4.502789,-0.07478156,0.7863715,1.29512,0.340703,-0.0736771,0.1005438,-0.002280927,-0.9324473,-0.01769138,-0.01502289,0.8551466,1.359335,0.1719692,0.4329115,1.136211,0.3582042,272.9408,179.61,79.66122,True
0,1.122224,-0.1946454,0.5598134,0.01657136,-1.441975,1.45894,-2.704629,0.7212339,1.126136,0.4270947,-1.58048,-0.02772875,0.6,1,-0.1388609,0.02435736,-0.06641314,-0.6534401,-4.503179,-0.07243265,0.7859505,1.295069,0.3405557,-0.08231693,0.1218238,-0.01609651,-0.933152,-0.01515965,-0.0152687,0.8551127,1.359267,0.1720874,0.4322141,1.137064,0.359676,272.767,177.404,82.23985,True
0,1.133335,-0.177604,0.5598013,0.01124375,-1.44454,1.45327,-2.702525,0.7208622,1.126038,0.4269574,-1.580113,0.0336676,0.6,1,-0.1524928,0.04140647,-0.04708487,-0.6532702,-4.50161,-0.07148297,0.7854686,1.295017,0.3404684,-0.09194738,0.1324629,-0.02030518,-0.9335375,-0.01286706,-0.01525352,0.8549417,1.359207,0.1721611,0.4316446,1.137791,0.3609594,272.6478,174.7999,85.20857,True
0,1.144446,-0.1605577,0.5587271,0.005943552,-1.447231,1.447562,-2.70062,0.7204129,1.126016,0.4269652,-1.580321,-0.01937433,0.6,1,-0.1481493,0.07016762,-0.04392301,-0.6539275,-4.498611,-0.07249444,0.7849735,1.294989,0.3404045,-0.08980682,0.1324668,-0.01925094,-0.9336723,-0.01110072,-0.01543302,0.8548188,1.359232,0.1723442,0.4311364,1.138436,0.3620774,272.5703,172.748,87.50567,True
0,1.155557,-0.1466797,0.5300008,0.0114205,-1.449674,1.443347,-2.69898,0.7198306,1.126081,0.4270618,-1.580455,-0.01216214,0.6,1,-0.1321061,0.09997267,-0.04193461,-0.6544852,-4.495118,-0.07432776,0.7843744,1.295035,0.3404253,-0.08661525,0.1346037,-0.01927058,-0.9338832,-0.009150755,-0.01574354,0.854666,1.359213,0.1724353,0.4305486,1.139085,0.3631317,272.5,170.7077,89.71372,True
0,1.166668,-0.13813,0.5001963,0.01476331,-1.451835,1.439417,-2.697289,0.7193301,1.126078,0.4270165,-1.58048,-0.002329284,0.5,1.7,-0.1162319,0.09357417,-0.05062875,-0.65547,-4.493636,-0.07462736,0.7838422,1.295048,0.3406472,-0.08438544,0.1314257,-0.004367537,-0.9334321,-0.007451658,-0.01595234,0.8545139,1.359315,0.1725724,0.4298502,1.139756,0.364233,272.4326,168.1256,92.43486,True
0,1.17778,-0.1263608,0.4458855,0.0160971,-1.453393,1.436663,-2.695944,0.7187731,1.12601,0.4269898,-1.580369,0.009961572,0.5,1.7,-0.1099576,0.075459,-0.05922587,-0.6564186,-4.493515,-0.07363933,0.7833166,1.295081,0.3406725,-0.0811049,0.1261205,0.008403488,-0.9329016,-0.005821138,-0.01608177,0.8543222,1.359332,0.1725633,0.4290341,1.140458,0.3654667,272.3517,165.359,95.36208,True
0,1.188891,-0.1156637,0.4011605,0.01738137,-1.454867,1.434042,-2.694752,0.7182362,1.125981,0.426914,-1.580097,0.02469123,0.5,1.7,-0.1173431,0.06054774,-0.05063419,-0.6566561,-4.493423,-0.07224917,0.7827866,1.295008,0.3403749,-0.07679845,0.1229427,0.01583069,-0.9325932,-0.004150004,-0.01629721,0.8542032,1.359383,0.172636,0.4281765,1.141167,0.3667966,272.2475,162.1983,98.77524,True
0,1.200002,-0.09644514,0.356412,0.01227527,-1.455894,1.431777,-2.69407,0.7176941,1.125971,0.4267728,-1.580122,-0.002564472,0.5,1.7,-0.1396362,0.0531252,-0.04189111,-0.6568708,-4.492683,-0.07053968,0.7822154,1.295092,0.3402359,-0.07468539,0.1186806,0.01155938,-0.9326651,-0.002708568,-0.01642638,0.8540586,1.359374,0.1727462,0.4274036,1.141826,0.3681151,272.1554,158.2639,103.0507,True
0,1.211113,-0.07941493,0.3671493,0.02500608,-1.458492,1.427895,-2.693234,0.7171493,1.126002,0.4267864,-1.580122,-8.10613E-05,0.5,1.9,-0.157655,0.04888505,-0.03212196,-0.6569203,-4.491998,-0.06874657,0.781655,1.295143,0.3401973,-0.07263586,0.1229469,-0.0001729481,-0.9330885,-0.0005964149,-0.0169132,0.8537955,1.359388,0.1728671,0.4267449,1.142386,0.3692864,272.0949,153.843,107.8187,True
0,1.222224,-0.06874101,0.3458357,0.02190854,-1.45995,1.425103,-2.692488,0.7165799,1.125943,0.4267364,-1.580438,-0.02895806,0.5,1.9,-0.1639528,0.05208816,-0.02354408,-0.6571131,-4.490792,-0.06774256,0.7810631,1.295112,0.3401799,-0.08224988,0.1325192,-0.003318455,-0.9332324,0.001631319,-0.01707646,0.853642,1.359391,0.173053,0.4261593,1.142837,0.3702223,272.0524,150.0794,111.8713,True
0,1.233335,-0.07192995,0.334115,0.02195308,-1.46147,1.422173,-2.691148,0.7160599,1.126029,0.4266677,-1.580333,0.009708694,0.5,1.9,-0.1704352,0.06275551,-0.03412259,-0.6579116,-4.489155,-0.06703337,0.7805132,1.295199,0.3401914,-0.09079137,0.1410369,-0.004337997,-0.9333512,0.004060389,-0.0172176,0.8534629,1.359435,0.1731973,0.4255699,1.143189,0.3709083,272.0243,147.6694,114.4349,True
0,1.244446,-0.06977247,0.30431,0.02636135,-1.462871,1.420268,-2.69025,0.715453,1.125952,0.4266016,-1.580117,0.01949836,0.5,1.9,-0.1575992,0.07125747,-0.0321186,-0.6583238,-4.487484,-0.06730261,0.779875,1.295243,0.3401282,-0.09077128,0.1389028,-0.002208882,-0.9333618,0.005776263,-0.01732786,0.8532841,1.359426,0.1732266,0.4248762,1.143501,0.3714957,271.9715,145.7444,116.3925,True
0,1.255558,-0.06867374,0.2702452,0.03077455,-1.464006,1.418652,-2.689327,0.7149464,1.12572,0.4264915,-1.579388,0.06640261,0.5,1.9,-0.1385551,0.0733598,-0.04402756,-0.6591547,-4.486261,-0.06714308,0.7792029,1.295267,0.3402076,-0.08965141,0.1367908,0.00630697,-0.9330843,0.007775498,-0.01756062,0.8530964,1.359426,0.1733584,0.4241333,1.14376,0.3720381,271.9387,144.3293,117.8588,True
0,1.266669,-0.06866527,0.2606682,0.03295254,-1.465526,1.416527,-2.688344,0.7143934,1.12561,0.4263525,-1.579556,-0.01602862,0.3,5.6,-0.1344937,0.06911133,-0.06326295,-0.6607931,-4.485314,-0.06654973,0.7784965,1.295356,0.3403168,-0.0874986,0.1346739,0.009497913,-0.9328057,0.009698967,-0.01781575,0.8528861,1.359448,0.1734955,0.4233649,1.144013,0.3725643,271.8896,143.7072,118.5651,True
0,1.27778,-0.05377119,0.2713873,0.04461168,-1.467648,1.41392,-2.687881,0.7138617,1.125468,0.4262078,-1.579466,0.008419563,0.3,5.6,-0.1378313,0.0733792,-0.07707524,-0.6621577,-4.484138,-0.06572895,0.7778025,1.295256,0.3403885,-0.0938746,0.1474527,0.01485384,-0.9324957,0.01226745,-0.01809272,0.8526486,1.35951,0.1736181,0.4226579,1.144243,0.3730405,271.8633,141.4118,120.9832,True
0,1.288891,-0.04526344,0.2874182,0.05305251,-1.470044,1.410857,-2.687321,0.7133243,1.125291,0.426111,-1.579387,0.007170607,0.3,5.6,-0.1570372,0.08192551,-0.08113843,-0.6632906,-4.482482,-0.06458032,0.7771385,1.295175,0.3403645,-0.09809756,0.152781,0.02233764,-0.9319897,0.0146358,-0.01825437,0.8522944,1.359551,0.1738026,0.422054,1.144416,0.3734309,271.8556,138.413,124.0991,True
0,1.300002,-0.04102791,0.3109286,0.06784609,-1.472962,1.407585,-2.686658,0.7127854,1.125027,0.4260168,-1.579878,-0.04499011,0.3,5.6,-0.1664746,0.1138898,-0.07143416,-0.6639159,-4.4788,-0.06533613,0.7764406,1.295011,0.3402722,-0.09170091,0.1591827,0.02442368,-0.931659,0.01710162,-0.01890658,0.8520424,1.359534,0.1739554,0.421445,1.144587,0.373775,271.8241,136.0178,126.5657,True
0,1.311113,-0.03995859,0.3130805,0.07316536,-1.475412,1.404889,-2.686051,0.7121333,1.124894,0.426023,-1.579788,0.008489723,0.3,5.6,-0.1482083,0.1362186,-0.05881779,-0.6642461,-4.47529,-0.06697051,0.7758237,1.294978,0.340307,-0.08740643,0.1559989,0.02866897,-0.9311221,0.01922163,-0.01935053,0.8517455,1.359575,0.1741431,0.4208109,1.144773,0.3741554,271.7877,133.2003,129.4182,True
0,1.322224,-0.03674175,0.2896684,0.07754312,-1.47746,1.403051,-2.685573,0.711513,1.12472,0.4259088,-1.579586,0.01829488,0.3,5.6,-0.1193164,0.1414872,-0.04737731,-0.6645902,-4.472713,-0.06867334,0.7751504,1.294903,0.3402288,-0.09275217,0.1527889,0.02550904,-0.9309623,0.02115522,-0.01921284,0.851478,1.359628,0.1743565,0.4201317,1.144975,0.3746663,271.7595,129.5265,133.129,True
0,1.333336,-0.03352838,0.2747804,0.08187757,-1.479503,1.4012,-2.685177,0.7109618,1.124571,0.4258039,-1.579481,0.009328274,0.3,5.6,-0.1086967,0.1329469,-0.04963612,-0.6652699,-4.4709,-0.0691812,0.7744052,1.294889,0.3402998,-0.09814362,0.1517105,0.01489416,-0.9311658,0.02328428,-0.01920299,0.851059,1.359572,0.1745524,0.4194017,1.145191,0.3753641,271.7275,124.7628,137.9834,True
0,1.344447,-0.02498489,0.2524128,0.08198966,-1.48121,1.399844,-2.685081,0.7103407,1.124569,0.425772,-1.579452,0.002654695,0.3,5.6,-0.1140191,0.116968,-0.04746794,-0.6658882,-4.469828,-0.06861768,0.7736564,1.294947,0.3403497,-0.1013703,0.1581003,0.01277563,-0.9311375,0.02580483,-0.01935692,0.8507529,1.359589,0.1747353,0.4186282,1.145417,0.3762174,271.6953,119.7784,143.1547,True
0,1.355558,-0.01323947,0.2279268,0.08317486,-1.482803,1.398628,-2.685241,0.7097905,1.1246,0.425658,-1.579471,-0.001838305,0.3,5.6,-0.1257183,0.114854,-0.04521925,-0.6664023,-4.467924,-0.06835376,0.7729456,1.294922,0.3403935,-0.1013526,0.1644958,0.0170311,-0.930852,0.0283656,-0.01976252,0.8504531,1.359621,0.1749368,0.4179168,1.145609,0.3770971,271.6711,114.5167,148.6824,True
0,1.366669,-0.0004244093,0.197054,0.08332603,-1.484128,1.397823,-2.685599,0.7090985,1.124562,0.4255927,-1.57966,-0.01736037,9.3,32.2,-0.1405736,0.1223166,-0.04080652,-0.6668827,-4.46568,-0.06815802,0.7723219,1.294893,0.3402913,-0.09918235,0.1634401,0.02341537,-0.9303503,0.03054153,-0.02005387,0.8500742,1.359649,0.1751645,0.4172818,1.145766,0.3779052,271.64,109.5668,153.8858,True
0,1.37778,0.00706914,0.1565479,0.07713559,-1.484899,1.39767,-2.68586,0.7084452,1.124431,0.4254177,-1.579843,-0.01654934,9.3,32.2,-0.1468809,0.1276479,-0.03328128,-0.6670872,-4.463151,-0.06831248,0.7716227,1.294879,0.3403127,-0.09383741,0.1549253,0.02338978,-0.9301484,0.03233317,-0.020358,0.8497294,1.359726,0.1753845,0.4166762,1.145913,0.3785735,271.6007,105.3088,158.3486,True
0,1.388891,0.01029211,0.1277735,0.07301424,-1.485735,1.397389,-2.68603,0.7077001,1.124373,0.4253702,-1.579919,-0.006974533,9.3,32.2,-0.1456659,0.1350878,-0.02051872,-0.6672364,-4.460485,-0.06897826,0.7708598,1.29494,0.3402927,-0.09492819,0.1517272,0.01913445,-0.9301665,0.03437688,-0.02046,0.8493441,1.359844,0.1755626,0.4160911,1.14605,0.379053,271.5876,101.6072,162.2047,True
0,1.400002,0.01460534,0.07231842,0.06050791,-1.485518,1.39845,-2.686427,0.7069825,1.124373,0.4254222,-1.579669,0.02290738,9.3,32.2,-0.1369476,0.1318729,-0.001444877,-0.6668918,-4.458124,-0.06970558,0.7701243,1.295046,0.3405454,-0.09173666,0.1464,0.0169892,-0.9300659,0.03613377,-0.02060754,0.8489944,1.3599,0.1757612,0.4154734,1.146145,0.3793157,271.6335,98.51146,165.4087,True
0,1.411114,0.009327105,0.02433052,0.05222406,-1.485242,1.399771,-2.686517,0.7062315,1.124357,0.4253585,-1.579473,0.01758583,9.2,34.3,-0.1347491,0.121209,0.007049096,-0.6665946,-4.456584,-0.06947921,0.7694656,1.295005,0.3406241,-0.08747504,0.1400089,0.01483749,-0.9300067,0.03773739,-0.02081793,0.8486917,1.359905,0.1759615,0.4148262,1.146147,0.3793235,271.689,96.64864,167.3177,True
0,1.422225,0.01042412,-0.00876588,0.03748133,-1.484805,1.40076,-2.686768,0.7055944,1.124305,0.4254169,-1.579502,-0.002788559,9.2,34.3,-0.1445242,0.1020479,-0.009914712,-0.6673748,-4.456199,-0.06804989,0.7687838,1.294938,0.3405576,-0.08432919,0.1368066,0.006298479,-0.9302587,0.03942411,-0.02100515,0.8483437,1.359913,0.1761622,0.4140978,1.146066,0.3791161,271.6962,96.1249,167.7903,True
0,1.433336,0.009370374,-0.01627409,0.02792959,-1.484628,1.401111,-2.686924,0.7049339,1.124222,0.4253709,-1.579128,0.03425187,9.2,34.3,-0.1424327,0.0892548,-0.01100895,-0.6675613,-4.455437,-0.06702936,0.7680213,1.294858,0.3406394,-0.08863323,0.1410633,0.0009864232,-0.9306166,0.0416806,-0.02115535,0.8479818,1.359923,0.1763809,0.4133614,1.145886,0.3786962,271.6614,97.08296,166.7308,True
0,1.444447,0.007223538,0.003909619,0.01718053,-1.484868,1.400375,-2.686884,0.7042974,1.124109,0.4253781,-1.579243,-0.01086122,9.2,34.3,-0.1340663,0.07966301,-0.02708093,-0.6684049,-4.454729,-0.06671804,0.7671806,1.294845,0.3405414,-0.08751014,0.1581191,0.01374481,-0.9301042,0.04455269,-0.02193459,0.8475409,1.359961,0.1766133,0.4126309,1.145634,0.3780868,271.5957,98.95538,164.7086,True
0,1.455558,0.005077045,0.01771151,0.007520603,-1.484938,1.399572,-2.686721,0.7036363,1.124063,0.4253731,-1.579195,0.004495118,9.2,34.3,-0.1213963,0.09988496,-0.04104225,-0.6694047,-4.452096,-0.06780647,0.7664483,1.294743,0.340667,-0.08744395,0.170911,0.02758221,-0.9293953,0.04739987,-0.02262781,0.8471345,1.360004,0.1768143,0.4119465,1.145334,0.3773862,271.5333,101.9399,161.5074,True
0,1.466669,0.009345439,0.01026358,0.008618432,-1.484951,1.399737,-2.686974,0.7028887,1.123899,0.4254184,-1.579064,0.01191271,9.2,34.3,-0.1129743,0.1116021,-0.05390945,-0.6706234,-4.449452,-0.06905071,0.76558,1.294771,0.3407362,-0.0873652,0.1687949,0.03930638,-0.9285335,0.04976862,-0.02310372,0.8466705,1.360003,0.1770289,0.411252,1.145036,0.3767404,271.4832,105.0708,158.1375,True
0,1.47778,0.01895181,-0.01099948,0.01617926,-1.484922,1.400689,-2.687568,0.7021923,1.123816,0.4254289,-1.578923,0.0127077,9.2,34.3,-0.1044223,0.1392765,-0.0539746,-0.6713371,-4.445888,-0.07077511,0.7648531,1.294593,0.3409307,-0.08953771,0.1623881,0.03186636,-0.9284914,0.05161965,-0.02309307,0.8462659,1.360005,0.1772182,0.4105096,1.144792,0.37632,271.4388,107.8117,155.1857,True
0,1.488891,0.02535641,-0.02481481,0.02157335,-1.484953,1.401492,-2.688135,0.7015396,1.123775,0.425451,-1.579237,-0.02876302,9.2,34.3,-0.09992743,0.1520365,-0.03270491,-0.6711267,-4.442565,-0.07236262,0.7640432,1.294643,0.3410213,-0.09171421,0.1495899,0.02123613,-0.9286922,0.05311848,-0.02292875,0.8458629,1.360058,0.1774004,0.4097315,1.14463,0.3762031,271.4104,109.4839,153.4179,True
0,1.500003,0.03175356,-0.02906234,0.02373009,-1.485109,1.402105,-2.688796,0.7008803,1.123808,0.4253824,-1.57952,-0.02563882,9.2,34.3,-0.09961319,0.1637381,-0.005004069,-0.6704806,-4.438883,-0.07432909,0.7632344,1.294762,0.340879,-0.09177314,0.1485116,0.01058345,-0.9289617,0.05514301,-0.02318521,0.845431,1.360069,0.1776371,0.4089923,1.144508,0.3763285,271.4106,108.4687,154.4763,True
0,1.511114,0.03919841,-0.01838515,0.02580395,-1.48546,1.40197,-2.689431,0.7002513,1.123734,0.4253559,-1.579479,0.003903675,9.2,34.3,-0.1185801,0.1509641,0.01862068,-0.6695789,-4.436848,-0.0738119,0.7624419,1.294801,0.3409407,-0.1014093,0.152763,0.00424592,-0.9292136,0.05758207,-0.02311038,0.8449347,1.360045,0.1778774,0.4083538,1.144378,0.3765539,271.4008,105.9223,157.1546,True
0,1.522225,0.04557578,-0.003445813,0.02999124,-1.486075,1.401771,-2.690118,0.6996175,1.123663,0.4253769,-1.579519,-0.003793057,9.2,34.3,-0.1334378,0.134991,0.02514924,-0.6692178,-4.435572,-0.07302254,0.7616695,1.294817,0.3409221,-0.1046507,0.1580785,-0.003197196,-0.9295444,0.05998651,-0.02338815,0.84451,1.360111,0.1781781,0.4077816,1.144233,0.3767731,271.368,103.4659,159.7524,True
0,1.533336,0.0445088,0.0008106814,0.02783392,-1.486289,1.401623,-2.690538,0.6988937,1.123559,0.4253764,-1.579131,0.03499233,9.2,34.3,-0.1271944,0.11688,0.01227768,-0.6697595,-4.434557,-0.07283027,0.7608339,1.294863,0.3408575,-0.09935877,0.1570142,-0.009620723,-0.9299018,0.06201636,-0.02376365,0.8440369,1.360131,0.1783898,0.4072114,1.144078,0.3769267,271.342,101.6372,161.6825,True
0,1.544447,0.04664844,-0.00877202,0.02894207,-1.486339,1.402189,-2.691157,0.6981723,1.123499,0.4253631,-1.578262,0.07812332,9.2,34.3,-0.1187549,0.1126106,0.004731473,-0.6700316,-4.432823,-0.07317568,0.7600229,1.294881,0.340939,-0.09507975,0.1484969,-0.00857472,-0.9299748,0.06364209,-0.02385234,0.8435885,1.360123,0.1786046,0.4066031,1.143872,0.3770348,271.3442,100.29,163.0534,True
0,1.555558,0.04666144,-0.0236815,0.03007435,-1.48622,1.402987,-2.691715,0.6973871,1.123402,0.4253848,-1.576639,0.1465041,9.2,34.3,-0.109131,0.1189823,0.007843619,-0.6697664,-4.430357,-0.07414613,0.7592391,1.29485,0.3410938,-0.09715359,0.1378485,-0.002159082,-0.9297644,0.06510643,-0.02361771,0.8430703,1.360196,0.1788478,0.4059137,1.143564,0.3771352,271.3509,98.79063,164.5432,True
0,1.566669,0.04667702,-0.04073665,0.02802899,-1.485985,1.404025,-2.692323,0.6966357,1.123355,0.4253983,-1.575022,0.1451461,5.4,41.7,-0.09972297,0.1243022,-0.01036618,-0.6706862,-4.428025,-0.07514615,0.7584672,1.294696,0.3413732,-0.09928181,0.146361,0.00103846,-0.9297218,0.06734322,-0.02369761,0.8426281,1.36017,0.1790543,0.4051104,1.143104,0.3772313,271.3247,97.70454,165.6409,True
0,1.577781,0.05629579,-0.07482651,0.02713759,-1.485405,1.405973,-2.693444,0.6958306,1.123447,0.4254949,-1.572916,0.1897396,5.4,41.7,-0.104315,0.122201,-0.04334456,-0.6724093,-4.426211,-0.0753347,0.7576342,1.294672,0.3412435,-0.1046137,0.1570046,0.00106244,-0.9297612,0.06989852,-0.0240345,0.8421466,1.360194,0.1793265,0.4042372,1.142451,0.3772748,271.2386,96.71262,166.6625,True
0,1.588892,0.05843921,-0.08763722,0.02187412,-1.484855,1.407247,-2.694273,0.6950719,1.123478,0.425494,-1.570619,0.2066594,5.4,41.7,-0.1161227,0.1126317,-0.04961941,-0.6731427,-4.4249,-0.07453202,0.7569262,1.29463,0.3413265,-0.1003608,0.1538092,-0.001092806,-0.9299088,0.07180894,-0.02421426,0.8417267,1.360146,0.1795328,0.4033023,1.141589,0.3772288,271.087,96.03596,167.3507,True
0,1.600003,0.05844944,-0.09618542,0.01658753,-1.484254,1.408449,-2.695065,0.6942893,1.123465,0.4253449,-1.568489,0.1911054,5.4,41.7,-0.1255853,0.1019841,-0.03674452,-0.6731331,-4.423666,-0.07394426,0.7560543,1.294696,0.3411758,-0.09611825,0.1506146,-0.006446074,-0.9302406,0.07376344,-0.02457325,0.8412616,1.360145,0.1796947,0.4023396,1.14054,0.3770669,270.8499,95.90831,167.457,True
0,1.611114,0.05950574,-0.08769206,0.01015095,-1.48386,1.408948,-2.695785,0.6935634,1.123397,0.4253118,-1.565508,0.268933,5.4,41.7,-0.128622,0.106243,-0.02179481,-0.6729851,-4.421434,-0.0741685,0.755185,1.294655,0.3411901,-0.09082706,0.1495557,-0.01180026,-0.930533,0.07590089,-0.02495622,0.8408106,1.360196,0.1798904,0.4013621,1.139345,0.376765,270.5595,98.00519,165.2959,True
0,1.622225,0.05309436,-0.06216903,0.002568758,-1.483758,1.408766,-2.696191,0.692826,1.123348,0.4252665,-1.56248,0.2723464,4.8,40,-0.1209157,0.1147342,0.0004999053,-0.6724492,-4.418967,-0.07509235,0.7543526,1.294531,0.3412161,-0.0919286,0.1548756,-0.01606242,-0.9309404,0.07826391,-0.02524863,0.8403076,1.360283,0.1800971,0.4003683,1.138045,0.3763517,270.2625,108.4287,154.7844,True
0,1.633336,0.05094965,-0.04297495,0.00674334,-1.484128,1.408871,-2.696787,0.6920313,1.123278,0.4253542,-1.559234,0.2921781,4.8,40,-0.1133863,0.1221719,0.006821421,-0.6722974,-4.416422,-0.07601381,0.7535489,1.294506,0.341222,-0.09836475,0.1633847,-0.02135664,-0.9314283,0.08088446,-0.02548565,0.8398237,1.360281,0.1803403,0.3993545,1.136678,0.3758679,270.1119,263.0058,0,True
0,1.644447,0.04774754,-0.03657017,0.009906792,-1.484233,1.409145,-2.69724,0.6913143,1.123221,0.4253783,-1.555511,0.3354219,4.8,40,-0.1068587,0.1498573,0.01636172,-0.6720524,-4.412081,-0.0783755,0.75275,1.294316,0.3414044,-0.1037016,0.1708308,-0.02238656,-0.9316206,0.08351607,-0.02583692,0.8392605,1.360307,0.1806831,0.3983183,1.135273,0.3754222,270.3621,249.483,13.4504,True
0,1.655559,0.04774711,-0.03337684,0.00988626,-1.48412,1.40946,-2.697843,0.69054,1.123194,0.4254463,-1.551977,0.3176529,4.8,40,-0.1014055,0.1679394,0.02377676,-0.6717153,-4.408483,-0.08051002,0.751861,1.294493,0.3412826,-0.1047942,0.1750848,-0.02557963,-0.9320771,0.08603927,-0.0261328,0.838787,1.360305,0.1809058,0.3972262,1.13388,0.3751411,270.6555,258.3659,4.399769,True
0,1.66667,0.04562161,-0.03974916,0.01417907,-1.484117,1.41018,-2.69833,0.6897911,1.123189,0.4255052,-1.547984,0.3597001,5.1,39.1,-0.09824306,0.1604788,0.02160894,-0.6716721,-4.406059,-0.08145012,0.7510418,1.294507,0.3413806,-0.09945701,0.169764,-0.02560168,-0.9323072,0.08809244,-0.02651763,0.8384085,1.360343,0.1811409,0.3961162,1.132518,0.3750892,270.9371,264.402,358.2649,True
0,1.677781,0.0541867,-0.0760036,0.0122546,-1.483511,1.412637,-2.699625,0.6891188,1.123223,0.4254937,-1.544099,0.3493582,5.1,39.1,-0.1026166,0.1391891,0.01419451,-0.6717153,-4.404798,-0.08110178,0.7503858,1.294482,0.3416088,-0.09625633,0.1601786,-0.02667741,-0.9326731,0.08986331,-0.02658501,0.8379095,1.360381,0.1813929,0.395054,1.131175,0.375241,271.2118,268.2151,354.4627,True
0,1.688892,0.05633573,-0.09626391,0.007025974,-1.482669,1.414065,-2.700416,0.6883672,1.123283,0.4255257,-1.539809,0.3863904,5.1,39.1,-0.1153889,0.1146994,0.01963483,-0.6713248,-4.404122,-0.07984583,0.7496148,1.294523,0.3417432,-0.09305207,0.1505967,-0.02774868,-0.9329884,0.09156041,-0.02671523,0.8374004,1.360372,0.1816256,0.3940325,1.129849,0.375544,271.4742,270.7387,352.0198,True
0,1.700003,0.06275312,-0.104873,0.001787631,-1.482292,1.416465,-2.701808,0.6877384,1.12319,0.425293,-1.536161,0.3273472,5.1,39.1,-0.1206903,0.09126781,0.02607375,-0.6707384,-4.403638,-0.0786735,0.7489144,1.294527,0.3418694,-0.08881005,0.1463354,-0.03096776,-0.9334822,0.09334286,-0.02685984,0.8369447,1.360343,0.1817958,0.3931027,1.128519,0.3758879,271.7404,273.5858,349.322,True
0,1.711114,0.06061051,-0.09636997,-0.002515774,-1.481852,1.417016,-2.702369,0.6871028,1.123188,0.4252853,-1.531404,0.4291456,5.1,39.1,-0.1238085,0.08700342,0.03569527,-0.6700034,-4.402185,-0.078151,0.7481084,1.294642,0.3419406,-0.0941563,0.1463313,-0.03412871,-0.9340041,0.09543624,-0.02688142,0.8365017,1.36037,0.1820495,0.3923095,1.127131,0.3760812,271.9926,275.2369,347.8366,True
0,1.722225,0.05630809,-0.05376035,-0.003791695,-1.482163,1.416074,-2.702747,0.6864691,1.123139,0.4255428,-1.527355,0.3633907,5,36.9,-0.1078971,0.1019062,0.02703813,-0.6699672,-4.39931,-0.0797148,0.7473854,1.294529,0.3420105,-0.09418677,0.1516542,-0.03732592,-0.9345373,0.09776344,-0.02715705,0.8360281,1.360397,0.1823745,0.3915286,1.125679,0.376057,272.2489,275.7157,347.4568,True
0,1.733337,0.05096626,-0.03987123,0.004667357,-1.482542,1.416229,-2.703167,0.685838,1.123199,0.4257317,-1.522036,0.4800336,5,36.9,-0.0940179,0.1210661,0.0269163,-0.6697381,-4.396038,-0.08167142,0.7466477,1.294503,0.3420498,-0.08884884,0.1548589,-0.03417128,-0.9349293,0.09999251,-0.02761831,0.8356264,1.360462,0.1826172,0.39079,1.124111,0.3757479,272.505,276.0593,347.1186,True
0,1.744448,0.05203747,-0.04729083,0.01216147,-1.482536,1.417107,-2.703865,0.6851461,1.123162,0.4258666,-1.517045,0.4487853,5,36.9,-0.08240204,0.1274476,0.01614882,-0.6700178,-4.393405,-0.08311992,0.7459076,1.294479,0.3422198,-0.08775809,0.154863,-0.02991657,-0.9351594,0.1021431,-0.02791739,0.8352152,1.360424,0.1828573,0.3899178,1.122467,0.3753172,272.8195,274.7173,348.2447,True
0,1.755559,0.05312063,-0.06644153,0.0165148,-1.482165,1.418484,-2.704637,0.6844224,1.123218,0.4260862,-1.511991,0.4549615,5,36.9,-0.07621591,0.1082721,-0.0009555172,-0.6704002,-4.392637,-0.08300407,0.7452227,1.294541,0.3423254,-0.08133075,0.1388917,-0.02780924,-0.9353735,0.1033212,-0.02795307,0.8347903,1.360299,0.1831071,0.3888909,1.120805,0.3750428,273.1894,273.718,348.9277,True
0,1.76667,0.05739684,-0.08242208,0.01552922,-1.481668,1.419889,-2.705547,0.6837668,1.12326,0.4261713,-1.507069,0.4426227,5,36.9,-0.07844601,0.08590844,-0.007339737,-0.670716,-4.392371,-0.08225919,0.7445562,1.294568,0.3424835,-0.07285153,0.1314451,-0.03637424,-0.9360798,0.1049365,-0.02836027,0.8343135,1.360343,0.1834025,0.3878287,1.11915,0.3750128,273.5772,273.9025,348.5774,True
0,1.777781,0.05953945,-0.09418708,0.004925536,-1.480658,1.420931,-2.706341,0.6831286,1.123278,0.4260132,-1.501858,0.4691285,5,36.9,-0.0891689,0.04543722,-0.01046661,-0.6709797,-4.394098,-0.07985143,0.7437943,1.294871,0.3422849,-0.07075673,0.1229173,-0.04490484,-0.9369315,0.1062316,-0.02849982,0.833913,1.360366,0.1836393,0.386815,1.117479,0.3751637,273.9286,274.3789,348.1072,True
0,1.788892,0.06166352,-0.08357847,-0.00471526,-1.480096,1.421223,-2.707162,0.6825082,1.123321,0.4260256,-1.496613,0.4718474,5,36.9,-0.1019897,0.02841324,-0.01141417,-0.6711081,-4.394482,-0.07797869,0.7431337,1.294839,0.3423984,-0.07289362,0.1229126,-0.0459518,-0.9374199,0.107903,-0.02861753,0.8334167,1.360355,0.1839054,0.3858802,1.115775,0.3753963,274.2728,274.7799,347.7917,True
0,1.800003,0.05952396,-0.06654434,-0.003722363,-1.480137,1.421642,-2.707889,0.6819187,1.123256,0.4260995,-1.49106,0.4999721,5,36.9,-0.09972087,0.037994,0.001366884,-0.6705504,-4.393055,-0.07799041,0.7425029,1.294784,0.3426208,-0.07287276,0.1261108,-0.0406258,-0.9377043,0.1097233,-0.02879516,0.832986,1.360377,0.1840513,0.3850483,1.114016,0.3756068,274.6088,275.0891,347.6151,True
0,1.811115,0.05739272,-0.06546632,-0.001599293,-1.479896,1.422232,-2.708502,0.681288,1.123279,0.4261961,-1.485586,0.4924735,5,36.9,-0.0942917,0.06887051,0.007728733,-0.6703113,-4.390127,-0.07930521,0.7418865,1.294833,0.3427117,-0.06532629,0.1133421,-0.02894966,-0.9377357,0.1106699,-0.02885881,0.8326139,1.360395,0.1842802,0.3842606,1.112195,0.3757271,274.9536,274.9738,347.8335,True
0,1.822226,0.04248812,-0.0664558,0.009043404,-1.479978,1.422528,-2.70862,0.6807228,1.123245,0.4265141,-1.479868,0.5148423,4.1,37.7,-0.08129182,0.09760824,0.02251331,-0.6699885,-4.386732,-0.08181684,0.7411999,1.295006,0.3427827,-0.06100429,0.103766,-0.02151118,-0.9377768,0.111689,-0.02894803,0.8321662,1.360422,0.1844146,0.3834586,1.110332,0.3758008,275.3195,274.8484,347.9489,True
0,1.833337,0.03715992,-0.0717636,0.01332948,-1.47981,1.423513,-2.708872,0.6801414,1.123242,0.4266248,-1.474058,0.5230862,4.1,37.7,-0.07591145,0.1082463,0.02458882,-0.669883,-4.384302,-0.08323283,0.7406085,1.295038,0.3428504,-0.04819042,0.0942049,-0.01944662,-0.9379094,0.1127119,-0.02946601,0.8317014,1.360416,0.1846735,0.3826353,1.108436,0.375874,275.6989,275.0622,347.6854,True
0,1.844448,0.02970668,-0.07708877,0.01655897,-1.479697,1.42474,-2.709085,0.6796362,1.123294,0.4266803,-1.468009,0.5448775,4.1,37.7,-0.06549208,0.07308439,0.007414538,-0.6703384,-4.384996,-0.08223628,0.7401514,1.294987,0.3429863,-0.04072944,0.09528039,-0.01842819,-0.9381246,0.1140963,-0.03005377,0.8312656,1.360426,0.1848741,0.3817791,1.106535,0.3759718,276.1004,275.0717,347.6112,True
0,1.855559,0.02545613,-0.07390333,0.01441741,-1.479553,1.425398,-2.709493,0.6791674,1.123217,0.426754,-1.462576,0.4885617,4.1,37.7,-0.05491573,0.04644669,0.005171716,-0.670119,-4.385256,-0.08158887,0.7396983,1.294885,0.34322,-0.04498825,0.09208194,-0.01840178,-0.9383898,0.1153254,-0.03010224,0.8308718,1.360388,0.1850448,0.380929,1.10467,0.3761397,276.5135,275.1335,347.4942,True
0,1.86667,0.02437802,-0.0643253,0.012237,-1.479425,1.425728,-2.709721,0.6787342,1.123247,0.4268081,-1.457158,0.487763,4.1,37.7,-0.05189781,0.02833615,-0.008718071,-0.6705722,-4.385773,-0.08055557,0.7392424,1.294883,0.343348,-0.04181572,0.0782266,-0.02480174,-0.9389097,0.1157335,-0.02989931,0.83053,1.360394,0.1852624,0.3801488,1.102879,0.3763206,276.9188,275.3639,347.3025,True
0,1.877781,0.02331859,-0.05791751,0.01112761,-1.479273,1.425798,-2.710117,0.6782309,1.123255,0.4269171,-1.452081,0.4565714,4.1,40.5,-0.04972541,0.0283268,-0.006606771,-0.6705903,-4.385303,-0.08071748,0.7387332,1.29492,0.343334,-0.03540185,0.0697155,-0.02270365,-0.9391105,0.1164145,-0.03005537,0.8301419,1.360381,0.1854534,0.3794821,1.101184,0.37644,277.2893,275.5554,347.1749,True
0,1.888893,0.0222414,-0.04619715,0.01106706,-1.479327,1.425864,-2.710337,0.6777545,1.123211,0.4269707,-1.446678,0.4866508,4.1,40.5,-0.04646417,0.03683978,-0.001306143,-0.6704354,-4.38412,-0.08119898,0.7382315,1.294849,0.3434715,-0.03323039,0.06972497,-0.01631453,-0.9389672,0.1174261,-0.03036936,0.8296794,1.360385,0.1856482,0.3789036,1.099572,0.3764962,277.5987,275.6064,347.1376,True
0,1.900004,0.02117685,-0.03338067,0.01419518,-1.479646,1.425661,-2.710691,0.6773465,1.123082,0.4270253,-1.441606,0.4560322,4.1,40.5,-0.03801619,0.04430007,-0.008837769,-0.6707677,-4.382683,-0.08206104,0.7378001,1.294753,0.343703,-0.02678815,0.06654581,-0.00889288,-0.9388016,0.1182766,-0.03078188,0.8293157,1.360424,0.1858325,0.3783391,1.098047,0.3765342,277.8914,275.5579,347.1492,True
0,1.911115,0.01583302,-0.02056301,0.02052348,-1.480184,1.425585,-2.710617,0.6769767,1.123042,0.4270611,-1.436236,0.4837329,4.1,40.5,-0.03281905,0.03471052,-0.01954906,-0.6713344,-4.382711,-0.0817689,0.7372994,1.29472,0.3438609,-0.02889212,0.06334414,-0.005675625,-0.9387147,0.1189261,-0.03079573,0.8288445,1.360459,0.185993,0.3777301,1.096589,0.3766136,278.1526,275.5111,347.1447,True
0,1.922226,0.01156185,-0.003484281,0.02576634,-1.480892,1.425184,-2.710656,0.6766596,1.122899,0.4270041,-1.431066,0.4649944,4.4,39.3,-0.02861945,0.02938388,-0.02491778,-0.671719,-4.382421,-0.08182269,0.7368127,1.294761,0.343852,-0.02357953,0.05908963,-0.008898877,-0.9389459,0.1196221,-0.03112569,0.8284814,1.360494,0.1861744,0.3771083,1.095151,0.3767577,278.39,275.647,346.9879,True
0,1.933337,0.01261219,0.01251179,0.02888306,-1.481562,1.424725,-2.710798,0.6763223,1.122837,0.4270446,-1.425248,0.5242739,4.4,39.3,-0.03184944,0.0283257,-0.02808155,-0.6721675,-4.382039,-0.08164639,0.7363682,1.294746,0.3439758,-0.02146265,0.05589156,-0.01210032,-0.9391499,0.1202444,-0.031347,0.8281752,1.360518,0.1863103,0.3765596,1.093769,0.3769454,278.6018,276.615,345.9953,True
0,1.944448,0.02005288,0.03919737,0.03407184,-1.48259,1.423517,-2.711281,0.6760648,1.122892,0.4272482,-1.419879,0.4827236,4.4,39.3,-0.02748377,0.04427595,-0.01956688,-0.6718085,-4.380689,-0.08244321,0.73615,1.294564,0.3439932,-0.02148534,0.05269306,-0.01636277,-0.9395201,0.1208383,-0.03145673,0.8279806,1.360466,0.1864355,0.3764145,1.093195,0.3771965,278.6731,278.7104,343.823,True
0,1.955559,0.02324573,0.03921797,0.03406192,-1.483038,1.423022,-2.711534,0.6756961,1.122973,0.4273899,-1.414471,0.4866519,4.4,39.3,-0.01997972,0.04532569,-0.01645263,-0.6720231,-4.379925,-0.08324482,0.7357246,1.294766,0.3440728,-0.01823914,0.03991407,-0.01211633,-0.9395957,0.1208421,-0.03144927,0.8276757,1.360478,0.186476,0.3761261,1.092887,0.3774073,278.3639,281.0547,341.5259,True
0,1.966671,0.02750784,0.02963936,0.03517432,-1.4834,1.423226,-2.711906,0.6754313,1.122956,0.4274845,-1.409271,0.4675042,4.4,39.3,-0.01243222,0.03038609,-0.004817009,-0.6716343,-4.380245,-0.08305015,0.7354912,1.294812,0.3441575,-0.0118584,0.0186113,-0.018526,-0.9399595,0.120289,-0.031196,0.8273649,1.360455,0.1865637,0.3758642,1.09265,0.3776046,278.2004,282.5853,339.9297,True
0,1.977782,0.02752109,0.01900436,0.03414404,-1.483525,1.423103,-2.71223,0.6751047,1.123011,0.4275668,-1.403326,0.5357292,4.2,38.8,-0.004928956,0.01332268,0.00041817,-0.6715028,-4.380969,-0.08290314,0.73519,1.29495,0.3442128,-0.01078101,0.01008446,-0.01852992,-0.9402056,0.1200111,-0.03093688,0.8270843,1.360417,0.1866536,0.3755667,1.09241,0.3778638,278.0757,284.3308,338.0668,True
0,1.988893,0.02752495,0.004045568,0.02569693,-1.483297,1.423602,-2.712439,0.6748946,1.123054,0.4276187,-1.397608,0.5143991,4.2,38.8,-0.0006658821,-0.003733268,0.003560908,-0.6712918,-4.381951,-0.08222004,0.734938,1.294963,0.3442976,-0.008585175,0.001572983,-0.01000574,-0.9399227,0.1197536,-0.03077123,0.8266693,1.360484,0.1867418,0.3752593,1.092145,0.3781474,277.9691,286.6406,335.6723,True
0,2.000004,0.02540207,0.000794383,0.01185109,-1.482875,1.423262,-2.71265,0.6747206,1.122979,0.4276369,-1.391819,0.521054,4.2,38.8,0.006764976,-0.01759054,0.002405316,-0.6713531,-4.382957,-0.0818456,0.7346576,1.29507,0.3444116,-0.005297224,0.001592423,0.003822494,-0.9394125,0.1198466,-0.03097496,0.8263663,1.360585,0.1868987,0.3750657,1.09184,0.3783708,277.9291,288.9117,333.3147,True
0,2.011115,0.02433905,0.01033721,7.646112E-05,-1.482685,1.422476,-2.712952,0.6745564,1.122946,0.4276211,-1.385849,0.5375704,4.2,38.8,0.008828441,-0.02292046,-0.002942355,-0.6714798,-4.383713,-0.08135638,0.7343311,1.295022,0.3445053,-0.007379434,0.0005317349,0.01129165,-0.939086,0.1198462,-0.03083035,0.8260062,1.360598,0.1869953,0.3749102,1.091526,0.3785075,277.8414,291.1451,331.0121,True
0,2.022226,0.02431711,0.03055626,-0.003219485,-1.482985,1.421569,-2.713083,0.6744423,1.122932,0.4276927,-1.380087,0.5182893,4.4,39,0.01304851,-0.01227799,-0.009376895,-0.671907,-4.383538,-0.08187569,0.7340199,1.295042,0.3445837,-0.01166414,0.0015919,0.008125713,-0.9390652,0.1199476,-0.03057043,0.8256953,1.36076,0.1871116,0.3748449,1.091216,0.3785493,277.7538,292.9384,329.1182,True
0,2.033337,0.0296329,0.04228972,-0.001146568,-1.483405,1.4208,-2.71352,0.6742885,1.122958,0.4277875,-1.37438,0.5135068,4.4,39,0.01730892,0.01541368,-0.01259459,-0.6722069,-4.381706,-0.08350581,0.7337219,1.295089,0.3446534,-0.01913262,0.01436693,0.009225934,-0.9389699,0.1207212,-0.03052861,0.8254671,1.360775,0.1872239,0.374798,1.090891,0.3785559,277.6161,294.8219,327.1057,True
0,2.044448,0.03601316,0.04655634,-0.0001051724,-1.483608,1.420319,-2.714001,0.674181,1.12302,0.4278433,-1.368362,0.5419303,4.4,39,0.01430969,0.03243818,0.00448941,-0.6716343,-4.38045,-0.08446721,0.7335161,1.295096,0.3447273,-0.02128844,0.02288778,0.008171385,-0.9388437,0.1214565,-0.03055232,0.8252704,1.360702,0.1872358,0.3748928,1.090572,0.3787062,277.5371,297.0728,324.8104,True
0,2.055559,0.0424266,0.03590515,-0.00218126,-1.483557,1.420192,-2.714844,0.6741087,1.123034,0.4280009,-1.362743,0.5052406,4.4,39,0.00808895,0.03884053,0.02054241,-0.6708583,-4.379042,-0.0854169,0.7332916,1.295183,0.3447895,-0.02994083,0.02818251,-0.01095224,-0.9395638,0.1218838,-0.03014379,0.8252465,1.360626,0.18731,0.3749946,1.090251,0.3789875,277.5731,299.7217,322.0489,True
0,2.06667,0.04137054,0.02307108,-0.01170636,-1.483061,1.42016,-2.715199,0.6740396,1.123119,0.4281166,-1.35687,0.5287221,4.4,39,-0.002443146,0.0420304,0.03129588,-0.6703762,-4.37852,-0.08555298,0.7331353,1.295276,0.3447711,-0.03212469,0.03243455,-0.01839661,-0.9399787,0.1224983,-0.03006576,0.8251055,1.360625,0.1874142,0.3751532,1.090368,0.3791752,277.44,301.0353,320.5524,True
0,2.077781,0.04565448,0.01449801,-0.02231535,-1.482484,1.420035,-2.716033,0.674007,1.123076,0.428158,-1.351243,0.5059781,4.4,37.4,-0.004504606,0.04415918,0.03663947,-0.6699576,-4.377548,-0.08638176,0.7329692,1.29534,0.3448005,-0.03107052,0.03136791,-0.01946638,-0.9402099,0.1228471,-0.02987135,0.8250087,1.36067,0.1874254,0.3752804,1.090258,0.3792717,277.3078,301.924,319.5469,True
0,2.088892,0.04351426,0.01446304,-0.02870785,-1.482087,1.419657,-2.716266,0.6740273,1.123085,0.4282577,-1.34481,0.5799122,4.4,37.4,-0.009826653,0.03989999,0.03882367,-0.6694516,-4.377147,-0.08624381,0.732787,1.295325,0.3448544,-0.03000653,0.02603926,-0.02052867,-0.9404016,0.1229121,-0.02959651,0.8247867,1.360659,0.1875157,0.3754419,1.090102,0.3794737,277.2502,304.5674,316.8275,True
0,2.100003,0.03926159,0.01333207,-0.03721513,-1.481523,1.419589,-2.716645,0.6740428,1.123032,0.4282577,-1.339263,0.4981643,4.4,37.4,-0.009790191,0.03670466,0.04201782,-0.6688891,-4.376554,-0.08672637,0.732667,1.295309,0.3447804,-0.02575844,0.02923873,-0.02162356,-0.9406892,0.1234362,-0.02976162,0.824734,1.36059,0.1875956,0.3755912,1.089906,0.3795279,277.0388,304.9348,316.3058,True
0,2.111114,0.04138278,0.01757366,-0.04149876,-1.481112,1.419045,-2.717045,0.6740581,1.123037,0.4283583,-1.332764,0.5861117,4.4,37.4,-0.003609838,0.0271172,0.02277327,-0.6692598,-4.376639,-0.08682944,0.7325736,1.295243,0.3449025,-0.02789536,0.02923537,-0.02267201,-0.9409369,0.123853,-0.02962554,0.8246191,1.360585,0.1876795,0.375758,1.089698,0.3795994,276.8493,306.1312,315.0038,True
0,2.122225,0.03926274,0.01864798,-0.04043645,-1.480915,1.418583,-2.717544,0.674081,1.123034,0.4286196,-1.326857,0.531085,4.7,34.7,0.001546206,0.0217883,0.005668111,-0.6698399,-4.376751,-0.08713384,0.7324684,1.29528,0.3448839,-0.03000644,0.02390919,-0.02052374,-0.9411025,0.123976,-0.02928465,0.8245438,1.360588,0.1878109,0.375926,1.089501,0.3797155,276.7026,307.8454,313.1809,True
0,2.133336,0.04351831,0.02292884,-0.03726229,-1.480788,1.418074,-2.718107,0.6741014,1.123053,0.4287758,-1.320977,0.5290958,4.7,34.7,0.000292633,0.002622325,-0.009247519,-0.6703815,-4.377927,-0.08607603,0.7323948,1.29521,0.3450153,-0.02470816,0.01965126,-0.02587847,-0.9415574,0.1240861,-0.02926414,0.8245413,1.360615,0.1878467,0.3761147,1.089348,0.3799298,276.626,310.5288,310.3767,True
0,2.144447,0.0520395,0.02505178,-0.03940074,-1.480457,1.417618,-2.718919,0.6741257,1.123204,0.4289289,-1.315109,0.5280882,4.7,34.7,0.002413363,-0.008036725,-0.009285349,-0.6705254,-4.378748,-0.08560758,0.7324022,1.29516,0.3450494,-0.01617586,0.01220568,-0.02592508,-0.9418455,0.1239298,-0.02928572,0.8244914,1.360585,0.1878841,0.3762775,1.089155,0.3801679,276.6246,313.5482,307.2554,True
0,2.155558,0.0531058,0.03146317,-0.03624009,-1.480383,1.416913,-2.719581,0.6742122,1.123202,0.4290283,-1.309205,0.5313561,4.7,34.7,0.002440766,-0.02188872,-0.00396952,-0.6703293,-4.379893,-0.08463899,0.7324848,1.295192,0.3450966,-0.009801803,0.0005011447,-0.03127699,-0.9423041,0.123593,-0.02917333,0.8243257,1.360554,0.1878984,0.376422,1.089069,0.3802484,276.3714,315.2538,305.2871,True
0,2.166669,0.05308671,0.04532232,-0.03417917,-1.480498,1.415915,-2.719985,0.6744344,1.123208,0.429157,-1.303451,0.5174819,4.7,34.7,0.01326764,-0.02299043,0.01295706,-0.6696662,-4.380377,-0.08480863,0.7325419,1.295238,0.3451278,-0.003374442,-0.01120575,-0.0281109,-0.9424799,0.1228876,-0.02895309,0.8242725,1.360537,0.1879084,0.3764787,1.088795,0.3804053,276.4389,317.347,303.1736,True
0,2.17778,0.04882598,0.05382519,-0.03742123,-1.480307,1.414903,-2.720421,0.6746055,1.123169,0.4292765,-1.297332,0.5511409,7.2,19.6,0.0346158,-0.03582032,0.01806258,-0.6691512,-4.381894,-0.08485124,0.7326607,1.295282,0.3453267,0.008386388,-0.02502816,-0.02390165,-0.9424192,0.122024,-0.02894616,0.8241963,1.360505,0.1878858,0.3766027,1.088573,0.3806382,276.5143,320.0401,300.3631,True
0,2.188891,0.05093482,0.06663221,-0.03322311,-1.4806,1.413753,-2.720818,0.6748769,1.123211,0.4293776,-1.291196,0.5524593,7.2,19.6,0.04514109,-0.04541809,0.008363614,-0.6693141,-4.383218,-0.084427,0.7327503,1.295402,0.3454168,0.01277075,-0.04524304,-0.007926198,-0.9418642,0.1207156,-0.02839649,0.8242328,1.36057,0.1878319,0.3767839,1.088408,0.3808403,276.472,322.462,297.7686,True
0,2.200002,0.05093643,0.06666108,-0.02682518,-1.480883,1.41315,-2.721337,0.6751354,1.123313,0.429529,-1.285454,0.5165835,7.2,19.6,0.04291846,-0.04860171,-0.001202048,-0.6695565,-4.38421,-0.0841945,0.7328802,1.295659,0.3456955,0.01922685,-0.06014112,-0.0004959377,-0.9415936,0.1193319,-0.02796932,0.8241959,1.360563,0.1878753,0.3769837,1.088258,0.3810101,276.3727,324.764,295.286,True
0,2.211113,0.0509308,0.06136684,-0.02040806,-1.481076,1.412699,-2.721736,0.6754464,1.123376,0.4296083,-1.279798,0.5090594,7.2,19.6,0.04712545,-0.06351979,-0.003384759,-0.6695693,-4.386085,-0.08323018,0.7330945,1.295744,0.3458271,0.03202416,-0.08249333,-0.00268677,-0.941665,0.1172939,-0.02753442,0.8242522,1.360509,0.187825,0.3771698,1.088096,0.3811879,276.3202,327.2375,292.6524,True
0,2.222224,0.04881043,0.05712411,-0.01613079,-1.481202,1.412173,-2.72229,0.6757953,1.123474,0.4296257,-1.274326,0.4923474,7.2,19.6,0.05352213,-0.07205711,-0.002382914,-0.6693371,-4.38795,-0.08270926,0.7333584,1.29573,0.3458409,0.03836541,-0.1048686,-0.01549361,-0.9422589,0.1148729,-0.0267155,0.8242949,1.36043,0.1876743,0.377353,1.087958,0.381393,276.3403,330.0341,289.7128,True
0,2.233335,0.04772168,0.07204624,-0.01407386,-1.481658,1.410944,-2.722537,0.6761596,1.123499,0.4297173,-1.268736,0.5034229,8,10.7,0.06110909,-0.08166834,0.01245075,-0.6685408,-4.389862,-0.08205972,0.7337116,1.295806,0.3459344,0.0468598,-0.1208408,-0.02298914,-0.9427276,0.1125713,-0.02609232,0.8243957,1.360379,0.1875896,0.3775162,1.087824,0.3815755,276.3813,332.6183,287.0109,True
0,2.244446,0.04024542,0.09441207,-0.01418073,-1.482318,1.409242,-2.7226,0.6765889,1.123436,0.4298406,-1.263484,0.4723028,8,10.7,0.063274,-0.1040421,0.018806,-0.6679773,-4.392683,-0.08066848,0.7340223,1.295787,0.3458612,0.05324915,-0.1272252,-0.02515735,-0.9430647,0.1105943,-0.02576422,0.8244398,1.360321,0.1874902,0.3776536,1.087651,0.3816914,276.4039,334.8661,284.6927,True
0,2.255557,0.03170837,0.1189055,-0.01429838,-1.483086,1.407287,-2.722612,0.6770134,1.123385,0.4300706,-1.258043,0.4901457,8,10.7,0.06538132,-0.1189595,0.01877471,-0.6676188,-4.39567,-0.07912491,0.7343337,1.295803,0.3459423,0.05751511,-0.1229519,-0.02305353,-0.943142,0.1092012,-0.02569844,0.824514,1.360276,0.1874125,0.3778169,1.087498,0.3817917,276.3782,337.1537,282.3187,True
0,2.266668,0.01996399,0.1359609,-0.01012364,-1.48394,1.405417,-2.722137,0.6775041,1.123185,0.4302504,-1.25284,0.4683172,8,10.7,0.08633282,-0.1349471,-0.0134158,-0.6688135,-4.398963,-0.07817417,0.7347354,1.295738,0.3461666,0.06177996,-0.1197457,-0.02094903,-0.9432203,0.1077526,-0.02558046,0.8246876,1.360321,0.1873035,0.3778825,1.087372,0.3819062,276.5347,340.755,278.6331,True
0,2.277779,0.01570381,0.1380727,-0.01226014,-1.484443,1.403963,-2.722116,0.6778997,1.12313,0.4304414,-1.24793,0.4418286,6.5,8.4,0.09787366,-0.1392003,-0.02951844,-0.6695666,-4.401401,-0.0776109,0.7351099,1.295637,0.3464746,0.06504297,-0.1271888,-0.01244096,-0.9430349,0.105726,-0.02530429,0.8247906,1.360356,0.1873112,0.3780456,1.087229,0.382157,276.6585,343.1322,276.0703,True
0,2.28889,0.01357744,0.1306165,-0.01115717,-1.484825,1.40288,-2.72207,0.6783309,1.123106,0.4306142,-1.242838,0.4589382,6.5,8.4,0.1116127,-0.1370849,-0.04031138,-0.6702724,-4.403821,-0.07739412,0.7354407,1.295586,0.3466141,0.0629646,-0.1314584,-0.004963981,-0.9427457,0.1035157,-0.02461373,0.8248898,1.360361,0.1872747,0.378217,1.087093,0.3824627,276.8441,345.5435,273.4475,True
0,2.300001,0.01145778,0.1220456,-0.01963953,-1.484748,1.401726,-2.722065,0.678745,1.123124,0.430706,-1.239223,0.3244458,6.5,8.4,0.110391,-0.1392041,-0.05627806,-0.6712508,-4.406585,-0.07656135,0.7357224,1.29562,0.3463364,0.06183125,-0.09630708,-0.008182584,-0.9429545,0.10366,-0.02536022,0.825038,1.360385,0.1872776,0.3783772,1.086977,0.3827571,277.047,347.7191,271.0761,True
0,2.311112,0.01252237,0.1166776,-0.02706745,-1.484681,1.400551,-2.722054,0.6791954,1.123102,0.4308541,-1.235794,0.3089753,6.5,8.4,0.1017446,-0.1562287,-0.06579006,-0.6721686,-4.410386,-0.07439274,0.7361206,1.295537,0.3464103,0.05748075,-0.08246948,-0.01881938,-0.9435201,0.1031448,-0.02549258,0.8251579,1.36037,0.1872616,0.3785166,1.08689,0.3829876,277.2035,349.4901,269.1466,True
0,2.322223,0.0125283,0.1165945,-0.04198498,-1.484212,1.399057,-2.722109,0.6796669,1.123068,0.4309332,-1.232885,0.2616619,6.5,8.4,0.09536843,-0.1572723,-0.06358404,-0.6725004,-4.413011,-0.0731091,0.7364881,1.295398,0.3466063,0.04891496,-0.08249054,-0.02515849,-0.9440043,0.1018549,-0.02492692,0.825325,1.360342,0.1871443,0.378636,1.086824,0.3831437,277.2965,350.9242,267.5949,True
0,2.333334,0.0114596,0.1175884,-0.05477027,-1.48383,1.397563,-2.721975,0.6801466,1.123087,0.4310682,-1.230352,0.2280631,3.5,5.6,0.09569232,-0.1349301,-0.03480744,-0.671801,-4.414196,-0.07318313,0.7367412,1.295618,0.3465707,0.04676529,-0.08036134,-0.0272743,-0.9443021,0.1009133,-0.02475834,0.8253846,1.36026,0.1871028,0.3787481,1.086768,0.3832535,277.3346,352.1944,266.2227,True
0,2.344445,0.01357551,0.1239349,-0.0643866,-1.483566,1.395699,-2.721909,0.6806936,1.123069,0.4311869,-1.228266,0.1876087,3.5,5.6,0.09915203,-0.1019241,-0.01351185,-0.6711885,-4.414066,-0.07438422,0.7370014,1.295669,0.3465478,0.04783739,-0.07396808,-0.02409054,-0.9444128,0.1001319,-0.02482199,0.8255113,1.360188,0.1870224,0.3788641,1.086708,0.3833604,277.3605,353.4794,264.8302,True
0,2.355556,0.01783445,0.1281836,-0.06654165,-1.483404,1.39402,-2.722105,0.6811321,1.123098,0.4312596,-1.226216,0.184741,3.5,5.6,0.09928039,-0.07529735,-0.004972805,-0.6709387,-4.413839,-0.07564762,0.7372514,1.295675,0.346545,0.04363997,-0.06544884,-0.01234919,-0.9440554,0.09947719,-0.02481613,0.8254876,1.360157,0.1869979,0.3789859,1.086652,0.3834882,277.4051,354.8035,263.3863,True
0,2.366668,0.02208916,0.1313638,-0.07081976,-1.483194,1.392202,-2.722255,0.6815138,1.123184,0.4314156,-1.224696,0.1366163,3.5,5.6,0.08782008,-0.03161483,0.01328363,-0.6703421,-4.412075,-0.07767003,0.7374961,1.295757,0.3465288,0.03413375,-0.06012307,0.002623698,-0.9434285,0.0989122,-0.02445181,0.8255831,1.360151,0.1868525,0.3791,1.086614,0.3836428,277.4799,355.989,262.0692,True
0,2.377779,0.02316475,0.1217648,-0.07289681,-1.482882,1.390993,-2.722444,0.6819726,1.123231,0.4316955,-1.223572,0.1008484,2,4.2,0.0751541,-0.0102883,0.02195756,-0.6697552,-4.411016,-0.07884368,0.7378396,1.295667,0.3467247,0.03308663,-0.06438559,0.004757721,-0.943379,0.09782083,-0.02412052,0.8257819,1.360193,0.1867845,0.3791111,1.086591,0.383801,277.7532,357.4456,260.5066,True
0,2.38889,0.02423153,0.1143269,-0.06966261,-1.482722,1.389776,-2.722567,0.6825341,1.123219,0.4318323,-1.222364,0.1089241,2,4.2,0.05935134,-0.01560841,0.04129808,-0.6685051,-4.411584,-0.07834993,0.7381568,1.295744,0.3467648,0.02985321,-0.07292549,-0.003737465,-0.9436858,0.09629591,-0.02353702,0.8259619,1.360153,0.1867561,0.3791803,1.086569,0.3840029,277.933,358.0891,259.7401,True
0,2.400001,0.03062604,0.1142819,-0.07924609,-1.482161,1.388178,-2.722997,0.6830499,1.12327,0.4319313,-1.221304,0.09544419,2,4.2,0.0571645,-0.03477529,0.03810959,-0.6681866,-4.413183,-0.07779466,0.7384782,1.295861,0.34673,0.02873135,-0.07400181,-0.01331852,-0.9441481,0.0952429,-0.0232201,0.8261476,1.3601,0.1867199,0.3792521,1.086564,0.384198,278.0658,358.647,259.037,True
