loc,t,aDotUA,bDotUA,gDotUA,aUA,bUA,gUA,xUA,yUA,zUA,qE,qDotE,emgA,emgB,aDotSH,bDotSH,gDotSH,aSH,bSH,gSH,xSH,ySH,zSH,aDotUB,bDotUB,gDotUB,aUB,bUB,gUB,xUB,yUB,zUB,xHand,yHand,zHand,aHand,bHand,gHand,enable
3,0,0.03182489,0.1844202,-0.04994933,-1.444227,-4.393339,-2.872329,0.7058614,1.104948,0.4264741,-1.21827,0.01019693,1.8,0.7,0.04036217,0.0668401,-0.06805073,-0.7199627,-4.407524,0.01344923,0.7772079,1.283909,0.3633804,-0.02821963,0.09231482,0.02658363,-0.941739,0.1702612,-0.08042747,0.8747627,1.355595,0.2096548,0.4672818,0.9720719,0.2699886,297.758,248.9258,352.3347,True
3,0.01111111,0.03922347,0.2387929,-0.04279975,-1.445213,-4.397547,-2.872493,0.7059711,1.104805,0.4266343,-1.218776,-0.04626652,1.8,0.7,0.04461883,0.05509395,-0.06385244,-0.7206663,-4.407449,0.01298504,0.7768782,1.283874,0.3634303,-0.02610272,0.09445401,0.02444784,-0.9415547,0.1718042,-0.08116223,0.8745415,1.355591,0.2097192,0.4677009,0.9710461,0.2693045,298.4486,249.4717,350.9442,True
3,0.02222222,0.04874415,0.2996082,-0.02824191,-1.446703,-4.4027,-2.872761,0.7062176,1.104729,0.4268067,-1.218642,0.01280045,1.8,0.7,0.05884324,0.09869383,-0.03622333,-0.7201502,-4.403631,0.009021725,0.7766746,1.28382,0.3633881,-0.03473119,0.09449587,0.01280755,-0.9418903,0.1731065,-0.08124851,0.8743154,1.355606,0.2097383,0.4684213,0.9696295,0.2681634,298.9875,249.2795,350.3777,True
3,0.03333334,0.05188829,0.3412271,-0.01571105,-1.448065,-4.407453,-2.872822,0.7063928,1.104627,0.4268818,-1.219193,-0.05054517,1.8,0.7,0.1106829,0.1645178,0.0198487,-0.7181496,-4.397716,0.001588576,0.7766576,1.283702,0.3632526,-0.03794378,0.08171494,0.01280379,-0.9417662,0.1737084,-0.08101496,0.874102,1.355504,0.2096026,0.4691945,0.9681685,0.2670389,299.5357,249.0282,349.8796,True
3,0.04444445,0.04336696,0.3433241,-0.01999104,-1.448751,-4.411297,-2.872562,0.7066371,1.104603,0.4270792,-1.219462,-0.02414098,2.6,0.6,0.1514919,0.1910008,0.04720668,-0.7166987,-4.393118,-0.004961203,0.7765758,1.283722,0.3631899,-0.02398959,0.05502605,0.02751747,-0.9409523,0.1734538,-0.0810549,0.8739291,1.355596,0.2095704,0.469753,0.9669052,0.2662987,300.0224,248.9923,349.3206,True
3,0.05555556,0.02850508,0.3271246,-0.05612447,-1.448242,-4.41841,-2.87195,0.7070923,1.104714,0.4276161,-1.219181,0.02579966,2.6,0.6,0.1117454,0.0313047,0.05800148,-0.7150577,-4.398623,-0.002161954,0.7767186,1.28396,0.3633263,0.002628604,0.003853294,0.03246287,-0.939903,0.1720635,-0.08097927,0.8734853,1.355721,0.2094758,0.46997,0.9660079,0.2662077,300.3776,249.1769,348.8384,True
3,0.06666667,0.02213345,0.3354654,-0.08813275,-1.447452,-4.423107,-2.871447,0.7073994,1.104736,0.4280148,-1.218903,0.02512895,2.6,0.6,0.1027558,-0.04320398,0.0292072,-0.7158945,-4.403213,0.0004026699,0.7766641,1.283884,0.3635249,0.003561364,-0.01741788,0.02067742,-0.9400149,0.1710315,-0.08036861,0.8732829,1.355763,0.2095439,0.4697778,0.9655476,0.2668634,300.5724,249.4231,348.5642,True
3,0.07777778,0.02213345,0.3354654,-0.08813275,-1.447452,-4.423107,-2.871447,0.7073994,1.104736,0.4280148,-1.218507,0.03598871,2.6,0.6,0.1027558,-0.04320398,0.0292072,-0.7158945,-4.403213,0.0004026699,0.7766641,1.283884,0.3635249,0.003561364,-0.01741788,0.02067742,-0.9400149,0.1710315,-0.08036861,0.8732829,1.355763,0.2095439,0.4692314,0.9655659,0.2684084,300.5988,249.7045,348.5045,True
3,0.08888889,0.03064819,0.3482146,-0.09565879,-1.447357,-4.427732,-2.871526,0.7077653,1.104796,0.4283361,-1.218473,0.002833621,3.5,1.3,0.1191724,-0.126279,-0.01474406,-0.7176186,-4.409456,0.003031476,0.7766398,1.283996,0.3637235,0.01206375,-0.0163573,0.01847281,-0.9398572,0.1709301,-0.08067061,0.8730453,1.355815,0.2095547,0.4684342,0.9659805,0.2705571,300.458,250.1085,348.7909,True
3,0.1,0.04979804,0.378027,-0.1011475,-1.447503,-4.433193,-2.872104,0.7081475,1.105011,0.4286196,-1.218607,-0.01213151,3.5,1.3,0.1433091,-0.1401444,-0.05014418,-0.7194269,-4.41275,0.003047189,0.7767005,1.284064,0.3639016,0.01750262,-0.0195945,0.03119853,-0.9390535,0.1705872,-0.08084904,0.8728259,1.355882,0.2095411,0.4675474,0.9666352,0.2727894,300.2055,250.5017,349.2644,True
3,0.1111111,0.06895439,0.3908677,-0.09481665,-1.447988,-4.438123,-2.872965,0.7084672,1.105148,0.4290159,-1.21923,-0.05683218,3.5,1.3,0.1443238,-0.1241545,-0.06078139,-0.7203116,-4.413853,0.002212821,0.7767689,1.284121,0.3639479,0.01539937,-0.02599527,0.0354642,-0.9384426,0.1700455,-0.08053505,0.8727177,1.356047,0.2094419,0.4666818,0.9674097,0.2749906,299.9221,250.8644,349.5427,True
3,0.1222222,0.09241201,0.371737,-0.09043407,-1.448023,-4.441737,-2.874466,0.7086504,1.105537,0.4292846,-1.219873,-0.05829477,3.5,1.3,0.1403082,-0.1103259,-0.03835232,-0.7200176,-4.414964,0.001627724,0.7768056,1.284327,0.3639731,0.01965619,-0.04731163,0.03749681,-0.9378029,0.1685628,-0.08000349,0.8725451,1.356095,0.2093387,0.4659204,0.9681957,0.2771181,299.6705,251.3067,349.6133,True
3,0.1333333,0.09674561,0.313034,-0.1092657,-1.446562,-4.443689,-2.875385,0.7088602,1.105773,0.429651,-1.220061,-0.01683622,3.5,1.3,0.1300304,-0.1092935,0.001162186,-0.7185938,-4.417014,0.001994175,0.7768251,1.284444,0.3640163,0.02895635,-0.06854852,0.008588182,-0.9386423,0.1666171,-0.07945728,0.8724262,1.356106,0.2091613,0.4652889,0.9688821,0.2791328,299.4745,251.7583,349.6054,True
3,0.1444445,0.08405977,0.2478515,-0.1408487,-1.444314,-4.445106,-2.875875,0.7089418,1.106016,0.4299788,-1.220415,-0.0324062,3,0.8,0.09964897,-0.09969607,0.05365973,-0.7160436,-4.41821,0.002870089,0.7768333,1.284605,0.3638883,0.02984902,-0.07489087,-0.009542884,-0.939136,0.1653017,-0.07902718,0.8722401,1.356185,0.2090368,0.4648016,0.9693645,0.280971,299.3521,252.1757,349.5998,True
3,0.1555556,0.07775338,0.1848078,-0.1724404,-1.441572,-4.446078,-2.876432,0.7090541,1.1062,0.4304037,-1.219532,0.08089069,3,0.8,0.06706187,-0.08581954,0.09659088,-0.7136691,-4.419014,0.00381631,0.7768396,1.284866,0.3639333,0.02880931,-0.07062839,-0.007394061,-0.9391313,0.1646007,-0.07889988,0.8721342,1.356246,0.209048,0.4645087,0.9695831,0.2825326,299.3039,252.3913,349.7538,True
3,0.1666667,0.07246546,0.1537957,-0.1914395,-1.439215,-4.447659,-2.876821,0.7092468,1.106389,0.4308023,-1.218863,0.06036941,3,0.8,0.05135771,-0.0581078,0.1180827,-0.7116116,-4.418592,0.003421629,0.7767551,1.284927,0.3638601,0.02565573,-0.06424265,-0.003084454,-0.9389081,0.1640443,-0.07869987,0.8719572,1.356305,0.2089858,0.4644266,0.9694879,0.2837498,299.3168,252.2964,350.0751,True
3,0.1777778,0.08422123,0.1196871,-0.1965569,-1.436958,-4.448432,-2.878031,0.7092242,1.106667,0.4311407,-1.218809,0.004520517,3,0.8,0.05561719,-0.01762104,0.1063825,-0.7108579,-4.416772,0.001295894,0.7766809,1.285081,0.363909,0.02267714,-0.05151777,0.01934593,-0.9380021,0.1639879,-0.0788064,0.8717171,1.356308,0.2090278,0.4644631,0.9691085,0.2846252,299.4271,252.0113,350.4059,True
3,0.1888889,0.09595364,0.1037397,-0.194325,-1.435155,-4.449725,-2.879336,0.7092881,1.106941,0.4314694,-1.218747,0.005713764,3,0.8,0.06712393,0.005823385,0.07754324,-0.7109857,-4.415608,-0.0006146576,0.7766407,1.285324,0.3639803,0.01422003,-0.05153141,0.02688208,-0.9374124,0.1632502,-0.07821544,0.8716152,1.356275,0.2088909,0.4646164,0.9685391,0.2852738,299.6096,251.6699,350.6501,True
3,0.2,0.1151693,0.05058807,-0.178016,-1.433537,-4.448943,-2.881333,0.7092593,1.107472,0.4316587,-1.219465,-0.06571943,2.9,1.5,0.07228328,-0.0154801,0.0657461,-0.7106581,-4.416868,-0.0006269081,0.7765546,1.285519,0.3639786,0.01311373,-0.05364897,0.02262485,-0.9372526,0.162445,-0.07784367,0.8714633,1.356321,0.2087743,0.4648137,0.9678971,0.2858234,299.8599,251.4106,350.7798,True
3,0.2111111,0.1194489,0.02930862,-0.1746861,-1.431771,-4.449168,-2.882718,0.7092881,1.107798,0.4318759,-1.219672,-0.01836969,2.9,1.5,0.06262127,-0.03463372,0.0636677,-0.7100637,-4.418662,0.000427171,0.7765355,1.285696,0.364069,0.01089591,-0.0589458,0.01410917,-0.937323,0.1614436,-0.07726257,0.8712755,1.356321,0.2086475,0.4649815,0.9672759,0.2863419,300.1177,251.1952,350.9012,True
3,0.2222222,0.1194859,-0.01325871,-0.1669788,-1.429821,-4.447984,-2.884227,0.7092688,1.108102,0.4320192,-1.22001,-0.03087823,2.9,1.5,0.04674251,-0.05592056,0.08083002,-0.7085782,-4.420761,0.002036785,0.7764757,1.285928,0.3639746,0.002317287,-0.06637885,0.008839682,-0.937332,0.1601889,-0.07623885,0.8711243,1.356338,0.2084763,0.4651517,0.9667607,0.2868922,300.3605,251.0737,351.0136,True
3,0.2333333,0.1131164,-0.0430606,-0.1614741,-1.427992,-4.447069,-2.885318,0.709264,1.108383,0.4321125,-1.219475,0.04905574,2.9,1.5,0.02555335,-0.06334484,0.09592746,-0.7070661,-4.422228,0.003577691,0.7763379,1.28603,0.3638301,-0.007325457,-0.06528658,0.002537692,-0.9374583,0.1593249,-0.07534376,0.8710133,1.356421,0.2083516,0.4653779,0.9663988,0.287412,300.5551,250.942,351.2134,True
3,0.2444444,0.1045956,-0.04942333,-0.1550512,-1.426331,-4.446693,-2.886245,0.7092648,1.108549,0.4322586,-1.219269,0.0183497,2.4,1.2,0.01178426,-0.0452018,0.09927727,-0.7058448,-4.422063,0.003802728,0.7762133,1.286145,0.3636727,-0.01266379,-0.06206894,0.0004698532,-0.9373869,0.1587947,-0.07479488,0.8707328,1.356463,0.2082245,0.4655931,0.9661579,0.2878725,300.6575,250.7765,351.4335,True
3,0.2555556,0.09180477,-0.04936097,-0.1422701,-1.425194,-4.44649,-2.886901,0.7091653,1.108484,0.432472,-1.218844,0.03881041,2.4,1.2,0.01635412,0.0122893,0.1163577,-0.7040796,-4.418667,0.0009201221,0.7759703,1.286201,0.3635709,-0.01258901,-0.05569794,0.007944325,-0.9370534,0.1583356,-0.07437463,0.8705003,1.356474,0.2080567,0.4657998,0.9659998,0.2882251,300.6978,250.5713,351.683,True
3,0.2666667,0.08219476,-0.03969669,-0.1284854,-1.424214,-4.446695,-2.887451,0.7090555,1.108622,0.4325638,-1.218719,0.01109711,2.4,1.2,0.02608737,0.05487031,0.1195244,-0.7026154,-4.415305,-0.002293248,0.7758107,1.286232,0.3634102,-0.01039324,-0.05890914,0.01536558,-0.9366897,0.1575272,-0.07388355,0.8702639,1.356505,0.2078636,0.4659705,0.9658883,0.2884511,300.7187,250.362,351.8862,True
3,0.2777778,0.07149232,-0.01506235,-0.105198,-1.424056,-4.447511,-2.887671,0.709058,1.108722,0.4326682,-1.218502,0.01980651,2.4,1.2,0.03966912,0.08045377,0.08322044,-0.7030101,-4.412576,-0.005348959,0.7755948,1.286284,0.3631568,-0.001880623,-0.06744066,0.0152645,-0.936409,0.1562385,-0.07341217,0.8700266,1.356526,0.2077031,0.4660624,0.9657825,0.2885958,300.7033,250.1674,352.006,True
3,0.2888889,0.06506629,0.007395449,-0.08935448,-1.423833,-4.448443,-2.888037,0.7090438,1.108771,0.4326782,-1.218486,0.001320036,2.4,1.2,0.04665871,0.05706169,0.03944259,-0.704184,-4.412975,-0.005826464,0.775448,1.286283,0.3630881,-0.004137952,-0.0695316,0.001433308,-0.9368063,0.1551524,-0.0726497,0.8698171,1.356524,0.2075388,0.4660262,0.9656397,0.2887134,300.6895,250.05,352.0365,True
3,0.3,0.05010943,0.03840795,-0.06504248,-1.424314,-4.449727,-2.887979,0.7090561,1.108792,0.4325304,-1.218315,0.01572753,1.7,1.2,0.05792249,0.01446629,0.003057562,-0.7053467,-4.415177,-0.005155614,0.7754009,1.286271,0.363034,0.0009628572,-0.06946449,-0.02419163,-0.9380793,0.1541266,-0.07228325,0.8696631,1.356505,0.2072206,0.4659152,0.9654999,0.2888607,300.7374,250.0062,352.0372,True
3,0.3111111,0.03407406,0.0704985,-0.03967748,-1.425099,-4.45137,-2.887515,0.7091221,1.108889,0.4323905,-1.218531,-0.01986012,1.7,1.2,0.07150657,-0.02390252,-0.01415985,-0.7058336,-4.417608,-0.004524977,0.7754387,1.28645,0.3629496,0.01386023,-0.06312563,-0.01151378,-0.9377683,0.1535075,-0.07239164,0.8694232,1.356536,0.2069669,0.4657865,0.9654146,0.2890774,300.7988,250.0595,352.0049,True
3,0.3222222,0.02230871,0.09728119,-0.01214511,-1.426388,-4.453118,-2.887107,0.7091329,1.108931,0.4322524,-1.218259,0.02506541,1.7,1.2,0.08644567,-0.05805066,-0.001563206,-0.7054309,-4.420393,-0.003893541,0.7754445,1.28653,0.362855,0.01823265,-0.06742704,0.001218639,-0.9372638,0.1524574,-0.07211813,0.8690891,1.356583,0.2067173,0.46563,0.9653874,0.2893455,300.8284,250.1637,351.9951,True
3,0.3333333,0.009508294,0.1016108,0.001676051,-1.427191,-4.454124,-2.88664,0.7090728,1.108959,0.4322145,-1.217963,0.02691416,1.7,1.2,0.09923935,-0.07301135,0.003624282,-0.705156,-4.422327,-0.003960387,0.775351,1.286652,0.3628259,0.0246788,-0.07917939,0.008587793,-0.9367712,0.1507484,-0.07157139,0.868795,1.356654,0.2065315,0.465438,0.9654272,0.2896144,300.8527,250.3668,351.9437,True
3,0.3444445,-0.007546919,0.09322136,0.02728016,-1.428584,-4.454515,-2.885885,0.7089705,1.108975,0.4320362,-1.218118,-0.01426816,3,1.2,0.1066781,-0.08688341,0.005666136,-0.7050027,-4.424619,-0.003663977,0.775267,1.286779,0.3627169,0.0321396,-0.09304221,0.01061206,-0.9364591,0.1488359,-0.07107711,0.8684905,1.356704,0.2062526,0.4652181,0.9655699,0.2898482,300.8804,250.6133,351.8474,True
3,0.3555556,-0.02139718,0.08051707,0.04226438,-1.429688,-4.4547,-2.885126,0.7088595,1.109051,0.4318459,-1.218087,0.003091,3,1.2,0.1056331,-0.08794886,0.007809557,-0.7048077,-4.426087,-0.003699397,0.775056,1.286891,0.3625236,0.03308176,-0.106862,-0.001150147,-0.9367169,0.1467712,-0.07020572,0.8681718,1.35674,0.2059379,0.4649533,0.9658205,0.2900164,300.8626,250.8452,351.7349,True
3,0.3666667,-0.03311751,0.06678156,0.06364244,-1.431216,-4.454522,-2.88436,0.7086097,1.109117,0.4316323,-1.217825,0.02395722,3,1.2,0.09063017,-0.08789791,-0.001639328,-0.7051656,-4.427672,-0.002990197,0.7748462,1.287005,0.3623846,0.02983974,-0.1036475,-0.0064377,-0.9368553,0.1455182,-0.06966403,0.8678831,1.356765,0.2056563,0.4646625,0.9661546,0.2900932,300.7962,251.0095,351.6631,True
3,0.3777778,-0.04909874,0.04770609,0.08292079,-1.432724,-4.454075,-2.883293,0.7083034,1.109178,0.4313285,-1.217898,-0.006786453,3,1.2,0.07575597,-0.0782686,0.000647391,-0.7050229,-4.428406,-0.002653574,0.7745526,1.287056,0.3622541,0.02768988,-0.1036392,-0.008548846,-0.9369347,0.1440877,-0.06905603,0.8675417,1.356815,0.2054055,0.4643613,0.9665567,0.2900082,300.7196,251.1955,351.5785,True
3,0.3888889,-0.05763192,0.04561001,0.08932246,-1.434041,-4.454318,-2.882264,0.7079421,1.109226,0.4311442,-1.217988,-0.00800516,3,1.2,0.06000446,-0.04095896,0.01363353,-0.704339,-4.427122,-0.003888215,0.7742193,1.287121,0.3621521,0.01918191,-0.1004364,-0.007395983,-0.9368963,0.1428569,-0.06827866,0.8670857,1.356863,0.2051821,0.464073,0.9670177,0.2897194,300.6438,251.3423,351.488,True
3,0.4,-0.07998303,0.0232353,0.09263285,-1.435046,-4.453554,-2.880745,0.7073302,1.109424,0.4308264,-1.217794,0.01787206,2.4,1.7,0.03712702,0.01869993,0.05654502,-0.702291,-4.423728,-0.006117547,0.7739018,1.287324,0.36186,0.01497189,-0.1068414,-0.0009834929,-0.9366087,0.1411485,-0.0672829,0.8667287,1.356903,0.2048738,0.4637623,0.9675157,0.2891947,300.5647,251.4832,351.3452,True
3,0.4111111,-0.09061605,0.008311855,0.09272318,-1.436087,-4.452936,-2.87961,0.7068155,1.109618,0.4306409,-1.21804,-0.02253368,2.4,1.7,0.0351696,0.03040491,0.07149385,-0.7010164,-4.422588,-0.007370565,0.7736115,1.28751,0.361634,0.02030559,-0.1100448,1.875032E-05,-0.9365741,0.1395207,-0.0667753,0.8664743,1.356904,0.2045796,0.4634096,0.9680381,0.2884382,300.4823,251.5682,351.1711,True
3,0.4222222,-0.1108225,-0.01628482,0.08006828,-1.43628,-4.451837,-2.877858,0.7061332,1.109885,0.4302838,-1.217584,0.04192748,2.4,1.7,0.01316676,0.03040791,0.1121853,-0.6982606,-4.421957,-0.007125554,0.7734135,1.287852,0.3614774,0.02125118,-0.1132062,-0.01278279,-0.9370716,0.1377559,-0.06600671,0.8661808,1.356917,0.2042747,0.4629747,0.9685776,0.2875434,300.4013,251.5885,350.9679,True
3,0.4333333,-0.1331565,-0.03556525,0.06524989,-1.43625,-4.450861,-2.875877,0.705471,1.110055,0.4299099,-1.21808,-0.04553838,2.4,1.7,0.00564889,0.008057352,0.1122162,-0.6971974,-4.423147,-0.006049637,0.7731228,1.288102,0.3612692,0.006175429,-0.104612,-0.03287392,-0.9382231,0.1365676,-0.06504691,0.8658981,1.356873,0.2039175,0.4624221,0.969157,0.2865627,300.3544,251.545,350.809,True
3,0.4444444,-0.1650534,-0.07835834,0.03990903,-1.435149,-4.448647,-2.873216,0.7046165,1.110419,0.4295926,-1.217607,0.04380792,3,1.2,-0.01694842,-0.02808211,0.09852467,-0.6965753,-4.425694,-0.003087136,0.7728384,1.288283,0.3610783,-0.007774979,-0.09817131,-0.04444308,-0.9389315,0.1354264,-0.06379282,0.8656543,1.356869,0.2036848,0.4618433,0.9698126,0.285592,300.2791,251.4721,350.6862,True
3,0.4555556,-0.1958822,-0.12009,0.01349137,-1.433685,-4.446266,-2.87043,0.7037884,1.110862,0.4291527,-1.217496,0.009856084,3,1.2,-0.03741717,-0.04717419,0.07952175,-0.6962259,-4.427384,-0.0007582019,0.7724794,1.288439,0.3608789,-0.01748453,-0.08959439,-0.05818282,-0.9399995,0.1345683,-0.06270359,0.8654338,1.356887,0.203398,0.4611649,0.9705263,0.2846419,300.1846,251.332,350.6753,True
3,0.4666667,-0.2256675,-0.1489757,-0.003408449,-1.432425,-4.443998,-2.867288,0.7028815,1.111227,0.4288561,-1.216846,0.05944537,3,1.2,-0.05350054,-0.04924621,0.06901462,-0.6958382,-4.428357,0.001155279,0.7721529,1.288617,0.3606927,-0.02291537,-0.06291546,-0.07297511,-0.9413417,0.1347213,-0.0623936,0.8652637,1.35687,0.2031674,0.4603918,0.9712974,0.2837346,300.0642,251.1356,350.7451,True
3,0.4777778,-0.2512082,-0.1725195,-0.01713966,-1.431151,-4.441628,-2.863972,0.7018471,1.111787,0.4286339,-1.216869,-0.002349964,3,1.2,-0.05236107,-0.03645997,0.07328884,-0.6948384,-4.427973,0.001357147,0.7717057,1.288834,0.3605251,-0.0251208,-0.05010474,-0.08251114,-0.9425934,0.1344151,-0.06184872,0.8650708,1.35684,0.2029161,0.4595199,0.9721546,0.2828467,299.9761,250.8239,350.948,True
3,0.4888889,-0.2682301,-0.1885561,-0.02451726,-1.429979,-4.439341,-2.860825,0.7008131,1.112154,0.4283345,-1.216803,0.006249111,3,1.2,-0.058359,-0.01305136,0.1085367,-0.6923803,-4.426859,0.001285774,0.771454,1.289069,0.36022,-0.03255974,-0.04157649,-0.08135399,-0.9434174,0.1341196,-0.06104152,0.8648591,1.356801,0.2026718,0.4585842,0.9731485,0.2819538,299.8757,250.4685,351.1992,True
3,0.5,-0.3022842,-0.2110613,-0.04145597,-1.428082,-4.436598,-2.856637,0.6995537,1.112836,0.4281173,-1.216872,-0.006148697,3.6,1,-0.07689585,0.01780857,0.1684122,-0.6883787,-4.424829,0.001244762,0.7711717,1.289314,0.3598502,-0.04427683,-0.02344817,-0.08332522,-0.9444442,0.1344637,-0.06032006,0.8646239,1.356795,0.2024343,0.4575652,0.9742991,0.2810566,299.7459,250.1471,351.3776,True
3,0.5111111,-0.3533643,-0.2485631,-0.0700357,-1.425339,-4.433259,-2.851403,0.6981865,1.113594,0.4277928,-1.217311,-0.03988238,3.6,1,-0.1082806,0.0305947,0.2273138,-0.6839669,-4.423748,0.002751578,0.7709579,1.289542,0.3594959,-0.03036374,-0.02455023,-0.07493144,-0.9449966,0.1340236,-0.06002126,0.8644572,1.356801,0.2020886,0.4564421,0.9756262,0.28016,299.5773,249.8338,351.5403,True
3,0.5222223,-0.4087069,-0.2712272,-0.1104263,-1.421744,-4.430333,-2.845386,0.6968488,1.114369,0.4274836,-1.216502,0.07447357,3.6,1,-0.145276,0.03491405,0.2574929,-0.6800675,-4.422941,0.004995557,0.770754,1.289818,0.3591232,-0.02394319,-0.02456611,-0.07179381,-0.9456661,0.1336392,-0.05974695,0.8642904,1.356796,0.201791,0.4552112,0.9770886,0.2792554,299.3416,249.5051,351.7337,True
3,0.5333334,-0.4661875,-0.289596,-0.1455213,-1.418007,-4.427601,-2.838853,0.6954744,1.115261,0.4270456,-1.215581,0.08372128,3.6,1,-0.1675231,0.03282288,0.2715501,-0.6766708,-4.422584,0.007237673,0.7706114,1.290169,0.3587875,-0.0251065,-0.02986846,-0.08138478,-0.9468678,0.1328299,-0.05887557,0.8641723,1.35672,0.2014856,0.4538126,0.9786866,0.278313,299.1456,249.0529,352.0438,True
3,0.5444446,-0.5023983,-0.2823074,-0.1679625,-1.414602,-4.425588,-2.832301,0.6941168,1.116141,0.426719,-1.215163,0.03793764,3.6,1,-0.168543,0.01683271,0.2811247,-0.6731949,-4.423191,0.009636648,0.7704256,1.2905,0.3585114,-0.03274328,-0.03619981,-0.1005067,-0.948602,0.1319319,-0.05773014,0.8640896,1.356725,0.2012057,0.4522254,0.9804723,0.2772942,298.9573,248.4343,352.5148,True
3,0.5555557,-0.5524533,-0.2729236,-0.1946842,-1.410965,-4.423971,-2.824841,0.6925642,1.117183,0.4263113,-1.215094,0.006320502,3.2,0.7,-0.164337,-0.01300383,0.2842441,-0.6698729,-4.42498,0.01268623,0.7702171,1.290784,0.3582776,-0.03922085,-0.0361716,-0.1089699,-0.9500545,0.1313024,-0.05658126,0.8639773,1.356607,0.2008946,0.4504862,0.9825178,0.2762237,298.7288,247.7214,353.0594,True
3,0.5666668,-0.5993348,-0.2549212,-0.2054785,-1.407838,-4.422721,-2.816984,0.6910526,1.11827,0.4260085,-1.215638,-0.04936457,3.2,0.7,-0.1547579,-0.0322128,0.2883883,-0.6665855,-4.426553,0.01521917,0.7699602,1.291074,0.3581114,-0.04362764,-0.02653093,-0.125947,-0.9519986,0.1312797,-0.05589709,0.8638585,1.356618,0.2006409,0.448624,0.9848821,0.2751265,298.4392,247.0188,353.591,True
3,0.577778,-0.6483704,-0.2251842,-0.2131435,-1.404932,-4.422115,-2.808267,0.6894192,1.119461,0.4258671,-1.215294,0.03218805,3.2,0.7,-0.1676482,-0.05347644,0.2831509,-0.6636714,-4.428751,0.01920033,0.7698178,1.291469,0.3578722,-0.05314825,-0.0244071,-0.1194671,-0.9531198,0.1309857,-0.05492504,0.8637663,1.356576,0.2003992,0.4466536,0.9875677,0.2740563,298.0605,246.3597,354.0711,True
3,0.5888891,-0.6750197,-0.2134942,-0.213232,-1.401998,-4.420919,-2.800112,0.6878706,1.120678,0.425632,-1.215352,-0.005290421,3.2,0.7,-0.189886,-0.07262139,0.3035732,-0.6596469,-4.43115,0.02395913,0.7696863,1.291981,0.3575664,-0.05619918,-0.02657183,-0.1034552,-0.9535533,0.1305978,-0.05400252,0.8635939,1.356535,0.2001796,0.4444912,0.9905556,0.2730294,297.6463,245.7011,354.5663,True
3,0.6000003,-0.7304213,-0.1965928,-0.2282867,-1.398523,-4.42048,-2.790046,0.6861712,1.121953,0.4253721,-1.215069,0.02622517,2.7,0.6,-0.215196,-0.08751202,0.335747,-0.6548495,-4.433798,0.02929664,0.7695454,1.2924,0.357244,-0.05608898,-0.03193385,-0.09068702,-0.9540924,0.1299322,-0.0530025,0.8635424,1.356466,0.1998966,0.4421848,0.9938526,0.2721012,297.1849,245.0645,355.044,True
3,0.6111114,-0.7815639,-0.1818314,-0.2454595,-1.394812,-4.420175,-2.779663,0.6844531,1.12325,0.4249997,-1.21595,-0.08042389,2.7,0.6,-0.2604559,-0.08427276,0.3947719,-0.6484227,-4.435407,0.03505199,0.769416,1.292957,0.3568192,-0.05188548,-0.03085241,-0.09711161,-0.9553995,0.1295155,-0.05233191,0.8634882,1.356375,0.1996145,0.4397328,0.9974548,0.2713141,296.6794,244.4575,355.5343,True
3,0.6222225,-0.8369501,-0.1777326,-0.263635,-1.390824,-4.419713,-2.768516,0.6825776,1.124627,0.4247348,-1.214715,0.1139804,2.7,0.6,-0.2907856,-0.05550095,0.4472962,-0.641596,-4.43525,0.03924301,0.7693095,1.29343,0.3564277,-0.04883119,-0.03614088,-0.1120689,-0.9571422,0.1286479,-0.05140034,0.8635089,1.356285,0.1993823,0.4372295,1.001305,0.2706511,296.0855,243.808,356.159,True
3,0.6333337,-0.8870112,-0.180013,-0.2817812,-1.386491,-4.419206,-2.757119,0.6809227,1.126078,0.4244637,-1.21476,-0.004805217,2.7,0.6,-0.2946556,-0.01824932,0.4793422,-0.6353988,-4.433943,0.04155277,0.7692715,1.293862,0.3560688,-0.0563475,-0.02759482,-0.1194342,-0.958714,0.1284618,-0.05037369,0.8636506,1.356186,0.199147,0.4345414,1.005336,0.2700357,295.4933,243.0877,356.8977,True
3,0.6444448,-0.9210904,-0.1801287,-0.295655,-1.382286,-4.418773,-2.745911,0.6791236,1.127497,0.424165,-1.214523,0.02215091,2.7,0.6,-0.2922399,0.003015861,0.5038531,-0.6289843,-4.433117,0.04401886,0.7691828,1.294287,0.3557189,-0.06170727,-0.02438298,-0.1236341,-0.9601346,0.128165,-0.04935929,0.8637114,1.356061,0.1989484,0.431682,1.009543,0.2694216,294.8935,242.2819,357.7393,True
3,0.655556,-0.9732726,-0.1749705,-0.3138312,-1.37795,-4.418623,-2.733709,0.6772703,1.128983,0.4238672,-1.214776,-0.02291777,1.8,0.5,-0.2952638,0.01791233,0.519882,-0.6227813,-4.432548,0.0470482,0.7691057,1.29469,0.3554685,-0.06498725,-0.02754653,-0.1321342,-0.961815,0.1276445,-0.04819443,0.8638077,1.355983,0.198772,0.4287353,1.013935,0.268791,294.2927,241.3871,358.6575,True
3,0.6666671,-1.023333,-0.1655551,-0.3352303,-1.373327,-4.419073,-2.720792,0.6753508,1.130639,0.4235897,-1.215517,-0.06716385,1.8,0.5,-0.3039348,0.003037214,0.5082222,-0.6176994,-4.43388,0.05174948,0.7690189,1.295138,0.3551903,-0.06826532,-0.03284732,-0.1406366,-0.9635386,0.1268594,-0.04691398,0.8638599,1.355887,0.1985629,0.4258767,1.018525,0.268144,293.6631,240.4001,359.6693,True
3,0.6777782,-1.069127,-0.1667484,-0.348043,-1.368701,-4.41903,-2.707692,0.6734271,1.132366,0.423419,-1.215125,0.03674068,1.8,0.5,-0.3074509,-0.0352724,0.485834,-0.6131545,-4.437171,0.05800178,0.7691439,1.295523,0.3549309,-0.0651259,-0.0339052,-0.1459907,-0.965226,0.1262349,-0.04588653,0.8639499,1.355762,0.1983428,0.423067,1.023254,0.2674323,292.9869,239.344,0.7270249,True
3,0.6888894,-1.096819,-0.161507,-0.3576996,-1.364064,-4.419484,-2.694703,0.6717294,1.134028,0.4230075,-1.214948,0.0161668,1.8,0.5,-0.3044249,-0.06722882,0.4761769,-0.6081792,-4.440823,0.06416008,0.7691326,1.296029,0.3545814,-0.06506889,-0.033926,-0.1395954,-0.9664622,0.12568,-0.04483911,0.8640584,1.355707,0.1981273,0.42023,1.028095,0.2666294,292.341,238.2014,1.823191,True
3,0.7000005,-1.13946,-0.1264458,-0.3664595,-1.359992,-4.42123,-2.680285,0.669728,1.135842,0.422744,-1.215148,-0.01800643,2.7,0.4,-0.320423,-0.1215354,0.4900967,-0.6024928,-4.447163,0.07347821,0.7691501,1.296486,0.3544073,-0.06195062,-0.03390579,-0.1481465,-0.9683446,0.1251017,-0.04392405,0.864135,1.35558,0.1979551,0.4173311,1.033086,0.2657669,291.748,236.9268,2.999437,True
3,0.7111117,-1.157587,-0.1040874,-0.3634155,-1.35628,-4.422551,-2.666857,0.6679525,1.137471,0.422421,-1.215844,-0.06320523,2.7,0.4,-0.318356,-0.1289938,0.4847497,-0.5973406,-4.450618,0.07972332,0.7692411,1.296777,0.3542354,-0.06410399,-0.02963635,-0.1502464,-0.970091,0.1248055,-0.04287876,0.8642671,1.355475,0.1977384,0.4144677,1.03827,0.2648928,291.1393,235.5694,4.281649,True
3,0.7222228,-1.189586,-0.0625995,-0.3679439,-1.352857,-4.42519,-2.652161,0.6660569,1.13924,0.4221356,-1.215198,0.05992644,2.7,0.4,-0.3236444,-0.1332482,0.4901193,-0.591961,-4.454273,0.08647071,0.7692423,1.297175,0.3539741,-0.07258603,-0.02857361,-0.1459048,-0.971535,0.1244129,-0.0415509,0.8643187,1.355361,0.1975954,0.4116665,1.043632,0.2640112,290.4828,234.1432,5.656445,True
3,0.7333339,-1.2216,-0.006233051,-0.3757438,-1.349784,-4.428696,-2.636988,0.6643885,1.140914,0.4218204,-1.216437,-0.1135007,2.7,0.4,-0.3265936,-0.1396662,0.5189157,-0.5852931,-4.458344,0.09361304,0.7691847,1.297716,0.3536625,-0.06513967,-0.02964873,-0.1470415,-0.9731553,0.1237628,-0.04072586,0.8644501,1.355194,0.1974752,0.4087609,1.049192,0.2631427,289.8199,232.711,7.014657,True
3,0.7444451,-1.240831,0.04912924,-0.3782129,-1.347141,-4.43304,-2.62149,0.6625587,1.142665,0.421474,-1.215978,0.04328983,2.7,0.4,-0.3359905,-0.1204865,0.5339451,-0.57891,-4.460798,0.09974683,0.7691466,1.29811,0.3533645,-0.06085593,-0.01793811,-0.1459826,-0.9747607,0.1239322,-0.04028963,0.8644942,1.35507,0.1973431,0.4058946,1.054915,0.2623522,289.0786,231.1876,8.499342,True
3,0.7555562,-1.270748,0.1279421,-0.375473,-1.345706,-4.438675,-2.605004,0.6607803,1.144488,0.421243,-1.215991,-0.001454491,2.6,0.3,-0.3402029,-0.09596965,0.5329658,-0.5728902,-4.462311,0.105119,0.7690413,1.29855,0.3529963,-0.05117016,-0.003063623,-0.1375047,-0.9759724,0.1244093,-0.04040281,0.8645916,1.354981,0.1972513,0.40298,1.060778,0.2616723,288.347,229.6081,10.0535,True
3,0.7666674,-1.292128,0.1908174,-0.3683985,-1.344495,-4.444482,-2.588477,0.6588631,1.146395,0.4209535,-1.216236,-0.02204844,2.6,0.3,-0.3327193,-0.1034517,0.5371472,-0.5669774,-4.466228,0.1118038,0.768914,1.298989,0.3527565,-0.05217734,-0.005213231,-0.1311073,-0.97719,0.1241269,-0.03963183,0.8646573,1.354831,0.1971438,0.400043,1.066785,0.2611673,287.6188,227.9756,11.70783,True
3,0.7777785,-1.310265,0.218511,-0.3653681,-1.342918,-4.449465,-2.572142,0.6568714,1.148313,0.4206407,-1.215931,0.02830268,2.6,0.3,-0.3221275,-0.1013383,0.5306624,-0.5613304,-4.469495,0.1179149,0.7688434,1.29946,0.3525164,-0.05862057,-0.0009252392,-0.1374299,-0.9789775,0.1242122,-0.03880093,0.8646407,1.354736,0.197058,0.3969774,1.072959,0.2608588,286.9075,226.3602,13.3772,True
3,0.7888896,-1.333701,0.2120928,-0.3600171,-1.340832,-4.453228,-2.555741,0.655088,1.150278,0.420197,-1.216262,-0.03022765,2.6,0.3,-0.3063155,-0.09070656,0.5103018,-0.556264,-4.47197,0.122989,0.7687344,1.299787,0.3520525,-0.05645445,0.0107766,-0.1342154,-0.9803256,0.1246916,-0.03845871,0.8646511,1.354686,0.1969206,0.3937536,1.079366,0.2607987,286.2061,224.8746,14.9747,True
3,0.8000008,-1.348603,0.2014185,-0.3610308,-1.33854,-4.457174,-2.539275,0.6531659,1.152269,0.4198852,-1.216655,-0.0354084,5.4,0.8,-0.3021388,-0.06725886,0.4943164,-0.5513356,-4.473083,0.1271683,0.7684579,1.300189,0.3517821,-0.058465,0.01393922,-0.1214042,-0.9812609,0.1249379,-0.03788799,0.8645949,1.354619,0.1968551,0.3903764,1.08604,0.2609642,285.4684,223.2534,16.83222,True
3,0.8111119,-1.361365,0.1843105,-0.3662869,-1.335779,-4.460949,-2.522775,0.6515828,1.154274,0.4194334,-1.216664,-0.000324179,5.4,0.8,-0.3065043,-0.05231895,0.4794751,-0.5462479,-4.474844,0.1323322,0.7683066,1.300611,0.3514557,-0.06053612,0.02030735,-0.1149677,-0.9822494,0.1252708,-0.03724857,0.8646224,1.354504,0.1967149,0.3870377,1.092929,0.26127,284.6712,221.2917,19.17735,True
3,0.8222231,-1.374151,0.192763,-0.3759339,-1.333522,-4.465715,-2.5058,0.6497137,1.156323,0.4190633,-1.216927,-0.02389632,5.4,0.8,-0.3096403,-0.04485939,0.4837762,-0.54079,-4.476805,0.137569,0.7680726,1.30103,0.3511369,-0.05944792,0.02349614,-0.1128381,-0.9834085,0.125692,-0.03684324,0.8645369,1.354421,0.1966434,0.3839634,1.099939,0.2615481,283.8639,218.8981,22.0096,True
3,0.8333342,-1.381636,0.2300474,-0.374043,-1.332502,-4.471413,-2.489012,0.6479759,1.158483,0.4188087,-1.217154,-0.02033192,5.4,0.8,-0.3135704,-0.01826201,0.5115542,-0.5340884,-4.477628,0.1419028,0.7677993,1.301387,0.3509419,-0.06377386,0.03204177,-0.1202293,-0.9850202,0.1263665,-0.03627066,0.8644463,1.354317,0.196635,0.3811821,1.106988,0.2616641,283.0867,215.9988,25.26017,True
3,0.8444453,-1.385932,0.2599017,-0.3688947,-1.331761,-4.477137,-2.472,0.6461216,1.160536,0.4185038,-1.217178,-0.001862535,5.4,0.8,-0.3056743,0.03067379,0.5445769,-0.5266652,-4.475699,0.1434046,0.7675314,1.301788,0.3506217,-0.06363858,0.04159743,-0.1074281,-0.9859177,0.1273358,-0.0362102,0.8643486,1.354242,0.1966238,0.3787238,1.114007,0.2615457,282.387,212.6013,28.88359,True
3,0.8555565,-1.400933,0.323894,-0.352202,-1.332855,-4.483738,-2.454587,0.6444157,1.162614,0.4183426,-1.2178,-0.05678055,3.9,0.9,-0.2754099,0.09446822,0.5752838,-0.5188115,-4.471375,0.1418764,0.7673007,1.30221,0.3502204,-0.05285234,0.0415454,-0.09261216,-0.986477,0.1278783,-0.03622991,0.8641708,1.354135,0.1965666,0.3763257,1.12102,0.2611907,281.7856,208.9498,32.563,True
3,0.8666676,-1.411628,0.34202,-0.3437751,-1.332853,-4.489315,-2.437402,0.6428825,1.164731,0.4180682,-1.217828,-0.001914173,3.9,0.9,-0.2605124,0.08592351,0.574075,-0.5125989,-4.471992,0.1447622,0.7669538,1.302555,0.3498743,-0.04639303,0.04045105,-0.08521181,-0.987123,0.1282887,-0.03618304,0.8639836,1.354101,0.1964736,0.3739432,1.128062,0.26076,281.2302,205.1436,36.29589,True
3,0.8777788,-1.437203,0.3536727,-0.3502542,-1.332579,-4.495323,-2.419488,0.6411965,1.166773,0.4177651,-1.217775,0.004953223,3.9,0.9,-0.261728,0.05610874,0.5665864,-0.5067846,-4.474558,0.1498409,0.7666725,1.302926,0.3495061,-0.03784938,0.03511429,-0.0821078,-0.9879177,0.1286072,-0.03623364,0.8638793,1.354089,0.1963747,0.3715194,1.135144,0.2603816,280.7001,201.0884,40.28203,True
3,0.8888899,-1.455314,0.3610786,-0.3567219,-1.332173,-4.501493,-2.40124,0.6395401,1.168937,0.4176044,-1.217902,-0.01150778,3.9,0.9,-0.2821917,0.008222908,0.5581867,-0.5010759,-4.479627,0.1582,0.7663856,1.303435,0.3491442,-0.0410786,0.02979506,-0.0842264,-0.989008,0.1287187,-0.03556092,0.8637363,1.353996,0.1962428,0.3691612,1.142294,0.2602131,280.1824,196.9741,44.41315,True
3,0.900001,-1.479811,0.3610144,-0.3631316,-1.331791,-4.507538,-2.382427,0.6377838,1.171139,0.4173903,-1.217443,0.04213917,3.9,0.9,-0.2982817,-0.0109001,0.5519161,-0.495292,-4.483224,0.1651991,0.7660733,1.303845,0.3488331,-0.04965814,0.03728046,-0.09158446,-0.9902933,0.1294302,-0.03514227,0.8635073,1.353927,0.1961825,0.3669646,1.149489,0.260258,279.7422,192.1997,49.35336,True
3,0.9111122,-1.484072,0.3504728,-0.3513554,-1.331749,-4.512897,-2.364459,0.6361994,1.17333,0.4170723,-1.217279,0.01472016,4.2,1,-0.2813447,-0.006671876,0.5379165,-0.4897851,-4.484837,0.1690689,0.7657727,1.304162,0.3485646,-0.06035347,0.04582945,-0.09679587,-0.9916541,0.1303496,-0.03456251,0.8633575,1.353867,0.1961277,0.3648115,1.156749,0.2604515,279.4092,186.8181,54.93696,True
3,0.9222233,-1.47237,0.3611752,-0.3450174,-1.33227,-4.51863,-2.347449,0.6345297,1.175582,0.4167354,-1.216896,0.03510462,4.2,1,-0.2496364,-0.0003252178,0.5088677,-0.4852354,-4.485979,0.1716993,0.7654296,1.304617,0.3482921,-0.07204124,0.0554238,-0.09453192,-0.9926363,0.1314237,-0.03393027,0.8631842,1.353841,0.1960993,0.3626742,1.164118,0.2607819,279.1788,181.1636,60.78659,True
3,0.9333345,-1.467046,0.3676303,-0.3418807,-1.332739,-4.524656,-2.329909,0.6329366,1.177851,0.4164779,-1.217759,-0.07899925,4.2,1,-0.2368772,-0.01208504,0.5119285,-0.4795213,-4.489338,0.1770565,0.7650882,1.305123,0.3478827,-0.072076,0.05649634,-0.09772414,-0.9938139,0.132099,-0.03343412,0.8630021,1.353819,0.1959729,0.3605494,1.17165,0.2611992,279.0115,175.3775,66.82733,True
3,0.9444456,-1.459611,0.3857728,-0.3377199,-1.333861,-4.530815,-2.312569,0.6313281,1.180091,0.416157,-1.219047,-0.1170049,4.2,1,-0.2337035,-0.02381347,0.5129474,-0.4740075,-4.493072,0.1828444,0.7646952,1.305582,0.3475578,-0.07316456,0.06183282,-0.1008954,-0.9950688,0.1330984,-0.03312892,0.8628006,1.353789,0.195899,0.3586016,1.179311,0.2616342,278.8892,169.2062,73.3167,True
3,0.9555568,-1.457481,0.3965318,-0.3346186,-1.334908,-4.537269,-2.29484,0.6299088,1.182292,0.415853,-1.218765,0.02676645,9.9,1.2,-0.2529908,-0.03867096,0.5045884,-0.4689166,-4.497432,0.190212,0.7643139,1.30617,0.3472471,-0.0721557,0.06184921,-0.1073014,-0.9965719,0.1338421,-0.03281973,0.8626337,1.353737,0.1958184,0.3568338,1.18703,0.2620277,278.8691,162.4667,80.33659,True
3,0.9666679,-1.452156,0.3923197,-0.3271328,-1.335904,-4.542726,-2.27764,0.6283041,1.184568,0.4156218,-1.218957,-0.01786856,9.9,1.2,-0.272232,-0.04500315,0.4994306,-0.4637906,-4.501321,0.1973948,0.7639134,1.306689,0.3468881,-0.08494183,0.0650597,-0.1082418,-0.997839,0.1347413,-0.0319614,0.8623875,1.353714,0.1957884,0.3552231,1.194736,0.2623769,278.9961,155.7291,87.28387,True
3,0.977779,-1.439354,0.3668889,-0.3131227,-1.336445,-4.547293,-2.260972,0.6268642,1.186894,0.4153707,-1.21868,0.02553737,9.9,1.2,-0.3123837,-0.04814939,0.5392118,-0.4566874,-4.506013,0.2066938,0.7634999,1.307232,0.3463392,-0.107285,0.0831874,-0.1069252,-0.999054,0.1364946,-0.03091557,0.8621145,1.353691,0.1959045,0.3537397,1.202387,0.2627,279.2392,149.3086,93.87758,True
3,0.9888902,-1.428682,0.356255,-0.3151834,-1.337037,-4.552597,-2.24419,0.6254606,1.189204,0.4151802,-1.218957,-0.02558055,9.9,1.2,-0.3079251,-0.04927516,0.5615445,-0.4499288,-4.51094,0.2143645,0.7631202,1.307611,0.3460362,-0.121052,0.09169734,-0.09932123,-0.9999871,0.1378854,-0.02993393,0.8618912,1.353651,0.1959367,0.3523985,1.20995,0.2630285,279.5943,143.5455,99.80392,True
3,1.000001,-1.413763,0.3530546,-0.3183492,-1.337762,-4.55799,-2.22761,0.6238371,1.1915,0.41483,-1.219314,-0.03244844,9.9,1.2,-0.2948433,-0.03337076,0.5891461,-0.4425018,-4.514331,0.2202732,0.7626345,1.308078,0.3456295,-0.1156977,0.09061751,-0.09617704,-1.000977,0.1390054,-0.02941488,0.8616128,1.353595,0.1959541,0.351169,1.217416,0.2633322,280.0218,138.423,105.1018,True
3,1.011112,-1.405259,0.3679699,-0.3163207,-1.33926,-4.563752,-2.210769,0.622467,1.19377,0.4144588,-1.219378,-0.005535012,9.9,0.8,-0.2937746,-0.01739398,0.5859632,-0.4362055,-4.51689,0.2259532,0.7622398,1.308573,0.3452253,-0.1136452,0.08850841,-0.1036622,-1.002495,0.1400844,-0.02873391,0.8613377,1.353627,0.195962,0.3501358,1.224734,0.2635725,280.5235,133.9571,109.747,True
3,1.022224,-1.393556,0.3797301,-0.3110537,-1.341071,-4.569335,-2.194309,0.6208773,1.196018,0.4141214,-1.219549,-0.01564459,9.9,0.8,-0.3108318,-0.007753998,0.5818734,-0.4299524,-4.519838,0.2326743,0.761727,1.309053,0.3448808,-0.1114397,0.09487717,-0.09620722,-1.00335,0.1415676,-0.02834562,0.8610642,1.353605,0.1959767,0.3491903,1.231931,0.2637397,281.1053,130.074,113.7572,True
3,1.033335,-1.385036,0.3861783,-0.3025885,-1.34293,-4.574612,-2.177979,0.6194605,1.198265,0.4139574,-1.21933,0.02004453,9.9,0.8,-0.3213661,-0.02160241,0.5990086,-0.4228732,-4.525743,0.2420222,0.761095,1.309629,0.3445377,-0.1091907,0.1065557,-0.08340774,-1.003811,0.1434231,-0.02804761,0.8607922,1.353611,0.195997,0.3482018,1.239054,0.2638437,281.7176,126.6298,117.3013,True
3,1.044446,-1.37547,0.3958623,-0.2877231,-1.345375,-4.579663,-2.161796,0.6179656,1.200438,0.4136627,-1.219581,-0.02307926,9.9,0.8,-0.3161634,-0.04184617,0.5914735,-0.4169882,-4.532305,0.2513657,0.7605938,1.310117,0.3441856,-0.1092175,0.1086952,-0.08659761,-1.00493,0.1449118,-0.02762417,0.8605239,1.353583,0.1960273,0.3472266,1.246116,0.2639597,282.3164,123.6148,120.4075,True
3,1.055557,-1.360584,0.4055707,-0.2685987,-1.348052,-4.584464,-2.145972,0.6166735,1.202639,0.4133029,-1.219595,-0.001144325,16,1.3,-0.3046094,-0.05677968,0.5796227,-0.4114254,-4.538992,0.2605288,0.7600074,1.31071,0.3438118,-0.1210752,0.110882,-0.1024559,-1.006626,0.1463834,-0.02668461,0.860267,1.353561,0.1960521,0.346258,1.253141,0.2641388,282.9336,120.8726,123.2339,True
3,1.066668,-1.34249,0.4099012,-0.2590226,-1.350647,-4.589277,-2.130568,0.6154681,1.204666,0.4129772,-1.219606,-0.001021407,16,1.3,-0.2911094,-0.06422506,0.5432654,-0.4070514,-4.544348,0.2681465,0.7595593,1.31111,0.3434482,-0.131787,0.1141069,-0.1087331,-1.00795,0.147973,-0.02565689,0.8600713,1.353592,0.1960576,0.3454075,1.260101,0.2644444,283.559,118.369,125.8433,True
3,1.077779,-1.319059,0.3993118,-0.2493447,-1.352771,-4.59355,-2.115781,0.614143,1.206863,0.4125988,-1.219817,-0.01939638,16,1.3,-0.3029467,-0.08869749,0.540141,-0.4018209,-4.552877,0.2798692,0.7590714,1.311512,0.3430305,-0.1370818,0.1162343,-0.1054827,-1.009022,0.1495386,-0.02476687,0.8598415,1.353556,0.1960685,0.3446652,1.267021,0.2648545,284.1692,115.9564,128.4304,True
3,1.08889,-1.300931,0.3972242,-0.2472078,-1.355094,-4.598219,-2.101108,0.6128374,1.209029,0.4122274,-1.220145,-0.02991225,16,1.3,-0.3339057,-0.1216468,0.5403796,-0.3967359,-4.563265,0.2939587,0.7585154,1.311994,0.3426774,-0.1381953,0.1226484,-0.1118483,-1.010533,0.1513967,-0.02424542,0.8596036,1.353457,0.1960983,0.3441281,1.273867,0.2653382,284.7924,113.6948,130.9239,True
3,1.100002,-1.268959,0.3770653,-0.2385424,-1.356978,-4.602108,-2.087284,0.6114877,1.211017,0.4118681,-1.220523,-0.03443943,16,1.3,-0.3520064,-0.1461096,0.5490353,-0.3913366,-4.574263,0.308662,0.758041,1.312504,0.3423817,-0.1318174,0.127974,-0.1140225,-1.011884,0.1532364,-0.02398443,0.8593754,1.353387,0.1961491,0.3437939,1.280607,0.2658448,285.475,111.5976,133.2586,True
3,1.111113,-1.250857,0.3781711,-0.2342536,-1.359571,-4.606423,-2.073001,0.6103157,1.213073,0.4116635,-1.220574,-0.004525935,13.7,1.2,-0.3538705,-0.1567907,0.5820702,-0.3845956,-4.585434,0.3230252,0.7574664,1.313056,0.3419518,-0.1371937,0.1386571,-0.1214049,-1.013556,0.1554414,-0.02351172,0.8591363,1.353316,0.1961987,0.3435225,1.287268,0.2662826,286.1974,109.7405,135.3246,True
3,1.122224,-1.218918,0.3868121,-0.2193638,-1.362675,-4.610432,-2.059609,0.6090158,1.215031,0.4112902,-1.22104,-0.04265733,13.7,1.2,-0.3260978,-0.1334255,0.5829158,-0.3786328,-4.592595,0.3323375,0.756893,1.313611,0.3415616,-0.1404589,0.1482728,-0.1298662,-1.015235,0.157678,-0.02297749,0.8588852,1.353283,0.1962662,0.3432707,1.293815,0.2666419,286.9532,108.0815,137.1482,True
3,1.133335,-1.194447,0.400729,-0.2076925,-1.366182,-4.614445,-2.046351,0.607819,1.217,0.4110806,-1.220494,0.05006842,13.7,1.2,-0.315596,-0.1291733,0.5668482,-0.3735786,-4.601189,0.3436255,0.7564108,1.314177,0.3412056,-0.1404109,0.1557211,-0.1255846,-1.016529,0.1599895,-0.02266803,0.8585882,1.353273,0.1963565,0.3430782,1.300137,0.2669337,287.718,106.5833,138.7607,True
3,1.144446,-1.150812,0.4211805,-0.1800811,-1.370351,-4.617808,-2.034329,0.6067519,1.2188,0.4109182,-1.221022,-0.04885885,13.7,1.2,-0.31481,-0.158975,0.544424,-0.3695695,-4.613368,0.3583893,0.7558259,1.314714,0.3407519,-0.1446086,0.157836,-0.1191439,-1.017583,0.1620589,-0.02208347,0.8583198,1.353227,0.1964083,0.3429151,1.306249,0.2672059,288.4004,105.3154,140.0956,True
3,1.155557,-1.123139,0.4138098,-0.1671912,-1.373716,-4.621019,-2.021894,0.6055738,1.220816,0.410723,-1.220978,0.004267621,17.2,1.2,-0.3308446,-0.1642603,0.541369,-0.3647082,-4.624794,0.3733912,0.7552998,1.315311,0.3404021,-0.1468248,0.1514703,-0.1287399,-1.019511,0.163673,-0.02129544,0.8581324,1.353285,0.1964676,0.3427331,1.312187,0.2674865,289.0392,104.1269,141.3502,True
3,1.166668,-1.095439,0.4032149,-0.1607139,-1.37668,-4.624244,-2.009958,0.604427,1.22267,0.4105883,-1.221782,-0.07377569,17.2,1.2,-0.3679489,-0.1759159,0.5640653,-0.3590149,-4.638399,0.3914881,0.7547787,1.315838,0.3400364,-0.151139,0.1482945,-0.1340357,-1.021238,0.165467,-0.02037877,0.8579422,1.353243,0.1965158,0.342594,1.317939,0.2678484,289.6234,103.0303,142.5015,True
3,1.17778,-1.071977,0.3712733,-0.1594337,-1.378741,-4.6271,-1.998142,0.6033303,1.224589,0.4103508,-1.221123,0.06076184,17.2,1.2,-0.3722827,-0.2057493,0.5661917,-0.354291,-4.654526,0.4109527,0.7541872,1.316289,0.3395922,-0.1502457,0.1526093,-0.1542804,-1.0237,0.1674826,-0.01989674,0.8576401,1.353072,0.1966741,0.3425421,1.323475,0.268328,290.1862,101.9205,143.6936,True
3,1.188891,-1.054922,0.3574139,-0.1625314,-1.381144,-4.630317,-1.986275,0.6022158,1.226417,0.4101317,-1.221238,-0.01142555,17.2,1.2,-0.3682226,-0.230262,0.5522643,-0.3504853,-4.670442,0.4298267,0.7536199,1.31681,0.3391507,-0.146118,0.1643665,-0.1702599,-1.026073,0.1700363,-0.01972151,0.8573282,1.353075,0.1967237,0.342452,1.328897,0.2688638,290.7386,101.0068,144.7409,True
3,1.200002,-1.028273,0.3424288,-0.1762694,-1.383139,-4.63388,-1.974999,0.6010491,1.228224,0.4097571,-1.221034,0.01867665,17.2,1.2,-0.3651311,-0.2398452,0.5436985,-0.3465646,-4.685483,0.4478803,0.7529937,1.317292,0.3387225,-0.1429689,0.1750337,-0.176651,-1.028323,0.1726895,-0.01960459,0.8570206,1.353042,0.1968129,0.3423728,1.334181,0.2694347,291.3127,100.2265,145.6896,True
3,1.211113,-1.01015,0.3349478,-0.1836701,-1.38544,-4.637381,-1.963746,0.5998588,1.230057,0.4095111,-1.220769,0.02386926,20.2,1.8,-0.3779854,-0.2185007,0.5289409,-0.3424175,-4.697204,0.4634747,0.7524016,1.317712,0.3383017,-0.1385947,0.1899099,-0.1649215,-1.029613,0.1756491,-0.01962643,0.8565949,1.353021,0.196924,0.3423113,1.339337,0.2699709,291.88,99.55929,146.5459,True
3,1.222224,-0.9856269,0.3210919,-0.1889111,-1.387424,-4.640718,-1.952988,0.598724,1.231876,0.4091668,-1.22115,-0.03517511,20.2,1.8,-0.3740124,-0.2131446,0.4948193,-0.3395908,-4.708988,0.478476,0.7517187,1.318348,0.3379252,-0.1384538,0.1941298,-0.1499963,-1.030807,0.1782988,-0.01946211,0.8562572,1.353012,0.1969643,0.3422463,1.344405,0.2704445,292.4494,98.95375,147.3209,True
3,1.233335,-0.9589917,0.314694,-0.1920448,-1.389665,-4.643943,-1.942643,0.5976276,1.233766,0.4088807,-1.220951,0.01830033,20.2,1.8,-0.3561355,-0.2184863,0.4722787,-0.3368164,1.560671,0.4946332,0.7510903,1.318955,0.3376133,-0.1426108,0.2015503,-0.1371403,-1.031755,0.1810818,-0.01893241,0.8559015,1.353056,0.1969907,0.3421526,1.349394,0.2708466,293.0419,98.43123,147.9859,True
3,1.244446,-0.9249128,0.3221104,-0.2016483,-1.392255,-4.647678,-1.932819,0.5967592,1.235556,0.4085972,-1.221128,-0.01648882,20.2,1.8,-0.3457198,-0.1961017,0.4391922,-0.3342283,1.551378,0.5067303,0.7504988,1.319567,0.3371775,-0.1533358,0.1962544,-0.1445126,-1.033619,0.1833713,-0.01809192,0.8556695,1.352993,0.1970332,0.3420341,1.354308,0.2712119,293.6093,97.9506,148.5709,True
3,1.255558,-0.8886921,0.3168064,-0.2026495,-1.394633,-4.65099,-1.923413,0.5957676,1.237487,0.4084272,-1.221272,-0.01326439,20.2,1.8,-0.3508066,-0.2067928,0.4701099,-0.3301361,1.534757,0.526643,0.7499515,1.320328,0.3368108,-0.1611222,0.1803723,-0.1775149,-1.03677,0.1849781,-0.01674782,0.8554121,1.352957,0.1970224,0.3419365,1.359123,0.2715545,294.148,97.51596,149.117,True
3,1.266669,-0.8673825,0.3051318,-0.1972367,-1.396753,-4.653909,-1.913908,0.5948478,1.239327,0.4082129,-1.221603,-0.03030639,22.4,2.2,-0.3504282,-0.1961971,0.5074111,-0.3251517,1.518912,0.5455161,0.7493917,1.321057,0.3363066,-0.1655791,0.1836285,-0.1987734,-1.039648,0.1873983,-0.01598988,0.8552201,1.352885,0.1971259,0.341903,1.363827,0.2719058,294.6501,97.12475,149.6077,True
3,1.27778,-0.8375179,0.2678654,-0.1948657,-1.397598,-4.656328,-1.905294,0.5939935,1.241314,0.4080195,-1.221658,-0.005052204,22.4,2.2,-0.324638,-0.1856421,0.5295619,-0.3204901,1.503684,0.562764,0.7489015,1.321995,0.3358903,-0.1709939,0.1921859,-0.2093536,-1.042329,0.1901317,-0.01532117,0.8549038,1.35286,0.1971686,0.3419745,1.368398,0.2723301,295.1432,96.78224,150.0356,True
3,1.288891,-0.8193922,0.2476091,-0.2000616,-1.398732,-4.659261,-1.896289,0.5932071,1.243101,0.4077966,-1.221173,0.0441736,22.4,2.2,-0.3032101,-0.1740036,0.53897,-0.3161311,1.488796,0.5794543,0.7483834,1.322771,0.3353469,-0.1901955,0.1954132,-0.2134412,-1.044905,0.1926212,-0.01393872,0.8545297,1.352724,0.197073,0.3420632,1.372898,0.2728409,295.6387,96.43243,150.4798,True
3,1.300002,-0.7778119,0.2187532,-0.2222142,-1.400825,-4.665711,-1.879085,0.5916495,1.246741,0.4073994,-1.221618,-0.04129397,27.7,2.7,-0.3110963,-0.1474391,0.5998202,-0.3051935,1.45478,0.6189144,0.7472404,1.324309,0.3340373,-0.1944578,0.1698312,-0.2092092,-1.049389,0.1959964,-0.01107742,0.8537203,1.352793,0.1970968,0.3421823,1.377313,0.2734023,296.1149,96.0822,150.9903,True
3,1.311113,-0.7586462,0.2283732,-0.2201265,-1.402829,-4.668892,-1.870753,0.5907822,1.248533,0.4072037,-1.213403,0.75144,27.7,2.7,-0.3392966,-0.1527896,0.6639906,-0.2984626,1.429999,0.6475396,0.7466391,1.325218,0.3334916,-0.1911195,0.1569973,-0.1922296,-1.05095,0.197445,-0.009799634,0.8532782,1.352788,0.197119,0.3420323,1.381934,0.2738699,296.5229,95.95644,151.2841,True
3,1.322224,-0.7405545,0.2412329,-0.2095461,-1.405168,-4.671714,-1.862718,0.5898492,1.250406,0.4069512,-1.220887,-0.6906612,27.7,2.7,-0.3391602,-0.1304582,0.6746631,-0.2928753,1.411911,0.6685807,0.745926,1.325989,0.3329692,-0.1847043,0.1548456,-0.1880287,-1.052887,0.19935,-0.008789496,0.8528751,1.352749,0.1970713,0.341328,1.387584,0.2742183,296.6894,96.25505,151.1537,True
3,1.333336,-0.7192805,0.2519642,-0.1978698,-1.407656,-4.67432,-1.854979,0.5889584,1.252166,0.4067223,-1.222191,-0.1125946,27.7,2.7,-0.3097203,-0.1144862,0.6275432,-0.2891777,1.398449,0.6839101,0.7452713,1.32678,0.3324695,-0.1804769,0.1591128,-0.1923133,-1.055146,0.2014876,-0.008039018,0.8523771,1.352736,0.1971462,0.3414171,1.393098,0.2747853,297.3088,96.05653,151.5316,True
3,1.344447,-0.7001159,0.2573333,-0.1925706,-1.409968,-4.677112,-1.847257,0.5880585,1.254035,0.4065106,-1.222119,0.006721175,27.7,2.7,-0.2982954,-0.1230226,0.5997081,-0.2860693,1.380547,0.7040652,0.7446437,1.327658,0.3320441,-0.1816353,0.1601937,-0.2008273,-1.057764,0.2034944,-0.006731939,0.8519648,1.352712,0.1971536,0.3421425,1.398171,0.2755256,298.1653,95.4046,152.3501,True
3,1.355558,-0.6873326,0.2541334,-0.1957397,-1.411993,-4.680117,-1.839386,0.5871781,1.255712,0.4062982,-1.221973,0.01289872,28.3,3,-0.3042945,-0.1655215,0.5379059,-0.2853737,1.362588,0.7248064,0.7439715,1.328488,0.3315945,-0.1924257,0.155981,-0.2156501,-1.060663,0.2052497,-0.005101551,0.8515323,1.352722,0.1971471,0.3430741,1.402826,0.2763043,299.0311,94.71632,153.2086,True
3,1.366669,-0.6734495,0.2327411,-0.2115779,-1.413047,-4.683346,-1.831777,0.5861859,1.25738,0.4061503,-1.221635,0.03050363,28.3,3,-0.3138978,-0.1985712,0.5496309,-0.282898,1.337587,0.7527944,0.7432578,1.329286,0.3310726,-0.1967975,0.1528091,-0.2262752,-1.063554,0.2069393,-0.003459979,0.8510911,1.3527,0.1971054,0.3438812,1.407119,0.2770261,299.7708,94.19478,153.8848,True
3,1.37778,-0.6702167,0.2018519,-0.2113952,-1.413613,-4.68595,-1.823993,0.5851749,1.259125,0.4059544,-1.221524,0.01023614,28.3,3,-0.3254474,-0.1868482,0.5657342,-0.2790487,1.315766,0.7778622,0.7423936,1.330057,0.3305645,-0.2032463,0.1485601,-0.2304789,-1.066142,0.2086475,-0.001720668,0.8506112,1.352775,0.1970675,0.3443561,1.411161,0.2776461,300.3387,93.90379,154.3142,True
3,1.388891,-0.6702167,0.2018519,-0.2113952,-1.413613,-4.68595,-1.823993,0.5851749,1.259125,0.4059544,-1.222221,-0.06324683,28.3,3,-0.3254474,-0.1868482,0.5657342,-0.2790487,1.315766,0.7778622,0.7423936,1.330057,0.3305645,-0.2032463,0.1485601,-0.2304789,-1.066142,0.2086475,-0.001720668,0.8506112,1.352775,0.1970675,0.3445144,1.414962,0.2781779,300.7893,93.80072,154.5522,True
3,1.400002,-0.6509908,0.1603229,-0.2122049,-1.413333,-4.688375,-1.817021,0.5840859,1.260892,0.4057052,-1.230024,-0.7120374,28.3,3,-0.312684,-0.1357331,0.5497283,-0.2747914,1.301461,0.7947853,0.7414984,1.330889,0.3300951,-0.2158472,0.1442565,-0.2101329,-1.067834,0.2103129,0.000294013,0.8500503,1.35281,0.1971312,0.3447466,1.418198,0.2786869,301.192,93.73529,154.7873,True
3,1.411114,-0.6286214,0.1476114,-0.2014726,-1.414126,-4.690505,-1.81022,0.5831558,1.262524,0.4054475,-1.224339,0.5267491,26.4,2.9,-0.3097103,-0.09413005,0.5124844,-0.2714411,1.291013,0.80817,0.7406629,1.331745,0.3296208,-0.2231545,0.146357,-0.1930122,-1.069415,0.2124268,0.002123605,0.8495544,1.352855,0.1971796,0.34544,1.420153,0.2791483,301.7031,93.45779,155.2117,True
3,1.422225,-0.604156,0.1647154,-0.193027,-1.415977,-4.692843,-1.803856,0.5824569,1.264072,0.4050596,-1.225739,-0.1318442,26.4,2.9,-0.3152491,-0.06531306,0.4816863,-0.2684344,1.27997,0.8225967,0.739877,1.332641,0.3291514,-0.2293351,0.1697445,-0.1726496,-1.0706,0.215562,0.003413906,0.8489944,1.352918,0.1972778,0.3453414,1.42228,0.2792521,301.8249,93.54984,155.198,True
3,1.433336,-0.5946125,0.1882081,-0.1846171,-1.418508,-4.695167,-1.797138,0.5814822,1.265717,0.4048662,-1.227976,-0.2012225,26.4,2.9,-0.338736,-0.07910962,0.4808172,-0.2659092,1.260259,0.8462527,0.7391483,1.333447,0.3286183,-0.218659,0.1729132,-0.1695434,-1.072461,0.2178024,0.004467187,0.8484294,1.352932,0.1974118,0.3446981,1.424885,0.2790625,301.7714,93.90224,154.8798,True
3,1.444447,-0.588257,0.2159257,-0.1826439,-1.421421,-4.697885,-1.790381,0.5803635,1.267184,0.4046283,-1.23078,-0.2529221,26.4,2.9,-0.368354,-0.1046496,0.5108755,-0.2631294,1.235454,0.8753192,0.7384115,1.334146,0.3280771,-0.2241235,0.1708323,-0.1833439,-1.074911,0.2200108,0.006245113,0.8478521,1.352932,0.1974664,0.3440375,1.427897,0.2787565,301.6957,94.14981,154.6191,True
3,1.455558,-0.5893123,0.2074084,-0.1815294,-1.422998,-4.700292,-1.783388,0.5792373,1.268777,0.4044182,-1.233005,-0.1994142,26.4,2.9,-0.3905925,-0.1419271,0.5366097,-0.2608396,1.206463,0.9084411,0.7376302,1.334684,0.3272123,-0.2306802,0.1826093,-0.2024273,-1.07778,0.2227649,0.007742874,0.847303,1.35297,0.1975956,0.3437454,1.431234,0.2785011,301.7726,94.23442,154.4963,True
3,1.466669,-0.5818058,0.1680278,-0.177047,-1.423002,-4.70224,-1.776821,0.5780434,1.270498,0.4042645,-1.23572,-0.2445525,23.9,2.4,-0.4012325,-0.1163267,0.5292914,-0.2578377,1.188022,0.9309603,0.7366312,1.335584,0.3266563,-0.2381885,0.2039427,-0.2086911,-1.08024,0.2262241,0.009130381,0.8468584,1.352874,0.1976264,0.3438717,1.434959,0.2784299,302.1148,94.16335,154.5015,True
3,1.47778,-0.5636224,0.1126453,-0.1799096,-1.422016,-4.704208,-1.77089,0.5768452,1.272126,0.403986,-1.238371,-0.2382189,23.9,2.4,-0.3928048,-0.06733967,0.5026873,-0.2544512,1.174179,0.9483477,0.7356467,1.336435,0.3261986,-0.2540701,0.2316359,-0.2010111,-1.082193,0.2302536,0.01052588,0.8462716,1.352932,0.1977172,0.3443998,1.439006,0.2786341,302.7197,93.95456,154.705,True
3,1.488891,-0.551899,0.09988736,-0.1766276,-1.422304,-4.706131,-1.764888,0.5760059,1.27365,0.4036431,-1.241795,-0.308909,23.9,2.4,-0.3896333,-0.02791589,0.4878096,-0.2509012,1.160859,0.9653088,0.7345438,1.337343,0.3256826,-0.2582574,0.2262899,-0.1924612,-1.083934,0.2328187,0.01226758,0.8456612,1.35301,0.197803,0.3452484,1.443286,0.2790625,303.4753,93.71418,155.0645,True
3,1.500003,-0.5199338,0.1021522,-0.1787827,-1.423658,-4.70906,-1.759678,0.5747184,1.275333,0.4035399,-1.245674,-0.3497621,23.9,2.4,-0.4069322,-0.00863649,0.4549745,-0.2482759,1.14896,0.9820001,0.7333931,1.338186,0.3253162,-0.2729819,0.1974818,-0.168965,-1.084957,0.2341658,0.01517549,0.8449917,1.353012,0.1978576,0.3463207,1.44765,0.27956,304.3351,93.48769,155.5188,True
3,1.511114,-0.4933329,0.1246118,-0.1725141,-1.425543,-4.711371,-1.754639,0.5736148,1.27661,0.4031825,-1.248928,-0.292318,21.7,1.8,-0.4142461,-0.001194283,0.4678377,-0.2450982,1.129918,1.005254,0.732231,1.33897,0.3248088,-0.2707818,0.1846721,-0.159427,-1.086368,0.2361244,0.01717686,0.8444465,1.353039,0.1980608,0.3475458,1.451862,0.2799645,305.2114,93.26817,155.9864,True
3,1.522225,-0.4784625,0.1503077,-0.1524105,-1.427844,1.570355,-1.749623,0.5723875,1.277861,0.4030087,-1.253165,-0.3826285,21.7,1.8,-0.4159228,0.03176191,0.5052224,-0.2400824,1.107313,1.031777,0.731086,1.339729,0.3245549,-0.2675389,0.1921143,-0.1551754,-1.087886,0.2388463,0.01875292,0.8438115,1.353114,0.1981897,0.3487954,1.45587,0.2802125,306.0044,93.08402,156.2947,True
3,1.533336,-0.4731805,0.1589708,-0.1226099,-1.429572,1.569841,-1.744356,0.5710378,1.279059,0.4026878,-1.256681,-0.3159595,21.7,1.8,-0.3883521,0.02636725,0.4953856,-0.2374453,1.087365,1.054725,0.7300512,1.340503,0.3242159,-0.2718374,0.2155615,-0.1604032,-1.089891,0.2424948,0.02040168,0.8430656,1.35324,0.1982987,0.3498087,1.459757,0.2803882,306.7846,92.93924,156.4279,True
3,1.544447,-0.4678599,0.1558822,-0.1055429,-1.431057,1.568955,-1.739226,0.5697384,1.280392,0.4024472,-1.25997,-0.2957698,21.7,1.8,-0.3513845,0.02417789,0.4609539,-0.2354693,1.072806,1.071411,0.7291192,1.341128,0.3237817,-0.2611467,0.2240647,-0.1572831,-1.091469,0.2456797,0.02145096,0.8423538,1.353304,0.1984396,0.3506045,1.463321,0.2805791,307.4709,92.73003,156.6247,True
3,1.555558,-0.4529429,0.1399321,-0.09478769,-1.431566,1.568263,-1.734582,0.5686027,1.281689,0.4020467,-1.263045,-0.2761902,21.7,1.8,-0.3282289,-0.02697879,0.4457488,-0.2350186,1.051453,1.095205,0.7282103,1.341856,0.3232818,-0.2513304,0.2261274,-0.1317933,-1.091891,0.2487084,0.02255218,0.8415027,1.353384,0.1986537,0.3511299,1.466573,0.2807876,308.021,92.46746,156.9112,True
3,1.566669,-0.4358836,0.1271327,-0.1000266,-1.432283,1.566816,-1.730063,0.5676003,1.28289,0.4016702,-1.266762,-0.3350981,20.8,1.9,-0.3404469,-0.07165244,0.4031702,-0.2358911,1.034187,1.116074,0.7272276,1.342568,0.3228927,-0.2618698,0.2229165,-0.1189203,-1.09278,0.2514892,0.02465235,0.8407383,1.35347,0.1986711,0.3513903,1.469582,0.2809156,308.4239,92.23579,157.2358,True
3,1.577781,-0.4145523,0.1143219,-0.1063293,-1.432796,1.56533,-1.726034,0.5665067,1.284106,0.4011853,-1.270867,-0.3700314,20.8,1.9,-0.3720567,-0.1129861,0.3373759,-0.2371342,1.021742,1.13356,0.7260894,1.343135,0.3222616,-0.2640057,0.2175922,-0.118915,-1.094029,0.2540586,0.0265099,0.8400419,1.353567,0.1987433,0.3514818,1.472423,0.2809079,308.705,92.13428,157.4495,True
3,1.588892,-0.3900343,0.1217205,-0.117086,-1.433877,1.563507,-1.721848,0.565425,1.28524,0.4007525,-1.274784,-0.3525418,20.8,1.9,-0.3934666,-0.09058195,0.3173817,-0.2364216,1.008765,1.150975,0.7248149,1.344095,0.3219759,-0.2544424,0.2090735,-0.1211491,-1.095305,0.2564725,0.02778689,0.8394346,1.353609,0.1988289,0.3515891,1.475069,0.2807242,308.9384,92.13592,157.5535,True
3,1.600003,-0.3740959,0.134502,-0.1191899,-1.435642,1.562015,-1.718389,0.5641816,1.286303,0.4003768,-1.278938,-0.3744275,20.8,1.9,-0.4031763,-0.06708187,0.2993991,-0.2352029,0.9980059,1.16635,0.7235945,1.344798,0.321594,-0.2522558,0.1962674,-0.113747,-1.096256,0.2584399,0.02959012,0.8388047,1.353686,0.1988602,0.351803,1.477578,0.2803939,309.1993,92.20278,157.5293,True
3,1.611114,-0.3496352,0.163338,-0.1108218,-1.438208,1.560692,-1.715224,0.5629374,1.287257,0.4000468,-1.282524,-0.3221326,20.8,1.9,-0.4019539,-0.008577496,0.3005776,-0.2324412,0.9847477,1.183421,0.7225195,1.345005,0.3204398,-0.2544649,0.1973576,-0.1201078,-1.097671,0.2611351,0.03149534,0.8382279,1.353773,0.1988575,0.3521072,1.480056,0.2799585,309.5396,92.26376,157.4501,True
3,1.622225,-0.3347476,0.1761804,-0.1023602,-1.440378,1.559587,-1.711882,0.5616401,1.288281,0.3997047,-1.286842,-0.3896476,18.1,1.6,-0.3866371,0.04562677,0.3293065,-0.2287932,0.9690862,1.202307,0.7213809,1.345549,0.3198302,-0.2461112,0.1973988,-0.1382963,-1.09977,0.2636655,0.03278351,0.8375736,1.353849,0.198875,0.3524744,1.482573,0.2795165,309.9436,92.28967,157.3402,True
3,1.633336,-0.3145311,0.1730788,-0.08420865,-1.44184,1.559347,-1.708965,0.5604032,1.289212,0.3994267,-1.290709,-0.34805,18.1,1.6,-0.3917198,0.04458438,0.3549773,-0.2264326,0.9486997,1.226936,0.7204199,1.346072,0.3194263,-0.2258978,0.1963213,-0.1395536,-1.101328,0.2662303,0.03359578,0.8370178,1.353831,0.1989026,0.3528556,1.485137,0.2791862,310.4143,92.21735,157.2918,True
3,1.644447,-0.2932054,0.1529552,-0.06916213,-1.442822,1.55893,-1.706423,0.5591689,1.29004,0.3990519,-1.29394,-0.2902475,18.1,1.6,-0.3906621,0.03393222,0.3570799,-0.2251367,0.9317563,1.247768,0.7194176,1.346591,0.3188245,-0.2161982,0.1994756,-0.1279164,-1.102254,0.2688687,0.03443734,0.8363321,1.353917,0.1989691,0.3532007,1.487702,0.2790655,310.9007,92.05933,157.3672,True
3,1.655559,-0.2825528,0.1487326,-0.06273886,-1.444167,1.558275,-1.703541,0.5579157,1.290995,0.3987293,-1.297561,-0.3264082,18.1,1.6,-0.4072103,0.003217667,0.3060328,-0.2254893,0.9244459,1.260221,0.7183385,1.347541,0.3185725,-0.2307999,0.2089933,-0.09473583,-1.10212,0.2719624,0.0362134,0.8356379,1.354064,0.199142,0.3534745,1.490236,0.2791522,311.3525,91.87331,157.5771,True
3,1.66667,-0.2623177,0.1519636,-0.06167814,-1.445842,1.55737,-1.701178,0.5566736,1.291818,0.3982422,-1.300884,-0.2994175,21.4,1.9,-0.4128544,0.007562831,0.2698706,-0.2247804,0.9175766,1.271622,0.7171651,1.348282,0.3181405,-0.2435236,0.2068717,-0.08823502,-1.102908,0.2746463,0.03809679,0.8348041,1.354286,0.1993084,0.3537217,1.492584,0.2793641,311.782,91.66048,157.9129,True
3,1.677781,-0.2346584,0.1765352,-0.05647525,-1.448506,1.556554,-1.699404,0.5553848,1.292571,0.397742,-1.303076,-0.196568,21.4,1.9,-0.4013077,0.04272234,0.2389862,-0.2226403,0.9103036,1.282614,0.7158883,1.34881,0.3177626,-0.2540802,0.2036571,-0.07749218,-1.103295,0.2770435,0.04018896,0.8340734,1.35448,0.1993926,0.3538792,1.494702,0.2795789,312.1954,91.47907,158.252,True
3,1.688892,-0.220846,0.1947196,-0.04697902,-1.451289,1.556022,-1.697285,0.5541571,1.293411,0.3972876,-1.305681,-0.2355097,21.4,1.9,-0.3938842,0.0768213,0.2251253,-0.2201204,0.9041631,1.292614,0.7147068,1.349314,0.3172755,-0.2550226,0.2025531,-0.06469656,-1.103419,0.2794645,0.04186622,0.8333281,1.354676,0.1994529,0.3538405,1.496693,0.2797317,312.5387,91.34026,158.512,True
3,1.700003,-0.2017114,0.2182451,-0.03644979,-1.454532,1.555576,-1.695678,0.5529129,1.294052,0.3968947,-1.308069,-0.2152714,21.4,1.9,-0.3852742,0.09914665,0.2282894,-0.2177704,0.8941472,1.30636,0.713613,1.350146,0.3169725,-0.2345562,0.2003331,-0.04040015,-1.103054,0.2818012,0.04273388,0.8324658,1.354766,0.199337,0.3535916,1.49854,0.2798155,312.8312,91.21286,158.7269,True
3,1.711114,-0.1942775,0.2215263,-0.02367868,-1.457091,1.555446,-1.693573,0.551764,1.294635,0.3965786,-1.309206,-0.101374,21.4,1.9,-0.3763146,0.06594898,0.2814404,-0.2172154,0.869665,1.333834,0.7126948,1.350552,0.3161507,-0.2226187,0.1927915,-0.0160358,-1.102508,0.2838297,0.04394056,0.8317353,1.354773,0.199259,0.353108,1.500249,0.2798694,313.0523,91.05643,158.919,True
3,1.722225,-0.188899,0.186361,-0.02666473,-1.45793,1.55496,-1.691606,0.5506032,1.295274,0.3962359,-1.310887,-0.152238,17.9,2,-0.376295,0.02970801,0.2930939,-0.2172836,0.8519511,1.35532,0.7116977,1.351027,0.3156087,-0.219246,0.1916706,0.003106067,-1.10175,0.2861477,0.04522074,0.8309559,1.354917,0.1992891,0.3524187,1.501845,0.2799307,313.1715,90.90235,159.0914,True
3,1.733337,-0.1877507,0.1394052,-0.0412949,-1.457814,1.554064,-1.689436,0.5494286,1.296001,0.3958845,-1.311451,-0.04968249,17.9,2,-0.3776767,-0.008639961,0.2685462,-0.2185209,0.8405327,1.370659,0.7106202,1.351533,0.3150253,-0.2296681,0.204418,0.02559812,-1.100764,0.2893544,0.04662396,0.8301778,1.35506,0.199379,0.3516263,1.503243,0.2800556,313.2504,90.74891,159.2679,True
3,1.744448,-0.1759567,0.09457411,-0.05913462,-1.457292,1.55286,-1.687687,0.5481991,1.296716,0.3955688,-1.312472,-0.09255084,17.9,2,-0.3563191,0.02114309,0.2662685,-0.2166354,0.8285754,1.385644,0.7094495,1.352162,0.3145576,-0.2361044,0.2161578,0.01929856,-1.100616,0.2924923,0.04804795,0.8294187,1.355232,0.199455,0.3508066,1.504444,0.2802261,313.2902,90.63002,159.4713,True
3,1.755559,-0.1524646,0.05835035,-0.06529817,-1.456791,1.55198,-1.686574,0.5470153,1.297436,0.3952799,-1.313127,-0.05862344,17.9,2,-0.3365317,0.06702058,0.2075441,-0.2142465,0.8305575,1.386964,0.7079663,1.352896,0.3143642,-0.239476,0.2002327,0.001174599,-1.101165,0.2944066,0.04984958,0.8286965,1.355436,0.1995094,0.349979,1.505513,0.2803403,313.3477,90.61946,159.6422,True
3,1.76667,-0.1332646,0.04237957,-0.06838708,-1.456641,1.551117,-1.685616,0.5458264,1.298135,0.3949871,-1.314236,-0.100494,14.8,2.2,-0.3056327,0.1245023,0.1924445,-0.2107434,0.8261659,1.39367,0.7067314,1.353482,0.3139975,-0.2406276,0.1938684,-0.007359486,-1.101403,0.2966763,0.05156812,0.8278254,1.355709,0.1996472,0.3491329,1.506549,0.2803101,313.4293,90.70001,159.7134,True
3,1.777781,-0.09918337,0.04354905,-0.05878209,-1.457267,1.550751,-1.68562,0.5446919,1.298756,0.3947694,-1.315421,-0.1072269,14.8,2.2,-0.290763,0.1553192,0.1796309,-0.2081729,0.817271,1.404964,0.7055606,1.353455,0.3132975,-0.2352959,0.185333,-0.00636005,-1.101267,0.2986073,0.05305763,0.8271211,1.355853,0.199729,0.3482746,1.507561,0.2801194,313.5389,90.8078,159.6799,True
3,1.788892,-0.07150541,0.04370791,-0.03852273,-1.457888,1.550933,-1.685632,0.5435472,1.299314,0.3945768,-1.316036,-0.0551961,14.8,2.2,-0.3004761,0.1596304,0.1648145,-0.2061457,0.8121732,1.413571,0.7044387,1.353984,0.3129082,-0.2267456,0.1746718,-0.00221426,-1.101154,0.3005493,0.05442889,0.8263021,1.355998,0.1997399,0.347408,1.508524,0.2797975,313.6521,90.88499,159.5958,True
3,1.800003,-0.05660842,0.04701254,-0.02361387,-1.458624,1.55116,-1.685474,0.5423727,1.299774,0.3943503,-1.317224,-0.1080017,14.8,2.2,-0.2952858,0.1254983,0.1583161,-0.2061883,0.8044725,1.424144,0.7034452,1.35458,0.3130105,-0.2096253,0.1629099,0.007183336,-1.100675,0.3020918,0.05546725,0.8255169,1.356154,0.1997278,0.3465188,1.509425,0.2794061,313.7444,90.93381,159.4798,True
3,1.811115,-0.04276632,0.04285763,-0.008656442,-1.459018,1.55164,-1.68542,0.5413427,1.300171,0.3942115,-1.317427,-0.01765187,14.8,2.2,-0.2592368,0.1009079,0.1462467,-0.2059124,0.7964699,1.433596,0.7026967,1.355206,0.3125916,-0.183006,0.1245282,0.01003172,-1.100437,0.3023635,0.0564702,0.8247286,1.356327,0.1996715,0.3456137,1.5102,0.2790385,313.8217,90.92053,159.3865,True
3,1.822226,-0.02569501,0.02266035,-0.005330608,-1.458582,1.551767,-1.685743,0.5403255,1.300582,0.3939846,-1.317342,0.007958183,8.3,1.7,-0.2347235,0.09338744,0.1491969,-0.2049185,0.7885334,1.44307,0.7017878,1.355692,0.3122444,-0.1830171,0.1010856,0.01104116,-1.100183,0.3026809,0.05829287,0.8239295,1.356517,0.1995962,0.3446594,1.510837,0.2787366,313.8791,90.8597,159.3637,True
3,1.833337,-0.003265842,-0.009371974,-0.02323816,-1.457326,1.550816,-1.686159,0.5383018,1.301316,0.3934786,-1.317482,-0.01288082,8.3,1.7,-0.1905262,0.07844966,0.0955146,-0.2038282,0.7840171,1.450584,0.6994149,1.356029,0.3114076,-0.1647901,0.04669461,0.03098377,-1.098778,0.3023591,0.06181543,0.8222364,1.356999,0.1995285,0.3436456,1.511339,0.2785088,313.8968,90.79673,159.387,True
3,1.844448,0.008465664,-0.01475146,-0.0306525,-1.456576,1.550479,-1.686576,0.5372586,1.301618,0.3929286,-1.31832,-0.07640569,8.3,1.7,-0.1703421,0.1178716,0.08052304,-0.2007501,0.7813379,1.454574,0.6982843,1.356293,0.3109627,-0.1560408,0.04342179,0.05645644,-1.097405,0.3027854,0.06319495,0.8213248,1.357156,0.1995058,0.342496,1.511822,0.2783071,313.9603,90.76626,159.4574,True
3,1.855559,0.02123315,-0.004049558,-0.02537883,-1.456921,1.550362,-1.687246,0.5362895,1.301865,0.3926334,-1.317904,0.03867207,8.3,1.7,-0.1638455,0.15088,0.08370949,-0.1980108,0.7784498,1.459135,0.6972167,1.356778,0.3105903,-0.1472812,0.05506498,0.08091292,-1.095634,0.3038516,0.06410895,0.8205341,1.35734,0.1994786,0.3409988,1.512406,0.2780104,314.0876,90.79736,159.5121,True
3,1.86667,0.02123315,-0.004049558,-0.02537883,-1.456921,1.550362,-1.687246,0.5362895,1.301865,0.3926334,-1.318132,-0.02122192,8.3,1.7,-0.1638455,0.15088,0.08370949,-0.1980108,0.7784498,1.459135,0.6972167,1.356778,0.3105903,-0.1472812,0.05506498,0.08091292,-1.095634,0.3038516,0.06410895,0.8205341,1.35734,0.1994786,0.339461,1.512685,0.2776774,314.0056,90.86183,159.5082,True
3,1.877781,0.04567507,0.02593762,-0.003166629,-1.458252,1.550739,-1.688982,0.5341912,1.302158,0.3921859,-1.317713,0.03848051,5.9,1.6,-0.1702947,0.1700881,0.07420265,-0.193549,0.7744331,1.467157,0.6951109,1.357433,0.3100941,-0.1340834,0.07945032,0.1245494,-1.091416,0.3066394,0.06567941,0.8187412,1.357707,0.1993251,0.3380903,1.512555,0.2773085,313.7295,90.95258,159.452,True
3,1.888893,0.04780016,0.02595516,0.00109961,-1.4584,1.55095,-1.689571,0.5331546,1.3023,0.3919899,-1.319299,-0.145359,5.9,1.6,-0.1669399,0.1444779,0.09759489,-0.1924656,0.7627351,1.480484,0.6942375,1.357413,0.3094678,-0.1213379,0.07092592,0.121211,-1.090176,0.3071413,0.06636118,0.8178427,1.357908,0.1992993,0.3370054,1.512204,0.2769686,313.461,91.06026,159.3069,True
3,1.900004,0.04569577,0.009954073,-0.002004108,-1.457974,1.550887,-1.69002,0.532114,1.302384,0.3917756,-1.318447,0.07910979,5.9,1.6,-0.1479815,0.1210061,0.07927898,-0.1920736,0.7601748,1.483814,0.6931148,1.357886,0.3096113,-0.1193185,0.08374566,0.1084485,-1.089183,0.3086356,0.06705627,0.8170048,1.358007,0.1992559,0.335684,1.512256,0.2766189,313.5259,91.0012,159.292,True
3,1.911115,0.04569691,0.00783111,0.0001417794,-1.457853,1.550977,-1.690512,0.5310567,1.30258,0.3916447,-1.318113,0.02964395,5,10.1,-0.1418963,0.09441218,0.0535818,-0.1918845,0.7630635,1.482382,0.6919837,1.358098,0.3093531,-0.1236624,0.1050897,0.09683732,-1.088241,0.3107102,0.06758331,0.8161105,1.3582,0.1992323,0.3343239,1.512303,0.2763447,313.5268,90.92519,159.3042,True
3,1.922226,0.0510338,0.002494158,-0.003019059,-1.457688,1.550825,-1.69126,0.5300311,1.302641,0.3913848,-1.317957,0.01407886,5,10.1,-0.1420449,0.09763072,0.0365854,-0.1906749,0.7615213,1.485377,0.6909158,1.358346,0.3090818,-0.1237734,0.1136518,0.08515134,-1.087459,0.3125567,0.06830316,0.8153039,1.358307,0.1992559,0.3329816,1.512297,0.2761385,313.4588,90.92503,159.3099,True
3,1.933337,0.06807753,0.00667581,-0.01794381,-1.457582,1.55017,-1.69242,0.5291376,1.302621,0.3910973,-1.31797,-0.001242483,5,10.1,-0.1355226,0.1061203,0.04824177,-0.1891239,0.7584292,1.489779,0.6898263,1.3585,0.3087659,-0.118484,0.1094034,0.08189134,-1.086612,0.3138111,0.06891488,0.8145509,1.358577,0.1992278,0.3316964,1.512237,0.2759716,313.3694,90.97647,159.2952,True
3,1.944448,0.07554086,0.004527373,-0.022182,-1.457457,1.549894,-1.693475,0.5281674,1.302644,0.3908753,-1.31825,-0.02558384,5,10.1,-0.1353935,0.1167527,0.05897101,-0.1872596,0.7498451,1.499689,0.6888061,1.358523,0.3084846,-0.1098513,0.1200246,0.09465045,-1.08469,0.315802,0.06922461,0.8136774,1.358898,0.1993122,0.3304669,1.512195,0.2758329,313.2878,91.00447,159.2933,True
3,1.955559,0.07554086,0.004527373,-0.022182,-1.457457,1.549894,-1.693475,0.5281674,1.302644,0.3908753,-1.318714,-0.04223263,5,10.1,-0.1353935,0.1167527,0.05897101,-0.1872596,0.7498451,1.499689,0.6888061,1.358523,0.3084846,-0.1098513,0.1200246,0.09465045,-1.08469,0.315802,0.06922461,0.8136774,1.358898,0.1993122,0.3293215,1.512111,0.2757099,313.2518,91.02068,159.3288,True
3,1.966671,0.07871913,0.01624419,-0.02331373,-1.458006,1.549511,-1.694432,0.5271987,1.302646,0.3906441,-1.317495,0.1118095,5,10.1,-0.1450197,0.1391658,0.04951192,-0.1850348,0.7502524,1.501199,0.6878846,1.358684,0.308064,-0.1033387,0.1359666,0.1052942,-1.082944,0.317991,0.06907414,0.8128445,1.359158,0.1992786,0.3283338,1.51186,0.2756187,313.1464,91.06036,159.3208,True
3,1.977782,0.07658142,0.02157411,-0.0212154,-1.458307,1.549326,-1.69519,0.526227,1.30269,0.3904471,-1.31843,-0.08652697,13.9,13.5,-0.1338447,0.1763408,0.09528579,-0.1816995,0.7374347,1.515078,0.6869057,1.359185,0.3081582,-0.09576635,0.1508438,0.1170037,-1.08086,0.3203885,0.06894258,0.811933,1.359245,0.1991184,0.3276129,1.511521,0.2755731,312.9573,91.12305,159.2792,True
3,1.988893,0.07126925,0.01198863,-0.01903168,-1.458057,1.549219,-1.695802,0.5253081,1.302747,0.3902683,-1.318442,-0.000288162,13.9,13.5,-0.1177135,0.1815695,0.1090452,-0.1797703,0.7251825,1.527628,0.6859541,1.359064,0.3073173,-0.08941186,0.141257,0.1169306,-1.079341,0.3217904,0.0694667,0.811154,1.359341,0.1990805,0.3268954,1.511394,0.2755151,313.0104,91.13334,159.2977,True
3,2.000004,0.07341518,0.00135174,-0.01683712,-1.457701,1.549153,-1.696675,0.5244013,1.302833,0.3900793,-1.318164,0.02531408,13.9,13.5,-0.1074181,0.1560391,0.07800031,-0.1788899,0.7263317,1.527318,0.6850812,1.3592,0.307035,-0.08620366,0.1337908,0.1190103,-1.07786,0.3230747,0.06970638,0.8103579,1.35953,0.1990516,0.3260632,1.511447,0.2754557,313.1507,91.07618,159.3576,True
3,2.011115,0.07025205,-0.01782449,-0.01565273,-1.456799,1.54928,-1.697412,0.5234826,1.302709,0.3899567,-1.317955,0.01885244,13.9,13.5,-0.1101509,0.1284522,0.02362153,-0.1785575,0.7372766,1.518111,0.6839565,1.359446,0.3072379,-0.08314224,0.115704,0.1072128,-1.077004,0.3237042,0.07036711,0.8096968,1.359632,0.1989796,0.3250912,1.511568,0.2753953,313.2477,91.01881,159.4285,True
3,2.022226,0.06494109,-0.02635305,-0.01560556,-1.456269,1.549187,-1.697978,0.5226847,1.302685,0.3897295,-1.318183,-0.02101371,26.5,21.9,-0.1072402,0.1157168,-0.003067687,-0.177644,0.7427996,1.513759,0.6830736,1.359636,0.3070908,-0.08008951,0.1040215,0.09329392,-1.076426,0.3245624,0.07075965,0.8089004,1.359708,0.1989512,0.3240272,1.511635,0.2753097,313.2587,91.00815,159.4817,True
3,2.033337,0.07236087,-0.003938107,-0.009340581,-1.456914,1.549196,-1.699097,0.5219209,1.302579,0.3894408,-1.318042,0.01313439,26.5,21.9,-0.1063549,0.1051087,-0.01694345,-0.1765516,0.7461355,1.511963,0.6821047,1.359264,0.3065484,-0.08231702,0.09766622,0.08371131,-1.075677,0.3256662,0.07125048,0.8081741,1.359816,0.1989083,0.3229295,1.511554,0.2751779,313.2289,91.03041,159.5063,True
3,2.044448,0.07761024,0.03980913,0.001062251,-1.4588,1.549351,-1.700145,0.521184,1.302512,0.3892052,-1.317874,0.01519552,26.5,21.9,-0.1041933,0.0955082,-0.01167822,-0.175824,0.7478499,1.511416,0.6813455,1.359324,0.306313,-0.07923643,0.08810695,0.07193555,-1.075215,0.326371,0.07162865,0.8074738,1.359964,0.198884,0.3218441,1.511247,0.2749762,313.1695,91.06545,159.5018,True
3,2.055559,0.07752904,0.08357761,0.01679072,-1.461096,1.549809,-1.701056,0.5204112,1.30249,0.3890505,-1.31839,-0.04729639,26.5,21.9,-0.09329808,0.09543081,0.01379759,-0.1746901,0.7410575,1.51876,0.6805193,1.359763,0.3065362,-0.06443016,0.08918952,0.06114852,-1.074774,0.3275467,0.07142918,0.8068396,1.359964,0.1988988,0.3207563,1.510848,0.2746931,313.0435,91.10859,159.4604,True
3,2.06667,0.07535673,0.1006699,0.02521104,-1.462757,1.550125,-1.701739,0.5196648,1.302406,0.3888528,-1.318335,0.005416729,26.5,21.9,-0.08271945,0.0677066,0.01256119,-0.1749377,0.7417515,1.518599,0.6799437,1.359786,0.306407,-0.05383139,0.09559619,0.05466964,-1.074343,0.3291049,0.07094927,0.8062586,1.360063,0.1988938,0.3196742,1.510454,0.2743907,312.8889,91.10619,159.4012,True
3,2.077781,0.07107325,0.1081717,0.03474679,-1.464175,1.550592,-1.702382,0.5188737,1.302365,0.3886447,-1.318115,0.02006844,35.8,23.8,-0.08277711,0.04532725,0.01252994,-0.1752861,0.7401401,1.52119,0.6792197,1.360052,0.3064075,-0.05077845,0.0935026,0.0397195,-1.074367,0.3302001,0.07091065,0.8056473,1.360098,0.1988392,0.3185863,1.51019,0.2741725,312.7208,91.04156,159.3535,True
3,2.088892,0.05826812,0.1156897,0.04854425,-1.46582,1.551466,-1.702675,0.5181043,1.302255,0.3884227,-1.317865,0.02258218,35.8,23.8,-0.09154597,0.02621371,-0.009769028,-0.1756312,0.7431961,1.51934,0.6785408,1.359836,0.3060203,-0.04671882,0.08183531,0.0194052,-1.074876,0.3307445,0.07102411,0.805064,1.36015,0.1988313,0.317522,1.51009,0.2741167,312.5839,90.93217,159.388,True
3,2.100003,0.05294141,0.1156742,0.04853538,-1.467056,1.551777,-1.703129,0.5173953,1.302309,0.3882253,-1.317797,0.006161514,35.8,23.8,-0.0915103,0.02833793,-0.006569106,-0.1752221,0.7431225,1.520447,0.6779072,1.360016,0.3059194,-0.04686935,0.05737446,0.006555435,-1.075243,0.3305715,0.07171653,0.8045306,1.360261,0.1989064,0.316539,1.510084,0.2742193,312.5072,90.8194,159.5277,True
3,2.111114,0.04549521,0.1081824,0.04431774,-1.468068,1.552042,-1.703379,0.5167283,1.302263,0.3881755,-1.317433,0.0332071,35.8,23.8,-0.09136723,0.03255256,0.006239705,-0.1749388,0.7387645,1.525573,0.6771173,1.359802,0.3056941,-0.0468915,0.03180745,0.006482562,-1.07518,0.3299583,0.07247633,0.8038249,1.360235,0.199002,0.3156525,1.510138,0.2744238,312.4764,90.66866,159.7598,True
3,2.122225,0.04020867,0.08472505,0.04232078,-1.468245,1.552435,-1.70367,0.516096,1.302291,0.388087,-1.317665,-0.02139804,38.1,31.6,-0.09128786,0.04532523,0.01159168,-0.1739673,0.7372051,1.528115,0.6764792,1.359909,0.3055508,-0.05109119,0.03073476,0.0129099,-1.074782,0.3304241,0.07292587,0.8032829,1.360402,0.1990407,0.314873,1.510234,0.2746608,312.4531,90.4799,160.0425,True
3,2.133336,0.0338457,0.06661111,0.04348759,-1.46842,1.552939,-1.703874,0.515435,1.30235,0.3879924,-1.317549,0.0108018,38.1,31.6,-0.08240808,0.06654921,0.04455629,-0.1724157,0.7295585,1.536388,0.6757345,1.360311,0.3059795,-0.04886831,0.04242937,0.02144243,-1.074197,0.3314329,0.07289285,0.8026962,1.360487,0.1991897,0.3141874,1.510375,0.2748804,312.4548,90.36359,160.2415,True
3,2.144447,0.02854969,0.04635116,0.04147598,-1.468318,1.553394,-1.704033,0.5148405,1.302483,0.3881438,-1.317611,-0.005730992,38.1,31.6,-0.07598692,0.070785,0.04662497,-0.1716003,0.7269547,1.539545,0.6752458,1.360388,0.3059778,-0.04018965,0.06049582,0.03632127,-1.073268,0.3329081,0.07238791,0.8021656,1.36055,0.1993258,0.3136085,1.510492,0.275073,312.4822,90.28539,160.3692,True
3,2.155558,0.02114719,0.01329768,0.03953258,-1.467346,1.553903,-1.704073,0.5142115,1.302712,0.3881409,-1.317574,0.003479092,38.1,31.6,-0.07507544,0.04842731,0.03489028,-0.1719353,0.724297,1.542801,0.6747125,1.360435,0.3057578,-0.03693491,0.06687528,0.04163194,-1.072579,0.3340195,0.07212213,0.8016701,1.360522,0.1994367,0.3130985,1.510592,0.275184,312.5258,90.21773,160.4829,True
3,2.166669,0.01798754,-0.009072196,0.04072669,-1.466493,1.554514,-1.70423,0.5136058,1.302869,0.3880775,-1.31758,-0.0005459342,38.1,31.6,-0.07862131,0.01760451,0.006074823,-0.1728924,0.7319957,1.536278,0.6740994,1.360485,0.3057747,-0.04671163,0.05522629,0.02251292,-1.073044,0.3343474,0.07281828,0.8011733,1.360547,0.1995132,0.3126107,1.5107,0.2751797,312.5653,90.16817,160.5316,True
3,2.17778,0.008464753,-0.0411488,0.02492243,-1.464789,1.554371,-1.704007,0.5130848,1.302994,0.3880262,-1.31751,0.006366093,39,31.9,-0.08288836,0.01015335,0.008234596,-0.1729808,0.7310632,1.538391,0.6735837,1.360881,0.3060467,-0.04584058,0.02544594,0.005378494,-1.073618,0.3335653,0.07373734,0.800782,1.360518,0.1996267,0.3121239,1.510822,0.2750764,312.5903,90.16194,160.4921,True
3,2.188891,0.003146364,-0.04437943,0.02067834,-1.464292,1.554563,-1.703889,0.5125796,1.303058,0.3880255,-1.317662,-0.01388161,39,31.9,-0.0806203,0.01119542,0.02101362,-0.1726181,0.7260103,1.544024,0.6730478,1.360857,0.3059502,-0.04273884,0.007355008,-0.003222943,-1.073954,0.3329626,0.07428622,0.8003227,1.360567,0.1997223,0.3116191,1.510968,0.2748455,312.6129,90.1807,160.4471,True
3,2.200002,0.003129689,-0.02739358,0.00992914,-1.464313,1.554534,-1.704022,0.511469,1.303245,0.3880527,-1.317433,0.02113357,39,31.9,-0.07540025,0.007992618,0.01135662,-0.1726847,0.7271768,1.544449,0.6721044,1.361184,0.3061111,-0.03635688,0.03611721,-0.005321733,-1.073813,0.3347679,0.07429181,0.7994819,1.360651,0.2001357,0.3111252,1.511059,0.2744799,312.644,90.2224,160.3789,True
3,2.211113,-0.00326348,-0.02739869,0.0109898,-1.463994,1.554742,-1.703782,0.5109894,1.303299,0.3880827,-1.317524,-0.008440744,39,31.9,-0.07612047,0.01965532,0.04439101,-0.1719726,0.7194954,1.552928,0.6715804,1.361058,0.3061817,-0.04261926,0.05846844,0.00545314,-1.073262,0.3363907,0.07412669,0.7990618,1.360802,0.200315,0.3106034,1.511107,0.2739922,312.7093,90.34688,160.1877,True
3,2.222224,-0.008593877,-0.02527142,0.0120329,-1.463787,1.554876,-1.703513,0.5104216,1.30339,0.3881271,-1.317884,-0.03284608,39,31.9,-0.07505329,0.01005641,0.04652683,-0.1721776,0.7132738,1.559822,0.6711512,1.360984,0.3060522,-0.04050897,0.06913347,0.002265827,-1.073292,0.337728,0.0738918,0.7986662,1.360675,0.2004273,0.3099466,1.51122,0.2734719,312.7774,90.41513,159.948,True
3,2.233335,-0.01712468,-0.01995258,0.01306497,-1.463789,1.555136,-1.70307,0.5099479,1.303437,0.3881361,-1.317551,0.03077856,39,31.9,-0.07857944,-0.006916545,0.0166736,-0.1728242,0.7202778,1.553962,0.6706429,1.360902,0.3061004,-0.02885415,0.06061853,-0.00424812,-1.073364,0.338181,0.07349472,0.7982903,1.360658,0.2005913,0.3092736,1.511244,0.2730618,312.7527,90.46503,159.7277,True
3,2.244446,-0.01712468,-0.01995258,0.01306497,-1.463789,1.555136,-1.70307,0.5099479,1.303437,0.3881361,-1.317534,0.00128106,39,31.9,-0.07857944,-0.006916545,0.0166736,-0.1728242,0.7202778,1.553962,0.6706429,1.360902,0.3061004,-0.02885415,0.06061853,-0.00424812,-1.073364,0.338181,0.07349472,0.7982903,1.360658,0.2005913,0.308641,1.511191,0.2728069,312.6657,90.52087,159.5825,True
3,2.255557,-0.02354746,-0.001850621,0.01295966,-1.464445,1.555247,-1.702623,0.5094538,1.303494,0.3882318,-1.317866,-0.03029915,39,31.9,-0.06478689,-0.01652067,0.01331364,-0.173237,0.7213189,1.553268,0.6701756,1.361096,0.3063579,-0.03006444,0.05000737,-0.01811254,-1.073975,0.338491,0.07380312,0.797914,1.360594,0.2007124,0.3080982,1.511112,0.2727116,312.54,90.56055,159.5228,True
3,2.266668,-0.02464036,0.0130802,0.01606718,-1.465117,1.555426,-1.702339,0.5089369,1.303559,0.3882763,-1.317473,0.03622241,39,31.9,-0.05299465,-0.01229545,0.02064367,-0.1731667,0.7199259,1.554939,0.6696316,1.361104,0.3064539,-0.03346336,0.03303193,-0.03836777,-1.075084,0.3385196,0.07424973,0.7975044,1.36065,0.2008314,0.3077562,1.510988,0.2727664,312.4241,90.58688,159.535,True
3,2.277779,-0.02785086,0.01947466,0.01709965,-1.465589,1.555678,-1.701927,0.508445,1.303686,0.3884027,-1.317489,-0.001715456,9.9,35.4,-0.04997692,-0.03783413,0.008822989,-0.1742879,0.7234147,1.552107,0.6692166,1.36107,0.3065915,-0.02395388,0.02558728,-0.04593563,-1.075854,0.3386272,0.07413442,0.7970917,1.360658,0.2009544,0.3074733,1.511036,0.2729121,312.4279,90.55675,159.5956,True
3,2.28889,-0.02785243,0.01843436,0.02136701,-1.465778,1.556046,-1.70167,0.5079454,1.303776,0.3884139,-1.317708,-0.01993204,9.9,35.4,-0.05444337,-0.06014849,-0.00606361,-0.1754176,0.7243312,1.552126,0.6688501,1.360918,0.306437,-0.01750815,0.02557196,-0.0406668,-1.076011,0.3391048,0.07379673,0.7967603,1.36069,0.2010744,0.3071995,1.511289,0.2731447,312.5056,90.47595,159.6841,True
3,2.300001,-0.03640742,0.03863748,0.01803636,-1.467041,1.556044,-1.700585,0.5069007,1.30394,0.388402,-1.317643,0.006173965,9.9,35.4,-0.05134801,-0.06868143,-0.01463896,-0.1774294,0.7279181,1.54958,0.6679572,1.361391,0.3068428,-0.01840465,0.03406674,-0.02465276,-1.075904,0.3405504,0.07344306,0.7959217,1.360738,0.2015519,0.3069199,1.511675,0.2734479,312.6111,90.37227,159.8127,True
3,2.311112,-0.03431117,0.05357783,0.0222107,-1.468174,1.556247,-1.7002,0.5063894,1.303995,0.3884199,-1.317227,0.03792485,9.9,35.4,-0.04699975,-0.0655035,-0.007238086,-0.1780014,0.7289032,1.548898,0.6674508,1.361501,0.3068902,-0.02794337,0.03725867,-0.0202901,-1.07593,0.3411521,0.07371736,0.7954446,1.360749,0.2016802,0.3065856,1.512171,0.2737802,312.753,90.27102,159.9616,True
3,2.322223,-0.03112268,0.05678093,0.02219248,-1.46891,1.55638,-1.699989,0.5058583,1.304175,0.3885369,-1.317669,-0.04068667,9.5,35.6,-0.04050858,-0.05382338,0.0001792125,-0.1783237,0.7274191,1.55054,0.6669828,1.36179,0.3070793,-0.02785896,0.03617261,-0.01070087,-1.075597,0.3416221,0.07383854,0.7950651,1.360762,0.2018018,0.3061159,1.51277,0.2740795,312.9032,90.14351,160.148,True
3,2.333334,-0.03112268,0.05678093,0.02219248,-1.46891,1.55638,-1.699989,0.5058583,1.304175,0.3885369,-1.317847,-0.01585565,9.5,35.6,-0.04050858,-0.05382338,0.0001792125,-0.1783237,0.7274191,1.55054,0.6669828,1.36179,0.3070793,-0.02785896,0.03617261,-0.01070087,-1.075597,0.3416221,0.07383854,0.7950651,1.360762,0.2018018,0.3056597,1.513234,0.2743572,312.9639,90.03902,160.3076,True
3,2.344445,-0.01403832,0.03124698,0.02341915,-1.468888,1.556994,-1.700265,0.5047908,1.304568,0.3885303,-1.318279,-0.03938631,9.5,35.6,-0.07663397,-0.0207305,0.002724267,-0.1779162,0.7280543,1.552752,0.6660406,1.362025,0.3071151,-0.04283442,0.01062517,-0.01488724,-1.076062,0.3409865,0.07545268,0.7942733,1.360773,0.2020032,0.3053008,1.513476,0.2746132,312.9292,89.95911,160.4433,True
3,2.355556,-0.01508938,0.0237587,0.01813666,-1.468948,1.557012,-1.700018,0.5042307,1.304682,0.3884764,-1.318355,-0.006605949,9.5,35.6,-0.084846,-0.0005072318,0.03055564,-0.1769452,0.7194697,1.562467,0.6655473,1.36175,0.3067756,-0.03956958,0.003137685,-0.006419932,-1.075903,0.3406702,0.07595894,0.7938961,1.360798,0.2021484,0.3050388,1.513563,0.2747986,312.91,89.95296,160.4932,True
3,2.366668,-0.01507833,0.0183987,0.01283496,-1.468942,1.556893,-1.699802,0.5036511,1.304843,0.3884475,-1.318207,0.0134677,9.8,35.7,-0.08888918,0.02504141,0.04662009,-0.1758102,0.7142267,1.56869,0.664987,1.361865,0.3066957,-0.04381442,0.02018298,-0.005259744,-1.075764,0.3415956,0.07630063,0.7934152,1.36086,0.202323,0.304558,1.513871,0.2748851,312.9975,89.87128,160.5384,True
3,2.377779,-0.01932499,0.01200541,0.01393718,-1.468895,1.557145,-1.699538,0.5031013,1.304877,0.3884308,-1.317981,0.02056387,9.8,35.7,-0.0812517,0.03244191,0.06358566,-0.1753596,0.7089294,1.574596,0.6643693,1.362026,0.3069904,-0.04589685,0.03615732,-0.001995757,-1.075577,0.34273,0.07633658,0.7930225,1.360934,0.202476,0.3039829,1.514147,0.2748732,313.0489,89.84422,160.5741,True
3,2.38889,-0.02358008,0.005633853,0.0182355,-1.468824,1.557559,-1.699161,0.502538,1.305022,0.3885024,-1.317996,-0.001558513,9.8,35.7,-0.07604551,0.04630584,0.04863624,-0.1744104,0.7095777,1.574673,0.6638587,1.36209,0.3070114,-0.04795381,0.05638475,0.004477747,-1.075113,0.3442507,0.07631341,0.7925636,1.360918,0.202611,0.3033583,1.514338,0.2747738,313.0475,89.86412,160.5561,True
3,2.400001,-0.02143805,-0.000748964,0.01934316,-1.468652,1.557879,-1.699071,0.502041,1.305112,0.3885181,-1.317919,0.007168967,9.8,35.7,-0.07621478,0.03141068,0.03476544,-0.1746991,0.7097962,1.575319,0.663393,1.36224,0.30723,-0.04038509,0.06273104,0.01507451,-1.074593,0.3450438,0.07604416,0.792108,1.360877,0.2027042,0.3027209,1.514442,0.2746185,313.0119,89.89952,160.4921,True
3,2.411112,-0.01076757,-0.01135735,0.02367507,-1.468248,1.558328,-1.699383,0.5015551,1.305269,0.3884897,-1.317792,0.01151242,9.8,35.7,-0.08183278,-0.01434496,0.0155343,-0.1763694,0.7139824,1.572399,0.6629263,1.362236,0.30726,-0.03617092,0.04036692,0.011782,-1.074502,0.3447999,0.07635362,0.7917576,1.360943,0.2027919,0.3021185,1.514452,0.2744358,312.9561,89.91563,160.4178,True
3,2.422223,-0.005414087,-0.0252224,0.01949666,-1.467548,1.558446,-1.699503,0.5010549,1.305411,0.3885212,-1.318087,-0.02706173,9.5,33.6,-0.07337593,-0.01861283,0.009087499,-0.176648,0.7116379,1.575161,0.6625398,1.362115,0.3070982,-0.03412322,0.02760546,0.004271244,-1.074692,0.3447606,0.07669744,0.7913316,1.361029,0.2029572,0.3015496,1.514462,0.2742449,312.8884,89.92804,160.3372,True
3,2.433334,-0.004330347,-0.03482053,0.01742323,-1.466844,1.558665,-1.699512,0.500515,1.30555,0.3884888,-1.318496,-0.03722796,9.5,33.6,-0.06692155,-0.0122366,0.01434759,-0.1764536,0.7109491,1.576433,0.6620655,1.362183,0.3071101,-0.02449564,0.0222555,0.008434777,-1.074364,0.3448438,0.07655843,0.7909613,1.361121,0.2030342,0.3010441,1.514478,0.2740586,312.8405,89.94195,160.2811,True
3,2.444445,-0.01390081,-0.04338433,0.01320176,-1.466062,1.558712,-1.698991,0.4999477,1.305651,0.3884759,-1.318337,0.01486593,9.5,33.6,-0.06478886,-0.001588795,0.01222258,-0.1761377,0.7100098,1.57804,0.6615342,1.362369,0.3073249,-0.02334698,0.02648863,0.01803007,-1.07373,0.3453189,0.07673073,0.7905128,1.361136,0.2030427,0.3005854,1.514516,0.273866,312.8345,89.96037,160.2368,True
3,2.455556,-0.01390081,-0.04338433,0.01320176,-1.466062,1.558712,-1.698991,0.4999477,1.305651,0.3884759,-1.317657,0.06120118,9.5,33.6,-0.06478886,-0.001588795,0.01222258,-0.1761377,0.7100098,1.57804,0.6615342,1.362369,0.3073249,-0.02334698,0.02648863,0.01803007,-1.07373,0.3453189,0.07673073,0.7905128,1.361136,0.2030427,0.3001252,1.514559,0.2736688,312.8762,89.99706,160.1706,True
3,2.466667,-0.01177667,-0.04017852,0.01425006,-1.465751,1.558943,-1.698941,0.499399,1.305758,0.3884332,-1.316648,0.0907922,9.5,33.6,-0.06808371,0.002698444,0.001588893,-0.1760168,0.7139131,1.575146,0.6610472,1.362398,0.3073661,-0.02542849,0.03392843,0.02233158,-1.073327,0.3458834,0.07681249,0.7899412,1.361178,0.2031465,0.2996544,1.514543,0.2734793,312.878,90.01481,160.1108,True
3,2.477778,-0.009663325,-0.0327096,0.0163373,-1.465611,1.559199,-1.698893,0.4988722,1.305851,0.3883443,-1.314713,0.174868,10.4,35.3,-0.06810256,0.002704807,-0.001569225,-0.1759902,0.7115644,1.578028,0.6605856,1.362328,0.3070807,-0.01895964,0.04029493,0.0297428,-1.072707,0.3466462,0.07642713,0.7895341,1.36114,0.203104,0.2992197,1.514392,0.2733428,312.8391,90.04719,160.0453,True
3,2.488889,-0.004379986,-0.01243372,0.02048341,-1.466165,1.559482,-1.698973,0.4982069,1.305814,0.3882756,-1.31335,0.1217249,10.4,35.3,-0.07012985,0.004818913,0.009100782,-0.1759087,0.7098146,1.5807,0.6600459,1.362578,0.3072357,-0.0178767,0.03283101,0.0329165,-1.072118,0.3467285,0.07663672,0.7891307,1.361261,0.2032948,0.2986333,1.51429,0.2732239,312.8538,90.07401,160.0018,True
3,2.5,-0.000140164,-0.001759646,0.02255592,-1.466556,1.559762,-1.699143,0.4976786,1.305851,0.3882267,-1.31132,0.1829114,10.4,35.3,-0.06690156,0.00161298,0.01330484,-0.1759322,0.7097755,1.581432,0.6594529,1.362615,0.3072274,-0.01792121,0.02752247,0.02863972,-1.071932,0.346996,0.07669451,0.7886191,1.361304,0.2033489,0.2978562,1.514203,0.2731179,312.8546,90.05405,160.0059,True
3,2.511111,0.006208052,0.016429,0.03417881,-1.467364,1.560534,-1.699481,0.4971336,1.305841,0.3881781,-1.309074,0.2019774,10.4,35.3,-0.06278266,0.008013379,-0.001638532,-0.1757921,0.7127867,1.579097,0.658921,1.36279,0.3073754,-0.0190827,0.02329715,0.01905249,-1.071968,0.3472469,0.07683859,0.7881509,1.361374,0.2034814,0.2968801,1.514057,0.2730286,312.81,90.0175,160.0305,True
3,2.522222,0.008324291,0.02496835,0.03626432,-1.467968,1.56096,-1.699713,0.4966317,1.305854,0.3880765,-1.306562,0.2260814,10.4,35.3,-0.06704222,0.01121999,-0.002660371,-0.175547,0.7135256,1.579181,0.6584339,1.362847,0.3073573,-0.01795929,0.02647698,0.02437729,-1.071503,0.3476943,0.07673979,0.7877202,1.361412,0.2035394,0.2957085,1.513791,0.2729865,312.7049,89.96748,160.0599,True
3,2.533333,0.01148703,0.04522058,0.03721427,-1.46962,1.561619,-1.700158,0.4954715,1.305734,0.3878324,-1.30386,0.2430783,11.1,35.2,-0.07999995,0.01661181,-0.0206465,-0.1750821,0.7198048,1.575234,0.6572291,1.362944,0.3072596,-0.02201953,0.02749014,0.04465649,-1.06996,0.3483007,0.07690597,0.7867829,1.361503,0.2036676,0.2943854,1.513383,0.2730042,312.4992,89.92605,160.0963,True
3,2.544444,0.01148703,0.04522058,0.03721427,-1.46962,1.561619,-1.700158,0.4954715,1.305734,0.3878324,-1.300976,0.2594489,11.1,35.2,-0.07999995,0.01661181,-0.0206465,-0.1750821,0.7198048,1.575234,0.6572291,1.362944,0.3072596,-0.02201953,0.02749014,0.04465649,-1.06996,0.3483007,0.07690597,0.7867829,1.361503,0.2036676,0.2929023,1.512903,0.2730684,312.2794,89.83713,160.2,True
3,2.555555,0.01359096,0.05803669,0.04140373,-1.470825,1.562102,-1.700424,0.4949082,1.305635,0.38779,-1.297459,0.3171006,11.1,35.2,-0.08211724,0.0368513,-0.02481357,-0.1741723,0.7195159,1.576336,0.6567392,1.362697,0.3068719,-0.02304822,0.02428089,0.04891822,-1.069283,0.3483902,0.0771816,0.7863213,1.361568,0.2038388,0.2912413,1.51238,0.2731554,312.0163,89.72472,160.3538,True
3,2.566666,0.01570756,0.06339811,0.04670068,-1.47181,1.562684,-1.700731,0.4943424,1.30557,0.3876734,-1.294345,0.2797536,11.1,35.2,-0.07660119,0.05172946,-0.008871794,-0.1730245,0.7177176,1.578765,0.6560903,1.362683,0.3067937,-0.02631648,0.02110924,0.04147583,-1.069203,0.348518,0.0774868,0.7858368,1.361663,0.2039084,0.2896784,1.511638,0.2732691,311.619,89.76836,160.393,True
3,2.577777,0.01251811,0.05808742,0.05099205,-1.472292,1.563351,-1.700833,0.4938045,1.305507,0.3875728,-1.291028,0.2986714,11.1,35.2,-0.07218583,0.05487176,0.005996352,-0.1725206,0.7148151,1.582238,0.6554945,1.362882,0.307173,-0.01664415,0.03919085,0.04889296,-1.068313,0.3496937,0.07681116,0.7853234,1.361702,0.2039099,0.2881528,1.510885,0.2733899,311.2924,89.76575,160.4378,True
3,2.588888,0.006147941,0.04848362,0.04998076,-1.472592,1.563875,-1.700793,0.4932878,1.305477,0.3874478,-1.287599,0.308542,10.1,38.5,-0.06592266,0.04209147,-0.004719064,-0.1725739,0.7155406,1.581996,0.6550518,1.36265,0.3069861,-0.009109981,0.05408124,0.0552511,-1.067427,0.3509124,0.07604683,0.7847944,1.361724,0.2040007,0.2866552,1.510189,0.2735281,311.0204,89.67754,160.5368,True
3,2.599999,0.0008481694,0.03993477,0.0468325,-1.472839,1.564294,-1.700815,0.4927748,1.305388,0.3873322,-1.283852,0.3375001,10.1,38.5,-0.06623791,0.002722181,-0.02824738,-0.1738954,0.7234646,1.574976,0.6545644,1.362551,0.3069746,-0.008057907,0.06474388,0.05314218,-1.066813,0.3521446,0.07558211,0.7843189,1.361707,0.2040637,0.2851821,1.509561,0.2736554,310.7835,89.57149,160.6837,True
3,2.61111,0.005146023,0.02389993,0.03627976,-1.472544,1.564382,-1.701043,0.4922821,1.305383,0.3871989,-1.280114,0.3365099,10.1,38.5,-0.06536204,-0.01216938,-0.04427514,-0.1746144,0.7302603,1.568967,0.6540414,1.362654,0.3070929,-0.005989354,0.06795934,0.04566963,-1.066609,0.3530852,0.07505108,0.7838993,1.361725,0.2040641,0.2837559,1.508969,0.2737257,310.559,89.49635,160.8201,True
3,2.622221,0.008365103,0.01852266,0.02672817,-1.472562,1.564395,-1.701333,0.491756,1.305271,0.3870544,-1.276542,0.3212907,10.1,38.5,-0.06324691,-0.01002689,-0.04644099,-0.1745074,0.7353454,1.564542,0.6534957,1.362641,0.3070176,-0.007187013,0.04243375,0.03388677,-1.066729,0.3527023,0.07530567,0.7834657,1.361767,0.2040789,0.2823923,1.508397,0.2737091,310.3479,89.45992,160.9039,True
3,2.633332,0.0115455,0.03023586,0.02453187,-1.473656,1.564764,-1.701769,0.4906686,1.305151,0.3868561,-1.273102,0.3092808,8,35.5,-0.06715815,0.03253951,-0.02072385,-0.1726224,0.731653,1.569608,0.6524941,1.362764,0.3070188,-0.0081659,0.04027685,0.0434782,-1.065477,0.3533399,0.07528943,0.7825835,1.361844,0.2041755,0.2810965,1.507811,0.2736068,310.1636,89.45441,160.9273,True
3,2.644443,0.0115455,0.03023586,0.02453187,-1.473656,1.564764,-1.701769,0.4906686,1.305151,0.3868561,-1.269616,0.3136434,8,35.5,-0.06715815,0.03253951,-0.02072385,-0.1726224,0.731653,1.569608,0.6524941,1.362764,0.3070188,-0.0081659,0.04027685,0.0434782,-1.065477,0.3533399,0.07528943,0.7825835,1.361844,0.2041755,0.2797837,1.50724,0.2734213,310.0613,89.48022,160.8963,True
3,2.655554,0.01152809,0.03243763,0.03623909,-1.474615,1.565801,-1.702121,0.4896058,1.304986,0.3868637,-1.265379,0.3821554,8,35.5,-0.06280305,0.03677534,-0.01118595,-0.1716823,0.732622,1.570025,0.651474,1.3627,0.3069315,-0.005984019,0.06689908,0.04566433,-1.064225,0.3558369,0.07406145,0.781707,1.36191,0.2043979,0.2783667,1.506637,0.2731963,309.9416,89.44984,160.8661,True
3,2.666665,0.01046929,0.02818852,0.03839504,-1.474849,1.566287,-1.702258,0.4890961,1.304935,0.3868022,-1.261893,0.3128094,8,35.5,-0.04577897,0.02289288,-0.0103274,-0.1718458,0.7341801,1.568437,0.651014,1.362702,0.3070147,0.003556874,0.06370938,0.04023473,-1.064007,0.3564654,0.07327022,0.7812525,1.361938,0.2043114,0.2769709,1.505918,0.2730067,309.6922,89.48397,160.761,True
3,2.677776,0.01049528,0.01326319,0.03741107,-1.474406,1.56664,-1.702394,0.4886383,1.304869,0.3867431,-1.257779,0.371013,5.4,41.1,-0.02242891,0.01219074,-0.01697173,-0.1722405,0.7362006,1.565894,0.6505052,1.362833,0.3070586,0.01088167,0.0488224,0.0284059,-1.064119,0.3565035,0.0730055,0.7807902,1.361975,0.2042723,0.2754126,1.505255,0.2728866,309.5122,89.4138,160.7502,True
3,2.688887,0.01052007,0.005763633,0.02999616,-1.47428,1.566716,-1.702578,0.4881736,1.304876,0.3866291,-1.253884,0.350284,5.4,41.1,-0.00994348,-0.009085126,-0.04272203,-0.172968,0.7454355,1.556551,0.6499423,1.362674,0.3070564,0.01734944,0.04453098,0.03685547,-1.063389,0.3568429,0.07241748,0.7803553,1.362034,0.2042344,0.2738248,1.504491,0.272854,309.2473,89.36758,160.7812,True
3,2.699998,0.01158716,0.006802839,0.02572647,-1.474362,1.566801,-1.702763,0.487707,1.304839,0.3865833,-1.250023,0.3475482,5.4,41.1,-0.01546405,-0.01330119,-0.06078005,-0.173277,0.7521057,1.550397,0.6494343,1.362783,0.3070364,0.0152781,0.02853813,0.04535112,-1.062602,0.3566581,0.0724963,0.7798906,1.362122,0.2043185,0.2722483,1.503661,0.2728741,308.9306,89.368,160.834,True
3,2.711109,0.0105275,0.007816214,0.01719707,-1.474454,1.566674,-1.702827,0.4872451,1.304802,0.3864465,-1.246084,0.3543672,5.4,41.1,-0.01837303,0.01009438,-0.03621618,-0.172379,0.7510939,1.551779,0.6489276,1.362776,0.3069637,0.01098247,0.01789788,0.04322864,-1.062242,0.3564782,0.07267047,0.7794026,1.362206,0.2042804,0.2707176,1.50279,0.2728974,308.6159,89.4058,160.8761,True
3,2.72222,0.009460185,0.01203791,0.01077947,-1.47472,1.566521,-1.702883,0.4867773,1.304759,0.3863273,-1.241934,0.3735485,4.5,30.9,-0.019192,0.02816148,-0.01592514,-0.1715459,0.7478224,1.555113,0.6484481,1.362794,0.3068392,0.009944241,0.01683665,0.04643072,-1.061613,0.3568216,0.07244837,0.7788233,1.362236,0.2043443,0.2692081,1.501953,0.2729032,308.3257,89.44497,160.8876,True
3,2.733331,0.01265157,0.01416759,0.009697916,-1.474957,1.566481,-1.703118,0.4863238,1.304614,0.3862514,-1.237557,0.3941282,4.5,30.9,-0.02009578,0.0547711,-0.005219467,-0.1701462,0.7471234,1.556049,0.6480241,1.362726,0.3067992,0.009988412,0.02641591,0.04965125,-1.060921,0.3575105,0.07193092,0.7784646,1.362217,0.2043698,0.2677176,1.501154,0.2729079,308.0679,89.4621,160.8904,True
3,2.744442,0.01371731,0.008889875,0.01718553,-1.474972,1.566931,-1.703324,0.4858788,1.304583,0.3863251,-1.233164,0.3952307,4.5,30.9,-0.02213698,0.06008785,0.003342483,-0.1692812,0.7448577,1.558674,0.6475748,1.362747,0.3067918,0.01107087,0.03386997,0.05072442,-1.0603,0.3582179,0.07143131,0.7780187,1.362228,0.2043183,0.2662298,1.500393,0.2729156,307.8304,89.47556,160.9038,True
3,2.755553,0.01906807,-0.008101128,0.02474716,-1.47438,1.567543,-1.703765,0.4854303,1.304574,0.3863142,-1.22887,0.3862284,4.5,30.9,-0.0220991,0.04942457,0.009705735,-0.1690964,0.7435635,1.56026,0.6471344,1.362697,0.306742,0.008828435,0.03283413,0.03902262,-1.060256,0.3585138,0.07125687,0.7775545,1.362245,0.2043459,0.2647524,1.499633,0.2729403,307.6046,89.48331,160.9209,True
3,2.766664,0.02121725,-0.02085997,0.02802347,-1.473804,1.568089,-1.7041,0.4850048,1.304575,0.3863475,-1.224265,0.4146459,4.5,30.9,-0.01782957,0.04940895,0.01072319,-0.1686463,0.7430295,1.560869,0.64668,1.362681,0.3067074,0.01088315,0.02646457,0.03152753,-1.06015,0.3586319,0.07102038,0.7771102,1.362283,0.2044237,0.2633015,1.498807,0.2729938,307.378,89.47659,160.9369,True
3,2.777775,0.01483034,-0.02300846,0.02696496,-1.473529,1.568393,-1.704118,0.4845292,1.304566,0.3862889,-1.219857,0.3963622,3.8,26.5,-0.008443473,0.01639174,-0.00433503,-0.169581,0.7452418,1.558269,0.6463259,1.362311,0.3065398,0.02581554,0.02538305,0.03350668,-1.059769,0.3589355,0.07007895,0.7767624,1.362336,0.2044644,0.2618499,1.497938,0.2730598,307.1219,89.45288,160.9722,True
3,2.788886,0.008441383,-0.02304692,0.02270015,-1.473312,1.568542,-1.703995,0.4840906,1.304424,0.3862634,-1.215098,0.4286295,3.8,26.5,-0.01430572,-0.02825573,-0.04911751,-0.1715012,0.7577595,1.546339,0.6458951,1.362239,0.3065684,0.02149699,0.03285531,0.02611093,-1.059687,0.3594716,0.0696627,0.7762244,1.362226,0.2045636,0.2603852,1.497018,0.2730829,306.8576,89.44891,161.017,True
3,2.799997,0.003103188,-0.01455946,0.01838426,-1.473435,1.568574,-1.703848,0.4836031,1.304369,0.3861561,-1.21007,0.4528695,3.8,26.5,-0.0250815,-0.03461615,-0.05967283,-0.172208,0.7628742,1.541977,0.6454051,1.362491,0.3069143,0.01614847,0.0403271,0.02298291,-1.059539,0.360274,0.06927095,0.7757671,1.362322,0.2045507,0.2588846,1.496065,0.2730365,306.5815,89.47166,161.0212,True
3,2.811108,0.002017126,-0.001826262,0.01191405,-1.47367,1.568412,-1.703781,0.4831603,1.304329,0.3861313,-1.205173,0.4406879,3.8,26.5,-0.03128979,-0.0143921,-0.04467482,-0.1717233,0.7646684,1.540823,0.6449162,1.362437,0.3069413,0.01827462,0.03925451,0.02189932,-1.059245,0.3605828,0.06873352,0.7753825,1.362373,0.2046068,0.2573369,1.495104,0.2729281,306.2987,89.51218,160.9835,True
3,2.822219,0.01050905,0.01204579,0.01396794,-1.474186,1.56852,-1.704146,0.4827503,1.304276,0.3861105,-1.200397,0.4298023,3.5,31.7,-0.03852408,0.01435188,-0.02748801,-0.1706394,0.7623898,1.543746,0.6444986,1.362579,0.3070409,0.01293349,0.02860702,0.02192037,-1.058971,0.3604832,0.06888,0.7749687,1.362457,0.2047036,0.2557754,1.494114,0.2727951,306.0096,89.56419,160.9129,True
3,2.83333,0.01475142,0.01954187,0.01925456,-1.474711,1.568847,-1.704489,0.4823288,1.304261,0.3860748,-1.195717,0.4210465,3.5,31.7,-0.04044157,0.03028779,-0.01037572,-0.1700924,0.759095,1.547351,0.6441786,1.362206,0.3067572,0.009724077,0.0222131,0.02086136,-1.058876,0.3603857,0.0688808,0.7745315,1.362557,0.2047622,0.2541784,1.493162,0.2726702,305.7037,89.61649,160.8332,True
3,2.844441,0.0264566,0.02388449,0.02882916,-1.47522,1.569443,-1.705282,0.4818342,1.304167,0.3861871,-1.191306,0.3964056,3.5,31.7,-0.0295643,0.05580439,0.006607827,-0.1685605,0.7558687,1.55044,0.6437089,1.362226,0.3067389,0.008572128,0.02864337,0.01130603,-1.058995,0.361179,0.0684736,0.7741165,1.362588,0.2049222,0.2525866,1.492237,0.2726099,305.3867,89.66766,160.749,True
3,2.855552,0.02857808,0.02183909,0.04269227,-1.475537,1.570373,-1.705765,0.481428,1.30414,0.3862312,-1.186429,0.4393722,3.5,31.7,-0.01891561,0.06004804,0.005440008,-0.1677632,0.7564383,1.549753,0.6433876,1.36225,0.3067586,0.009672388,0.0339536,0.01450663,-1.058682,0.3617055,0.06808984,0.7736784,1.362637,0.2050071,0.2510306,1.491316,0.2726479,305.0782,89.65808,160.7448,True
3,2.866663,0.02433003,0.01121586,0.04914042,-1.475395,-4.712083,-1.705949,0.4810736,1.304043,0.3862793,-1.181918,0.4052792,3.5,31.7,-0.01919222,0.03452983,-0.0180065,-0.1682729,0.7595655,1.546795,0.6431506,1.362014,0.3067694,0.01612758,0.03712533,0.02084652,-1.058222,0.3622517,0.06742644,0.7732464,1.362677,0.2051048,0.2495016,1.490392,0.2727756,304.7905,89.60417,160.8106,True
3,2.877774,0.0254063,0.006938016,0.04597057,-1.475385,-4.711689,-1.706302,0.4806872,1.304003,0.3862894,-1.176668,0.4733482,4.2,36.9,-0.01505847,0.0004488863,-0.02342329,-0.1693632,0.7601868,1.546287,0.6426932,1.361914,0.3068759,0.01721899,0.03072703,0.02294412,-1.057955,0.3623801,0.06696439,0.7729862,1.362794,0.2051234,0.2479923,1.489415,0.2729781,304.527,89.50779,160.929,True
3,2.888885,0.01904118,0.0004975088,0.03854427,-1.475302,-4.711496,-1.706422,0.4803895,1.30394,0.386265,-1.171394,0.4748209,4.2,36.9,-0.01514666,-0.00592198,-0.03091115,-0.169539,0.7652839,1.541465,0.6422868,1.36196,0.3069406,0.01617751,0.02432738,0.0261321,-1.057555,0.362411,0.06680353,0.7726007,1.362819,0.2052157,0.246496,1.488377,0.273194,304.2313,89.40273,161.0963,True
3,2.899997,0.01904589,0.001516458,0.0300144,-1.475407,-4.711489,-1.706631,0.4800444,1.303854,0.3862576,-1.166628,0.4284834,4.2,36.9,-0.01631907,-0.01763355,-0.03944761,-0.1702857,0.7695628,1.537437,0.641844,1.362342,0.3074527,0.02872556,0.01052659,0.002531692,-1.058418,0.3619566,0.06631138,0.7721992,1.362837,0.2054286,0.2450212,1.487285,0.273362,303.9163,89.36703,161.2113,True
3,2.911108,0.0190581,-0.001729244,0.02151074,-1.475274,-4.711501,-1.70681,0.4796973,1.303789,0.3862631,-1.1615,0.4618863,4.2,36.9,-0.01423809,-0.02721815,-0.04270138,-0.1709196,0.7742679,1.532868,0.6415193,1.362182,0.3075702,0.03721979,0.01905804,-0.00178553,-1.058524,0.3626485,0.06522507,0.7718357,1.362869,0.2055228,0.243544,1.486192,0.2734586,303.5978,89.37946,161.2542,True
3,2.922219,0.01479636,0.0003855294,0.01936981,-1.475442,-4.711285,-1.706885,0.4793199,1.303757,0.3863454,-1.156644,0.4368044,4.2,36.9,-0.01333755,-0.0389101,-0.05658034,-0.1717718,0.7801562,1.527213,0.6411245,1.362275,0.3078659,0.03938925,0.03823015,0.0003786273,-1.058329,0.3639857,0.06409296,0.7715131,1.362733,0.2055991,0.242084,1.4851,0.273492,303.277,89.42192,161.2358,True
3,2.93333,0.01692555,0.00252209,0.01936256,-1.475617,-4.711037,-1.70721,0.478894,1.30368,0.3863635,-1.151681,0.4467931,5.9,30.2,-0.01015824,-0.03571678,-0.05874056,-0.1720881,0.7844974,1.52297,0.640709,1.362398,0.3078163,0.03297385,0.03505552,-0.00170648,-1.058463,0.3645033,0.06372785,0.7712938,1.362748,0.2056069,0.240633,1.484025,0.2734925,302.9775,89.47441,161.1779,True
3,2.944441,0.01052806,0.005701395,0.01827577,-1.47584,-4.710863,-1.707106,0.4784867,1.303664,0.3864312,-1.146601,0.4573353,5.9,30.2,-0.009947924,-0.02083886,-0.04060194,-0.171825,0.7837934,1.523793,0.6403964,1.362461,0.3078468,0.02867384,0.01802241,-0.003841602,-1.058579,0.3640766,0.06378937,0.7709243,1.362761,0.2056367,0.2391833,1.482971,0.2734871,302.6861,89.52852,161.1013,True
3,2.955552,0.0115926,0.006799989,0.02359964,-1.476013,-4.710407,-1.707413,0.4781841,1.30359,0.3864455,-1.141877,0.4247544,5.9,30.2,-0.005444614,-0.007040275,-0.02035965,-0.171482,0.7800449,1.527239,0.6402098,1.361966,0.3074446,0.02763539,0.0009698998,0.0003806762,-1.058471,0.3635192,0.06371586,0.7705609,1.362892,0.205518,0.2377258,1.481955,0.273505,302.3947,89.54358,161.0577,True
3,2.966663,0.01374092,0.004632948,0.01615965,-1.476011,-4.710412,-1.707751,0.4779198,1.303422,0.3864274,-1.136523,0.4826045,5.9,30.2,0.006465604,0.01527858,-0.006588636,-0.1705856,0.7781767,1.528457,0.640047,1.361873,0.3073699,0.02560369,-0.00118842,0.01104738,-1.058012,0.3634164,0.06354222,0.7701824,1.362962,0.2055275,0.2362588,1.480955,0.2735562,302.1197,89.5351,161.0585,True
3,2.977774,0.01800525,0.005671671,0.009761775,-1.476137,-4.710569,-1.708048,0.4776416,1.30337,0.3864284,-1.131899,0.4153011,4.4,30.5,0.01288868,0.0280482,-0.005559191,-0.1698932,0.7786439,1.527739,0.639657,1.361948,0.3075855,0.02251191,-0.004408736,0.02172375,-1.057389,0.3632416,0.06338909,0.7697926,1.363074,0.2055342,0.234798,1.479965,0.2736475,301.8177,89.52216,161.0829,True
3,2.988885,0.0201476,0.002456445,0.005523697,-1.476086,-4.710591,-1.708345,0.4773017,1.303286,0.3864312,-1.127041,0.4373776,4.4,30.5,0.007542238,0.02699596,-0.007638992,-0.1696497,0.7795696,1.526865,0.6394215,1.361839,0.3075945,0.01418443,0.006197227,0.04100544,-1.056349,0.3636318,0.06326739,0.7693208,1.363059,0.2056048,0.2334214,1.47891,0.2737664,301.5232,89.50057,161.1495,True
3,2.999996,0.02122704,-0.002905558,-0.001905115,-1.475932,-4.710882,-1.708532,0.4770319,1.303265,0.3865032,-1.122026,0.4514486,4.4,30.5,0.004205145,0.02596465,-0.02037634,-0.1694495,0.7821367,1.524591,0.6390954,1.361541,0.3073962,0.01533156,0.01363494,0.04954124,-1.055474,0.364091,0.06291505,0.7689604,1.363044,0.2057142,0.2321098,1.477776,0.2738965,301.2481,89.51927,161.1833,True
3,3.011107,0.02019013,-0.01464863,-0.006098219,-1.475418,-4.711007,-1.708735,0.4767312,1.303246,0.3864973,-1.117007,0.4516518,4.4,30.5,0.009611214,0.02488621,-0.01299793,-0.1690521,0.7838168,1.522551,0.6386374,1.361531,0.3073783,0.014275,0.02109116,0.04852145,-1.05474,0.3645179,0.06241917,0.7687768,1.363193,0.2057416,0.23078,1.476642,0.2740352,300.9698,89.55511,161.1829,True
3,3.022218,0.01485388,-0.01039395,-0.006127744,-1.475478,-4.711074,-1.708681,0.4765027,1.303256,0.3866105,-1.111922,0.4578368,4.4,30.5,0.01718733,0.02804445,-0.002375936,-0.1686393,0.7788859,1.526868,0.6384583,1.361441,0.3073606,0.01308839,0.02539175,0.03576432,-1.054687,0.365014,0.06213448,0.7685076,1.3632,0.2058196,0.2294045,1.475518,0.2741804,300.6859,89.59575,161.1695,True
3,3.033329,0.0137949,-0.01040796,-0.008258302,-1.475382,-4.711194,-1.708843,0.4763365,1.303235,0.3866313,-1.106919,0.4501371,4.7,21.2,0.0182728,0.02058661,0.0007709591,-0.168552,0.7804866,1.525003,0.638106,1.361297,0.3073552,0.01194903,0.02861619,0.02725984,-1.054658,0.3655451,0.06172994,0.7681829,1.36319,0.2058878,0.2279917,1.474407,0.2743397,300.3805,89.66798,161.134,True
3,3.04444,0.009530395,-0.01040351,-0.00612927,-1.47525,-4.711136,-1.708825,0.4761741,1.303166,0.3866806,-1.101676,0.4722891,4.7,21.2,0.01936908,0.008839974,0.006045604,-0.1690473,0.7805457,1.524671,0.6378671,1.361673,0.3079369,0.01289983,0.03078039,0.01447115,-1.054928,0.3660277,0.06124764,0.7679813,1.363105,0.2059448,0.2265677,1.473299,0.2744974,300.0579,89.74243,161.1047,True
3,3.055551,0.008455519,-0.006149875,-0.007221616,-1.475328,-4.711288,-1.708841,0.4760755,1.303052,0.3867071,-1.096895,0.4298189,4.7,21.2,0.02154453,0.001364026,0.01133721,-0.1692737,0.7788861,1.52593,0.6377469,1.361533,0.3078203,0.01384383,0.03508434,0.0006296057,-1.055281,0.3667267,0.0606234,0.7678385,1.363074,0.2060328,0.2251832,1.472202,0.2746691,299.7038,89.78526,161.0911,True
3,3.066662,0.006304451,0.001319225,-0.004077264,-1.475547,-4.711348,-1.708782,0.4759358,1.303078,0.3868504,-1.091874,0.4523212,4.7,21.2,0.02362678,0.001366939,0.007037897,-0.1692998,0.7808047,1.523793,0.6376122,1.361439,0.3079233,0.01593369,0.03615748,-0.003648766,-1.055433,0.3672072,0.06014856,0.7676873,1.363023,0.2061324,0.2244669,1.471596,0.2745767,299.5742,90.10815,160.8673,True
3,3.077773,0.007348229,0.007746992,0.002271672,-1.475805,-4.711255,-1.708879,0.4759348,1.303031,0.3869154,-1.087178,0.4224427,4.5,24.1,0.0298482,-0.0167324,-0.005845604,-0.1701163,0.7833579,1.520823,0.637482,1.361631,0.3083053,0.01923017,0.03719706,0.005920667,-1.054855,0.367768,0.05943483,0.7674159,1.363041,0.2062647,0.2243421,1.471299,0.274415,299.7917,90.5921,160.4559,True
3,3.088884,0.006261976,0.01627891,0.004354338,-1.476277,-4.711177,-1.708881,0.4759834,1.302958,0.3869514,-1.082482,0.4227044,4.5,24.1,0.02196117,-0.03154851,-0.04628312,-0.171057,0.7943611,1.50994,0.6374428,1.361572,0.3084552,0.0150584,0.03397771,0.01554144,-1.054333,0.3680522,0.05922551,0.7673107,1.363012,0.2063572,0.2244696,1.471229,0.2743115,300.0396,90.85865,160.1842,True
3,3.099995,0.005156738,0.033358,0.01064467,-1.477238,-4.710989,-1.708898,0.4760023,1.302836,0.3870003,-1.078084,0.3955964,4.5,24.1,0.0134766,-0.01981349,-0.04297389,-0.1707693,0.7959819,1.508715,0.6374654,1.361556,0.3086116,0.02143172,0.02865706,0.01439976,-1.054229,0.3683654,0.05865506,0.7673724,1.36316,0.2063673,0.224659,1.471195,0.2743024,300.3122,90.81412,160.1505,True
3,3.111106,0.005122203,0.0515122,0.01799801,-1.478436,-4.71069,-1.709079,0.4760427,1.302664,0.3870816,-1.07355,0.4083386,4.5,24.1,0.01685672,-0.01132809,-0.02595857,-0.1705733,0.7954646,1.508943,0.6374773,1.361416,0.3087511,0.03521387,0.006284075,0.008882014,-1.05431,0.3675711,0.05809686,0.7673388,1.363068,0.2063992,0.2247714,1.471131,0.2742831,300.5416,90.83031,160.1058,True
3,3.122217,0.005122203,0.0515122,0.01799801,-1.478436,-4.71069,-1.709079,0.4760427,1.302664,0.3870816,-1.069151,0.3958702,4.5,24.1,0.01685672,-0.01132809,-0.02595857,-0.1705733,0.7954646,1.508943,0.6374773,1.361416,0.3087511,0.03521387,0.006284075,0.008882014,-1.05431,0.3675711,0.05809686,0.7673388,1.363068,0.2063992,0.2248826,1.471085,0.2742584,300.7453,90.87742,160.0464,True
3,3.133328,0.004008886,0.07073279,0.02640216,-1.47984,-4.710397,-1.709074,0.4761491,1.302555,0.3872123,-1.064818,0.3899407,4.5,24.1,0.02984635,-0.01139237,-0.00477346,-0.1705531,0.7910407,1.512621,0.6376812,1.361449,0.3088822,0.04786604,-0.0203268,-0.001967519,-1.054736,0.3664761,0.05774586,0.7673604,1.363007,0.2064528,0.2249808,1.471073,0.27432,300.9061,90.74374,160.2,True
3,3.144439,0.005047774,0.08145183,0.03699432,-1.482097,-4.709576,-1.709342,0.4763798,1.302405,0.3875649,-1.060681,0.3720867,4.8,17.1,0.0489445,-0.0348508,-0.007154301,-0.1717457,0.7927442,1.509511,0.6379852,1.361172,0.3093569,0.0541035,-0.05758473,-0.01384793,-1.05546,0.3638601,0.05772082,0.767342,1.362927,0.2065635,0.2250767,1.471065,0.2743663,301.0571,90.64037,160.3207,True
3,3.15555,0.001900068,0.06013471,0.03605561,-1.482111,-4.709147,-1.709401,0.476484,1.302351,0.3877757,-1.056393,0.3860391,4.8,17.1,0.05424681,-0.04976624,-0.007190719,-0.1726336,0.7889947,1.512388,0.6383061,1.360705,0.3091545,0.06676226,-0.06821155,-0.02677546,-1.056151,0.3627168,0.05699644,0.7674295,1.362951,0.2065668,0.2251649,1.471038,0.2743731,301.1782,90.55286,160.3195,True
3,3.166661,-0.003365275,0.03238281,0.02769186,-1.481681,-4.709023,-1.709232,0.4767722,1.302348,0.3879693,-1.052234,0.374396,4.8,17.1,0.07545179,-0.05724808,-0.01594016,-0.1735491,0.7914597,1.508383,0.6386008,1.360546,0.3093443,0.09006557,-0.09802477,-0.03880636,-1.057148,0.3606341,0.05616287,0.7674689,1.362881,0.2064259,0.2251477,1.470992,0.2742526,301.1312,90.77248,159.9748,True
3,3.177772,-0.01395235,0.002472305,0.01613969,-1.480854,-4.709074,-1.708733,0.4771106,1.302334,0.3882425,-1.048623,0.3250512,4.8,17.1,0.0828644,-0.05618049,-0.02028332,-0.1740024,0.794234,1.504539,0.6388304,1.36072,0.3097296,0.09966585,-0.1140199,-0.03574798,-1.057534,0.3586936,0.05575594,0.76754,1.362744,0.2064362,0.2251781,1.470964,0.2741382,301.1823,91.08718,159.6804,True
3,3.188883,-0.01605539,-0.006110017,0.006601154,-1.480533,-4.709252,-1.708524,0.4773901,1.302269,0.3884687,-1.045357,0.2941919,4.2,8.6,0.09133954,-0.06364794,-0.02357908,-0.1750064,0.7961094,1.501385,0.6391437,1.360626,0.3099551,0.1050321,-0.1214942,-0.03155195,-1.057747,0.3569058,0.05519907,0.7674721,1.362587,0.2064345,0.2252599,1.470937,0.2740952,301.322,91.24219,159.5691,True
3,3.199994,-0.02880465,-0.01476597,-0.01253591,-1.48003,-4.709967,-1.707708,0.4777372,1.302263,0.3887701,-1.042417,0.2648361,4.2,8.6,0.1029407,-0.07430077,-0.03331608,-0.176231,0.8009194,1.495162,0.639467,1.360635,0.3102844,0.1050288,-0.1332151,-0.03052029,-1.058166,0.3547778,0.0551293,0.767493,1.362491,0.2065697,0.2253924,1.470904,0.2741367,301.5359,91.12279,159.6691,True
3,3.211105,-0.03518086,-0.01802811,-0.02210921,-1.479701,-4.710469,-1.707079,0.478015,1.302277,0.3890786,-1.04047,0.174577,4.2,8.6,0.1179685,-0.06902374,-0.0228229,-0.1767796,0.8017501,1.492588,0.6397573,1.360415,0.3105261,0.1082402,-0.1236358,-0.03051447,-1.058434,0.3535185,0.05437323,0.7675573,1.362491,0.2065842,0.225505,1.470875,0.2741961,301.7131,90.92735,159.8111,True
3,3.222216,-0.0521936,-0.02983917,-0.03270943,-1.47894,-4.711075,-1.70584,0.4783623,1.302293,0.3894722,-1.038062,0.2177521,4.2,8.6,0.1359804,-0.07327628,-0.03149118,-0.1773772,0.8016728,1.490647,0.6402003,1.359929,0.3102543,0.1114848,-0.1151259,-0.02625982,-1.058616,0.3524702,0.05353833,0.7675836,1.362409,0.2065701,0.225563,1.470849,0.2741863,301.7956,90.86475,159.7764,True
3,3.233327,-0.05751505,-0.03198604,-0.03376719,-1.478463,-4.711427,-1.704986,0.4787054,1.302291,0.3898187,-1.03657,0.1336129,2.3,4.9,0.138106,-0.08180684,-0.03047042,-0.1786427,0.8034711,1.48727,0.6405566,1.359781,0.3104315,0.114761,-0.1108948,-0.01881818,-1.058562,0.351106,0.05272473,0.7677518,1.362418,0.2065542,0.2256329,1.470837,0.2742585,301.8859,90.60693,159.9384,True
3,3.244438,-0.06604131,-0.0288437,-0.03912392,-1.478095,-4.712034,-1.703897,0.47911,1.302233,0.390116,-1.034654,0.1735106,2.3,4.9,0.148741,-0.08928244,-0.03058454,-0.1798598,0.8037642,1.484989,0.6409444,1.359829,0.3111198,0.1147373,-0.11515,-0.02096383,-1.05899,0.3494858,0.05223524,0.7678465,1.36232,0.2065423,0.2256238,1.470832,0.274242,301.8407,90.50444,159.8795,True
3,3.255549,-0.07031351,-0.01930794,-0.04664103,-1.47809,1.570357,-1.7029,0.4795222,1.302214,0.3904889,-1.033824,0.07370543,2.3,4.9,0.1688912,-0.0871623,-0.04035222,-0.1806726,0.8063638,1.479879,0.6412928,1.359425,0.3112159,0.1147067,-0.1226064,-0.02418033,-1.059476,0.3474942,0.05181792,0.767997,1.362178,0.2065599,0.2256724,1.470811,0.274251,301.89,90.3327,159.8888,True
3,3.26666,-0.07354227,-0.008657278,-0.0445743,-1.478153,1.569959,-1.701794,0.480086,1.302258,0.3907917,-1.032701,0.1015991,2.3,4.9,0.1762937,-0.08716153,-0.04577382,-0.1816111,0.8113913,1.472733,0.6416887,1.359352,0.3114512,0.111507,-0.1258013,-0.02415893,-1.059843,0.345737,0.05156466,0.7681472,1.362115,0.2065217,0.2257223,1.47079,0.2743067,301.9483,90.07236,160.0075,True
3,3.277771,-0.07463665,0.007313635,-0.04573419,-1.478697,1.569323,-1.700864,0.4805137,1.302235,0.3911066,-1.03197,0.06553651,2.3,4.9,0.1784178,-0.08503305,-0.04685619,-0.182541,0.814006,1.46807,0.6420882,1.359258,0.3116572,0.101896,-0.1257839,-0.02621027,-1.06043,0.3441918,0.05153802,0.7684388,1.362042,0.2064795,0.2257618,1.470783,0.274386,301.9939,89.77819,160.1905,True
3,3.288882,-0.06937096,0.03712913,-0.04910456,-1.479952,1.568422,-1.700095,0.4810104,1.302155,0.3914537,-1.031139,0.07507002,1.5,5,0.1742316,-0.08398162,-0.03935936,-0.1835371,0.8144266,1.465882,0.6424613,1.359509,0.3122323,0.08893296,-0.1257198,-0.04420272,-1.061667,0.3426994,0.05181366,0.7687238,1.361937,0.2064619,0.2257952,1.470785,0.2744995,302.0239,89.38634,160.4553,True
3,3.299993,-0.06515054,0.05844306,-0.04922306,-1.481243,1.567742,-1.699454,0.4814969,1.302131,0.3917594,-1.030722,0.03717898,1.5,5,0.1596331,-0.08509101,-0.007263944,-0.1845635,0.8083963,1.470516,0.6428628,1.359509,0.3125832,0.09102723,-0.1267791,-0.04742017,-1.062352,0.3410351,0.05155933,0.7688897,1.361939,0.2064383,0.2258091,1.470629,0.2746222,301.6925,89.27153,160.4467,True
3,3.311104,-0.06196628,0.06590183,-0.05032811,-1.482156,1.567012,-1.698822,0.4820086,1.302171,0.3920355,-1.030402,0.02861169,1.5,5,0.1510661,-0.08719592,-0.01145688,-0.1856474,0.8107403,1.466766,0.6433725,1.35936,0.3127849,0.08991248,-0.1257006,-0.05273198,-1.063161,0.3394809,0.05134255,0.7691411,1.361837,0.2064342,0.2258947,1.470489,0.2747579,301.6604,89.37904,160.1376,True
3,3.322215,-0.06195282,0.05948642,-0.05455668,-1.482507,1.566135,-1.698031,0.4824679,1.302212,0.3922787,-1.030055,0.03124153,1.5,5,0.1511433,-0.09467612,-0.002943166,-0.1869954,0.8081123,1.467569,0.6438348,1.359354,0.312968,0.08453445,-0.1160889,-0.0590456,-1.064054,0.3384529,0.05110579,0.7693381,1.361795,0.2063951,0.2260213,1.470324,0.2749925,301.6843,89.31399,159.992,True
3,3.333326,-0.06721635,0.03279511,-0.06292717,-1.481903,1.56525,-1.697099,0.4828673,1.302322,0.3925765,-1.029653,0.0362368,3.2,5.5,0.1394496,-0.09252308,-0.0006982014,-0.1878738,0.8077716,1.466762,0.644334,1.359312,0.3131316,0.07486976,-0.1075307,-0.06852326,-1.065263,0.3374691,0.05098515,0.7696716,1.361699,0.2063587,0.2261832,1.470272,0.2753097,301.6072,89.0548,160.0361,True
3,3.344437,-0.06929753,0.01036581,-0.07238661,-1.481169,1.564197,-1.696136,0.483337,1.302445,0.3929307,-1.029139,0.04648842,3.2,5.5,0.1364467,-0.09042236,0.01852195,-0.1887095,0.802121,1.470983,0.6448402,1.359285,0.3133008,0.07266982,-0.1053808,-0.07595361,-1.066405,0.3362013,0.05085066,0.7699264,1.361624,0.2062919,0.2263241,1.470235,0.2756918,301.495,88.85963,160.0399,True
3,3.355548,-0.06389865,-0.02269655,-0.08070995,-1.479711,1.563199,-1.695564,0.4838286,1.302499,0.3932621,-1.028677,0.04161945,3.2,5.5,0.1397337,-0.08830172,0.0280675,-0.189371,0.7995313,1.471969,0.6451856,1.359126,0.3133984,0.07904793,-0.1128414,-0.07708815,-1.067207,0.3345197,0.0504938,0.7700431,1.361503,0.2062604,0.2264667,1.47013,0.2761875,301.3035,89.18394,159.6104,True
3,3.366659,-0.06173117,-0.03764816,-0.08807583,-1.47869,1.562108,-1.694889,0.4843136,1.302606,0.3936195,-1.0284,0.02491112,3.2,5.5,0.1303095,-0.08724932,0.04414476,-0.1901822,0.7933831,1.476875,0.6456086,1.35911,0.3134997,0.0727374,-0.1235239,-0.0674722,-1.067767,0.3324231,0.0508994,0.7702516,1.361344,0.2063637,0.2266735,1.469897,0.2766235,300.9232,88.96775,159.6783,True
3,3.37777,-0.06061317,-0.05374505,-0.1082201,-1.47739,1.560388,-1.694133,0.4846861,1.302805,0.3940194,-1.028572,-0.01608155,3.2,5.5,0.1089367,-0.07014704,0.03479762,-0.1904831,0.7937011,1.476147,0.6459408,1.35895,0.3137109,0.05266087,-0.1150225,-0.05128197,-1.067949,0.3313715,0.05144934,0.7704759,1.361163,0.2063587,0.2269061,1.469639,0.2770516,300.7303,89.17901,159.3603,True
3,3.388881,-0.06272599,-0.06230097,-0.1134972,-1.476305,1.559125,-1.69319,0.4852475,1.302951,0.3943107,-1.028319,0.02320217,3.9,5.3,0.09839702,-0.04990643,0.04239107,-0.1903862,0.7908048,1.478261,0.6463884,1.358883,0.3138449,0.04855474,-0.08629695,-0.03837631,-1.067944,0.3312317,0.05105013,0.770798,1.361064,0.2063699,0.2271623,1.469251,0.2775847,300.546,89.37576,159.2056,True
3,3.399992,-0.05631683,-0.07187703,-0.1134345,-1.475031,1.55807,-1.692691,0.4857173,1.302992,0.3945847,-1.028102,0.01946357,3.9,5.3,0.1006069,-0.04565735,0.04985695,-0.1906195,0.7846273,1.48317,0.6468158,1.358725,0.3139408,0.05285706,-0.06819944,-0.03516704,-1.068228,0.3310726,0.05047809,0.7710439,1.360962,0.2063673,0.227218,1.468898,0.2783112,300.3291,89.59966,159.2626,True
