loc,t,aDotUA,bDotUA,gDotUA,aUA,bUA,gUA,xUA,yUA,zUA,qE,qDotE,emgA,emgB,aDotSH,bDotSH,gDotSH,aSH,bSH,gSH,xSH,ySH,zSH,aDotUB,bDotUB,gDotUB,aUB,bUB,gUB,xUB,yUB,zUB,xHand,yHand,zHand,aHand,bHand,gHand,enable
3,0,-0.1045574,-2.659991,-1.453376,-0.9431915,-2.093549,2.019333,0.35159,1.261791,0.1676927,-1.808005,0.06015538,2.4,0,-1.108665,1.090037,-0.177504,-0.4101439,-2.028604,-1.11496,0.5456764,1.359932,0.1636803,-0.7431163,0.6136189,0.6859574,-0.5311334,0.7451569,0.4961307,0.7013736,1.376748,0.1562672,0.3854007,1.024057,0.06128151,341.5271,118.8731,25.49039,True
3,0.01111111,-0.1236004,-2.728266,-1.461419,-0.9657693,-2.058004,2.000845,0.3506186,1.260687,0.162081,-1.807566,0.04008771,2.4,0,-1.058018,1.1074,-0.1192084,-0.4216114,-2.012702,-1.119344,0.5446694,1.358524,0.1612463,-0.6912029,0.5772655,0.6652179,-0.522696,0.7477309,0.4998074,0.699962,1.37587,0.1547971,0.3856722,1.020956,0.06080054,343.0439,117.0211,24.83733,True
3,0.02222222,-0.139455,-2.810384,-1.482295,-0.989637,-2.022124,1.982651,0.3499622,1.259472,0.1566634,-1.807653,-0.008108925,2.4,0,-0.9502003,1.048998,-0.07078692,-0.4301815,-2.001755,-1.122332,0.5434574,1.357009,0.1589553,-0.6542482,0.5377453,0.6445984,-0.5148929,0.7494742,0.5046115,0.6986886,1.375084,0.1533906,0.3865116,1.01664,0.06190911,344.0985,115.9576,23.50705,True
3,0.03333334,-0.139455,-2.810384,-1.482295,-0.989637,-2.022124,1.982651,0.3499622,1.259472,0.1566634,-1.808811,-0.1056034,2.4,0,-0.9502003,1.048998,-0.07078692,-0.4301815,-2.001755,-1.122332,0.5434574,1.357009,0.1589553,-0.6542482,0.5377453,0.6445984,-0.5148929,0.7494742,0.5046115,0.6986886,1.375084,0.1533906,0.3878327,1.011509,0.06449636,345.1796,114.9506,21.60323,True
3,0.04444445,-0.1415635,-2.848714,-1.475593,-1.013395,-1.989211,1.966636,0.3494534,1.257995,0.1511505,-1.811239,-0.2208446,2.4,0,-0.8457834,0.8454323,-0.1046073,-0.4336606,-2.004908,-1.113062,0.5421332,1.355621,0.1569998,-0.6280365,0.5238131,0.6123229,-0.5073077,0.7534947,0.5075743,0.6973531,1.374331,0.1520498,0.3893626,1.006524,0.06848416,346.2926,114.1533,19.29385,True
3,0.05555556,-0.144854,-2.831408,-1.438441,-1.059685,-1.928755,1.939289,0.3483999,1.254968,0.1408446,-1.809734,0.1394208,3.1,0,-0.7491099,0.512837,-0.1192485,-0.4368191,-2.009245,-1.095161,0.5396883,1.352455,0.1530106,-0.577308,0.5098354,0.5766211,-0.4918406,0.7613345,0.5121517,0.6947868,1.372762,0.1496599,0.3907421,1.002753,0.07291867,347.0616,113.8133,17.3356,True
3,0.06666667,-0.1279312,-2.775627,-1.388759,-1.082047,-1.902257,1.927478,0.3480582,1.253223,0.1363058,-1.807925,0.163823,3.1,0,-0.7405313,0.4709788,-0.09098703,-0.4405204,-2.005387,-1.090145,0.5387843,1.350649,0.1507473,-0.5380408,0.4959027,0.5645068,-0.4842197,0.7645144,0.5139451,0.6936803,1.372026,0.1487646,0.3922268,0.9986752,0.07711594,347.8105,112.2717,15.84086,True
3,0.07777778,-0.1175439,-2.669925,-1.359702,-1.10183,-1.876896,1.916801,0.3477433,1.251611,0.1319706,-1.810095,-0.1997285,3.1,0,-0.7306407,0.5358771,-0.08410805,-0.4483959,-1.998061,-1.088799,0.5377243,1.34933,0.1488023,-0.5033512,0.4691716,0.5247474,-0.478161,0.7681094,0.5153155,0.6925842,1.371369,0.1479151,0.3938815,0.9935364,0.08160053,348.6931,109.9306,13.5562,True
3,0.08888889,-0.1210034,-2.531295,-1.339377,-1.119397,-1.853007,1.907528,0.3476947,1.250054,0.1283593,-1.811156,-0.094846,3.1,0,-0.6835226,0.6338035,-0.09535956,-0.4583412,-1.990256,-1.089534,0.5369672,1.348037,0.1470995,-0.4899206,0.4435235,0.4894849,-0.4724517,0.7709991,0.5177696,0.6915861,1.370637,0.1471148,0.3951661,0.9888002,0.08618574,349.4053,108.5512,10.8643,True
3,0.1,-0.127694,-2.404218,-1.295537,-1.136487,-1.83114,1.899882,0.3474328,1.248686,0.1243508,-1.811142,0.00181683,3.1,0,-0.6491106,0.6664563,-0.07091364,-0.4657485,-1.981943,-1.090845,0.536275,1.346997,0.1452184,-0.4719981,0.4392184,0.4711806,-0.4660771,0.7751772,0.5186442,0.6905349,1.370037,0.1463876,0.3958672,0.9848747,0.09034785,350.0342,107.6575,8.842082,True
3,0.1111111,-0.127694,-2.404218,-1.295537,-1.136487,-1.83114,1.899882,0.3474328,1.248686,0.1243508,-1.810809,0.03060419,3.1,0,-0.6491106,0.6664563,-0.07091364,-0.4657485,-1.981943,-1.090845,0.536275,1.346997,0.1452184,-0.4719981,0.4392184,0.4711806,-0.4660771,0.7751772,0.5186442,0.6905349,1.370037,0.1463876,0.3959734,0.9817952,0.0938734,350.6658,106.7216,7.465911,True
3,0.1222222,-0.1410173,-2.129715,-1.190949,-1.146412,-1.816461,1.895696,0.3474168,1.247579,0.1215036,-1.812074,-0.1158447,3.1,0,-0.6278082,0.6706433,-0.07213518,-0.4726525,-1.975966,-1.089926,0.5356679,1.346009,0.1440616,-0.4339377,0.4454933,0.4420158,-0.4600957,0.7806895,0.5171198,0.6896164,1.369665,0.1458097,0.3955885,0.9796995,0.09664253,351.3264,106.0601,6.407543,True
3,0.1333333,-0.1783142,-1.600067,-1.005082,-1.16138,-1.790822,1.890268,0.3474029,1.245879,0.1159635,-1.810456,0.1489025,3.1,0,-0.6385113,0.6076757,-0.05352446,-0.4832338,-1.966236,-1.08383,0.5347462,1.344212,0.1421607,-0.3655213,0.4314145,0.3656653,-0.4504103,0.7920083,0.5131832,0.6880977,1.369011,0.1452041,0.3949574,0.9786772,0.09805931,351.8794,105.9461,5.746781,True
3,0.1444445,-0.1851264,-1.385297,-0.9128522,-1.16703,-1.780651,1.888455,0.3475627,1.245234,0.1140332,-1.807681,0.2523451,3.4,0,-0.5895559,0.5508639,-0.0352858,-0.4868631,-1.961527,-1.083073,0.5343124,1.343612,0.1414633,-0.3319248,0.4227706,0.3205729,-0.4465248,0.7984685,0.5099133,0.6874068,1.368846,0.1450601,0.3946258,0.9783886,0.09795626,351.6262,105.7216,5.538632,True
3,0.1555556,-0.1853898,-1.258155,-0.8626421,-1.17437,-1.76865,1.88576,0.3476496,1.244396,0.1116295,-1.809563,-0.1732487,3.4,0,-0.5365195,0.491026,-0.03633571,-0.4902986,-1.959384,-1.080659,0.5339525,1.342906,0.1407337,-0.3109722,0.4120279,0.2894584,-0.4426413,0.804224,0.5075314,0.6867639,1.368757,0.1447923,0.3943364,0.9783545,0.09710035,351.5595,105.5323,4.734766,True
3,0.1666667,-0.1785306,-0.9504439,-0.7369674,-1.173732,-1.764118,1.885664,0.3479314,1.244274,0.1108451,-1.810311,-0.0663771,3.4,0,-0.4632601,0.3573305,-0.008343443,-0.4895002,-1.958453,-1.078865,0.533848,1.342709,0.1406381,-0.2794657,0.386353,0.2508047,-0.4397736,0.8094537,0.5048016,0.6862612,1.368793,0.1448572,0.3941788,0.9783947,0.09615688,351.624,105.5111,3.927815,True
3,0.1777778,-0.1831425,-0.7774003,-0.67323,-1.175703,-1.756647,1.884991,0.3479458,1.243869,0.1091232,-1.810693,-0.03452175,3.4,0,-0.437848,0.3060487,-0.001647741,-0.4915609,-1.956852,-1.075431,0.5334811,1.342153,0.1398046,-0.2426913,0.3489371,0.206785,-0.4377267,0.8138568,0.5022613,0.6859124,1.368763,0.1447642,0.3942085,0.978404,0.09567668,351.7371,105.454,3.53673,True
3,0.1888889,-0.1868627,-0.5050091,-0.5675412,-1.171729,-1.754674,1.886369,0.3481522,1.244008,0.1085885,-1.811086,-0.03570242,3.4,0,-0.4082258,0.2302428,0.005921483,-0.4919066,-1.956494,-1.071984,0.5332179,1.342126,0.1397569,-0.2060837,0.3029751,0.1500014,-0.4369246,0.8177827,0.4998159,0.685619,1.36882,0.1449802,0.3943093,0.9784102,0.09549779,351.8442,105.3551,3.388702,True
3,0.2,-0.1711141,-0.389606,-0.5236123,-1.171491,-1.749295,1.885738,0.3482438,1.243928,0.1077187,-1.810604,0.04454006,3.7,0,-0.3761381,0.1701001,0.0466603,-0.4909761,-1.953131,-1.071742,0.5331781,1.34218,0.1399262,-0.1873078,0.2773343,0.1157371,-0.4357171,0.8226438,0.4968971,0.6851574,1.368853,0.1452212,0.3944125,0.9784282,0.09532109,351.9559,105.2767,3.247653,True
3,0.2111111,-0.154517,-0.1607755,-0.4058867,-1.165584,-1.750764,1.887397,0.3483319,1.244514,0.107934,-1.810632,-0.003067647,3.7,0,-0.3367165,0.1366921,0.0662618,-0.4904392,-1.949868,-1.07167,0.5329754,1.342564,0.139487,-0.1198543,0.2590046,0.05111855,-0.4360564,0.8292077,0.4901114,0.6850262,1.369267,0.1457915,0.3944636,0.9784626,0.09497596,352.0612,105.2127,2.959419,True
3,0.2222222,-0.1572119,0.1299185,-0.2726198,-1.155909,-1.755512,1.891097,0.3483519,1.245287,0.1084952,-1.811359,-0.06621196,3.7,0,-0.2790981,0.07008994,0.1045963,-0.4880174,-1.946614,-1.073382,0.5331663,1.3431,0.1401062,-0.08572355,0.2140698,-0.03866534,-0.4385917,0.8349899,0.4847177,0.6850693,1.369692,0.146661,0.3947253,0.9785076,0.09468303,352.2065,104.3239,2.721992,True
3,0.2333333,-0.1588532,0.4258696,-0.1489539,-1.143304,-1.762406,1.895982,0.3482313,1.246172,0.1093786,-1.811768,-0.03708996,3.7,0,-0.2503178,0.03682628,0.1200262,-0.4867619,-1.944144,-1.073527,0.5333197,1.343269,0.1406362,-0.07741266,0.2023115,-0.05684853,-0.4387084,0.8401853,0.4807727,0.6849141,1.369915,0.1471913,0.3948451,0.9785578,0.09440912,352.3484,104.2395,2.495428,True
3,0.2444444,-0.1604385,0.7003739,-0.0453922,-1.128283,-1.771371,1.901534,0.348293,1.247203,0.1106875,-1.811037,0.06729939,3.7,0,-0.1674537,-0.008143082,0.1114657,-0.4848828,-1.943926,-1.074582,0.5335147,1.343782,0.1414483,-0.05027209,0.1521285,-0.1018061,-0.4411122,0.8429606,0.477815,0.6852701,1.370398,0.1481936,0.3949276,0.9786375,0.09406333,352.4897,104.2746,2.231048,True
3,0.2555556,-0.160721,0.8488677,0.01540896,-1.116103,-1.77805,1.906331,0.3481846,1.247967,0.111551,-1.810671,0.03278169,2.8,0.3,-0.08910717,-0.07318562,0.08252347,-0.4820247,-1.946846,-1.073135,0.5336411,1.344871,0.1425354,-0.02930392,0.1200869,-0.1296858,-0.4429524,0.846104,0.4746166,0.6854235,1.371,0.1490908,0.3950628,0.9787248,0.0936145,352.6916,104.3159,1.904041,True
3,0.2666667,-0.1610946,1.046501,0.09501114,-1.099769,-1.78901,1.912994,0.3482682,1.249145,0.1134295,-1.810947,-0.02555935,2.8,0.3,-0.04150066,-0.1179116,0.06147913,-0.4795431,-1.949803,-1.071666,0.5338238,1.345407,0.1435227,-0.01467182,0.09978478,-0.153249,-0.4449785,0.8496339,0.4711201,0.685616,1.371452,0.1500232,0.3952386,0.9788185,0.09306883,352.9443,104.3577,1.511608,True
3,0.2777778,-0.1610946,1.046501,0.09501114,-1.099769,-1.78901,1.912994,0.3482682,1.249145,0.1134295,-1.810876,0.006862867,2.8,0.3,-0.04150066,-0.1179116,0.06147913,-0.4795431,-1.949803,-1.071666,0.5338238,1.345407,0.1435227,-0.01467182,0.09978478,-0.153249,-0.4449785,0.8496339,0.4711201,0.685616,1.371452,0.1500232,0.3954458,0.9789115,0.09249548,353.2258,104.3877,1.104245,True
3,0.2888889,-0.1549748,1.192894,0.1590407,-1.084389,-1.799391,1.919329,0.3483357,1.250047,0.1152458,-1.812715,-0.1683681,2.8,0.3,0.02742324,-0.1680731,0.04446981,-0.4765982,-1.953666,-1.070676,0.534368,1.345755,0.1448913,0.01466626,0.06557631,-0.1950674,-0.4484747,0.8526802,0.4672218,0.6861041,1.371929,0.1511333,0.3956039,0.9789695,0.09208267,353.4305,104.3886,0.8131988,True
3,0.3,-0.115755,1.296874,0.2446738,-1.057198,-1.820007,1.930879,0.3487737,1.252002,0.1195457,-1.811059,0.1527549,3.3,0.6,0.1068021,-0.310023,0.04042127,-0.4662769,-1.963597,-1.065963,0.5352954,1.347567,0.1477523,0.09973493,-0.005047292,-0.300272,-0.457947,0.8583866,0.4576203,0.687202,1.373089,0.1538408,0.3956742,0.9790174,0.0919771,353.5127,104.399,0.7377268,True
3,0.3111111,-0.115755,1.296874,0.2446738,-1.057198,-1.820007,1.930879,0.3487737,1.252002,0.1195457,-1.809937,0.1009799,3.3,0.6,0.1068021,-0.310023,0.04042127,-0.4662769,-1.963597,-1.065963,0.5352954,1.347567,0.1477523,0.09973493,-0.005047292,-0.300272,-0.457947,0.8583866,0.4576203,0.687202,1.373089,0.1538408,0.395947,0.9790935,0.09108284,353.5881,103.9768,1.018144,True
3,0.3222222,-0.04991803,1.40953,0.3472983,-1.029415,-1.844703,1.942976,0.3494526,1.254074,0.1251717,-1.812497,-0.2348562,3.3,0.6,0.1866702,-0.3733622,0.06262157,-0.4566938,-1.970804,-1.065628,0.5364053,1.349404,0.1517928,0.1679741,-0.07987104,-0.3839747,-0.4693353,0.8609982,0.4497333,0.6885687,1.374344,0.1567657,0.3969772,0.9790153,0.08480745,352.4917,102.8229,5.547626,True
3,0.3333333,-0.04991803,1.40953,0.3472983,-1.029415,-1.844703,1.942976,0.3494526,1.254074,0.1251717,-1.811963,0.05099654,3.3,0.6,0.1866702,-0.3733622,0.06262157,-0.4566938,-1.970804,-1.065628,0.5364053,1.349404,0.1517928,0.1679741,-0.07987104,-0.3839747,-0.4693353,0.8609982,0.4497333,0.6885687,1.374344,0.1567657,0.3976885,0.9819527,0.07706244,351.5964,103.2627,8.414572,True
3,0.3444445,-0.02984391,1.506842,0.3999755,-1.013322,-1.859586,1.950829,0.349664,1.255064,0.128274,-1.812466,-0.04699383,3.3,0.6,0.3055303,-0.4716316,0.04585417,-0.4490729,-1.97989,-1.064249,0.537156,1.350726,0.1538258,0.2004589,-0.1183408,-0.4290107,-0.4759607,0.862044,0.4455141,0.6894135,1.37507,0.1584041,0.3981184,0.9867009,0.06897789,350.2669,104.1803,11.68222,True
3,0.3555556,-0.005731136,1.71749,0.5093527,-0.9928515,-1.881187,1.961665,0.3501591,1.256302,0.1325786,-1.812901,-0.03936486,3.3,0.6,0.3733783,-0.4939683,0.01525602,-0.4441295,-1.988451,-1.062662,0.5377578,1.351796,0.1560647,0.2256074,-0.1525277,-0.4633147,-0.4828268,0.862397,0.441885,0.6903206,1.375774,0.1600504,0.3983993,0.9918184,0.06183344,348.9241,104.676,14.69681,True
3,0.3666667,0.02211028,2.235402,0.6880823,-0.9425854,-1.933979,1.990721,0.3507831,1.259175,0.1415026,-1.812121,0.07134286,3.6,0.7,0.4678105,-0.5323275,-0.01780282,-0.4333528,-2.005234,-1.060064,0.5393087,1.353956,0.1605675,0.3050187,-0.218807,-0.5002558,-0.4965315,0.860623,0.4346793,0.6922669,1.37714,0.1633739,0.3985264,0.9968321,0.05636584,347.8008,105.214,17.1379,True
3,0.3777778,0.04076788,2.535209,0.7543103,-0.9126834,-1.965136,2.008578,0.351009,1.26054,0.1463234,-1.812795,-0.06242201,3.6,0.7,0.5353695,-0.6536638,-0.05135401,-0.4234969,-2.021178,-1.052876,0.5403827,1.355128,0.1628897,0.3503907,-0.2572721,-0.5347939,-0.5048198,0.8592,0.430606,0.6934209,1.377876,0.1653185,0.3985246,1.001451,0.05249327,347.0171,105.9802,18.8721,True
3,0.3888889,0.06902027,2.828872,0.8557323,-0.8821945,-2.00161,2.029823,0.3513057,1.261875,0.1516747,-1.812628,0.01607227,3.6,0.7,0.575522,-0.6897813,-0.07757682,-0.4167501,-2.035439,-1.047466,0.5412162,1.356176,0.1655576,0.3852437,-0.2829439,-0.5596203,-0.5129057,0.8576784,0.4264741,0.6944384,1.378524,0.1671238,0.3982357,1.006546,0.04949395,346.2835,107.1609,20.44636,True
3,0.4,0.09618199,3.129016,0.9666545,-0.8493993,-2.044458,2.05562,0.3518316,1.26324,0.1578438,-1.812402,0.01984967,3.4,1,0.6327567,-0.732414,-0.09654105,-0.4096911,-2.050781,-1.042155,0.5420913,1.357012,0.1685421,0.4328117,-0.297989,-0.5920639,-0.5213308,0.857421,0.4203017,0.69558,1.37925,0.1690738,0.3978647,1.011207,0.04673722,345.5648,107.7816,21.9776,True
3,0.4111111,0.1150822,3.300909,1.018768,-0.8193977,-2.085654,2.081629,0.3523988,1.264442,0.163655,-1.81285,-0.04140126,3.4,1,0.6739014,-0.794111,-0.1219328,-0.4015056,-2.069525,-1.033744,0.5429411,1.357993,0.1714411,0.4666276,-0.3066186,-0.6169035,-0.5296963,0.8568333,0.4145865,0.6967213,1.379784,0.1708899,0.3973249,1.015377,0.04387083,344.9026,108.2352,23.20634,True
3,0.4222222,0.1572552,3.550733,1.088482,-0.785623,-2.135826,2.113354,0.3532071,1.265574,0.1703506,-1.813179,-0.02923905,3.4,1,0.739025,-0.8842666,-0.195726,-0.3928115,-2.097484,-1.018029,0.543831,1.358973,0.1758776,0.4888442,-0.3130798,-0.6299189,-0.5378366,0.85609,0.4091462,0.6980206,1.380559,0.1726894,0.3963685,1.019603,0.04079639,344.2169,108.9511,24.41864,True
3,0.4333333,0.1761564,3.726709,1.116094,-0.7535191,-2.186485,2.147532,0.3539389,1.266515,0.1765172,-1.812654,0.0480279,3.4,1,0.7813295,-0.8883505,-0.2312706,-0.3864726,-2.119633,-1.007583,0.5447156,1.359771,0.179086,0.5132232,-0.3248518,-0.6397449,-0.5460615,0.8546023,0.4040396,0.6991839,1.381254,0.1746786,0.3948319,1.024385,0.03752918,343.5024,109.8693,25.9556,True
3,0.4444444,0.2342081,4.039296,1.168348,-0.7162923,-2.2503,2.190475,0.3550449,1.26725,0.1839554,-1.813798,-0.1055124,3.4,1,0.8529521,-0.8322023,-0.2228376,-0.3818733,-2.134111,-1.005941,0.5458156,1.360605,0.1827109,0.5630996,-0.3569155,-0.6519514,-0.5549985,0.851356,0.398928,0.7006268,1.381717,0.1767473,0.3927451,1.029843,0.03413774,342.8014,110.8091,27.7996,True
3,0.4555556,0.2552651,4.196131,1.203617,-0.6845027,-2.314653,2.236559,0.3559387,1.267995,0.1907532,-1.812732,0.09822927,3.3,1.8,0.8625037,-0.8268658,-0.2292507,-0.3758525,-2.153589,-0.9975117,0.5468887,1.361739,0.1863604,0.6076232,-0.3921742,-0.6662245,-0.5644059,0.8474252,0.3941374,0.7019659,1.382391,0.1788278,0.3901138,1.03614,0.03061743,341.9971,111.763,29.85755,True
3,0.4666667,0.2922474,4.375202,1.208825,-0.6511258,-2.387678,2.289596,0.3572625,1.26864,0.1981397,-1.814481,-0.1612039,3.3,1.8,0.8505617,-0.822314,-0.2578769,-0.3704926,-2.175762,-0.985841,0.5481472,1.362428,0.1901317,0.6752417,-0.4466935,-0.7105327,-0.5758095,0.8420877,0.3887267,0.7033063,1.382874,0.1809914,0.3869844,1.043196,0.02684523,341.1028,112.6833,32.10461,True
3,0.4777778,0.3208213,4.493235,1.174015,-0.6202204,-2.46289,2.346169,0.3586064,1.269145,0.2052028,-1.813077,0.1295677,3.3,1.8,0.8621107,-0.8649381,-0.2615345,-0.3632893,-2.200587,-0.9725619,0.5494276,1.363305,0.1940496,0.7037804,-0.4425152,-0.7321507,-0.5857447,0.8403004,0.3816211,0.7045808,1.383449,0.1831329,0.3832596,1.051256,0.02299469,340.0268,113.6009,34.61673,True
3,0.4888889,0.3197116,4.522813,1.136532,-0.5927835,-2.542032,2.40784,0.360022,1.269815,0.2124972,-1.813784,-0.06577365,3.3,1.8,0.9051579,-0.9755676,-0.2958916,-0.3538958,-2.23413,-0.9526995,0.5506574,1.364009,0.197849,0.7357057,-0.4159523,-0.7399859,-0.5950386,0.8397397,0.3727123,0.7058574,1.383947,0.1853104,0.3789868,1.060184,0.01925964,338.8397,114.5123,37.36853,True
3,0.5,0.3293048,4.511759,1.075936,-0.5686285,-2.621959,2.471054,0.3616036,1.270221,0.2200894,-1.813198,0.05346958,2.6,2,0.9747752,-1.061658,-0.3461954,-0.3454392,-2.272327,-0.9297804,0.5520207,1.364815,0.2017682,0.7560253,-0.3787006,-0.7370753,-0.6034478,0.8402258,0.3634144,0.7073379,1.384416,0.1874471,0.3742319,1.0699,0.01593228,337.6337,115.324,40.33885,True
3,0.5111111,0.3474841,4.462214,0.9986616,-0.5473036,-2.703385,2.536229,0.3632476,1.270217,0.2269547,-1.812258,0.08488339,2.6,2,1.007885,-1.027596,-0.3515002,-0.3399392,-2.298966,-0.9170579,0.553365,1.365214,0.2051923,0.7719853,-0.3766024,-0.7393776,-0.6126245,0.8386338,0.3555938,0.7087278,1.384926,0.1895483,0.3690957,1.080173,0.01323988,336.449,116.0155,43.42349,True
3,0.5222223,0.3891177,4.416049,0.9339875,-0.5283967,-2.789868,2.605004,0.3654045,1.270135,0.2341125,-1.81225,0.0001605064,2.6,2,1.033526,-0.9218818,-0.3880565,-0.338067,-2.324429,-0.9054623,0.5547234,1.365907,0.20913,0.8198311,-0.4374077,-0.7366024,-0.6225821,0.8320203,0.3504611,0.7104614,1.385358,0.1917338,0.3637611,1.090807,0.01160426,335.2619,116.658,46.53772,True
3,0.5333334,0.4297581,4.328075,0.8356014,-0.512243,-2.874674,2.673051,0.367357,1.270017,0.2403443,-1.812379,-0.01196688,2.6,2,1.039043,-0.8355334,-0.3969192,-0.3361245,-2.347136,-0.8955513,0.5565227,1.366379,0.2132585,0.8474153,-0.4843291,-0.740006,-0.632602,0.8257915,0.3453007,0.7119204,1.385873,0.1938684,0.3584631,1.101377,0.01114477,334.1073,117.1723,49.66739,True
3,0.5444446,0.4407203,4.137093,0.9508454,-0.5088534,-2.960041,2.741779,0.369999,1.269672,0.2471151,-1.813772,-0.1275454,2.6,2,1.043807,-0.81043,-0.3455999,-0.3310831,-2.367611,-0.8879173,0.5581431,1.366979,0.2173567,0.8941295,-0.5280999,-0.7478909,-0.6431726,0.8188541,0.339364,0.7134684,1.386266,0.1960688,0.3533887,1.111393,0.01150465,333.0594,117.6137,52.62471,True
3,0.5555557,0.4708248,4.016192,0.8896589,-0.5014929,-3.045398,2.809124,0.3724889,1.270319,0.2562044,-1.813679,0.009522374,1.8,1.5,1.075081,-0.8665327,-0.276048,-0.3224859,-2.392001,-0.8777076,0.5599906,1.367703,0.2216384,0.9386559,-0.5654849,-0.7610911,-0.6539259,0.8120674,0.3330621,0.7151061,1.386504,0.1983709,0.3486244,1.120682,0.01266568,332.1573,118.0181,55.29068,True
3,0.5666668,0.4775727,3.816325,0.7854668,-0.4957208,-3.119309,2.86873,0.3752596,1.270219,0.2624531,-1.813499,0.01579427,1.8,1.5,1.0963,-0.9691266,-0.2472934,-0.3127606,-2.426134,-0.8580817,0.5618876,1.368266,0.2260277,0.9829867,-0.5773422,-0.7977614,-0.665492,0.8070189,0.3248295,0.7167256,1.386686,0.2006249,0.3442198,1.129117,0.01440509,331.2841,118.5856,57.55543,True
3,0.577778,0.4757795,3.649663,0.7164179,-0.4924648,-3.195125,2.9302,0.3777959,1.270293,0.2697356,-1.814867,-0.1229357,1.8,1.5,1.120034,-0.9833809,-0.2082262,-0.3049948,-2.453242,-0.8456641,0.5637804,1.368693,0.230732,1.038016,-0.5998607,-0.829202,-0.6774986,0.8009641,0.3162767,0.7184249,1.386874,0.2029014,0.3405115,1.136788,0.01763117,330.2139,119.4272,59.43341,True
3,0.5888891,0.4632878,3.484033,0.6396936,-0.4907535,-3.264342,2.986676,0.3806418,1.269719,0.2759018,-1.812463,0.2180183,1.8,1.5,1.164756,-0.9567795,-0.2211448,-0.2996962,-2.481943,-0.8326996,0.5657027,1.369142,0.2354043,1.073966,-0.6393667,-0.8476351,-0.6894871,0.7932419,0.3092921,0.7201581,1.387051,0.2051156,0.3374416,1.143824,0.02277777,329.525,119.9123,61.1138,True
3,0.6000003,0.4465151,3.355803,0.5852063,-0.4913745,-3.336246,3.045634,0.3834884,1.269033,0.2824988,-1.811916,0.04740157,1.8,1.5,1.314906,-0.955074,-0.2277092,-0.2940305,-2.5114,-0.8241363,0.5680323,1.369499,0.2407258,1.11936,-0.7119327,-0.873576,-0.7027614,0.7827775,0.3034845,0.7220066,1.387144,0.2073102,0.3347777,1.150023,0.0278962,329.1207,120.2661,62.57759,True
3,0.6111114,0.4197344,3.279776,0.5514914,-0.4944169,-3.410788,3.107158,0.3863596,1.268403,0.2888894,-1.811082,0.07653335,1.2,1,1.383595,-1.035944,-0.2641456,-0.2866004,-2.556283,-0.7989459,0.5701947,1.369833,0.2457919,1.15214,-0.783365,-0.8844779,-0.7158961,0.7711092,0.2984059,0.7238423,1.387229,0.2095768,0.33239,1.155661,0.03290972,328.6853,120.6017,63.84927,True
3,0.6222225,0.399942,3.203188,0.5531409,-0.5002578,-3.480765,-3.118126,0.3897059,1.26763,0.2959578,-1.810857,0.01986022,1.2,1,1.479029,-1.264588,-0.2254023,-0.2722304,-2.616149,-0.7606443,0.5725453,1.370183,0.2511773,1.220019,-0.8868217,-0.8946344,-0.7297541,0.756046,0.2936833,0.7258755,1.387146,0.2115469,0.3301945,1.160823,0.03741708,328.2116,120.9499,65.16488,True
3,0.6333337,0.3776928,3.144619,0.5599156,-0.5085535,-3.54973,-3.061291,0.3929855,1.266863,0.3031111,-1.810563,0.0269427,1.2,1,1.547302,-1.524618,-0.2400058,-0.257916,-2.695336,-0.7032263,0.574833,1.37049,0.2564287,1.253036,-0.8953998,-0.8970697,-0.7421079,0.7460737,0.2860573,0.7276185,1.38707,0.2136497,0.3281803,1.165772,0.04182287,327.731,121.2962,66.38612,True
3,0.6444448,0.3489805,3.113685,0.5611689,-0.518609,-3.617224,-3.005531,0.3963751,1.265719,0.3095694,-1.810044,0.047257,1.2,1,1.611563,-1.719563,-0.2592919,-0.2450593,-2.782954,-0.6387256,0.5772677,1.370347,0.2612395,1.289252,-0.8965201,-0.8974552,-0.7546216,0.7359798,0.2777509,0.7294805,1.386767,0.2156518,0.326306,1.170844,0.04643286,327.2026,121.6746,67.55923,True
3,0.655556,0.3351432,3.121126,0.5600238,-0.5305192,-3.685865,-2.949449,0.3998472,1.26474,0.3165774,-1.810039,0.0003074782,0.6,0.7,1.638778,-1.775765,-0.2983752,-0.23669,-2.869322,-0.5742974,0.5796518,1.370477,0.2664757,1.295624,-0.9029109,-0.8985795,-0.7671416,0.7254291,0.2705764,0.7314135,1.386598,0.2178111,0.3247066,1.176221,0.0518102,326.5882,122.0441,68.83585,True
3,0.6666671,0.3265361,3.171247,0.5703601,-0.5451853,-3.753644,-2.8946,0.4034499,1.263216,0.3229222,-1.809659,0.03481571,0.6,0.7,1.649744,-1.759998,-0.2748433,-0.2285498,-2.944821,-0.5197795,0.5821615,1.370364,0.2712331,1.31459,-0.9051273,-0.9179271,-0.7802972,0.7153299,0.2624479,0.7333106,1.386243,0.2195787,0.3233087,1.182009,0.05769655,325.889,122.271,70.31862,True
3,0.6777782,0.3307331,3.224683,0.595612,-0.5627462,-3.81955,-2.842516,0.4071331,1.261588,0.3294063,-1.810056,-0.03662259,0.6,0.7,1.659867,-1.683699,-0.2347872,-0.221657,-3.009452,-0.4754608,0.5848788,1.370407,0.2760694,1.303831,-0.9423869,-0.9209685,-0.7933695,0.7030091,0.2569974,0.7353908,1.385956,0.2214925,0.3219757,1.188241,0.06363758,325.156,122.328,72.04528,True
3,0.6888894,0.3433683,3.353829,0.6299754,-0.5839391,-3.888525,-2.789055,0.4113173,1.259687,0.3358645,-1.810253,-0.01774552,0.6,0.7,1.682324,-1.527781,-0.2858124,-0.2208581,-3.06514,-0.4410472,0.5878029,1.37022,0.2807691,1.304931,-1.031807,-0.9038272,-0.8064014,0.6866056,0.2538736,0.7373331,1.385714,0.2232611,0.3206337,1.194961,0.06973608,324.4003,122.2247,73.9623,True
3,0.7000005,0.3569907,3.489382,0.6674784,-0.6082793,-3.955354,-2.73823,0.4155064,1.257533,0.3419483,-1.810962,-0.06438652,0.6,0.7,1.67713,-1.447809,-0.2956823,-0.2188064,-3.127063,-0.3990582,0.5910747,1.369938,0.2852902,1.346648,-1.10962,-0.8743083,-0.8187281,0.669273,0.2494282,0.7392636,1.385309,0.2246144,0.3191545,1.202126,0.07580891,323.5408,121.9993,76.16354,True
3,0.7111117,0.3568801,3.552547,0.7171521,-0.6346164,-4.014151,-2.694519,0.4196203,1.255517,0.3480163,-1.811573,-0.05517875,0.2,0.6,1.652192,-1.44507,-0.2272707,-0.2125756,-3.197101,-0.3483612,0.5941693,1.369653,0.28949,1.371345,-1.111713,-0.8575459,-0.830396,0.6562994,0.2421149,0.7412201,1.385007,0.2263365,0.3175641,1.209599,0.08214859,322.6069,121.7318,78.52631,True
3,0.7222228,0.3535682,3.612641,0.7871046,-0.6631148,-4.066989,-2.656411,0.4241223,1.253136,0.3543453,-1.811568,0.0007395911,0.2,0.6,1.628292,-1.456334,-0.2740184,-0.2116936,-3.277479,-0.2867399,0.5974462,1.369151,0.2938089,1.397091,-1.118122,-0.8396976,-0.8416809,0.6426594,0.235041,0.7430812,1.384574,0.227741,0.3158275,1.21734,0.08889031,321.6398,121.4726,81.02204,True
3,0.7333339,0.3397315,3.627721,0.8157805,-0.6916118,-4.116612,-2.621124,0.428464,1.250898,0.3605766,-1.811119,0.04097355,0.2,0.6,1.623031,-1.469161,-0.2645247,-0.209995,-3.3583,-0.2258856,0.6004751,1.368813,0.2983489,1.3928,-1.126643,-0.8406832,-0.8537508,0.6288642,0.2289972,0.7449867,1.384015,0.229316,0.3139093,1.225284,0.09604896,320.6121,121.1823,83.67226,True
3,0.7444451,0.3259388,3.589542,0.8469123,-0.7206817,-4.159847,-2.591507,0.4329436,1.248132,0.3660507,-1.810956,0.0148769,0.2,0.6,1.628485,-1.489624,-0.2413115,-0.2083961,-3.442985,-0.1614643,0.6035415,1.368381,0.3025155,1.373556,-1.114905,-0.8490201,-0.8660414,0.6162315,0.2224855,0.7468967,1.383546,0.2306566,0.312001,1.233187,0.1038349,319.4737,120.8875,86.4219,True
3,0.7555562,0.3149029,3.562989,0.8610079,-0.7503009,-4.199755,-2.565068,0.4372188,1.248196,0.3793468,-1.810358,0.05477237,0.1,0.7,1.666767,-1.473554,-0.2616967,-0.2095386,-3.520514,-0.1057765,0.6065781,1.367844,0.306751,1.36609,-1.126582,-0.849966,-0.877903,0.6026096,0.2163696,0.7487903,1.383083,0.2319849,0.3103665,1.240739,0.1123929,318.2993,120.5554,89.23902,True
3,0.7666674,0.312788,3.543783,0.8547416,-0.7796953,-4.238897,-2.540124,0.4417387,1.24518,0.3843889,-1.810222,0.01148401,0.1,0.7,1.70212,-1.449246,-0.2510669,-0.2104201,-3.594842,-0.05321289,0.6096601,1.367371,0.3109379,1.367203,-1.144683,-0.8424932,-0.8896162,0.5882146,0.2103229,0.7506485,1.382686,0.2332549,0.3090044,1.247845,0.1213641,317.1937,120.152,92.09327,True
3,0.7777785,0.3213823,3.513871,0.8389876,-0.8088452,-4.275601,-2.518274,0.4462337,1.242028,0.389169,-1.8102,0.002295659,0.1,0.7,1.699516,-1.473319,-0.2991986,-0.2150028,-3.676293,0.007539941,0.6127993,1.366637,0.3148499,1.378129,-1.158507,-0.8138142,-0.900076,0.573491,0.2039294,0.7525036,1.382316,0.2343025,0.308398,1.254093,0.131489,316.3374,119.8411,94.11852,True
3,0.7888896,0.3299059,3.474447,0.8318408,-0.8388276,-4.309612,-2.498935,0.4506776,1.23947,0.3945565,-1.810428,-0.02074667,0.1,0.7,1.673602,-1.514578,-0.323697,-0.2196778,-3.759882,0.0717871,0.6158713,1.366004,0.3186636,1.378344,-1.144631,-0.7957263,-0.9106174,0.5602382,0.1967349,0.7542456,1.381979,0.2354701,0.3087153,1.259711,0.1439996,315.5523,119.5493,95.48202,True
3,0.8000008,0.3344289,3.371156,0.8367878,-0.8670496,-4.338057,-2.484289,0.4552112,1.236438,0.3989165,-1.811072,-0.0590508,0.1,0.7,1.630941,-1.551802,-0.3151489,-0.224889,-3.842405,0.135749,0.6188913,1.365326,0.3221283,1.360728,-1.101891,-0.7582863,-0.9193621,0.5488961,0.1892842,0.7558265,1.381504,0.2364821,0.3082603,1.265967,0.1553717,314.4961,118.8092,98.68071,True
3,0.8111119,0.3400076,3.249645,0.8226718,-0.8939518,-4.364327,-2.471513,0.4599348,1.233735,0.4036415,-1.811055,0.002101979,0.2,0.7,1.599793,-1.532241,-0.3519256,-0.2323177,-3.910112,0.1848527,0.622106,1.364518,0.3258736,1.347096,-1.080536,-0.7411282,-0.9288909,0.5368213,0.1820952,0.757512,1.381128,0.2375517,0.3073418,1.272265,0.1654682,313.4849,117.9246,102.4107,True
3,0.8222231,0.3317323,3.106672,0.7894676,-0.9184476,-4.387669,-2.460554,0.4642859,1.231101,0.4074559,-1.811336,-0.0255197,0.2,0.7,1.540194,-1.525699,-0.3471197,-0.2395599,-3.976613,0.2344517,0.6251344,1.363657,0.3289802,1.309966,-1.07513,-0.7268832,-0.9384308,0.5238683,0.1766411,0.7591963,1.380733,0.2385826,0.306513,1.277982,0.1747418,312.5104,117.1175,105.7085,True
3,0.8333342,0.310761,2.892278,0.7492684,-0.9403819,-4.406914,-2.451696,0.4687564,1.228476,0.4118836,-1.811233,0.009838488,0.2,0.7,1.468351,-1.462144,-0.2926586,-0.2449293,-4.035725,0.2777922,0.6282378,1.362878,0.3324659,1.285523,-1.036778,-0.7245296,-0.9480726,0.5129812,0.1696183,0.7609679,1.380327,0.2395763,0.3062154,1.282609,0.1834098,311.5974,116.3975,108.532,True
3,0.8444453,0.291867,2.730112,0.7161798,-0.9615274,-4.425,-2.443801,0.4728957,1.225973,0.4156823,-1.810676,0.05059946,0.2,0.7,1.436775,-1.364103,-0.2840914,-0.2509699,-4.078503,0.3043509,0.6312023,1.362086,0.3355346,1.27725,-0.9909309,-0.708531,-0.9568279,0.5030702,0.1614344,0.7625163,1.379898,0.2403741,0.3066624,1.285981,0.1916504,310.8432,115.855,110.7086,True
3,0.8555565,0.2624639,2.486701,0.6367573,-0.9781876,-4.440078,-2.437143,0.4769682,1.223825,0.4195638,-1.809879,0.07231514,0.6,0.6,1.401968,-1.20076,-0.3079299,-0.2571666,-4.101943,0.3122948,0.6342987,1.361189,0.3383558,1.28153,-0.9866875,-0.7074945,-0.9662684,0.4911776,0.1537113,0.7642397,1.379457,0.2414076,0.3077164,1.288279,0.1992916,310.2386,115.3941,112.4442,True
3,0.8666676,0.261651,2.344609,0.5715863,-0.994876,-4.456141,-2.431116,0.4810324,1.221449,0.4227784,-1.809871,0.0003826371,0.6,0.6,1.367223,-1.092068,-0.3002383,-0.2626868,-4.131489,0.3266585,0.6373172,1.360246,0.3409724,1.2666,-0.9898596,-0.7083973,-0.975827,0.4792257,0.1468014,0.7657682,1.379036,0.2422094,0.3093809,1.28961,0.2064525,309.725,115.0067,113.7505,True
3,0.8777788,0.2641866,2.122264,0.4472748,-1.006309,-4.470548,-2.426339,0.4849135,1.219408,0.4255221,-1.809291,0.05319276,0.6,0.6,1.303203,-1.04151,-0.3323067,-0.2704334,-4.160504,0.3422322,0.6402296,1.359313,0.3435667,1.243314,-0.9855709,-0.6953159,-0.9846452,0.4672764,0.1403805,0.7672592,1.37865,0.2430375,0.3113105,1.290424,0.2129531,309.2992,114.6563,114.8204,True
3,0.8888899,0.2720709,2.004896,0.3998795,-1.02117,-4.486288,-2.421134,0.4884656,1.217797,0.4288466,-1.810344,-0.09679653,0.6,0.6,1.261716,-1.045696,-0.3255512,-0.2776676,-4.198158,0.3657807,0.6431472,1.358387,0.3460281,1.225549,-0.9758701,-0.6674254,-0.9923588,0.4559329,0.1335543,0.7686852,1.378257,0.2437367,0.3133897,1.290932,0.2188394,308.9909,114.4274,115.674,True
3,0.900001,0.264018,1.772172,0.3235804,-1.029648,-4.496003,-2.418907,0.4919091,1.216042,0.4312143,-1.810744,-0.03559287,0.6,0.6,1.24789,-1.046745,-0.322252,-0.2850142,-4.231923,0.3851429,0.645986,1.357447,0.3484106,1.216141,-0.9641504,-0.6502852,-1.000122,0.4448809,0.126742,0.7702384,1.377876,0.2443876,0.3154505,1.291346,0.2241667,308.7876,114.1946,116.566,True
3,0.9111122,0.2557233,1.669751,0.2964568,-1.042001,-4.508119,-2.415184,0.4954847,1.214218,0.4340866,-1.810919,-0.01593471,0.6,0.3,1.240603,-1.030804,-0.3124641,-0.2920582,-4.263136,0.4013426,0.6488183,1.356411,0.3510621,1.218578,-0.9619507,-0.6247392,-1.007355,0.4334466,0.119235,0.7716966,1.377308,0.2450428,0.3173882,1.291707,0.2290323,308.727,114.1094,117.193,True
3,0.9222233,0.2378113,1.543806,0.2631558,-1.051564,-4.517563,-2.412426,0.4987346,1.212614,0.436317,-1.810675,0.0227306,0.6,0.3,1.235553,-1.031082,-0.2783336,-0.2982543,-4.296006,0.4195573,0.6517426,1.355466,0.3534048,1.212256,-0.9800347,-0.6150562,-1.01499,0.4210778,0.1127814,0.7731272,1.376833,0.2455075,0.3190955,1.292193,0.2337794,308.5942,113.9714,117.7669,True
3,0.9333345,0.2209628,1.484031,0.2432636,-1.063196,-4.529099,-2.408811,0.5021106,1.210729,0.4387763,-1.810323,0.03189787,0.6,0.3,1.234517,-1.05991,-0.2679016,-0.3058545,-4.331074,0.4394631,0.6546878,1.354636,0.3557351,1.200493,-0.9938725,-0.6191208,-1.023038,0.4087259,0.1065704,0.774531,1.376385,0.24612,0.3207285,1.292559,0.2384567,308.4006,113.7917,118.5743,True
3,0.9444456,0.1944138,1.429528,0.2222976,-1.073711,-4.539473,-2.404998,0.5054022,1.209077,0.440721,-1.80989,0.03951847,0.6,0.3,1.233173,-1.114124,-0.2811433,-0.3153609,-4.367777,0.4608648,0.6577365,1.353739,0.3579586,1.188749,-1.002376,-0.6200495,-1.031066,0.3963511,0.1002504,0.7759831,1.375909,0.2465224,0.322336,1.292827,0.2431949,308.1388,113.6396,119.3681,True
3,0.9555568,0.1700291,1.413502,0.2138232,-1.085977,-4.551452,-2.400537,0.5087621,1.207238,0.4426775,-1.810046,-0.01453712,0.6,0.3,1.215311,-1.144289,-0.2385799,-0.3227421,-4.405574,0.483918,0.6609431,1.35274,0.3599396,1.166493,-1.008701,-0.610182,-1.038458,0.3839704,0.09436113,0.7773545,1.375499,0.2469492,0.3238747,1.29309,0.247856,307.8712,113.5007,120.2234,True
3,0.9666679,0.1455221,1.439037,0.2114899,-1.099189,-4.564054,-2.395522,0.5120264,1.205551,0.4444871,-1.809344,0.06437581,3.1,0.2,1.201542,-1.134772,-0.2298284,-0.3307204,-4.436155,0.5000144,0.6637066,1.351783,0.3620501,1.157049,-1.003338,-0.5973072,-1.045614,0.3719604,0.08791228,0.7787737,1.374994,0.2473364,0.3254007,1.293375,0.2525325,307.6126,113.3562,121.082,True
3,0.977779,0.1156263,1.494529,0.2324432,-1.114187,-4.576731,-2.390209,0.5152338,1.203903,0.4461396,-1.809447,-0.009835712,3.1,0.2,1.166472,-1.109094,-0.229325,-0.338508,-4.46278,0.513406,0.6666814,1.350792,0.3639109,1.148945,-0.9957799,-0.5620559,-1.051393,0.3601367,0.08114146,0.7800812,1.374526,0.247797,0.3268794,1.293822,0.2571165,307.3382,113.213,121.9963,True
3,0.9888902,0.08893225,1.528697,0.2503484,-1.129173,-4.588768,-2.385118,0.5184156,1.202202,0.4479148,-1.809268,0.01662052,3.1,0.2,1.141126,-1.085736,-0.2118787,-0.3458253,-4.489753,0.5268154,0.6696246,1.349902,0.3659766,1.129922,-0.9935927,-0.5480106,-1.057946,0.3480029,0.07516266,0.7814784,1.374068,0.2482278,0.3283675,1.294492,0.2616872,307.0905,113.0185,122.9402,True
3,1.000001,0.04843375,1.572569,0.287336,-1.145563,-4.600785,-2.379373,0.5214661,1.200556,0.449476,-1.809038,0.0210709,3.1,0.2,1.099975,-0.990888,-0.2000789,-0.3512193,-4.507138,0.5322863,0.672519,1.348893,0.3675628,1.101214,-0.9945757,-0.5434201,-1.064453,0.3359231,0.06987575,0.7827673,1.37353,0.248461,0.3298255,1.295534,0.2662961,306.8476,112.7223,123.9795,True
3,1.011112,0.01012915,1.603573,0.3062518,-1.161506,-4.613188,-2.373334,0.5243632,1.199152,0.4510894,-1.809029,0.0008786327,4.2,0.2,1.066956,-0.9629292,-0.2155589,-0.3589078,-4.527534,0.5402188,0.6755511,1.347858,0.3695092,1.087663,-0.9934113,-0.5176847,-1.06996,0.3238904,0.06395182,0.7843276,1.373033,0.2487793,0.3313043,1.296985,0.2710451,306.5996,112.2388,125.2454,True
3,1.022224,-0.04531252,1.636711,0.3358665,-1.178437,-4.624589,-2.366571,0.5271935,1.19768,0.4523773,-1.808458,0.05239579,4.2,0.2,1.036375,-0.9439225,-0.1842532,-0.3649367,-4.549803,0.5505843,0.6784284,1.346865,0.3710663,1.056911,-0.9965339,-0.5035087,-1.075801,0.3115044,0.05916825,0.785695,1.372522,0.248961,0.3329088,1.298729,0.2760177,306.3941,111.5598,126.7653,True
3,1.033335,-0.09636164,1.634597,0.3422354,-1.194053,-4.63588,-2.35988,0.5298717,1.196398,0.4537311,-1.808382,0.006780972,4.2,0.2,0.9984865,-0.8971378,-0.1578556,-0.3701304,-4.570877,0.5597861,0.6813802,1.346047,0.3729072,1.041232,-0.9751512,-0.4799209,-1.08089,0.3003573,0.05336123,0.7871759,1.371924,0.249162,0.3345735,1.300806,0.2811536,306.2338,110.7359,128.4883,True
3,1.044446,-0.1400393,1.63458,0.3486257,-1.209828,-4.646512,-2.353019,0.5325827,1.195042,0.4549649,-1.807423,0.08772465,4.2,0.2,0.9879528,-0.8758538,-0.1511973,-0.3761491,-4.589604,0.5666323,0.6842779,1.345088,0.3744636,1.038227,-0.9676621,-0.4628557,-1.085964,0.2887698,0.04739628,0.7885662,1.371347,0.2493844,0.336265,1.303196,0.286408,306.1436,109.8369,130.3372,True
3,1.055557,-0.2059685,1.612201,0.3540185,-1.224989,-4.65677,-2.345098,0.5351276,1.193903,0.4561348,-1.807593,-0.01576999,4.2,0.2,0.9713129,-0.8664323,-0.118972,-0.3815527,-4.611653,0.5760868,0.6872312,1.344115,0.376029,1.004214,-0.9569474,-0.459261,-1.091325,0.2772532,0.0425938,0.7898503,1.370689,0.2497151,0.3380034,1.305838,0.2916818,306.0708,108.8182,132.3706,True
3,1.066668,-0.2751606,1.581225,0.3520625,-1.239517,-4.666066,-2.336695,0.5374517,1.192957,0.4570837,-1.807474,0.01128331,5.5,0,0.9419357,-0.8454217,-0.07271039,-0.3855778,-4.632689,0.586141,0.6900899,1.343187,0.3773587,0.9691118,-0.9345295,-0.4567986,-1.096752,0.2666517,0.03791862,0.7912763,1.370036,0.249923,0.3398613,1.308569,0.2968881,306.0884,107.797,134.4096,True
3,1.077779,-0.325172,1.564175,0.3585484,-1.254756,-4.675343,-2.328513,0.5400078,1.191982,0.4580121,-1.806583,0.08168697,5.5,0,0.9025907,-0.8399613,-0.07128257,-0.3913489,-4.651816,0.5947672,0.6930885,1.342235,0.3786881,0.9584486,-0.9196205,-0.459884,-1.102282,0.2557523,0.0324112,0.7927244,1.369333,0.2500796,0.3418877,1.311259,0.3019409,306.1566,106.769,136.4042,True
3,1.08889,-0.3922311,1.526808,0.3566446,-1.268912,-4.683625,-2.319332,0.5421574,1.191313,0.4586046,-1.806073,0.04630026,5.5,0,0.8623849,-0.8646283,-0.03490531,-0.3966922,-4.675993,0.6083789,0.6961521,1.341316,0.3799157,0.9412209,-0.9175129,-0.4767354,-1.108421,0.2445143,0.02759781,0.7941828,1.36875,0.250308,0.3439929,1.313982,0.3066896,306.2651,105.7869,138.283,True
3,1.100002,-0.4890546,1.465874,0.3400032,-1.28196,-4.691437,-2.308625,0.5442212,1.190897,0.4590244,-1.806688,-0.05610313,5.5,0,0.8327518,-0.9010844,0.003372967,-0.4022236,-4.701589,0.6235336,0.6990627,1.340559,0.3811612,0.8835446,-0.909986,-0.492129,-1.11481,0.2335413,0.02433676,0.7956716,1.368086,0.2503712,0.3461764,1.31678,0.3110268,306.3867,104.8542,140.0226,True
3,1.111113,-0.5305346,1.428466,0.3263921,-1.295365,-4.699507,-2.299308,0.5464083,1.190356,0.4597309,-1.805912,0.07190138,5.8,0,0.8168397,-0.9320213,0.01500976,-0.4087297,1.556741,0.6371416,0.7018225,1.339854,0.3825088,0.8431187,-0.9003165,-0.4916871,-1.120314,0.2227724,0.02070847,0.7970784,1.367459,0.2504346,0.3485294,1.319615,0.3149779,306.5469,103.9386,141.652,True
3,1.122224,-0.5996895,1.355757,0.2980976,-1.306548,-4.706298,-2.288396,0.5481557,1.190247,0.4600704,-1.804693,0.1112089,5.8,0,0.7732369,-0.9640313,0.03639108,-0.4150334,1.531187,0.6533717,0.704569,1.339238,0.3835912,0.7855407,-0.8799946,-0.4996466,-1.126407,0.2126966,0.01815397,0.7984712,1.366876,0.2505226,0.3509254,1.322654,0.3184381,306.7875,103.0399,143.215,True
3,1.133335,-0.6645372,1.273528,0.2730391,-1.317194,1.570471,-2.27743,0.5497514,1.190239,0.46064,-1.806609,-0.1755822,5.8,0,0.7064525,-0.9737744,0.07629472,-0.4205403,1.505515,0.6705874,0.7071391,1.338599,0.3843882,0.7440065,-0.8618171,-0.5013865,-1.13231,0.2027543,0.015245,0.7998774,1.366236,0.2506764,0.3534484,1.325895,0.3214104,307.1016,102.2672,144.5332,True
3,1.144446,-0.7038866,1.217976,0.256353,-1.327566,1.564596,-2.266814,0.5512345,1.190291,0.4610765,-1.805454,0.1076652,5.8,0,0.6054274,-0.9490694,0.08800358,-0.4256403,1.484295,0.6862942,0.709502,1.338027,0.3851476,0.6834019,-0.7988626,-0.4997958,-1.137898,0.1955682,0.0128367,0.801196,1.365655,0.2508695,0.3562358,1.329177,0.3240909,307.5546,101.5206,145.6787,True
3,1.155557,-0.7612867,1.121875,0.2282005,-1.336017,1.559657,-2.255365,0.5523637,1.190745,0.4617307,-1.80572,-0.02500386,5.8,0,0.5375355,-0.9203086,0.1111544,-0.4302406,1.463884,0.7008662,0.711936,1.337397,0.3861549,0.6238745,-0.7242044,-0.4961278,-1.143442,0.1895293,0.01036769,0.8023689,1.36482,0.2512267,0.3590941,1.332652,0.3264564,308.1109,100.8057,146.7429,True
3,1.166668,-0.8101756,1.025842,0.2117745,-1.343768,1.555791,-2.243847,0.5531711,1.191465,0.4621716,-1.806557,-0.07565666,5.7,0,0.4667038,-0.8512214,0.1549134,-0.4324638,1.445608,0.7145698,0.7139001,1.336875,0.3867221,0.568505,-0.6463588,-0.5063368,-1.149486,0.1845063,0.007815845,0.8036734,1.364182,0.2515316,0.3620185,1.336262,0.3286066,308.7449,100.127,147.6864,True
3,1.17778,-0.8473282,0.9383788,0.1985119,-1.351056,1.552328,-2.232633,0.5539414,1.192161,0.4626272,-1.806134,0.0397567,5.7,0,0.4021285,-0.7638556,0.1753379,-0.4343227,1.431245,0.7251641,0.7158414,1.33642,0.3874435,0.5149246,-0.5920524,-0.5368123,-1.156993,0.1789627,0.006188388,0.8050872,1.363675,0.2517595,0.3649529,1.339959,0.3306276,309.4341,99.46309,148.5804,True
3,1.188891,-0.8770411,0.8573108,0.1830345,-1.357803,1.548865,-2.221179,0.554495,1.193015,0.4629571,-1.806307,-0.01585795,5.7,0,0.3226169,-0.7052529,0.200976,-0.4363824,1.414957,0.7386051,0.7177575,1.336057,0.3880746,0.4657432,-0.555728,-0.5661285,-1.163639,0.1737405,0.004430967,0.8061143,1.36292,0.2519274,0.3677423,1.343827,0.3325178,310.1436,98.85847,149.3993,True
3,1.200002,-0.9025501,0.8071237,0.1695116,-1.364518,1.545594,-2.209519,0.5549647,1.194022,0.4631898,-1.807084,-0.07045291,5.7,0,0.2599881,-0.6785903,0.2198028,-0.4386834,1.398328,0.7528,0.7193936,1.335758,0.388556,0.4082948,-0.5172795,-0.564529,-1.169946,0.1688584,0.003613111,0.8072052,1.36233,0.2520707,0.3703462,1.34786,0.3342464,310.8363,98.26086,150.2255,True
3,1.211113,-0.9258997,0.732373,0.1433585,-1.369775,1.542605,-2.197765,0.5552846,1.195317,0.463377,-1.807406,-0.02853973,4.5,0,0.2100154,-0.6763937,0.2298253,-0.4419068,1.380388,0.7680511,0.7212093,1.3355,0.3891516,0.3838869,-0.4830898,-0.559025,-1.175902,0.1645795,0.001804292,0.8084744,1.361436,0.2523942,0.3728442,1.351874,0.3358327,311.524,97.70515,151.0143,True
3,1.222224,-0.9598553,0.6203144,0.1163679,-1.372902,1.540858,-2.185532,0.554866,1.197138,0.4633074,-1.807616,-0.0186699,4.5,0,0.145219,-0.6817456,0.2558571,-0.4447308,1.361314,0.7859516,0.722616,1.335252,0.3895142,0.334516,-0.4104777,-0.5032296,-1.179659,0.1622772,0.0006018744,0.8093698,1.360895,0.2525811,0.3752018,1.35586,0.3372612,312.1971,97.22366,151.7226,True
3,1.233335,-0.9715036,0.5680163,0.09965293,-1.377191,1.53845,-2.173996,0.5550038,1.198617,0.4633894,-1.807885,-0.02415713,4.5,0,0.09654951,-0.6648366,0.2883463,-0.4467399,1.342787,0.8027415,0.7239852,1.335046,0.3898633,0.2851567,-0.3378591,-0.450563,-1.182288,0.1608015,-0.0004862932,0.8100128,1.360559,0.252826,0.3774114,1.359851,0.3385252,312.8261,96.80983,152.3508,True
3,1.244446,-0.9916379,0.475199,0.08107999,-1.379395,1.537371,-2.162218,0.5544463,1.200483,0.4631624,-1.807581,0.02823716,4.5,0,0.02649444,-0.625362,0.3052106,-0.448259,1.327324,0.8184557,0.7250829,1.334972,0.3902001,0.2462125,-0.2855344,-0.4129587,-1.185656,0.159206,-0.001384844,0.8108081,1.360057,0.2529609,0.379406,1.363974,0.3395431,313.4711,96.46092,152.927,True
3,1.255558,-1.004346,0.4208224,0.07291383,-1.382202,1.536099,-2.150628,0.5541021,1.202278,0.4629893,-1.808743,-0.1061752,4.5,0,-0.005372643,-0.6136271,0.3140863,-0.4504668,1.310868,0.8344722,0.7262775,1.334929,0.3904302,0.2123168,-0.251379,-0.4009376,-1.189831,0.1570743,-0.002057292,0.8119084,1.359612,0.2531226,0.3811438,1.368295,0.3401811,314.1147,96.15059,153.4124,True
3,1.266669,-1.018114,0.3482774,0.05846909,-1.383615,1.535415,-2.138782,0.5532694,1.204457,0.4625738,-1.808693,0.005747851,3.1,0,-0.09149176,-0.5376719,0.3068911,-0.4509307,1.300085,0.8480184,0.7271039,1.335065,0.3906064,0.1538084,-0.2150611,-0.3982624,-1.194164,0.1558639,-0.001319064,0.8126489,1.359138,0.2532105,0.3828791,1.372489,0.3405396,314.7416,95.8857,153.7736,True
3,1.27778,-1.039342,0.2897433,0.06630535,-1.385401,1.535456,-2.126748,0.5524442,1.206693,0.4621537,-1.809166,-0.04323091,3.1,0,-0.1516756,-0.4718135,0.3494491,-0.4499283,1.286417,0.8638687,0.727832,1.335238,0.3905859,0.1304848,-0.1894547,-0.3927284,-1.198344,0.1543,-0.00159044,0.8136483,1.358716,0.2533915,0.3845265,1.376658,0.3405428,315.3924,95.62429,154.0806,True
3,1.288891,-1.060596,0.2429239,0.07619316,-1.387269,1.535669,-2.114328,0.5514542,1.209196,0.4615693,-1.809097,0.006857985,3.1,0,-0.2052204,-0.3485326,0.4020383,-0.4462318,1.275172,0.8776229,0.728413,1.335351,0.3906558,0.1008607,-0.1765983,-0.3754039,-1.201968,0.152629,-0.001205613,0.8142045,1.358408,0.253581,0.3861327,1.380763,0.3402298,316.0414,95.40191,154.2773,True
3,1.300002,-1.072294,0.2237781,0.08270975,-1.389451,1.535705,-2.102029,0.550447,1.211614,0.4609311,-1.809,0.008948203,3.1,0,-0.2503746,-0.220864,0.4386171,-0.4410701,1.266851,0.8894356,0.7289069,1.335514,0.390631,0.05139071,-0.1498042,-0.3216717,-1.203816,0.1516192,0.0001603223,0.8146415,1.358083,0.2536728,0.3875917,1.384982,0.3395657,316.6996,95.19917,154.397,True
3,1.311113,-1.094656,0.2186027,0.1072467,-1.39263,1.53621,-2.089327,0.5491962,1.214286,0.4600611,-1.808823,0.01630936,3.1,0,-0.2747046,-0.1686166,0.4403103,-0.4386588,1.257108,0.9018571,0.7294679,1.335661,0.3906739,0.02731088,-0.1251902,-0.284185,-1.205901,0.1510946,0.0007022755,0.8151911,1.357865,0.2538247,0.3889513,1.389335,0.338606,317.3136,94.98517,154.4448,True
3,1.322224,-1.120203,0.1995874,0.1361327,-1.395236,1.53761,-2.076346,0.5478281,1.217059,0.4590735,-1.809209,-0.03529008,2,0,-0.2914869,-0.1421322,0.4641012,-0.4355041,1.245262,0.9164337,0.7297802,1.335951,0.3906434,-0.01058371,-0.09523555,-0.2444251,-1.207248,0.1510741,0.002099636,0.8155732,1.357656,0.2538638,0.3902514,1.393883,0.3374229,317.9175,94.78557,154.4452,True
3,1.333336,-1.169153,0.1518221,0.1683958,-1.396815,1.540021,-2.062327,0.5464113,1.219881,0.4581876,-1.809011,0.01862988,2,0,-0.3124647,-0.1253057,0.4974428,-0.4323653,1.230625,0.9335071,0.729943,1.336382,0.3905895,-0.04115394,-0.0844782,-0.2143,-1.208825,0.1504389,0.003674896,0.8158789,1.357416,0.2540202,0.3915748,1.398563,0.3361433,318.5577,94.5795,154.4357,True
3,1.344447,-1.221281,0.08267383,0.1922825,-1.39713,1.543268,-2.047658,0.5447731,1.222918,0.4572053,-1.808795,0.01973024,2,0,-0.3647311,-0.1314944,0.4914079,-0.4306012,1.217919,0.9507843,0.7299728,1.336823,0.3904924,-0.07047968,-0.05985489,-0.1692927,-1.209284,0.1505394,0.005334045,0.8161026,1.35724,0.2541301,0.3928947,1.403502,0.3348383,319.2259,94.27866,154.5354,True
3,1.355558,-1.256376,0.03158319,0.204337,-1.397197,1.546283,-2.033183,0.5430816,1.225824,0.4561777,-1.807861,0.08547044,2,0,-0.4117007,-0.1430036,0.4821007,-0.429488,1.204917,0.9685593,0.7300064,1.337314,0.3903732,-0.113807,-0.02669744,-0.1390772,-1.210068,0.1515618,0.007668839,0.8162545,1.356979,0.254287,0.3942812,1.408601,0.3335195,319.9224,93.9015,154.7467,True
3,1.366669,-1.296792,-0.03121403,0.2196566,-1.396358,1.550096,-2.018084,0.5410062,1.229035,0.4549818,-1.807343,0.04698044,1.2,0,-0.462879,-0.1385344,0.4750807,-0.4278608,1.192872,0.9864923,0.7295381,1.337831,0.3901646,-0.1826202,0.04164217,-0.1075811,-1.210151,0.1545708,0.01102868,0.8163273,1.356772,0.2544503,0.3958118,1.413766,0.332127,320.6443,93.49267,154.9943,True
3,1.37778,-1.312737,-0.05882347,0.2347434,-1.396268,1.553609,-2.003599,0.5390127,1.232205,0.4537778,-1.807948,-0.05532152,1.2,0,-0.528932,-0.08383468,0.4526169,-0.4247817,1.185243,1.001183,0.7288625,1.338388,0.3899007,-0.2389234,0.0928995,-0.09856597,-1.211283,0.1576962,0.01444818,0.8163652,1.356332,0.2546198,0.3975194,1.41899,0.330543,321.4316,93.08434,155.2219,True
3,1.388891,-1.319123,-0.06609625,0.2635544,-1.397173,1.557682,-1.989381,0.5365819,1.235654,0.4524961,-1.807666,0.02658072,1.2,0,-0.6024179,-0.04197627,0.4396929,-0.4217595,1.176628,1.018051,0.7280523,1.339119,0.3895435,-0.2847537,0.1345041,-0.1066785,-1.212742,0.1607258,0.01805703,0.8163625,1.356191,0.2549155,0.3994058,1.424188,0.3287137,322.334,92.6887,155.3793,True
3,1.400002,-1.306385,-0.02213413,0.3048189,-1.400282,1.561503,-1.97605,0.5339271,1.239208,0.4508615,-1.808663,-0.09123437,1.2,0,-0.6726037,0.02007049,0.4333012,-0.417507,1.169918,1.033922,0.726981,1.339933,0.3891211,-0.3541899,0.1942438,-0.1326928,-1.215313,0.1655368,0.02280731,0.8163766,1.356279,0.2550616,0.4013532,1.42947,0.3265592,323.2981,92.27934,155.4499,True
3,1.411114,-1.342646,0.0174447,0.335444,-1.403343,1.565157,-1.960726,0.5317395,1.242547,0.449388,-1.809255,-0.05307309,1.2,0,-0.7162503,0.03832582,0.4274085,-0.4146925,1.160876,1.051005,0.726144,1.340966,0.3886118,-0.3914544,0.2273222,-0.1355535,-1.216833,0.1695713,0.02709953,0.8162686,1.356195,0.2552729,0.4033032,1.43481,0.3241459,324.2942,91.88761,155.3777,True
3,1.422225,-1.253195,0.04958671,0.3490879,-1.406504,1.568674,-1.950647,0.5289462,1.246072,0.4476902,-1.810446,-0.1084205,1.7,0,-0.7693962,0.02980363,0.4458647,-0.4119351,1.148867,1.072337,0.7247802,1.342191,0.3881085,-0.4701744,0.2977999,-0.1327124,-1.218386,0.1761826,0.03276647,0.8160354,1.356457,0.2554326,0.4050695,1.440395,0.3215798,325.3181,91.44404,155.2615,True
3,1.433336,-1.22977,0.06251043,0.3681928,-1.409139,-4.710484,-1.938611,0.5264542,1.249598,0.445915,-1.808782,0.1531184,1.7,0,-0.8141043,0.03097042,0.4473059,-0.4094355,1.137503,1.092842,0.7235881,1.343347,0.3877001,-0.5094062,0.3437239,-0.1206524,-1.219339,0.1823996,0.03741422,0.8158227,1.356692,0.2555504,0.4065691,1.44614,0.3190587,326.2885,90.97149,155.1952,True
3,1.444447,-1.185045,0.07857069,0.3734163,-1.412052,-4.706942,-1.927703,0.5235965,1.253198,0.4439323,-1.813916,-0.4707279,1.7,0,-0.9193854,0.04710484,0.4653112,-0.4060367,1.125818,1.117417,0.7216969,1.344938,0.386863,-0.5664732,0.4077825,-0.08605959,-1.218779,0.1896673,0.04319168,0.8153309,1.356981,0.2557299,0.407899,1.451841,0.3167562,327.1212,90.56218,155.1818,True
3,1.455558,-1.152009,0.07642207,0.3649136,-1.413975,-4.703698,-1.916672,0.5210637,1.256736,0.4420044,-1.812345,0.1477226,1.7,0,-0.9615246,0.1108336,0.5013322,-0.4002481,1.114111,1.139863,0.7201055,1.346201,0.3862219,-0.6162914,0.4686079,-0.07177693,-1.21873,0.197292,0.04877686,0.8144124,1.35713,0.2560508,0.4089703,1.457346,0.3147386,328.0117,90.11156,155.3105,True
3,1.466669,-1.063577,0.06466007,0.3436866,-1.415264,-4.700885,-1.908496,0.5180053,1.260551,0.4398696,-1.813079,-0.06893705,2.6,0.2,-1.03761,0.2193864,0.5411861,-0.3915385,1.103462,1.163879,0.7181525,1.347652,0.3852212,-0.641659,0.5315148,-0.06201729,-1.218679,0.2058096,0.05377162,0.8137285,1.357398,0.2562509,0.4096815,1.462674,0.3129395,328.7758,89.62842,155.5839,True
3,1.47778,-1.016683,0.04441863,0.3363645,-1.416251,-4.697448,-1.899288,0.5152324,1.264136,0.437814,-1.812889,0.01787637,2.6,0.2,-1.066174,0.2427625,0.5565251,-0.3859341,1.090435,1.188398,0.7162745,1.349103,0.3841362,-0.6714355,0.5688503,-0.06282449,-1.219012,0.2138538,0.05925587,0.812981,1.357544,0.2565224,0.4099876,1.467878,0.3112544,329.4542,89.18115,155.9259,True
3,1.488891,-0.9484682,0.01029092,0.3195446,-1.416172,-4.694192,-1.891591,0.512158,1.267791,0.4357457,-1.815461,-0.2356292,2.6,0.2,-1.110596,0.2372073,0.5994419,-0.3806302,1.072247,1.219262,0.7141078,1.35075,0.3830135,-0.7185085,0.6242868,-0.09011483,-1.220536,0.2233199,0.0656352,0.8122125,1.357683,0.2567384,0.4099403,1.472934,0.3095694,330.0154,88.8186,156.2582,True
3,1.500003,-0.8631805,-0.0389041,0.2783138,-1.414665,-4.691746,-1.88534,0.5087976,1.271199,0.4335859,-1.8142,0.1171339,2.6,0.2,-1.180186,0.1533557,0.5854262,-0.3799553,1.055964,1.24954,0.7115904,1.352308,0.3816137,-0.7484635,0.6850235,-0.1111992,-1.221863,0.233809,0.07143982,0.8113885,1.357969,0.2568636,0.4094894,1.47785,0.3077607,330.5669,88.481,156.5471,True
3,1.511114,-0.8429123,-0.06541702,0.2934011,-1.41438,-4.687551,-1.87718,0.5058141,1.274721,0.4315777,-1.815099,-0.08379783,2.6,0.2,-1.195424,0.1131499,0.5564662,-0.3784437,1.042091,1.275912,0.7092407,1.354028,0.3804617,-0.7623007,0.7276495,-0.1164448,-1.222656,0.2441677,0.07689904,0.8105557,1.358235,0.2569828,0.4086998,1.482507,0.3057628,330.9782,88.15699,156.7669,True
3,1.522225,-0.752332,-0.09332198,0.2467096,-1.412716,-4.685883,-1.872363,0.5023434,1.277784,0.4295881,-1.816269,-0.1065205,2.7,0.3,-1.20432,0.08792621,0.5179732,-0.3771712,1.030575,1.300285,0.7067499,1.35561,0.3791313,-0.8199766,0.7809629,-0.1393647,-1.224092,0.2553312,0.08399184,0.8093512,1.358583,0.2570255,0.4075986,1.486858,0.3034939,331.4017,87.89676,156.9027,True
3,1.533336,-0.7011964,-0.0998008,0.2233151,-1.412236,-4.68388,-1.86636,0.4991422,1.280918,0.4277568,-1.813674,0.2376776,2.7,0.3,-1.20552,0.09767181,0.4957112,-0.3746258,1.018236,1.324912,0.7041969,1.357395,0.3777218,-0.84335,0.8012272,-0.1359584,-1.224518,0.265219,0.09067184,0.8083558,1.358979,0.2571225,0.4061606,1.49078,0.3009112,331.7766,87.69646,156.88,True
3,1.544447,-0.6340654,-0.1158269,0.2053104,-1.410976,-4.681746,-1.862074,0.495742,1.283785,0.4258094,-1.816587,-0.2688189,2.7,0.3,-1.226153,0.1334026,0.4333129,-0.3713965,1.012697,1.344433,0.7012886,1.358846,0.3761032,-0.844108,0.8268353,-0.1104208,-1.223937,0.2759908,0.09645437,0.8071239,1.359441,0.2570992,0.4044831,1.494478,0.2980572,331.9677,87.52978,156.7174,True
3,1.555558,-0.5700998,-0.1639092,0.1736729,-1.40796,-4.679705,-1.857957,0.492644,1.286735,0.4236031,-1.81516,0.1326525,2.7,0.3,-1.229611,0.1304857,0.4013728,-0.3692878,1.00346,1.366954,0.6989791,1.360327,0.3746443,-0.8374956,0.8534719,-0.09348506,-1.223268,0.2869555,0.1016638,0.805825,1.359925,0.2570801,0.4025961,1.497754,0.2950708,332.2461,87.51412,156.3858,True
3,1.566669,-0.5061383,-0.205649,0.1334604,-1.404401,-4.678524,-1.854771,0.4893549,1.289277,0.4215994,-1.816059,-0.08397345,3,0,-1.234684,0.107847,0.3064074,-0.3690816,1.004169,1.380086,0.6959598,1.361875,0.3730474,-0.8806632,0.912192,-0.05370797,-1.221223,0.2996978,0.1084466,0.804327,1.360505,0.256947,0.4004962,1.500834,0.2921093,332.4268,87.51395,155.9901,True
3,1.577781,-0.4560622,-0.2144248,0.08664687,-1.401761,-4.678229,-1.851151,0.4861515,1.291859,0.4194815,-1.815771,0.02666095,3,0,-1.226491,0.08894932,0.2699787,-0.3683727,0.9985831,1.398529,0.6931102,1.363351,0.3712804,-0.9061562,0.9377824,-0.05029877,-1.220509,0.3114288,0.1153966,0.8029655,1.361021,0.2567339,0.3982324,1.503702,0.2892442,332.5671,87.4539,155.7597,True
3,1.588892,-0.4166394,-0.2210425,0.04514211,-1.398931,-4.678334,-1.84777,0.4829469,1.294327,0.4174082,-1.816176,-0.03776634,3,0,-1.21911,0.1007608,0.2561685,-0.3664861,0.9927568,1.417375,0.6902238,1.364857,0.3696241,-0.8955733,0.9239104,-0.05572142,-1.220263,0.3219043,0.1213331,0.8015376,1.361562,0.2565975,0.3958642,1.506352,0.2863757,332.6655,87.41866,155.652,True
3,1.600003,-0.3431448,-0.2084543,0.003516026,-1.396747,-4.679125,-1.846336,0.4798434,1.296493,0.4153724,-1.815333,0.07703784,3,0,-1.194534,0.1893328,0.2332823,-0.3608477,0.9898049,1.432577,0.6870682,1.366301,0.3676455,-0.8530523,0.8812283,-0.05823125,-1.219973,0.330757,0.1262746,0.7998631,1.362167,0.2562146,0.3934029,1.508671,0.2834784,332.8176,87.46019,155.4696,True
3,1.611114,-0.299488,-0.1893001,-0.007260717,-1.395331,-4.679109,-1.844501,0.476799,1.298662,0.4134598,-1.814984,0.03082614,3,0,-1.168917,0.2276706,0.2248812,-0.3569467,0.9847285,1.449365,0.6841146,1.36783,0.3658516,-0.8104473,0.8321439,-0.05114618,-1.219292,0.3384961,0.1311793,0.7979873,1.362774,0.2557185,0.390815,1.510891,0.2805608,332.9516,87.55991,155.2009,True
3,1.622225,-0.2058013,-0.1252948,-0.008737136,-1.3961,-4.679449,-1.845571,0.4737199,1.300381,0.4116051,-1.816465,-0.1360399,3.1,0.3,-1.107149,0.2659799,0.2087299,-0.3524507,0.9811969,1.462941,0.681181,1.369285,0.3640378,-0.7842273,0.8077053,0.01466917,-1.215876,0.3468618,0.1361158,0.7960107,1.363531,0.255245,0.3881325,1.513023,0.277697,333.0561,87.69444,154.8979,True
3,1.633336,-0.1643028,-0.06467393,-0.01021758,-1.395592,-4.679287,-1.845049,0.4707851,1.302448,0.4090199,-1.815497,0.0893473,3.1,0.3,-1.036938,0.2787313,0.1901874,-0.3488592,0.9775827,1.47553,0.6782843,1.370699,0.3621423,-0.7567989,0.8045766,0.09215875,-1.211141,0.355732,0.1407337,0.7939218,1.36436,0.2546065,0.385363,1.514956,0.2750035,333.1439,87.8297,154.5944,True
3,1.644447,-0.1143259,0.01740162,-0.01180924,-1.398577,-4.680371,-1.845399,0.4676669,1.303804,0.4074121,-1.817676,-0.2005691,3.1,0.3,-0.9465356,0.2989295,0.1640709,-0.3448187,0.9759175,1.484663,0.675341,1.371889,0.3603733,-0.7351227,0.7992738,0.1281621,-1.207299,0.3645621,0.1450235,0.7918758,1.365112,0.2540853,0.3824982,1.516794,0.2725697,333.1619,87.90778,154.3364,True
3,1.655559,-0.07391681,0.08246163,-0.006894983,-1.401502,-4.681049,-1.84573,0.4646031,1.305027,0.4058788,-1.815564,0.1943292,3.1,0.3,-0.8775146,0.3117697,0.1305951,-0.3412021,0.9759958,1.492076,0.6723843,1.373327,0.3584592,-0.7058396,0.7833078,0.1833111,-1.202099,0.3724436,0.1493272,0.7896301,1.366002,0.2533123,0.3794893,1.518514,0.2704897,333.1892,87.88784,154.3097,True
3,1.66667,-0.03559132,0.1037946,-0.01022241,-1.403182,-4.681674,-1.846423,0.4616151,1.306325,0.4047036,-1.815744,-0.01877129,3.1,0.3,-0.7819374,0.3289083,0.08630259,-0.3370768,0.9789107,1.49456,0.6694063,1.374411,0.3567593,-0.6831596,0.7588242,0.2161375,-1.197462,0.3797744,0.1533179,0.7875351,1.366751,0.2526031,0.3762866,1.520318,0.2685987,333.1602,87.86656,154.4294,True
3,1.677781,-0.0004269676,0.09521168,-0.02614951,-1.403641,-4.682702,-1.847359,0.4588069,1.307439,0.4031713,-1.815136,0.05550934,2.8,0.8,-0.7012053,0.3374605,0.05483322,-0.3331716,0.9809745,1.497975,0.6663582,1.375509,0.3551524,-0.6213475,0.6724654,0.2316267,-1.193559,0.384077,0.1566264,0.785253,1.367458,0.2517374,0.3729283,1.521907,0.2671347,333.1469,87.91873,154.3831,True
3,1.688892,0.02941468,0.08339737,-0.04631452,-1.403798,-4.684012,-1.848489,0.4559705,1.308577,0.4016125,-1.814888,0.02180118,2.8,0.8,-0.6663017,0.32053,0.02884932,-0.3303065,0.983454,1.501728,0.6633765,1.376705,0.3534768,-0.5895677,0.6159398,0.2228585,-1.190728,0.388941,0.1603356,0.7830694,1.368275,0.2509348,0.3694255,1.523311,0.2662009,333.0616,87.93733,154.394,True
3,1.700003,0.09338444,0.03744081,-0.08116786,-1.402227,-4.685645,-1.85125,0.4532178,1.309489,0.4004011,-1.814691,0.01752994,2.8,0.8,-0.6235859,0.3320542,0.03819646,-0.3263757,0.9816349,1.509133,0.6603405,1.377687,0.3516352,-0.5437853,0.5349208,0.2310392,-1.187411,0.3918321,0.1636787,0.7805514,1.368942,0.2500119,0.3658279,1.524575,0.2657278,332.9019,87.92425,154.6103,True
3,1.711114,0.1211093,0.009704508,-0.09164023,-1.401133,-4.686641,-1.853153,0.4503994,1.310524,0.3989191,-1.814455,0.02108887,2.8,0.8,-0.6021291,0.3767098,0.04158928,-0.3206781,0.9807852,1.516022,0.6573118,1.378702,0.3498089,-0.5159621,0.5103985,0.2478319,-1.183319,0.3966336,0.167001,0.778249,1.369674,0.2491784,0.3622042,1.525698,0.2654531,332.7197,87.90271,155.0684,True
3,1.722225,0.1584303,-0.02123511,-0.1052897,-1.399493,-4.687827,-1.855939,0.4476565,1.311318,0.3974917,-1.81564,-0.1087639,3.6,0.9,-0.5690089,0.4256639,0.03640613,-0.3142722,0.9812117,1.520849,0.6543542,1.379669,0.3480737,-0.4709691,0.4837435,0.2750989,-1.17867,0.400739,0.1691874,0.7757379,1.37045,0.2482879,0.3586011,1.52667,0.2651163,332.5595,87.91317,155.5323,True
3,1.733337,0.188282,-0.0404458,-0.115816,-1.398124,-4.689023,-1.858702,0.4448193,1.311912,0.3961244,-1.814319,0.1213662,3.6,0.9,-0.5253192,0.4511854,0.02881992,-0.3083994,0.9817593,1.524885,0.6514919,1.38057,0.3462512,-0.4409333,0.4677507,0.2971999,-1.173694,0.4051133,0.1715542,0.7731271,1.371297,0.247412,0.3550288,1.527319,0.2645453,332.4456,87.96124,155.8397,True
3,1.744448,0.2064017,-0.0489817,-0.1210877,-1.396897,-4.690285,-1.86141,0.4420021,1.31258,0.3947704,-1.814605,-0.02767748,3.6,0.9,-0.4796575,0.4298405,0.01763025,-0.3042784,0.9829036,1.527669,0.6485572,1.381432,0.3446033,-0.3885134,0.4432108,0.3211877,-1.168635,0.4086688,0.1726067,0.7705648,1.372066,0.246439,0.3514356,1.527846,0.2635732,332.3017,88.00227,156.0214,True
3,1.755559,0.2340983,-0.04791915,-0.1264209,-1.395951,-4.691664,-1.864713,0.4392522,1.313019,0.3935468,-1.81421,0.03613824,3.6,0.9,-0.4573254,0.4138007,0.01839137,-0.3002421,0.9824471,1.532604,0.6456458,1.38218,0.3429868,-0.3586818,0.4058742,0.3294833,-1.163961,0.4113015,0.1749905,0.7679652,1.372688,0.2452374,0.3478396,1.528114,0.262181,332.1631,88.10504,156.0262,True
3,1.76667,0.266062,-0.05213033,-0.1242628,-1.394955,-4.692704,-1.868489,0.4364863,1.313406,0.3923848,-1.813721,0.04408488,3.6,0.9,-0.399963,0.3924405,0.004978508,-0.2966639,0.9842219,1.533362,0.6427254,1.382854,0.3414977,-0.341705,0.3674969,0.3282997,-1.159973,0.4134972,0.1772672,0.7654361,1.373392,0.2442138,0.3442036,1.52814,0.2604288,332.0208,88.26828,155.8345,True
3,1.777781,0.2916255,-0.0489397,-0.1296096,-1.394123,-4.694118,-1.872194,0.4337165,1.313709,0.391293,-1.813928,-0.0194543,4.5,1.1,-0.331106,0.3606065,-0.03312024,-0.2935837,0.9904336,1.529003,0.6397272,1.38358,0.340008,-0.2918102,0.3130912,0.3204121,-1.156425,0.4148678,0.1785894,0.762728,1.374143,0.2430689,0.3405071,1.528041,0.2584373,331.8364,88.48746,155.4862,True
3,1.788892,0.302287,-0.05641785,-0.1348875,-1.392785,-4.695487,-1.875613,0.4309592,1.314031,0.3901811,-1.814011,-0.007696176,4.5,1.1,-0.2886781,0.3350354,-0.04751512,-0.2907405,0.9944629,1.526924,0.6367407,1.384309,0.3385391,-0.2693505,0.29603,0.3308533,-1.151917,0.4171237,0.1799836,0.7600734,1.374892,0.2420242,0.3367688,1.527766,0.2564107,331.6213,88.73348,155.0592,True
3,1.800003,0.3267724,-0.04476336,-0.1488159,-1.391987,-4.697552,-1.879635,0.4284726,1.314168,0.3891714,-1.813653,0.03254642,4.5,1.1,-0.2175054,0.3179549,-0.06739283,-0.2878211,0.9997022,1.522099,0.633803,1.384909,0.3371768,-0.2491724,0.2832054,0.3285548,-1.14758,0.4193327,0.1814425,0.7572974,1.375683,0.2407908,0.3329738,1.527364,0.2545073,331.3946,88.96478,154.6529,True
3,1.811115,0.3427458,-0.03943935,-0.152046,-1.391185,-4.699203,-1.883645,0.4258751,1.314332,0.3881729,-1.812999,0.05923469,4.5,1.1,-0.195113,0.3338954,-0.07062931,-0.2835675,1.003152,1.520325,0.630888,1.385453,0.3357308,-0.2108733,0.2650319,0.324999,-1.143556,0.4212102,0.1817075,0.7545315,1.376258,0.2397523,0.3290992,1.526914,0.2528377,331.1624,89.18999,154.3282,True
3,1.822226,0.3597773,-0.02774307,-0.1585128,-1.390653,-4.701096,-1.887793,0.4234574,1.314305,0.3873439,-1.813374,-0.03495324,4.7,0.6,-0.1663946,0.3466887,-0.08033949,-0.2792127,1.008291,1.516403,0.6281055,1.386002,0.3344879,-0.1748784,0.2276686,0.3086956,-1.140504,0.4220144,0.1820984,0.751876,1.376871,0.2386611,0.325168,1.526466,0.251439,330.8834,89.41473,154.108,True
3,1.833337,0.3704135,-0.01390527,-0.1628636,-1.390415,-4.703074,-1.891732,0.4210151,1.314199,0.3864982,-1.813068,0.02815073,4.7,0.6,-0.1450924,0.3401937,-0.0773765,-0.2760526,1.012111,1.513795,0.6252511,1.386634,0.3333862,-0.1613702,0.2020378,0.2798284,-1.138154,0.4231249,0.1829922,0.7492052,1.37754,0.2376211,0.3212435,1.52597,0.2503635,330.5783,89.65213,153.965,True
3,1.844448,0.3852952,0.01484647,-0.1673094,-1.3909,-4.705409,-1.896176,0.4186822,1.313978,0.3858035,-1.812947,0.01060968,4.7,0.6,-0.1014045,0.3325799,-0.07352193,-0.2726523,1.015459,1.51013,0.6225026,1.387203,0.3322172,-0.1366079,0.1347816,0.2157708,-1.137829,0.4222258,0.1844551,0.7463852,1.378188,0.2363319,0.3173445,1.525465,0.249596,330.2722,89.84012,153.9185,True
3,1.855559,0.4023104,0.04474676,-0.158976,-1.391809,-4.707242,-1.900875,0.4164002,1.31372,0.3851845,-1.812512,0.0395482,4.7,0.6,-0.06745864,0.320875,-0.0866632,-0.2695524,1.021336,1.504216,0.6197526,1.38776,0.3308938,-0.1263362,0.08571659,0.1859096,-1.136922,0.4212615,0.1859145,0.7438201,1.378784,0.2353928,0.3135172,1.524888,0.2491233,329.977,90.00527,153.9461,True
3,1.86667,0.4150897,0.05223785,-0.1558269,-1.391995,-4.709021,-1.905602,0.4140744,1.313476,0.3845749,-1.812821,-0.0287444,4.7,0.6,-0.03018279,0.309027,-0.08385824,-0.2666282,1.025313,1.499449,0.6171583,1.388311,0.3298414,-0.09048413,0.01105453,0.1611456,-1.136582,0.4182223,0.1868705,0.7412624,1.379377,0.2342594,0.3097673,1.524274,0.2488895,329.7039,90.15612,154.0292,True
3,1.877781,0.4310425,0.0757329,-0.1495857,-1.39312,-4.71094,-1.91059,0.4119035,1.313001,0.3841252,-1.812809,0.001225557,6.3,0.2,-0.002511755,0.3068178,-0.08516371,-0.2635528,1.030116,1.494127,0.6145028,1.388955,0.3287706,-0.01188052,-0.07107525,0.1561933,-1.135196,0.4143333,0.1870362,0.7386547,1.380257,0.232837,0.3061008,1.523618,0.2488789,329.4419,90.29544,154.1272,True
3,1.888893,0.4437908,0.1066266,-0.1519164,-1.394594,1.569755,-1.915427,0.4097793,1.312486,0.3837721,-1.812602,0.01877513,6.3,0.2,0.05160603,0.2887247,-0.1059802,-0.2611687,1.038208,1.483822,0.6120011,1.389414,0.3278456,0.01670814,-0.1020211,0.1431544,-1.134383,0.4120861,0.1868495,0.736144,1.380992,0.2317328,0.3024988,1.522954,0.2490455,329.1855,90.37963,154.2926,True
3,1.900004,0.4575976,0.143927,-0.1521555,-1.396766,1.567125,-1.920603,0.4077607,1.311871,0.3834789,-1.812656,-0.00529581,6.3,0.2,0.1130119,0.2600949,-0.1439934,-0.2596273,1.050905,1.468325,0.6093891,1.38973,0.3268127,0.03648939,-0.1340521,0.1099823,-1.134535,0.4093489,0.1878948,0.7337263,1.381708,0.2303729,0.2989396,1.522248,0.2492966,328.9417,90.45406,154.4882,True
3,1.911115,0.4714127,0.1737429,-0.1566082,-1.398906,1.564297,-1.925832,0.4058766,1.311272,0.3832176,-1.812416,0.0218756,6.3,0.2,0.1532181,0.2228654,-0.1669956,-0.2590404,1.062075,1.454456,0.6069175,1.390233,0.3259537,0.02986503,-0.154311,0.08984768,-1.134524,0.4068695,0.1888698,0.7312763,1.382253,0.2293622,0.2954276,1.521412,0.2496262,328.6927,90.55717,154.6316,True
3,1.922226,0.4905616,0.1971324,-0.1674112,-1.40092,1.561166,-1.931403,0.4040682,1.310699,0.3830369,-1.812557,-0.01319308,6.3,0.2,0.1691801,0.2004086,-0.1609172,-0.257639,1.069053,1.44543,0.6044091,1.390678,0.3250279,0.03306927,-0.1479236,0.08980273,-1.133813,0.4051137,0.1891449,0.7287591,1.382971,0.2282207,0.2919354,1.520487,0.2500514,328.4321,90.70207,154.7172,True
3,1.933337,0.5044155,0.1992321,-0.1748838,-1.402175,1.558257,-1.937004,0.40216,1.310124,0.3828826,-1.812473,0.007690215,6.9,0,0.1819861,0.2067555,-0.1609734,-0.2555,1.0777,1.4347,0.60197,1.391,0.3241153,0.06768072,-0.1233823,0.1341447,-1.130702,0.4041547,0.1874493,0.7260723,1.383404,0.2273443,0.2884559,1.519503,0.2506126,328.1404,90.85124,154.8043,True
3,1.944448,0.522522,0.2023457,-0.1908835,-1.40343,1.554855,-1.942865,0.4004169,1.30955,0.382935,-1.812655,-0.01689997,6.9,0,0.217128,0.2173557,-0.1664867,-0.2530397,1.087272,1.421772,0.5996366,1.391264,0.32341,0.1119512,-0.0967218,0.1858275,-1.126958,0.4032138,0.1850924,0.7234495,1.384123,0.226361,0.2849868,1.518511,0.2513114,327.8167,91.0093,154.9256,True
3,1.955559,0.5278459,0.2012001,-0.2036598,-1.404305,1.551614,-1.948218,0.3984863,1.309038,0.382947,-1.812472,0.01671007,6.9,0,0.2605138,0.1822852,-0.1916189,-0.2526775,1.09974,1.405315,0.5973204,1.391551,0.3228011,0.1432535,-0.06685755,0.2195233,-1.123605,0.403012,0.1825658,0.7209046,1.384689,0.225553,0.2815233,1.517517,0.2521295,327.5058,91.17348,155.0819,True
3,1.966671,0.5320981,0.2042922,-0.2207201,-1.405415,1.547877,-1.953593,0.3966951,1.308362,0.3832297,-1.812594,-0.0114248,6.9,0,0.2997374,0.1289584,-0.1976931,-0.2534701,1.109081,1.391591,0.5950052,1.391775,0.3222096,0.1475502,-0.05727211,0.2215917,-1.121149,0.4021698,0.1811376,0.7183871,1.38532,0.2245412,0.2780488,1.516488,0.2530137,327.2079,91.33576,155.2448,True
3,1.977782,0.526793,0.1860139,-0.2461651,-1.405506,1.544036,-1.958606,0.3950053,1.307733,0.3836858,-1.811901,0.06337278,5.8,0,0.3146521,0.1171743,-0.1947203,-0.2528815,1.118323,1.378724,0.5927185,1.39187,0.3215771,0.1601465,-0.0626394,0.2044119,-1.119943,0.400914,0.179565,0.7159845,1.385797,0.2236624,0.2745511,1.515406,0.25395,326.9135,91.53121,155.3599,True
3,1.988893,0.520439,0.1528391,-0.2683236,-1.40474,1.540304,-1.963594,0.3933614,1.307205,0.3840108,-1.811789,0.009581944,5.8,0,0.329535,0.1032761,-0.193886,-0.2526317,1.127295,1.365837,0.5904968,1.392068,0.3210821,0.1832467,-0.09254429,0.1765124,-1.119406,0.3984434,0.1777615,0.7135439,1.386365,0.2227297,0.271001,1.514303,0.2549112,326.6161,91.74139,155.4386,True
3,2.000004,0.5140789,0.1250046,-0.2883855,-1.403693,1.536478,-1.968482,0.3917043,1.306713,0.3843052,-1.811352,0.0398619,5.8,0,0.3402248,0.09572838,-0.1865743,-0.2522264,1.13518,1.354048,0.5882114,1.392301,0.3205037,0.2043363,-0.1032513,0.1571257,-1.118615,0.3966742,0.1754736,0.711091,1.386903,0.2219117,0.2674499,1.513073,0.2559534,326.2881,92.005,155.437,True
3,2.011115,0.5045473,0.07579231,-0.3189632,-1.401283,1.532581,-1.973126,0.3900946,1.306289,0.3847497,-1.811207,0.01291246,5.8,0,0.3551475,0.09460603,-0.1845715,-0.2515233,1.14404,1.341181,0.585982,1.392495,0.3200266,0.2107129,-0.08725563,0.1623905,-1.116151,0.3959564,0.1746014,0.7085627,1.38778,0.2206087,0.2639355,1.511747,0.257069,325.9179,92.30356,155.427,True
3,2.022226,0.4992766,0.02665332,-0.3388883,-1.398315,1.528992,-1.977849,0.3885587,1.305953,0.3852096,-1.811087,0.01082787,5.8,0,0.372251,0.1126597,-0.1834903,-0.2502221,1.153501,1.327326,0.5838107,1.392775,0.3195686,0.2077827,-0.06803782,0.1847617,-1.113396,0.3953303,0.172682,0.7061179,1.388439,0.2196801,0.260484,1.510419,0.2581646,325.5404,92.60392,155.4683,True
3,2.033337,0.4992793,2.592802E-06,-0.3482817,-1.396722,1.525745,-1.982681,0.3869462,1.30509,0.3853288,-1.810843,0.02220566,5.7,0.1,0.3808933,0.131753,-0.1759459,-0.2484745,1.162813,1.313765,0.5815936,1.393188,0.3190863,0.2156681,-0.07222301,0.2240854,-1.109912,0.3937224,0.1706828,0.703692,1.388972,0.2190168,0.2571187,1.509115,0.2591563,325.1968,92.91857,155.4976,True
3,2.044448,0.4993202,-0.0362646,-0.3555062,-1.393502,1.522539,-1.987638,0.3855157,1.304868,0.38589,-1.810863,-0.002054762,5.7,0.1,0.3948691,0.156154,-0.1683955,-0.2463339,1.171762,1.300266,0.5795717,1.393534,0.3187277,0.2369706,-0.1084642,0.2281809,-1.107679,0.3904932,0.1687565,0.7013013,1.389614,0.2181025,0.253871,1.507801,0.2599777,324.8825,93.2768,155.4292,True
3,2.055559,0.4993394,-0.05754617,-0.355399,-1.391103,1.51895,-1.992501,0.3840396,1.304643,0.3863215,-1.810943,-0.007199051,5.7,0.1,0.4055176,0.1443706,-0.1643116,-0.2456873,1.179506,1.288029,0.5775078,1.393849,0.3182964,0.2443767,-0.1265811,0.2249258,-1.105959,0.3879376,0.1668601,0.6989442,1.390296,0.2172744,0.2507756,1.506415,0.2606004,324.6048,93.61851,155.3124,True
3,2.06667,0.4900298,-0.09572478,-0.368773,-1.387133,1.515667,-1.99692,0.3827255,1.30456,0.3868747,-1.811084,-0.01278932,5.7,0.1,0.3991737,0.1347216,-0.1547536,-0.2449789,1.186299,1.277261,0.5755924,1.394176,0.3179054,0.2476946,-0.1436044,0.239841,-1.103273,0.3851147,0.1653655,0.6967002,1.390923,0.2163794,0.2478314,1.504889,0.2610372,324.3556,93.91903,155.1714,True
3,2.077781,0.4908628,-0.09920658,-0.3775507,-1.384651,1.511164,-2.001607,0.3812932,1.304424,0.3873346,-1.811074,0.0009692358,5,0.5,0.3918347,0.1314167,-0.1387531,-0.2440611,1.192399,1.26729,0.573596,1.39446,0.3175483,0.2488347,-0.154245,0.2462319,-1.100677,0.3822664,0.1637759,0.6943573,1.391384,0.2155945,0.2449533,1.503456,0.2612905,324.0943,94.31329,154.841,True
3,2.088892,0.4791378,-0.09710453,-0.382924,-1.382158,1.506973,-2.005718,0.3799621,1.304198,0.3877325,-1.810591,0.04420333,5,0.5,0.3844013,0.1367595,-0.1375877,-0.2428308,1.200701,1.25528,0.5717037,1.394702,0.3171995,0.2519386,-0.1457438,0.2365953,-1.098621,0.3803963,0.1617151,0.6921681,1.391971,0.2148175,0.2421111,1.502175,0.2614536,323.8427,94.74981,154.4278,True
3,2.100003,0.462078,-0.08326778,-0.381947,-1.379966,1.503283,-2.00957,0.3786851,1.304029,0.3882349,-1.811056,-0.04298576,5,0.5,0.3770819,0.1441137,-0.1225546,-0.2413367,1.206407,1.245839,0.5698658,1.39501,0.3168764,0.2517732,-0.1436284,0.2216706,-1.097089,0.3785588,0.1599162,0.6899769,1.392453,0.2141607,0.2393251,1.501009,0.2615976,323.6088,95.22399,153.9811,True
3,2.111114,0.4450112,-0.0630043,-0.3756901,-1.378243,1.499568,-2.013265,0.3774186,1.303698,0.3887138,-1.810522,0.04936213,5,0.5,0.3611006,0.1313456,-0.1182758,-0.2406571,1.212904,1.236039,0.5680394,1.39533,0.316637,0.2452975,-0.1393669,0.2110778,-1.095286,0.3767494,0.1579295,0.6878431,1.393054,0.2136424,0.2365665,1.499937,0.2618514,323.4384,95.69796,153.5638,True
3,2.122225,0.4268611,-0.02561614,-0.3567546,-1.377648,1.496079,-2.01677,0.3761774,1.303518,0.3892436,-1.810161,0.03250147,5,0.5,0.3494585,0.1227504,-0.1054717,-0.239922,1.217371,1.228206,0.5662308,1.395637,0.3164177,0.2430667,-0.1372506,0.2015097,-1.093571,0.3748062,0.1561912,0.6857769,1.393601,0.21297,0.2338495,1.498882,0.2623,323.242,96.11211,153.2495,True
3,2.133336,0.4161954,-0.01275703,-0.3429889,-1.376357,1.492836,-2.020458,0.3748997,1.303259,0.3897929,-1.810079,0.007373564,3.9,1.2,0.3420532,0.1195165,-0.09584048,-0.23873,1.221915,1.220368,0.5643423,1.396003,0.3156946,0.2473188,-0.1436597,0.200397,-1.091852,0.3722741,0.1542721,0.6836292,1.394205,0.2123389,0.2311996,1.497847,0.2629684,323.0085,96.47002,153.0344,True
3,2.144447,0.3980701,0.002295017,-0.318583,-1.375676,1.490152,-2.023733,0.3737028,1.303126,0.3903472,-1.809959,0.01095286,3.9,1.2,0.341077,0.121562,-0.08516228,-0.2376046,1.226216,1.212425,0.562646,1.396289,0.3154709,0.2481306,-0.1532889,0.1780329,-1.090955,0.3698024,0.152622,0.6817027,1.394683,0.2117207,0.2286317,1.496843,0.2638565,322.7677,96.79596,152.8967,True
3,2.155558,0.3863465,0.003416657,-0.307926,-1.374346,1.487467,-2.027158,0.3724352,1.302806,0.3908312,-1.810203,-0.02229876,3.9,1.2,0.3347312,0.121543,-0.07980183,-0.2365026,1.232289,1.202912,0.5609731,1.396667,0.3153279,0.2490339,-0.1469374,0.1609654,-1.089979,0.3678859,0.1505053,0.6796668,1.395183,0.2111795,0.2288051,1.496739,0.2642565,323.2055,95.82021,153.2464,True
3,2.166669,0.3586374,0.01519412,-0.2941529,-1.373586,1.484572,-2.029708,0.371329,1.302714,0.3912859,-1.809833,0.03415918,3.9,1.2,0.3293753,0.09915388,-0.07461672,-0.2362474,1.235651,1.196223,0.5594403,1.396984,0.3151731,0.2465595,-0.1555124,0.130112,-1.089984,0.3655568,0.1489003,0.677833,1.395674,0.2106504,0.2291003,1.496579,0.2644415,323.7625,95.24554,153.3639,True
3,2.17778,0.3490378,0.02908728,-0.2857245,-1.372979,1.481435,-2.032735,0.3701475,1.302567,0.3917787,-1.810065,-0.02149496,3,1.8,0.3251598,0.08843192,-0.0640251,-0.2357579,1.238532,1.190032,0.5578292,1.397338,0.3149421,0.2381127,-0.1586722,0.137677,-1.088226,0.3632785,0.1476036,0.6759424,1.396102,0.2100954,0.2293842,1.49641,0.2645569,324.2946,94.82056,153.3992,True
3,2.188891,0.3309002,0.05043232,-0.2773311,-1.372996,1.478325,-2.035203,0.368975,1.302465,0.392345,-1.809411,0.06019433,3,1.8,0.3156179,0.07344598,-0.05235178,-0.2355326,1.2394,1.186025,0.5564014,1.397666,0.3148198,0.2317657,-0.1500806,0.1420869,-1.085195,0.3620236,0.1460318,0.673638,1.396918,0.2096915,0.2296696,1.496224,0.2646504,324.8591,94.45966,153.42,True
3,2.200002,0.3170287,0.07184632,-0.258293,-1.373364,1.475619,-2.037741,0.3680035,1.302503,0.3928695,-1.810017,-0.05586572,3,1.8,0.293193,0.04044625,-0.04713151,-0.2362581,1.24047,1.182495,0.5550267,1.398075,0.3149147,0.2229661,-0.1522459,0.1166167,-1.085005,0.3599863,0.1448062,0.6719821,1.397475,0.2092788,0.2298822,1.496026,0.2646803,325.3043,94.34462,153.3933,True
3,2.211113,0.3116844,0.08150783,-0.2455692,-1.373295,1.47301,-2.040471,0.3669709,1.302573,0.3933253,-1.809683,0.03121183,3,1.8,0.2825206,0.0405024,-0.04810751,-0.2357446,1.243581,1.17679,0.5535532,1.398444,0.3147931,0.2057703,-0.1554361,0.1018957,-1.084579,0.3579478,0.1438786,0.6706313,1.397863,0.2089479,0.2301619,1.495779,0.2647295,325.8158,94.06061,153.3045,True
3,2.222224,0.3042055,0.1018016,-0.236112,-1.373841,1.470101,-2.04302,0.3660456,1.302672,0.3938122,-1.809777,-0.008825557,3,1.8,0.2665323,0.0491035,-0.05217291,-0.235236,1.247806,1.170297,0.5522377,1.398868,0.3147528,0.2025742,-0.1469114,0.1008495,-1.083706,0.3562526,0.1425617,0.669096,1.398418,0.2085674,0.230374,1.495649,0.2648509,326.1397,93.70316,153.3293,True
3,2.233335,0.2978068,0.1093125,-0.2276255,-1.374164,1.467533,-2.045653,0.3652062,1.302698,0.3943477,-1.810109,-0.03008999,2.1,1.9,0.2612103,0.04378232,-0.04897036,-0.2348248,1.2499,1.165567,0.5509973,1.399209,0.3146417,0.1981571,-0.1532765,0.09034748,-1.081925,0.3543864,0.1418762,0.6672211,1.399162,0.207953,0.2305316,1.495622,0.2651407,326.2933,93.15245,153.5861,True
3,2.244446,0.2882082,0.1189095,-0.2244919,-1.374563,1.464621,-2.047938,0.3644346,1.302845,0.3947899,-1.810143,-0.00282406,2.1,1.9,0.2631787,0.006551042,-0.05674944,-0.2361702,1.251194,1.161305,0.5499265,1.399744,0.3146341,0.186214,-0.1596891,0.07024531,-1.082129,0.3521459,0.1412876,0.6657302,1.39981,0.2075267,0.2306905,1.495595,0.2654391,326.4451,92.57784,153.8401,True
3,2.255557,0.2839311,0.1327858,-0.2192497,-1.375232,1.461753,-2.050389,0.3636793,1.302952,0.3952689,-1.810264,-0.0109163,2.1,1.9,0.2641155,-0.03178294,-0.05921805,-0.2379849,1.252129,1.157501,0.548681,1.400316,0.3146658,0.1796973,-0.1671305,0.05648784,-1.082048,0.350197,0.1400234,0.6646274,1.39989,0.2074702,0.2308434,1.495528,0.2656409,326.6241,92.19814,153.8723,True
3,2.266668,0.2690066,0.142391,-0.2139845,-1.375989,1.458857,-2.052248,0.3629526,1.303214,0.3957329,-1.810095,0.01553945,2.1,1.9,0.2620049,-0.05103455,-0.04976776,-0.2392094,1.250561,1.15621,0.5475739,1.400942,0.3146014,0.1742552,-0.168208,0.04589469,-1.082226,0.3480352,0.1393084,0.663255,1.40065,0.2070186,0.2309935,1.495431,0.2657627,326.8435,91.96867,153.8149,True
3,2.277779,0.263682,0.1381195,-0.2139534,-1.376061,1.456125,-2.054443,0.3621881,1.303617,0.3963211,-1.81033,-0.02148948,2.1,1.9,0.2557015,-0.03293811,-0.043178,-0.2387758,1.252407,1.151951,0.5464781,1.401625,0.3144946,0.1745128,-0.1575281,0.06394575,-1.081492,0.3463388,0.1374409,0.6624418,1.401148,0.2070174,0.2311217,1.495363,0.265834,327.0401,91.79696,153.6633,True
3,2.28889,0.2626373,0.1168352,-0.2095573,-1.375528,1.453941,-2.056945,0.3614458,1.304124,0.396796,-1.809877,0.04160918,1.1,0.9,0.2484081,-0.004245579,-0.03222851,-0.2379124,1.253968,1.147928,0.5454059,1.40231,0.3143942,0.1798441,-0.1713555,0.06396305,-1.080308,0.3438772,0.1361227,0.6609659,1.402164,0.2066562,0.2312313,1.495333,0.2659152,327.2071,91.6274,153.5271,True
3,2.300001,0.258484,0.07311499,-0.2219727,-1.373445,1.451943,-2.059289,0.3608106,1.304821,0.3973138,-1.810238,-0.03325642,1.1,0.9,0.2274331,0.03179593,-0.001928961,-0.2359188,1.252525,1.147516,0.5444647,1.403119,0.3141809,0.17215,-0.1777755,0.04275009,-1.080809,0.3413458,0.1355813,0.6597425,1.402919,0.2063551,0.2312962,1.495386,0.2659923,327.2867,91.45054,153.3553,True
3,2.311112,0.2542024,0.04743068,-0.2325196,-1.371923,1.449277,-2.061467,0.3601368,1.305295,0.3977454,-1.810581,-0.03103099,1.1,0.9,0.2243527,0.04450899,0.008856168,-0.2348988,1.252429,1.145223,0.54345,1.403865,0.314059,0.1667184,-0.1671507,0.02783678,-1.081639,0.3396727,0.1340627,0.6588081,1.403426,0.2061031,0.2312867,1.495533,0.2660042,327.2399,91.45811,153.1552,True
3,2.322223,0.2404023,0.003628686,-0.2492826,-1.369094,1.446939,-2.063222,0.3595424,1.30597,0.3982363,-1.810491,0.008563079,1.1,0.9,0.2180436,0.0529871,0.01643316,-0.2338857,1.252312,1.143108,0.5425416,1.404607,0.3139868,0.159298,-0.1564846,0.03002875,-1.081424,0.3380491,0.1332859,0.6576824,1.404171,0.2058494,0.2313071,1.495719,0.2661787,327.2899,91.18623,153.14,True
3,2.333334,0.2350939,-0.01669672,-0.261928,-1.366998,1.44444,-2.065224,0.3589054,1.306505,0.3987951,-1.810504,-0.001270171,0.5,0.4,0.2200855,0.02742009,0.01513516,-0.2345153,1.251084,1.141856,0.5415953,1.405463,0.3139985,0.1571902,-0.1565096,0.02895876,-1.081689,0.3356639,0.1321722,0.6568877,1.404896,0.2054224,0.2313462,1.495856,0.2662371,327.4317,91.10599,152.9863,True
3,2.344445,0.2287332,-0.04662123,-0.2755855,-1.363873,1.441972,-2.067047,0.3583666,1.307258,0.3993161,-1.810102,0.03690665,0.5,0.4,0.2168378,-0.01204711,0.02229289,-0.2357515,1.246392,1.144093,0.5407162,1.40631,0.3139801,0.1337511,-0.1319837,0.02597299,-1.08159,0.3348988,0.131831,0.6558378,1.40571,0.2051339,0.2313506,1.496016,0.2661728,327.5229,91.32363,152.808,True
3,2.355556,0.2234348,-0.07749988,-0.2721889,-1.360949,1.440302,-2.069007,0.3579789,1.308004,0.3998187,-1.810427,-0.03007276,0.5,0.4,0.2148101,-0.004678458,0.03301854,-0.2353904,1.243992,1.144111,0.5399372,1.407195,0.3140042,0.1210997,-0.1244988,0.03565796,-1.081424,0.3335316,0.13128,0.65486,1.406527,0.2047307,0.2314946,1.49607,0.2663441,327.8417,91.04097,152.7826,True
3,2.366668,0.220247,-0.0860052,-0.2678683,-1.358559,1.438428,-2.070951,0.3573303,1.30865,0.4002805,-1.810375,0.005170536,0.5,0.4,0.2169131,0.00708887,0.02563832,-0.2350005,1.244928,1.14076,0.5390936,1.40805,0.3139751,0.120222,-0.1351109,0.05484341,-1.080698,0.3313371,0.1310334,0.6538241,1.407528,0.2042568,0.2315437,1.49625,0.2665177,327.9222,90.79487,152.768,True
3,2.377779,0.2095992,-0.09021635,-0.2582529,-1.356286,1.436647,-2.072565,0.3568933,1.309366,0.400784,-1.810418,-0.004003972,0.5,0.4,0.2277307,0.03893831,0.03540406,-0.2333307,1.244778,1.137984,0.5383119,1.408931,0.3139348,0.1076106,-0.136132,0.07096192,-1.079593,0.3293625,0.1311391,0.6528153,1.408439,0.2039576,0.2315496,1.496447,0.2666312,327.9746,90.63387,152.6708,True
3,2.38889,0.2010781,-0.09445427,-0.2539628,-1.354017,1.434762,-2.0741,0.3564044,1.310045,0.4012792,-1.810524,-0.009640974,0.7,0.3,0.2267428,0.08052549,0.0304298,-0.2312902,1.247861,1.132432,0.5375785,1.40983,0.3139131,0.1034969,-0.1339807,0.08268771,-1.07902,0.3276278,0.1306648,0.6517316,1.409529,0.2037652,0.2315356,1.496671,0.2667054,327.9669,90.61584,152.5942,True
3,2.400001,0.1893559,-0.09005523,-0.2305537,-1.352374,1.433585,-2.075566,0.3560229,1.310761,0.4017699,-1.810264,0.02400192,0.7,0.3,0.2171842,0.08479524,0.03267082,-0.2301067,1.248183,1.129998,0.536878,1.410767,0.3139327,0.09731971,-0.1286127,0.1019217,-1.077372,0.3259825,0.1305881,0.6508278,1.410439,0.2035413,0.2314997,1.496894,0.2666894,327.9799,90.7182,152.3946,True
3,2.411112,0.1904157,-0.08355357,-0.2135501,-1.350849,1.432294,-2.077506,0.3556367,1.311449,0.4022467,-1.810261,7.431091E-05,0.7,0.3,0.205519,0.08690642,0.0391824,-0.228952,1.246716,1.129569,0.5362028,1.411587,0.3139546,0.08133466,-0.1307143,0.1010017,-1.076952,0.3243553,0.1308579,0.6499591,1.411365,0.2035139,0.2314936,1.497088,0.2666735,328.0801,90.79192,152.1811,True
3,2.422223,0.1957213,-0.06311528,-0.1838527,-1.350309,1.431378,-2.079666,0.3553103,1.312102,0.4026501,-1.810143,0.01090169,0.7,0.3,0.1853586,0.09435719,0.04685977,-0.2274212,1.245998,1.128913,0.5356303,1.412505,0.3140826,0.06731436,-0.139245,0.08625345,-1.076706,0.3222125,0.1315878,0.649188,1.412216,0.2033894,0.2314977,1.497301,0.266766,328.183,90.68599,152.0828,True
3,2.433334,0.1935622,-0.03851128,-0.1680361,-1.349968,1.429844,-2.081414,0.35506,1.312811,0.4030471,-1.810714,-0.05227787,1.5,0.1,0.1833276,0.09746882,0.05862815,-0.2257647,1.243836,1.129014,0.5351835,1.413477,0.3142486,0.0693479,-0.1381561,0.07347846,-1.075922,0.3211559,0.1306941,0.6480924,1.412816,0.203218,0.2314815,1.497623,0.2670058,328.081,90.46767,152.2168,True
3,2.444445,0.1892483,0.01075412,-0.1268057,-1.35166,1.42897,-2.08317,0.3549681,1.313278,0.4033535,-1.810965,-0.0224336,1.5,0.1,0.174851,0.1017181,0.06299128,-0.2242371,1.24287,1.128301,0.5347481,1.414369,0.3144226,0.07766642,-0.1531111,0.05636885,-1.076199,0.3186576,0.1307394,0.6474627,1.413569,0.2031906,0.2314276,1.497955,0.2672203,328.0008,90.16277,152.2105,True
3,2.455556,0.1763942,0.07293071,-0.06435546,-1.354725,1.428626,-2.084591,0.3551999,1.313457,0.403543,-1.810731,0.02157232,1.5,0.1,0.1783969,0.1280631,0.09726753,-0.2211952,1.238572,1.130244,0.5346684,1.41512,0.3147449,0.08700395,-0.1691262,0.0339014,-1.077142,0.3162508,0.1304222,0.6472079,1.41445,0.2032654,0.2313633,1.498323,0.2674254,327.8634,89.94965,152.2465,True
3,2.466667,0.1678388,0.1061624,-0.03048074,-1.356851,1.428102,-2.086134,0.3552749,1.313725,0.4037623,-1.810594,0.01231555,1.5,0.1,0.1774539,0.1407697,0.10805,-0.2185971,1.235402,1.131324,0.5346233,1.41596,0.3149717,0.09629319,-0.1904819,0.008260282,-1.078335,0.3133651,0.1303412,0.6469299,1.414973,0.2031844,0.2312635,1.498713,0.267597,327.7363,89.70026,152.172,True
3,2.477778,0.1539415,0.1522968,0.02248885,-1.360693,1.428271,-2.087425,0.3558441,1.313445,0.4039054,-1.81019,0.03690087,1.5,0.1,0.1831012,0.1564441,0.143292,-0.2153613,1.228139,1.136155,0.5349201,1.416533,0.3153946,0.1278062,-0.2139976,-0.03141289,-1.079668,0.3104466,0.1291955,0.6464294,1.41532,0.2031603,0.2311522,1.499137,0.2678299,327.5449,89.46157,152.2328,True
3,2.488889,0.1357778,0.2016268,0.07543072,-1.365101,1.428432,-2.088417,0.3567353,1.312759,0.4040978,-1.810387,-0.01821467,3.3,0,0.1788649,0.1724658,0.1402656,-0.2125075,1.226344,1.135973,0.5354374,1.416821,0.315819,0.1721205,-0.246066,-0.06702136,-1.082269,0.3067742,0.1276861,0.6466795,1.416239,0.2031164,0.2310053,1.499552,0.2680789,327.3828,89.17508,152.2889,True
