loc,t,aDotUA,bDotUA,gDotUA,aUA,bUA,gUA,xUA,yUA,zUA,qE,qDotE,emgA,emgB,aDotSH,bDotSH,gDotSH,aSH,bSH,gSH,xSH,ySH,zSH,aDotUB,bDotUB,gDotUB,aUB,bUB,gUB,xUB,yUB,zUB,xHand,yHand,zHand,aHand,bHand,gHand,enable
0,0,0.238009,0.4754154,0.303631,-1.311417,-4.342562,2.777488,0.6774333,1.10843,0.4221189,-1.924734,0.01771105,14.4,0.1,0.1413357,0.02881583,-0.09850522,-0.463668,-4.409732,0.1229195,0.6750536,1.321933,0.3182709,0.05278332,-0.004113119,0.08937805,-0.9084197,0.1068584,0.02179717,0.7490658,1.371115,0.1733632,0.4807592,1.004307,0.2740743,294.4249,229.1064,9.210485,False
0,0.01111111,0.2273657,0.4604481,0.2973483,-1.312653,-4.348129,2.77676,0.6784631,1.10827,0.4219851,-1.924523,0.01917978,14.4,0.1,0.1562798,0.02871978,-0.09545404,-0.4645624,-4.408739,0.1197802,0.6752641,1.321928,0.3183548,0.05062262,-0.01582365,0.09046748,-0.9074077,0.1061136,0.02177906,0.7489574,1.371252,0.1733623,0.4820419,1.002699,0.2741228,295.5765,229.0201,8.750378,False
0,0.02222222,0.2114145,0.4326903,0.2911544,-1.314144,-4.353032,2.776163,0.6794158,1.108145,0.4218318,-1.924289,0.02124818,14.4,0.1,0.1669255,0.01798083,-0.09140427,-0.4654172,-4.408813,0.1176878,0.6754078,1.321907,0.3184581,0.05163442,-0.02329021,0.08833171,-0.9064921,0.105393,0.02174285,0.7487942,1.371334,0.1733229,0.4833551,1.000624,0.2739663,296.3657,229.4417,8.021929,False
0,0.03333334,0.1943933,0.4027746,0.280711,-1.315447,-4.357307,2.775661,0.6803437,1.108031,0.4217231,-1.924291,-0.000237866,14.4,0.1,0.16904,0.009427719,-0.08938378,-0.4663349,-4.408998,0.1159341,0.6756347,1.321838,0.3185163,0.05052869,-0.02648356,0.08514702,-0.9056841,0.1048682,0.02154284,0.7486947,1.371423,0.1733041,0.4846304,0.998539,0.2738594,297.0692,230.057,7.169644,False
0,0.04444445,0.1837589,0.382476,0.2733986,-1.3168,-4.361838,2.775051,0.6812454,1.107887,0.4215994,-1.92408,0.01942171,14.4,0.1,0.1764418,-0.01515418,-0.08438931,-0.4672367,-4.410833,0.1154488,0.67574,1.321831,0.3185601,0.05684716,-0.04142122,0.08296067,-0.9049181,0.1036204,0.02148319,0.7485337,1.371387,0.1732411,0.4856494,0.9967314,0.2739182,297.6483,230.663,6.441284,False
0,0.05555556,0.1731203,0.355753,0.2607932,-1.317977,-4.365616,2.774467,0.6820982,1.107767,0.4214964,-1.923909,0.01546095,25,0,0.1796533,-0.01946558,-0.08127081,-0.4681028,-4.411438,0.1138776,0.6759603,1.321777,0.3186107,0.06208959,-0.05635253,0.07972001,-0.9041981,0.1022365,0.02151914,0.7484568,1.371416,0.173162,0.486361,0.9954121,0.2742064,298.0614,231.2386,5.903918,False
0,0.06666667,0.1603541,0.3183247,0.2407917,-1.318959,-4.368535,2.773787,0.6829576,1.107637,0.4213789,-1.92418,-0.02483472,25,0,0.178619,-0.01736118,-0.07804917,-0.4689693,-4.411312,0.1119564,0.6760938,1.321683,0.3187335,0.07479874,-0.0723829,0.07747683,-0.9034539,0.1004411,0.0213692,0.7483605,1.371383,0.1730635,0.4868104,0.9946871,0.2747372,298.2765,231.7277,5.591381,False
0,0.07777778,0.1497087,0.2947913,0.2271022,-1.319992,-4.371637,2.773276,0.6838039,1.107516,0.4212575,-1.924105,0.00721344,25,0,0.1754393,-0.02270782,-0.07488304,-0.4698189,-4.41206,0.1106908,0.6762742,1.321676,0.3188093,0.07794685,-0.08198494,0.07531999,-0.902704,0.09885068,0.02133378,0.7483492,1.37138,0.1729825,0.4870475,0.9945446,0.2754882,298.2786,232.1568,5.459245,False
0,0.08888889,0.1358656,0.265902,0.2091944,-1.320957,-4.374341,2.772867,0.6845446,1.10739,0.4211514,-1.92408,0.002284182,25,0,0.1744729,-0.03243969,-0.06112013,-0.4700266,-4.413774,0.1102173,0.6765558,1.321697,0.3188388,0.08212025,-0.08733106,0.06782385,-0.9022523,0.09733734,0.02123045,0.7482643,1.371433,0.17296,0.4871767,0.9948726,0.2763859,298.1077,232.5101,5.501128,False
0,0.1,0.131611,0.2584031,0.2039257,-1.322068,-4.377767,2.77227,0.6853154,1.107221,0.4211159,-1.924067,0.001288382,32.1,0,0.1745328,-0.02929111,-0.05682267,-0.4705284,-4.414144,0.108531,0.6767744,1.321686,0.3188908,0.08100204,-0.09052077,0.06357843,-0.9016515,0.09599524,0.0212451,0.7481509,1.371528,0.1729758,0.4873056,0.9954969,0.2773126,297.8288,232.7829,5.656501,False
0,0.1111111,0.1220265,0.2519785,0.2007865,-1.323105,-4.38104,2.772022,0.6860589,1.1071,0.421041,-1.92398,0.007952865,32.1,0,0.174527,-0.03784657,-0.05371634,-0.4710764,-4.415567,0.1078711,0.6770604,1.321656,0.318934,0.07874843,-0.09478679,0.05187698,-0.9015509,0.09433183,0.02147387,0.7480847,1.371575,0.1728768,0.4874537,0.9962288,0.2781589,297.5139,233.0212,5.81174,False
0,0.1222222,0.1124203,0.2508711,0.1954837,-1.323961,-4.384491,2.772022,0.6867936,1.107063,0.4209027,-1.924443,-0.04225933,32.1,0,0.1724459,-0.04859167,-0.04421999,-0.4713662,-4.417588,0.1077912,0.6773294,1.321594,0.3189335,0.07653959,-0.09583812,0.04444031,-0.901292,0.09311517,0.0215471,0.7479393,1.371596,0.1728351,0.4876187,0.9969002,0.2788495,297.2212,233.2212,5.918128,False
0,0.1333333,0.1060276,0.2444386,0.1902076,-1.324857,-4.387578,2.771815,0.6874542,1.106938,0.4208214,-1.924199,0.02271973,32.1,0,0.1745316,-0.06139536,-0.04330927,-0.4719329,-4.419858,0.1078234,0.677625,1.321501,0.3189502,0.07647944,-0.0990359,0.03911528,-0.901072,0.09158637,0.02165603,0.7478783,1.371595,0.1727631,0.4878322,0.9973926,0.2794047,296.9797,233.4319,5.924525,False
0,0.1444445,0.1017713,0.2358698,0.1838736,-1.325719,-4.390451,2.771422,0.6880714,1.106835,0.420691,-1.924053,0.01317449,32.1,0,0.1745521,-0.06570187,-0.03909606,-0.4723633,-4.421678,0.1075488,0.67782,1.321435,0.3189988,0.07638019,-0.1001088,0.02846386,-0.901105,0.09006931,0.02171195,0.7479682,1.371546,0.1726692,0.4880907,0.9976425,0.2798404,296.8483,233.6731,5.855895,False
0,0.1555556,0.09646132,0.2144936,0.1733587,-1.326591,-4.392629,2.77097,0.6886913,1.106633,0.42063,-1.924263,-0.01917982,29.4,0,0.1777539,-0.05930281,-0.04119337,-0.4729668,-4.422473,0.1061675,0.6780341,1.321386,0.3190348,0.07105686,-0.0968961,0.02744822,-0.9008211,0.08884505,0.02184671,0.7479168,1.371528,0.1725864,0.4883796,0.9976621,0.2801784,296.8259,233.9173,5.748108,False
0,0.1666667,0.09221806,0.1877907,0.162873,-1.327543,-4.394263,2.77049,0.6891962,1.106607,0.4206383,-1.924509,-0.02228929,29.4,0,0.1703863,-0.04331556,-0.03882349,-0.4733135,-4.422221,0.1043293,0.6782311,1.321303,0.3190496,0.06891838,-0.09263512,0.02533155,-0.9006811,0.08760082,0.02197374,0.7479241,1.37152,0.1725154,0.4886923,0.9974835,0.280449,296.8611,234.1694,5.59821,False
0,0.1777778,0.0890383,0.1696349,0.1555303,-1.328453,-4.396144,2.770007,0.6898071,1.106484,0.4205225,-1.924492,0.001820587,29.4,0,0.1640337,-0.04974951,-0.03244039,-0.4735676,-4.423924,0.1041845,0.6784639,1.321224,0.3190765,0.06891549,-0.08943398,0.02426339,-0.9004909,0.08654261,0.02190876,0.747842,1.371515,0.1724477,0.4890414,0.9971522,0.2806804,296.9275,234.4256,5.430881,False
0,0.1888889,0.07733354,0.1364874,0.1376382,-1.329149,-4.39683,2.76972,0.690187,1.106331,0.4204504,-1.924448,0.004050658,29.4,0,0.147007,-0.04970272,-0.0301467,-0.4738823,-4.425155,0.1042798,0.6787135,1.321154,0.3190782,0.06886952,-0.07984931,0.01573773,-0.9006278,0.08585392,0.02158785,0.7478161,1.371467,0.1723742,0.489459,0.996714,0.280893,297.0238,234.6808,5.238458,False
0,0.2,0.0720101,0.1257742,0.1291883,-1.329869,-4.398322,2.769364,0.6906471,1.106231,0.4203391,-1.924567,-0.01087956,23,0,0.1340943,-0.05486465,-0.04072743,-0.4747362,-4.426692,0.104609,0.6790496,1.321003,0.319154,0.06989132,-0.07454122,0.008257986,-0.9009463,0.08481462,0.02130289,0.7480165,1.371519,0.1722522,0.4899183,0.9962454,0.2810868,297.1641,234.9499,5.016115,False
0,0.2111111,0.06775223,0.1065177,0.1165262,-1.33048,-4.399147,2.768946,0.6909609,1.106149,0.420253,-1.924166,0.03673236,23,0,0.1169478,-0.05468123,-0.05121427,-0.4757268,-4.42786,0.1049341,0.6792365,1.320924,0.31916,0.06987526,-0.07347665,0.006127076,-0.900973,0.08383964,0.02111887,0.7480545,1.371511,0.1721401,0.4903814,0.9957969,0.2812509,297.2821,235.1966,4.840315,False
0,0.2222222,0.05815608,0.08507807,0.09642313,-1.330691,-4.399528,2.768715,0.6912581,1.106069,0.4201515,-1.924463,-0.02733206,23,0,0.09983362,-0.03955623,-0.06473465,-0.476774,-4.427657,0.1041797,0.6793796,1.320942,0.3190746,0.0708594,-0.08414903,0.0007991639,-0.9010763,0.08191431,0.02141901,0.748076,1.371626,0.1720109,0.4907715,0.9953935,0.281337,297.383,235.3821,4.707274,False
0,0.2333333,0.04537475,0.06794573,0.08483083,-1.331143,-4.399874,2.768724,0.6915771,1.105999,0.4200726,-1.924479,-0.001184369,23,0,0.1010136,-0.01613525,-0.0634372,-0.4774217,-4.426298,0.1017109,0.6795343,1.320975,0.3190553,0.07183129,-0.08841678,-0.007731081,-0.9014742,0.08048725,0.02146881,0.7481009,1.371639,0.1719098,0.4910969,0.9950851,0.2813691,297.4597,235.5496,4.570551,False
0,0.2444444,0.02616912,0.04643693,0.0541015,-1.330821,-4.399654,2.768982,0.6918204,1.105841,0.4199872,-1.924257,0.02040129,23,0,0.1075308,-0.008812383,-0.05276959,-0.477664,-4.425823,0.1000174,0.6798106,1.320924,0.3190541,0.06332663,-0.09477549,-0.004448636,-0.9013559,0.07894582,0.02188027,0.7479684,1.371491,0.1718178,0.4913531,0.9948807,0.281354,297.4996,235.659,4.48481,False
0,0.2555556,0.01016891,0.0474027,0.04134522,-1.330707,-4.400276,2.769434,0.6921782,1.105758,0.419956,-1.924074,0.01655687,19.5,0,0.1150942,-0.01109954,-0.04114816,-0.4777993,-4.42642,0.09897079,0.6801624,1.320877,0.3190393,0.07394676,-0.1043999,-0.004540927,-0.9013836,0.07707667,0.02186109,0.7479644,1.371472,0.1716638,0.4915859,0.9947791,0.2812997,297.5052,235.6968,4.46061,False
0,0.2666667,-0.01757352,0.05686647,0.02643332,-1.330212,-4.401244,2.77077,0.6924989,1.105789,0.4200542,-1.923791,0.02587679,19.5,0,0.1278905,-0.02829713,-0.03186314,-0.4779128,-4.428344,0.09893563,0.6805525,1.320839,0.3190377,0.07711045,-0.1150736,-0.004572139,-0.9015599,0.07482604,0.02222062,0.7480058,1.371548,0.1716208,0.4918213,0.9947705,0.281213,297.4675,235.6968,4.469419,False
0,0.2777778,-0.0474378,0.06100976,0.01368071,-1.329639,-4.401985,2.772412,0.6929502,1.105939,0.4201109,-1.923904,-0.01044637,19.5,0,0.1480702,-0.0518658,-0.02804003,-0.4782414,-4.431286,0.09929489,0.6809313,1.320862,0.3189704,0.0833355,-0.133206,-0.01527892,-0.902182,0.07224597,0.0227908,0.7479612,1.371586,0.1714242,0.492052,0.9948159,0.2810923,297.4055,235.5972,4.549443,False
0,0.2888889,-0.08796445,0.06723487,-0.00438585,-1.328749,-4.402637,2.774808,0.6935285,1.106066,0.420217,-1.923279,0.05736303,19.5,0,0.1715031,-0.06694436,-0.0220319,-0.478431,-4.433885,0.09897026,0.6813591,1.320833,0.3189631,0.0896318,-0.1545419,-0.01746413,-0.9025671,0.06901062,0.02363609,0.747979,1.37157,0.1712818,0.4923021,0.9949225,0.2810061,297.3555,235.5009,4.582191,False
0,0.3,-0.1252842,0.08099498,-0.01078333,-1.328023,-4.403903,2.777652,0.6941298,1.106202,0.420193,-1.923048,0.02073309,19.5,0,0.1917495,-0.07344756,-0.01909729,-0.4786148,-4.435766,0.09784747,0.6817185,1.320767,0.3189349,0.09826735,-0.1662676,-0.0004864582,-0.9019168,0.0665223,0.02388243,0.7478517,1.371513,0.1711628,0.4925307,0.9951202,0.2810175,297.342,235.41,4.612332,False
0,0.3111111,-0.1786681,0.1308523,-0.03334258,-1.325835,-4.406513,2.782088,0.6950408,1.106449,0.4203758,-1.922507,0.04957713,15.1,0,0.2217644,-0.07056719,-0.00124433,-0.4780971,-4.437346,0.0957766,0.6822234,1.320767,0.318934,0.1057379,-0.1737487,0.003708499,-0.9017687,0.06375128,0.02416872,0.7478119,1.371481,0.1709757,0.4927922,0.9954693,0.2811522,297.3268,235.3104,4.718082,False
0,0.3222222,-0.2181595,0.17659,-0.0367299,-1.32416,-4.409819,2.786556,0.6959098,1.106609,0.4204612,-1.922442,0.005700618,15.1,0,0.2602718,-0.07624567,0.01643779,-0.4774292,-4.439696,0.09368228,0.6827863,1.320784,0.318857,0.1121215,-0.1780487,0.001512975,-0.9020159,0.06079637,0.02421026,0.7481489,1.371362,0.170773,0.4930769,0.9959961,0.2813816,297.2708,235.1938,4.901399,False
0,0.3333333,-0.3025044,0.2957638,-0.0393961,-1.321123,-4.416689,2.794422,0.6973689,1.107061,0.4208744,-1.921521,0.08442935,15.1,0,0.2912515,-0.07754105,0.02571429,-0.4769066,-4.441804,0.09123031,0.6833618,1.320759,0.3188269,0.1193868,-0.1908631,-0.01452989,-0.9028127,0.05754798,0.02463744,0.7481817,1.371297,0.1705403,0.4933435,0.9967185,0.2816738,297.162,235.0294,5.155745,False
0,0.3444445,-0.3537245,0.362837,-0.03436409,-1.318806,-4.422705,2.801434,0.6986123,1.107505,0.4212079,-1.921947,-0.03933332,15.1,0,0.3360926,-0.09175423,0.0411127,-0.4761429,-4.44561,0.08929526,0.6840547,1.320565,0.3187819,0.136259,-0.2026591,-0.02852753,-0.9036143,0.05395085,0.02485368,0.7482762,1.371277,0.1702807,0.4935874,0.9976723,0.2820941,297.0165,234.7204,5.534715,False
0,0.3555556,-0.4592574,0.4256212,-0.01854615,-1.316974,-4.429277,2.811731,0.7003331,1.108152,0.4217932,-1.919951,0.1832426,14,0,0.3775105,-0.1099832,0.03519105,-0.4762243,-4.449654,0.08732639,0.6847447,1.320353,0.3188839,0.1458488,-0.204822,-0.02755008,-0.9039466,0.05092204,0.0247429,0.74831,1.371219,0.1700881,0.4937646,0.9988835,0.2827107,296.8115,234.387,5.933979,False
0,0.3666667,-0.599988,0.4646707,-0.04513008,-1.313611,-4.43524,2.8248,0.7025502,1.108968,0.4225545,-1.92091,-0.08891366,14,0,0.4062444,-0.1261269,0.03900606,-0.4758664,-4.453999,0.0856185,0.6855024,1.320218,0.3189082,0.1564829,-0.2059307,-0.03082675,-0.9041581,0.04787605,0.02432425,0.7484583,1.371137,0.1698861,0.4938667,1.000461,0.2837061,296.6082,234.0438,6.391942,False
0,0.3777778,-0.769485,0.5057882,-0.07487086,-1.309775,-4.441206,2.840097,0.7048815,1.109779,0.423429,-1.918525,0.2194047,14,0,0.4234057,-0.1466654,0.0599338,-0.4746632,-4.459468,0.08525098,0.6862481,1.320136,0.3189421,0.1713686,-0.2038568,-0.03521686,-0.9046273,0.04500449,0.02363289,0.7483591,1.371097,0.1696472,0.4938748,1.002469,0.2850852,296.3178,233.7955,6.920028,False
0,0.3888889,-0.8932731,0.5509787,-0.148399,-1.303633,-4.447634,2.856006,0.7073171,1.110513,0.424094,-1.916137,0.2169659,14,0,0.4589151,-0.172886,0.1083154,-0.4720565,-4.466156,0.08496895,0.6871143,1.320172,0.3189933,0.1819049,-0.2060333,-0.04702502,-0.9055398,0.04191203,0.02317296,0.748273,1.371009,0.1695323,0.494033,1.005003,0.2868322,295.9594,233.5752,7.571214,False
0,0.4,-0.926811,0.6767271,-0.3131399,-1.29079,-4.457001,2.869648,0.7089652,1.110805,0.4248073,-1.914756,0.1252769,14,0,0.5019581,-0.1735417,0.153712,-0.4689885,-4.470655,0.08218036,0.6881111,1.32021,0.3188984,0.2061351,-0.2274363,-0.06748456,-0.9070674,0.037735,0.0228153,0.7481763,1.370945,0.1691308,0.4944623,1.008167,0.2888148,295.5246,233.0454,8.601662,False
0,0.4111111,-0.9479197,0.7051034,-0.192885,-1.290445,-4.466062,2.883042,0.7104439,1.111948,0.4261703,-1.915372,-0.05627628,13.4,0,0.5632768,-0.1541162,0.2065956,-0.464981,-4.473671,0.07659598,0.6894332,1.3203,0.3188004,0.2208736,-0.2498621,-0.07826625,-0.9083771,0.0332955,0.02259985,0.7482418,1.370864,0.1687679,0.4949907,1.012015,0.2908254,294.9433,232.1507,10.01116,False
0,0.4222222,-0.8604176,0.6789359,-0.1364366,-1.289519,-4.47302,2.891384,0.7112121,1.112643,0.4269984,-1.919655,-0.3902454,13.4,0,0.6436037,-0.1784727,0.2609658,-0.4606555,-4.48069,0.07329579,0.6909232,1.320484,0.3187158,0.2547074,-0.3000688,-0.08920136,-0.9096719,0.02665132,0.02256017,0.7485662,1.370677,0.168366,0.4952688,1.016431,0.2926882,294.1474,230.303,12.29901,False
0,0.4333333,-0.3529021,0.3546226,-0.1621632,-1.288631,-4.464675,2.875436,0.7119664,1.113885,0.4289229,-1.921093,-0.1276897,13.4,0,0.7138608,-0.2696834,0.2944879,-0.4568578,-4.494813,0.07579756,0.6926454,1.320717,0.3185689,0.2938783,-0.3598614,-0.09380331,-0.9110147,0.01897729,0.02261556,0.748746,1.370618,0.167803,0.4949582,1.021127,0.2945699,293.2798,227.8169,14.92556,False
0,0.4444444,-1.013662,0.4459164,-0.2306595,-1.281877,-4.471761,2.910814,0.7147632,1.115748,0.4300356,-1.926093,-0.4553795,13.4,0,0.7467523,-0.3606476,0.3198531,-0.4530836,-4.511563,0.08147302,0.6943339,1.320935,0.3183534,0.3297095,-0.416429,-0.1143452,-0.9129353,0.01129873,0.02259959,0.7486092,1.370505,0.1671584,0.4942097,1.026095,0.2966377,292.3311,227.0581,15.94715,False
0,0.4555556,-1.347105,0.5481332,-0.1560448,-1.280645,-4.483306,2.942069,0.7158238,1.115703,0.4305727,-1.946044,-1.820881,14.9,0,0.7751517,-0.5262613,0.3540651,-0.4490984,-4.538854,0.09647887,0.6961898,1.321221,0.3181808,0.3624314,-0.4676763,-0.1274194,-0.9150089,0.002808969,0.02277669,0.7487838,1.370439,0.1664991,0.4935379,1.030961,0.2987055,291.2996,226.5143,17.14756,False
0,0.4666667,-1.370702,0.4780517,-0.288772,-1.272466,-4.483893,2.955894,0.7195401,1.117524,0.4325361,-1.900716,4.15926,14.9,0,0.758971,-0.6212194,0.3745387,-0.44532,-4.562994,0.110531,0.6979884,1.321403,0.3179574,0.3825163,-0.5018221,-0.1318602,-0.9167793,-0.005247626,0.022843,0.7489724,1.370352,0.1659377,0.4948315,1.034702,0.3008173,290.2208,224.7782,19.29545,False
0,0.4777778,-1.26965,0.383632,-0.4236489,-1.262773,-4.482696,2.966256,0.717906,1.118551,0.4332912,-1.902278,-0.1785861,14.9,0,0.7343305,-0.6990926,0.394201,-0.4416027,-4.588502,0.1264424,0.6997681,1.321627,0.3177025,0.4025565,-0.5349143,-0.1405629,-0.9188577,-0.01393073,0.02311304,0.7491339,1.370256,0.1652954,0.4956022,1.037602,0.3024346,290.2047,223.549,20.65029,False
0,0.4888889,-1.172678,0.3517281,-0.4386039,-1.256904,-4.484492,2.976092,0.7174269,1.119596,0.4327075,-1.919676,-1.583047,14.9,0,0.7580799,-0.6738261,0.4144762,-0.4371803,-4.604639,0.1318036,0.701426,1.321711,0.3174734,0.3993882,-0.5487335,-0.1320083,-0.9201925,-0.02172847,0.02366884,0.7493396,1.370129,0.164716,0.4954867,1.041077,0.3035063,290.3191,222.8339,21.54807,False
0,0.5,-1.139731,0.3536775,-0.4770558,-1.249787,-4.487706,2.988849,0.7174383,1.121076,0.4330673,-1.925502,-0.5191839,14.9,0,0.7883218,-0.5909407,0.4214469,-0.4328127,-4.614753,0.1312659,0.7032009,1.321827,0.3171647,0.3984507,-0.5487247,-0.11815,-0.9211416,-0.02926281,0.02390187,0.7495273,1.370033,0.1641703,0.496269,1.045462,0.3043005,290.2846,220.6295,23.808,False
0,0.5111111,-1.237825,0.4003571,-0.4845953,-1.243376,-4.493139,3.00733,0.7178631,1.122253,0.4336636,-1.927467,-0.1765269,13.6,0,0.7852926,-0.5472306,0.4198049,-0.428836,-4.626838,0.1336409,0.7047193,1.321901,0.3168478,0.3986423,-0.5369813,-0.1021771,-0.9217792,-0.03585227,0.02346485,0.7497971,1.369963,0.1636167,0.4955439,1.050311,0.3041669,289.7776,217.2947,27.0215,False
0,0.5222223,-1.422158,0.5658368,-0.3765594,-1.241331,-4.505964,3.033652,0.7186463,1.123371,0.4340849,-1.925023,0.2246143,13.6,0,0.7457508,-0.5587111,0.4126001,-0.4256296,-4.644686,0.1431611,0.7063935,1.322097,0.3166316,0.3931914,-0.5348164,-0.1138447,-0.9235758,-0.04269766,0.02374261,0.7501378,1.369874,0.1632421,0.4942084,1.055211,0.3034221,289.0169,214.09,30.14482,False
0,0.5333334,-1.54894,0.5206628,-0.4165222,-1.234964,-4.509734,3.05687,0.7187174,1.124101,0.4344046,-1.919814,0.4742969,13.6,0,0.6312281,-0.6100823,0.3801355,-0.4239912,-4.666405,0.1600328,0.7078098,1.32224,0.3164315,0.3791267,-0.5347775,-0.1371524,-0.9260365,-0.05002455,0.0244353,0.7504436,1.369736,0.1628027,0.4931214,1.059886,0.3026041,288.4543,210.617,33.33284,False
0,0.5444446,-1.520292,0.6766124,-0.3546553,-1.231787,-4.522866,3.07624,0.7187542,1.124795,0.4349389,-1.914462,0.4858823,13.6,0,0.5218215,-0.6291581,0.3128039,-0.4242149,-4.685281,0.1751401,0.7093164,1.322347,0.3161809,0.3587627,-0.5176534,-0.1561516,-0.9285324,-0.05617486,0.02489683,0.7508904,1.369639,0.1622992,0.4923587,1.064435,0.3021132,288.1284,207.534,36.00535,False
0,0.5555557,-1.513914,0.8413884,-0.235263,-1.232333,-4.538931,3.097999,0.7186677,1.12542,0.4350374,-1.915247,-0.07444638,13.9,0.1,0.454326,-0.6081194,0.264668,-0.4239768,-4.699987,0.1856745,0.7104648,1.322282,0.3159506,0.338645,-0.4781637,-0.155977,-0.9302874,-0.06097973,0.02482386,0.7511073,1.369534,0.1619487,0.4914668,1.069346,0.3021468,287.8262,205.1171,38.33898,False
0,0.5666668,-1.505424,0.9418985,-0.1751615,-1.231725,-4.553464,3.119175,0.7186757,1.126179,0.434984,-1.923296,-0.7345983,13.9,0.1,0.4084989,-0.5469031,0.2359214,-0.4230005,-4.710662,0.1921553,0.7114999,1.32229,0.3156805,0.3239601,-0.4482822,-0.142005,-0.93148,-0.06595691,0.02467019,0.7513332,1.369414,0.1614892,0.4904172,1.07478,0.3024618,287.5522,201.9208,41.70933,False
0,0.577778,-1.492671,1.067049,-0.09177122,-1.233187,-4.570692,3.140973,0.7186067,1.126379,0.4349282,-1.923295,0.007139824,13.9,0.1,0.359512,-0.4525343,0.1968992,-0.4224125,1.567163,0.1945333,0.7123154,1.322301,0.3155346,0.2975275,-0.4098332,-0.1332498,-0.9326992,-0.0698675,0.02473278,0.7515215,1.369292,0.1612031,0.4890524,1.080768,0.3032967,287.0805,198.1826,45.58741,False
0,0.5888891,-1.492721,1.187797,-0.0307104,-1.234869,-4.588957,-3.119735,0.7184935,1.126464,0.434716,-1.92349,-0.01811014,13.9,0.1,0.3254126,-0.3924581,0.1701536,-0.4219214,1.560591,0.1979562,0.7131852,1.322384,0.3153212,0.2763076,-0.3809851,-0.1341297,-0.9343221,-0.07369912,0.02471653,0.7517898,1.369198,0.1608636,0.4871943,1.0872,0.3048231,286.3768,194.5272,49.73384,False
0,0.6000003,-1.490645,1.299977,0.02082279,-1.237161,-4.608063,-3.09698,0.7183678,1.126357,0.4343989,-1.923947,-0.04178558,13.9,0.1,0.2879742,-0.335414,0.1295683,-0.4221499,1.555366,0.2005965,0.713807,1.322536,0.315136,0.2497666,-0.3468025,-0.1360282,-0.9359802,-0.07687361,0.02485182,0.7519808,1.369094,0.1605999,0.4851461,1.093841,0.3069758,285.7104,190.3903,54.72325,False
0,0.6111114,-1.468373,1.440975,0.07853524,-1.240957,-4.629835,-3.074451,0.7180979,1.12586,0.4336934,-1.923794,0.01456921,8.2,0,0.2473446,-0.2815672,0.09110685,-0.4226761,1.552421,0.2018791,0.714314,1.322562,0.3150604,0.2093833,-0.315743,-0.1367264,-0.9375158,-0.0794871,0.02543958,0.7520895,1.368914,0.1603711,0.4830102,1.10045,0.3096559,285.0746,185.7445,60.39064,False
0,0.6222225,-1.441811,1.5692,0.1309807,-1.245281,-4.65212,-3.052235,0.7178586,1.125333,0.4329343,-1.923875,-0.007543758,8.2,0,0.2120561,-0.2459588,0.06199252,-0.4231837,1.548395,0.2043254,0.7149982,1.32252,0.3148544,0.1966895,-0.2975518,-0.1323569,-0.9388644,-0.08228302,0.02543585,0.7522677,1.36878,0.1600745,0.4808472,1.106832,0.3127188,284.556,180.9577,66.31877,False
0,0.6333337,-1.412042,1.677153,0.1835479,-1.250988,-4.674872,-3.030255,0.7174965,1.124369,0.4319348,-1.925029,-0.1053492,8.2,0,0.1435022,-0.230277,0.01700686,-0.4248695,1.544177,0.2088395,0.7153875,1.322293,0.3148479,0.1713562,-0.2580455,-0.1214819,-0.9398903,-0.08411688,0.02548352,0.7524112,1.368658,0.1599874,0.4786616,1.112877,0.315997,284.1678,176.2587,72.22806,False
0,0.6444448,-1.397182,1.738008,0.2044424,-1.256303,-4.696295,-3.008628,0.7172265,1.123667,0.4310708,-1.925574,-0.0488362,8.2,0,0.1165223,-0.229775,-0.02001532,-0.4267108,1.538612,0.2132782,0.7158566,1.3221,0.3147774,0.1555263,-0.2004207,-0.1245629,-0.9414493,-0.08375987,0.02420281,0.7525291,1.368749,0.1599798,0.4763955,1.11853,0.3193727,283.8722,171.7109,78.03307,False
0,0.655556,-1.38015,1.8022,0.2455783,-1.263449,1.564353,-2.986902,0.7166096,1.122404,0.4298759,-1.925835,-0.0235229,8.2,0,0.08395724,-0.2364659,-0.07943332,-0.4300973,1.533513,0.2180293,0.7161202,1.321809,0.3147926,0.1343309,-0.1513416,-0.1297179,-0.9431968,-0.08378544,0.02345393,0.7529078,1.368494,0.1599679,0.474138,1.123741,0.3227696,283.6748,167.4251,83.58472,False
0,0.6666671,-1.350322,1.850441,0.2920705,-1.27181,1.54225,-2.966173,0.7158426,1.12122,0.4287398,-1.925596,0.02199351,12,0,0.06768189,-0.2457111,-0.1060027,-0.4326992,1.52712,0.2235593,0.7164985,1.321564,0.3148589,0.1258973,-0.1193262,-0.1317855,-0.9447649,-0.08373165,0.02226829,0.7530932,1.368433,0.1599579,0.4719621,1.128489,0.3260981,283.5365,163.442,88.81363,False
0,0.6777782,-1.32364,1.85811,0.3207667,-1.280094,1.521491,-2.946226,0.7149512,1.119916,0.4275842,-1.925592,-2.483908E-05,12,0,0.03317916,-0.2515339,-0.146218,-0.4363547,1.521708,0.2292369,0.7166579,1.32117,0.3149416,0.1207079,-0.08201705,-0.1296223,-0.9461604,-0.08319169,0.02087572,0.7531945,1.368312,0.1599705,0.4699252,1.132842,0.32926,283.4913,159.8954,93.52353,False
0,0.6888894,-1.269165,1.846846,0.3825148,-1.290322,1.502021,-2.928379,0.7136086,1.118223,0.4260626,-1.92621,-0.0563607,12,0,-0.01812387,-0.2329343,-0.1721643,-0.4395121,1.518526,0.2338937,0.7166864,1.320866,0.3149469,0.1111823,-0.06065845,-0.1306051,-0.9476262,-0.08287638,0.01974574,0.7534863,1.368358,0.1599679,0.4678459,1.136949,0.3322119,283.4729,156.3192,98.18053,False
0,0.7000005,-1.246727,1.835298,0.4049156,-1.299836,1.48261,-2.909656,0.7124786,1.116912,0.4247184,-1.92636,-0.01329957,12,0,-0.04358655,-0.2297218,-0.1633662,-0.4415601,1.513633,0.2394384,0.7167664,1.320552,0.3149858,0.101704,-0.02864809,-0.1294625,-0.9490313,-0.08175825,0.01834252,0.7537755,1.368093,0.1599131,0.4657423,1.140913,0.3349861,283.487,152.7494,102.7572,False
0,0.7111117,-1.194401,1.797235,0.4401934,-1.310354,1.464973,-2.893386,0.710751,1.115281,0.4231596,-1.927708,-0.1233759,6.4,0.1,-0.07645015,-0.2190544,-0.1512174,-0.4433125,1.509569,0.245096,0.7166908,1.320256,0.3150389,0.0889971,0.008678563,-0.1346824,-0.9506958,-0.08010775,0.01677232,0.753879,1.367938,0.1600168,0.4636568,1.14476,0.3375755,283.5652,148.9924,107.5085,False
0,0.7222228,-1.136769,1.763362,0.4605241,-1.320477,1.447916,-2.878381,0.7091622,1.113711,0.4217174,-1.926541,0.1077234,6.4,0.1,-0.09978301,-0.209448,-0.1444953,-0.4451596,1.505411,0.2506075,0.7165443,1.319954,0.3151543,0.07094066,0.04073085,-0.1387853,-0.9523118,-0.07779493,0.01538189,0.7540149,1.367797,0.1602147,0.4615874,1.148452,0.339944,283.6777,144.9894,112.4853,False
0,0.7333339,-1.055732,1.725167,0.4648594,-1.330377,1.431399,-2.865178,0.7072477,1.112044,0.4200277,-1.927902,-0.1258411,6.4,0.1,-0.125271,-0.2008637,-0.1398973,-0.4470031,1.501855,0.2560904,0.7163819,1.31971,0.3152709,0.0560405,0.05356358,-0.1418465,-0.95398,-0.07651968,0.01450784,0.7541153,1.367664,0.1603644,0.4595555,1.152011,0.3421136,283.8804,141.4418,116.936,False
0,0.7444451,-0.9523406,1.685881,0.4638242,-1.340155,1.415519,-2.85409,0.7048522,1.110464,0.4182291,-1.928684,-0.07043649,6.4,0.1,-0.1870559,-0.1834709,-0.147643,-0.4493051,1.499792,0.262055,0.7160212,1.319443,0.3155389,0.03158755,0.06752182,-0.1405601,-0.9554682,-0.074654,0.01393073,0.7543975,1.367546,0.16044,0.4575112,1.155431,0.3440876,284.1603,137.8182,121.4061,False
0,0.7555562,-0.8713282,1.658321,0.4659565,-1.350369,1.399474,-2.843223,0.702515,1.108924,0.4165637,-1.929787,-0.1006992,6.4,0.1,-0.2541116,-0.1757561,-0.1447853,-0.4512657,1.496908,0.2697489,0.715609,1.319372,0.3157525,0.01768346,0.06863172,-0.1468231,-0.9573271,-0.07363614,0.01363778,0.7545099,1.367418,0.1605875,0.4555411,1.158585,0.345917,284.5284,134.4455,125.5756,False
0,0.7666674,-0.7274712,1.630846,0.4711773,-1.360529,1.384437,-2.836779,0.6996698,1.107527,0.4150851,-1.93111,-0.120598,5.6,0,-0.3061492,-0.1885471,-0.1231102,-0.4525893,1.491636,0.2794415,0.7149879,1.319204,0.3159111,-0.003831297,0.0602055,-0.1647276,-0.9596941,-0.07270789,0.01402021,0.7544336,1.367351,0.1607718,0.4534537,1.161429,0.3476331,284.9684,131.3481,129.4777,False
0,0.7777785,-0.567577,1.600352,0.4965707,-1.371654,1.369708,-2.832424,0.6967995,1.106027,0.4138823,-1.93065,0.04252033,5.6,0,-0.3433816,-0.2141398,-0.1059766,-0.4541094,1.484731,0.2906233,0.7142504,1.319087,0.3160093,-0.01233785,0.0751571,-0.1678419,-0.9615343,-0.07089561,0.01340023,0.7544414,1.367181,0.1609857,0.4510651,1.163897,0.3492874,285.4102,128.6626,132.9296,False
0,0.7888896,-0.4311227,1.53664,0.496683,-1.381344,1.356938,-2.829707,0.693634,1.1046,0.4127588,-1.933813,-0.2902039,5.6,0,-0.4118142,-0.2007248,-0.1382062,-0.4571295,1.482447,0.2992826,0.7133754,1.318883,0.31616,-0.01441759,0.09327388,-0.168893,-0.9634108,-0.06888146,0.01247398,0.7544531,1.367066,0.161165,0.4483472,1.165954,0.3509994,285.7527,126.5412,135.7442,False
0,0.8000008,-0.301054,1.468654,0.4936088,-1.390524,1.344697,-2.827709,0.6905656,1.103269,0.4119682,-1.935016,-0.1081593,5.6,0,-0.491095,-0.1892,-0.1895295,-0.4613053,1.481216,0.3080596,0.7123543,1.318699,0.3163953,-0.03114469,0.1423609,-0.1506358,-0.9643295,-0.06467966,0.01115705,0.7542394,1.366958,0.1615305,0.4452817,1.16753,0.352905,286.0232,124.6907,138.2215,False
0,0.8111119,-0.2104083,1.399521,0.489583,-1.399565,1.333561,-2.826411,0.6873246,1.102006,0.4110913,-1.935021,-0.0005604461,11.6,0,-0.535023,-0.1855289,-0.2167679,-0.4650188,1.479352,0.3170467,0.7112027,1.318458,0.3166256,-0.06377386,0.20959,-0.1322402,-0.9651424,-0.05918036,0.009797503,0.7541111,1.366873,0.1618581,0.4419524,1.168458,0.3551494,286.1735,122.9699,140.5862,False
0,0.8222231,-0.06961198,1.329605,0.518472,-1.409588,1.323387,-2.828288,0.6839455,1.100903,0.4105599,-1.934289,0.06586527,11.6,0,-0.5787734,-0.1424666,-0.2425256,-0.4683765,1.481055,0.3232164,0.7099607,1.31824,0.3169081,-0.0794473,0.2608195,-0.1161324,-0.9659674,-0.05311728,0.007840879,0.7539781,1.367056,0.1621978,0.4383591,1.168649,0.3577191,286.1673,121.6235,142.6586,False
0,0.8333342,0.03485323,1.292507,0.5238166,-1.419272,1.312562,-2.830651,0.6804414,1.099909,0.4100151,-1.933451,0.07523197,11.6,0,-0.6305525,-0.0164156,-0.2534816,-0.4701449,1.492572,0.3218428,0.7081411,1.317942,0.3171985,-0.1109286,0.3291122,-0.08922396,-0.96597,-0.04575963,0.005972139,0.7537475,1.367032,0.1626921,0.4345592,1.168141,0.3605744,285.933,120.7071,144.3375,False
0,0.8444453,0.09458648,1.077669,0.3918015,-1.419558,1.308636,-2.832967,0.6772476,1.098581,0.4093363,-1.935144,-0.1561979,11.6,0,-0.6768799,0.1394311,-0.2641758,-0.4711803,1.508941,0.316162,0.7063034,1.317856,0.3175061,-0.1477872,0.4017111,-0.06759878,-0.9661453,-0.03713365,0.004024036,0.7536563,1.366908,0.1632078,0.4305264,1.167148,0.3636163,285.4554,119.9351,145.899,False
0,0.8555565,0.1383955,0.95293,0.364761,-1.424638,1.303346,-2.834983,0.6738538,1.097985,0.4092438,-1.934649,0.04593325,11.6,0,-0.7338139,0.2695939,-0.2590564,-0.4715212,1.526107,0.3108364,0.7043561,1.31766,0.3177717,-0.1709987,0.4390774,-0.05673871,-0.9663551,-0.02970024,0.00249405,0.7533976,1.366874,0.1637495,0.4262953,1.165855,0.3667848,284.8539,119.0342,147.5517,False
0,0.8666676,0.2184083,0.8560179,0.3491967,-1.429723,1.298272,-2.839489,0.6703037,1.097138,0.4087884,-1.932287,0.214433,14.1,0,-0.7730843,0.3241814,-0.2676871,-0.4730424,1.539185,0.3090918,0.7025099,1.317537,0.3180273,-0.2006006,0.4871398,-0.04796098,-0.9668286,-0.02084563,0.00084076,0.7530142,1.366671,0.1642163,0.4220751,1.164225,0.3699177,284.3264,118.2109,149.3032,False
0,0.8777788,0.2975477,0.620541,0.3227488,-1.431789,1.300308,-2.846278,0.667245,1.096783,0.4087141,-1.930971,0.1176881,14.1,0,-0.8112074,0.3647645,-0.2615641,-0.4739819,1.552314,0.3078084,0.7003986,1.317451,0.3183157,-0.2259979,0.5309128,-0.04454459,-0.9673773,-0.01178089,-0.0009211874,0.7526168,1.366641,0.1648531,0.4181759,1.162049,0.3724448,283.8532,118.2788,150.0943,False
0,0.8888899,0.05672412,0.6895106,0.3377202,-1.439368,1.291734,-2.83692,0.6646932,1.096086,0.4082475,-1.932459,-0.1373145,14.1,0,-0.8076823,0.4382367,-0.2597581,-0.4745082,1.569378,0.3013838,0.698293,1.317436,0.3186576,-0.2524827,0.5480486,-0.03471341,-0.9674327,-0.003607119,-0.001825863,0.7521158,1.366644,0.1655738,0.4141434,1.159908,0.3743883,283.1946,118.2659,150.5409,False
0,0.900001,0.09400428,0.6669997,0.305806,-1.443925,1.285677,-2.839119,0.6620967,1.095245,0.4080315,-1.933009,-0.04973757,14.1,0,-0.7826786,0.5285507,-0.2473285,-0.4742317,-4.693666,0.2912934,0.6962389,1.317474,0.318934,-0.2694302,0.5555763,-0.02603054,-0.9674258,0.004328169,-0.002745453,0.7514418,1.366643,0.166316,0.4101707,1.15787,0.3757175,282.5391,117.8212,151.3063,False
0,0.9111122,-0.03708294,0.6035022,0.2308076,-1.445341,1.281404,-2.833711,0.659984,1.095034,0.4077895,-1.917868,1.384391,10,0,-0.7502747,0.5578946,-0.2143041,-0.4733945,-4.677595,0.2842741,0.6943738,1.317512,0.3192041,-0.2801124,0.5406983,-0.02379638,-0.9676234,0.01110152,-0.003095126,0.7508272,1.366702,0.1670108,0.4065441,1.155825,0.3762738,281.9594,117.6712,151.5167,False
0,0.9222233,0.2589712,0.5939819,0.1695581,-1.447386,1.275196,-2.844401,0.6550927,1.095071,0.4081995,-1.927401,-0.8837126,10,0,-0.7223428,0.5586092,-0.1911311,-0.473004,-4.663584,0.2789403,0.6923686,1.317369,0.3194559,-0.2790379,0.5300419,-0.0195355,-0.9676266,0.01783705,-0.003966512,0.7502929,1.366679,0.1677051,0.4029022,1.154583,0.3765879,281.3537,118.2817,150.7631,False
0,0.9333345,0.7506258,0.1640331,0.1232225,-1.443465,1.287507,-2.872648,0.6525577,1.094981,0.4078379,-1.921034,0.591066,10,0,-0.6785694,0.5165785,-0.1632307,-0.4726088,-4.653998,0.2763983,0.6907268,1.317243,0.319674,-0.2704499,0.5140373,-0.006827618,-0.9672846,0.02416393,-0.004803011,0.749578,1.366737,0.16838,0.3998818,1.154103,0.3768568,281.1961,118.7139,150.2461,False
0,0.9444456,0.7337529,0.007256866,0.09756716,-1.44226,1.292666,-2.879598,0.6513996,1.094595,0.4071329,-1.936302,-1.402009,10,0,-0.6299122,0.4129477,-0.155199,-0.473648,-4.651246,0.2791784,0.6890374,1.317079,0.3199563,-0.2574973,0.514008,0.01223721,-0.9664148,0.03127896,-0.006349242,0.7488549,1.366877,0.1691542,0.396989,1.154639,0.3772576,281.3131,119.1796,149.778,False
0,0.9555568,0.6465296,-0.1743976,0.02747571,-1.438272,1.299775,-2.884108,0.6485312,1.09448,0.4076188,-1.951963,-1.420158,10,0,-0.5943902,0.3033264,-0.1801367,-0.4764603,-4.65043,0.2837726,0.6873577,1.316992,0.3202829,-0.2638113,0.5193573,0.01868694,-0.9660169,0.03848135,-0.00732103,0.7481407,1.366954,0.1698761,0.3939458,1.155699,0.3778846,281.8953,117.6774,151.5047,False
0,0.9666679,0.5826815,-0.4096921,-0.1094601,-1.429436,1.309974,-2.889775,0.6467682,1.094444,0.4073668,-1.930961,1.929474,14.7,0,-0.5886477,0.2301785,-0.216118,-0.4797791,-4.647495,0.2875689,0.6855816,1.316898,0.3206491,-0.2594018,0.5257289,0.03142982,-0.9652781,0.04575976,-0.00875168,0.747406,1.367051,0.1706862,0.3926149,1.154712,0.3776076,282.4561,114.9355,154.6091,False
0,0.977779,0.5316274,-0.5294051,-0.1608264,-1.424138,1.318332,-2.895689,0.644828,1.094431,0.4077368,-1.924486,0.5731525,14.7,0,-0.5771968,0.2154486,-0.2376945,-0.4823267,-4.640864,0.2877173,0.6835643,1.316967,0.320895,-0.2583496,0.532118,0.02715987,-0.9651839,0.05320037,-0.01024918,0.7467096,1.36727,0.1714404,0.3914633,1.151911,0.3764955,282.3722,114.3096,155.2493,False
0,0.9888902,0.4996782,-0.5850655,-0.1966467,-1.418885,1.325635,-2.901209,0.6433437,1.094153,0.4076571,-1.924569,-0.01076652,14.7,0,-0.5375484,0.2792411,-0.2416662,-0.4836812,-4.628667,0.2814482,0.6816659,1.316875,0.3211348,-0.2678829,0.5364122,0.03150917,-0.9647743,0.06061967,-0.01119007,0.7458006,1.367423,0.1721909,0.3892429,1.14831,0.3747639,281.7863,116.0526,153.1784,False
0,1.000001,0.4900933,-0.5989946,-0.206112,-1.4151,1.331838,-2.907399,0.6413723,1.094262,0.408258,-1.925111,-0.04890534,14.7,0,-0.5115716,0.3514614,-0.2304964,-0.4839342,-4.614382,0.27368,0.6797553,1.316798,0.3214302,-0.2646457,0.5363971,0.03574727,-0.9642113,0.06767438,-0.01244868,0.7450777,1.367558,0.1729288,0.3865824,1.144165,0.3722456,280.8424,120.0087,148.5998,False
0,1.011112,0.4772547,-0.5542392,-0.201032,-1.412042,1.335923,-2.912846,0.6403785,1.093962,0.4082263,-1.924884,0.02093427,14.7,0,-0.4726804,0.4459591,-0.2160256,-0.4836173,-4.596414,0.2615941,0.6778913,1.316735,0.3216507,-0.2538433,0.5246482,0.05589086,-0.9629633,0.07419553,-0.01376721,0.7440886,1.367739,0.1735981,0.3836642,1.140013,0.3692741,279.8457,124.8482,142.7811,False
0,1.022224,0.4686649,-0.477424,-0.1801677,-1.41033,1.338045,-2.918143,0.6388253,1.09409,0.4084854,-1.925645,-0.06975082,32.1,0,-0.4427108,0.4810026,-0.2170081,-0.4844354,-4.58213,0.2528594,0.6761372,1.316612,0.3220456,-0.2462998,0.5150375,0.0675436,-0.9619173,0.08068353,-0.01512729,0.7432555,1.367935,0.1743476,0.3808743,1.136179,0.3661864,279.0598,130.2251,136.3468,False
0,1.033335,0.4653624,-0.3653993,-0.1520802,-1.409735,1.337833,-2.923065,0.6380652,1.093794,0.4086115,-1.925259,0.03587743,32.1,0,-0.3989826,0.4764791,-0.2100195,-0.4852237,-4.570419,0.2453171,0.6744765,1.316566,0.322269,-0.2367133,0.4968969,0.07385063,-0.9609495,0.08659774,-0.01623383,0.7423004,1.368082,0.1749101,0.3782931,1.132992,0.3634361,278.5542,135.3455,130.1911,False
0,1.044446,0.4770507,-0.2830883,-0.1078618,-1.409851,1.338496,-2.928879,0.6371601,1.093869,0.4090369,-1.925313,-0.005274029,32.1,0,-0.3468661,0.4367446,-0.201359,-0.4863438,-4.562577,0.2405359,0.6731043,1.316428,0.3226378,-0.2196408,0.4680849,0.08540984,-0.9598698,0.09181394,-0.01752919,0.7413281,1.368192,0.1755016,0.3763532,1.130453,0.3613124,278.2672,139.4945,125.2564,False
0,1.055557,0.4738886,-0.2444635,-0.06228263,-1.410565,1.339988,-2.934184,0.6363271,1.093635,0.4093766,-1.925284,0.002659923,32.1,0,-0.3045568,0.3855263,-0.2108308,-0.4883348,-4.55594,0.2365923,0.6718161,1.316337,0.3228283,-0.2005354,0.4413889,0.08736887,-0.958917,0.09662934,-0.01875185,0.7403861,1.368331,0.175997,0.3747733,1.12876,0.3601393,278.1388,142.1777,122.0457,False
0,1.066668,0.4654258,-0.2357477,-0.02822503,-1.410948,1.34272,-2.939538,0.6353286,1.093721,0.409941,-1.925972,-0.06295702,46.3,0.2,-0.2547607,0.3171232,-0.2098993,-0.490256,-4.551886,0.2342777,0.67055,1.316275,0.3229942,-0.1708259,0.3901493,0.09243464,-0.9577393,0.09970728,-0.01968955,0.7392666,1.368294,0.176388,0.3738015,1.127726,0.3600475,278.0724,143.1153,120.9032,False
0,1.077779,0.4569494,-0.250617,-0.01853255,-1.410331,1.346116,-2.945029,0.6345679,1.093567,0.4102845,-1.925331,0.05905525,46.3,0.2,-0.2037649,0.2549932,-0.1982641,-0.4918528,-4.548646,0.2321352,0.6691651,1.316184,0.3231022,-0.1442954,0.3399942,0.09966147,-0.956356,0.1024981,-0.02046799,0.7381949,1.368423,0.1766419,0.3732349,1.127237,0.3609741,277.9898,142.3225,121.8418,False
0,1.08889,0.4377651,-0.2763397,-0.04070593,-1.4084,1.34981,-2.949891,0.6339011,1.093506,0.4104006,-1.92505,0.02513116,46.3,0.2,-0.173942,0.2206227,-0.1839982,-0.4931029,-4.545097,0.2299791,0.6679009,1.316136,0.323231,-0.1167141,0.2919551,0.1036797,-0.9550751,0.1044962,-0.02129703,0.7372472,1.368508,0.17694,0.372914,1.127037,0.3626066,277.8838,140.1982,124.4279,False
0,1.100002,0.4249416,-0.3107192,-0.08308072,-1.40519,1.354125,-2.954865,0.6333244,1.093458,0.4105949,-1.925043,0.0005016178,46.3,0.2,-0.136571,0.1914752,-0.1622922,-0.4938715,-4.541709,0.2274305,0.6665606,1.31628,0.3233929,-0.0986452,0.2620717,0.1088457,-0.9537302,0.1071195,-0.02237828,0.736194,1.368603,0.1772871,0.3726192,1.126919,0.3645188,277.7768,137.892,127.3648,False
0,1.111113,0.4121234,-0.3504389,-0.1296874,-1.401213,1.358812,-2.959799,0.6326432,1.093557,0.4106009,-1.92438,0.0606614,46.3,0.2,-0.1087803,0.1869738,-0.150888,-0.4947003,-4.537164,0.2236967,0.6653764,1.316265,0.3234589,-0.07213481,0.2140454,0.1128715,-0.9523347,0.1080787,-0.02302862,0.7352433,1.368682,0.1773951,0.372414,1.126554,0.3662167,277.7026,136.0926,129.8389,False
0,1.122224,0.4078427,-0.390101,-0.1688546,-1.397175,1.363784,-2.965126,0.6320884,1.093612,0.4105935,-1.924361,0.001294512,38.9,0.1,-0.09048083,0.2027389,-0.138116,-0.4952617,-4.530802,0.2186373,0.6642058,1.316232,0.3235376,-0.06366211,0.1927003,0.1149372,-0.950936,0.1098654,-0.02361585,0.734416,1.368848,0.1776459,0.3722096,1.125786,0.3673009,277.6262,135.6627,130.7997,False
0,1.133335,0.403551,-0.4137484,-0.2017282,-1.392994,1.368563,-2.9703,0.6315204,1.093693,0.4105818,-1.924331,0.002792343,38.9,0.1,-0.08392227,0.2175129,-0.1273694,-0.4956606,-4.524368,0.2136758,0.6630607,1.316239,0.3236084,-0.04884078,0.1532357,0.1190698,-0.9495091,0.1102958,-0.02382863,0.7335248,1.368989,0.1777952,0.3719122,1.12457,0.3675389,277.5279,136.7728,129.9263,False
0,1.144446,0.4056734,-0.4191191,-0.2091593,-1.389698,1.372869,-2.975607,0.630946,1.093729,0.4105649,-1.924721,-0.03559023,38.9,0.1,-0.08067136,0.2324107,-0.1272456,-0.4963898,-4.51754,0.2086315,0.6621646,1.31623,0.3235447,-0.04138416,0.1308305,0.1264666,-0.9478334,0.1111076,-0.02413916,0.7327471,1.369123,0.1778708,0.3714107,1.122974,0.3668568,277.392,139.3027,127.3191,False
0,1.155557,0.4120372,-0.4181198,-0.2219653,-1.386119,1.376848,-2.981095,0.6305894,1.09373,0.4106359,-1.924674,0.004610803,38.9,0.1,-0.08506329,0.240063,-0.1441693,-0.4979605,-4.510589,0.2036088,0.6613408,1.316137,0.3235583,-0.02327955,0.1115962,0.1326943,-0.94617,0.1117867,-0.02495595,0.7318853,1.369251,0.178005,0.3707756,1.12106,0.3653381,277.2628,142.8829,123.3507,False
0,1.166668,0.4162697,-0.4010822,-0.2242082,-1.382987,1.380332,-2.986503,0.6301491,1.093736,0.4106433,-1.924898,-0.02048736,26.9,0,-0.07671031,0.2113085,-0.1488173,-0.4994636,-4.507061,0.2011443,0.6604288,1.316129,0.3235657,-0.01478466,0.09663731,0.1347489,-0.9446515,0.1123534,-0.02541002,0.731107,1.36944,0.1779976,0.3700157,1.118957,0.3632192,277.179,147.2167,118.3804,False
0,1.17778,0.4194473,-0.3861517,-0.2221801,-1.379984,1.383841,-2.991944,0.6297849,1.093648,0.4106026,-1.92516,-0.02377686,26.9,0,-0.05013008,0.200548,-0.1491846,-0.5007046,-4.502358,0.1967868,0.6596372,1.31601,0.323648,0.001188725,0.08378569,0.1378068,-0.9429145,0.1128056,-0.02631736,0.7302389,1.369619,0.1780214,0.3692252,1.116784,0.3608264,277.1472,151.7391,113.0796,False
0,1.188891,0.418334,-0.3253089,-0.2023083,-1.378211,1.385216,-2.996888,0.6296133,1.093479,0.4105995,-1.925174,-0.001172698,26.9,0,-0.02234468,0.2067552,-0.1429947,-0.5015941,-4.496655,0.1911518,0.6588206,1.315936,0.3236332,0.009676337,0.06458268,0.1409281,-0.9412394,0.1129584,-0.02681324,0.7294462,1.369814,0.1780283,0.3685521,1.114614,0.3584917,277.1906,156.1562,107.8725,False
0,1.200002,0.4140489,-0.2858165,-0.1886938,-1.376278,1.386989,-3.001756,0.6293325,1.093361,0.410521,-1.92517,0.0003758067,26.9,0,-0.004155323,0.2151583,-0.138814,-0.5023936,-4.490585,0.1853272,0.657949,1.315911,0.3236434,0.02042013,0.05281867,0.1536157,-0.9391382,0.1131102,-0.02759834,0.7286979,1.36982,0.1779814,0.3679752,1.112549,0.3564974,277.2568,160.0222,103.3418,False
0,1.211113,0.4012165,-0.2185729,-0.1645766,-1.375301,1.386942,-3.005743,0.6293339,1.093168,0.4104619,-1.925052,0.01078665,26.9,0,0.02469286,0.2160124,-0.13056,-0.5030994,-4.485209,0.1793828,0.657257,1.315866,0.3236389,0.02364977,0.04215674,0.1610453,-0.9371078,0.1133443,-0.02809901,0.72794,1.369974,0.1779971,0.3679167,1.111481,0.3555593,278.1956,162.7929,100.6251,False
0,1.222224,0.3937128,-0.1673539,-0.1489006,-1.37404,1.387032,-3.00981,0.6292695,1.093007,0.4104321,-1.924881,0.01556554,14.4,0,0.04282123,0.2094851,-0.1254793,-0.5039883,-4.480638,0.1744051,0.6565557,1.315865,0.3236613,0.02151558,0.03682353,0.1621362,-0.9352478,0.1135164,-0.02839729,0.7271417,1.370043,0.1779747,0.368084,1.111042,0.3555585,278.237,161.4564,102.007,False
0,1.233335,0.3755566,-0.0947589,-0.1194794,-1.374017,1.385409,-3.013035,0.6295322,1.092795,0.4103444,-1.924358,0.04770634,14.4,0,0.06301253,0.1859084,-0.1205964,-0.5049157,-4.477442,0.1702061,0.6561018,1.315799,0.323698,0.02898915,0.02401648,0.1684614,-0.9331301,0.1133814,-0.02890275,0.7264481,1.37019,0.1779957,0.3682695,1.110742,0.3560255,277.8068,158.7247,104.7648,False
0,1.244446,0.3595469,-0.03495002,-0.09210651,-1.374264,1.383805,-3.016165,0.629738,1.092782,0.4101841,-1.924414,-0.005486202,14.4,0,0.07244746,0.1582008,-0.1231016,-0.5060613,-4.47509,0.167259,0.6556433,1.315757,0.323575,0.03537162,0.0207895,0.1673473,-0.9312153,0.1135046,-0.02974405,0.7256991,1.37039,0.1780279,0.3684559,1.110527,0.3565859,277.3353,155.4821,107.9793,False
0,1.255558,0.3413965,0.0248286,-0.06793336,-1.374615,1.381549,-3.018931,0.6301514,1.092609,0.4100258,-1.924007,0.03731826,14.4,0,0.09578518,0.1239612,-0.1183542,-0.507068,-4.474004,0.1645131,0.6552552,1.315666,0.3235602,0.04384226,0.01436845,0.1640736,-0.9294959,0.1134744,-0.03052063,0.7251021,1.37049,0.177994,0.3686584,1.1104,0.3569755,277.0948,152.5233,110.8721,False
0,1.266669,0.3232281,0.08241412,-0.05440207,-1.37474,1.378725,-3.0214,0.6306412,1.092357,0.4098198,-1.923973,0.002903953,11.9,0,0.1213311,0.1121023,-0.1155296,-0.508113,-4.471909,0.1604472,0.6549579,1.315577,0.3235269,0.06175025,-0.01234586,0.1511312,-0.9281856,0.1119617,-0.03100266,0.7246252,1.370599,0.1778677,0.3688515,1.110315,0.3571864,277.0353,150.2506,113.0935,False
0,1.27778,0.3039922,0.1357074,-0.04615735,-1.374968,1.375536,-3.023553,0.6311009,1.092136,0.4098024,-1.923866,0.009876776,11.9,0,0.1267441,0.1055649,-0.1039314,-0.508742,-4.469487,0.1568003,0.654541,1.315464,0.3234949,0.07233046,-0.02944364,0.1489117,-0.9264562,0.1106811,-0.03142663,0.724004,1.37065,0.1777985,0.3690084,1.110259,0.3572766,277.0592,148.6906,114.6376,False
0,1.288891,0.2858242,0.1900755,-0.03580054,-1.37539,1.371628,-3.025365,0.6317481,1.091936,0.4097126,-1.923807,0.005445536,11.9,0,0.140602,0.08623138,-0.09468035,-0.5094275,-4.468586,0.1540455,0.6543628,1.315389,0.3234618,0.08820776,-0.05080377,0.1455718,-0.9249238,0.1091193,-0.03202025,0.7235215,1.370723,0.1777017,0.3691997,1.110194,0.3573209,277.1445,147.0555,116.2777,False
0,1.300002,0.2740764,0.2263594,-0.02320844,-1.376017,1.368014,-3.027388,0.6324651,1.091733,0.409658,-1.923705,0.009381998,11.9,0,0.1565775,0.07866522,-0.09064886,-0.5101684,-4.466933,0.1505027,0.6541948,1.315314,0.3234582,0.09565467,-0.0550988,0.1455058,-0.9232284,0.1081941,-0.03280455,0.7229216,1.370788,0.177552,0.369431,1.1101,0.3573778,277.2881,145.3182,117.9579,False
0,1.311113,0.259112,0.2754058,-0.01282553,-1.376759,1.36325,-3.028821,0.6332333,1.091533,0.4096351,-1.923652,0.004836845,11.9,0,0.1672504,0.07859791,-0.08862181,-0.5109488,-4.464917,0.1465069,0.6541694,1.315215,0.323441,0.09978873,-0.07215935,0.1380133,-0.9219326,0.1065323,-0.03305915,0.7225893,1.370861,0.1774278,0.3696609,1.110027,0.3575386,277.3654,143.3581,119.8073,False
0,1.322224,0.2462974,0.3137986,-0.002379611,-1.377585,1.358689,-3.030339,0.6341223,1.091304,0.4096251,-1.923954,-0.02750046,10.1,0,0.1757708,0.0613983,-0.08145209,-0.5117989,-4.464124,0.1437223,0.6541842,1.315255,0.3234065,0.1007184,-0.09028056,0.1294796,-0.9207874,0.1045537,-0.03304424,0.7222969,1.370965,0.1773474,0.3699473,1.109982,0.3578265,277.3931,141.3187,121.6751,False
0,1.333336,0.2377468,0.3361703,-0.0003689602,-1.378155,1.35412,-3.031818,0.6349068,1.091148,0.4096138,-1.923766,0.01756608,10.1,0,0.1843027,0.04747665,-0.07419806,-0.5121775,-4.464178,0.1413925,0.6543264,1.315215,0.323426,0.1037923,-0.09988126,0.1198679,-0.9196652,0.1028401,-0.03325623,0.7219626,1.371032,0.1772268,0.3701684,1.109894,0.3582013,277.3114,138.5858,124.3593,False
0,1.344447,0.2196167,0.3628133,0.004827999,-1.378882,1.3492,-3.032872,0.6357436,1.091034,0.4096403,-1.923925,-0.01465507,10.1,0,0.2066991,0.02487732,-0.0618701,-0.5125679,-4.465029,0.1390767,0.6544789,1.315155,0.3235104,0.1058155,-0.1126871,0.1123896,-0.91865,0.1005567,-0.03319311,0.7217551,1.371132,0.1770828,0.3705198,1.109917,0.3586011,277.2814,135.8622,126.8052,False
0,1.355558,0.2046924,0.3713204,0.005867116,-1.37939,1.344812,-3.033862,0.6367168,1.090944,0.4096577,-1.92404,-0.01026283,10.1,0,0.2236964,-0.0008268803,-0.05591032,-0.5130814,-4.466561,0.1373512,0.6546794,1.315182,0.3235683,0.1068463,-0.1201479,0.1113133,-0.9174206,0.09861579,-0.03323998,0.721517,1.371197,0.1769502,0.3710732,1.109915,0.3589939,277.173,134.427,128.0325,False
0,1.366669,0.1833734,0.3744597,0.001628108,-1.379745,1.340489,-3.034385,0.6376042,1.090871,0.4097574,-1.92382,0.02026624,10.1,0,0.2268748,-0.007242918,-0.05494328,-0.5136961,-4.466997,0.1351136,0.6549556,1.315145,0.323595,0.1109547,-0.1425425,0.1027533,-0.9165519,0.09560176,-0.03280509,0.7214557,1.37125,0.1768382,0.3717097,1.109889,0.3594275,277.0554,132.4308,129.8539,False
0,1.37778,0.1705811,0.377612,-0.002629522,-1.380011,1.336182,-3.035165,0.6384342,1.090738,0.4097202,-1.923767,0.004742599,9.4,0.2,0.2258093,-0.02436039,-0.04765435,-0.5140545,-4.46849,0.1339858,0.6553125,1.315084,0.3235922,0.1141247,-0.1489585,0.1016502,-0.9155261,0.09313074,-0.03272945,0.7213911,1.371291,0.1766453,0.3721181,1.109938,0.360273,276.7785,125.8793,136.3862,False
0,1.388891,0.1524636,0.3711423,-0.01107705,-1.380044,1.332216,-3.035512,0.6392821,1.090682,0.409817,-1.923445,0.02961337,9.4,0.2,0.2280608,-0.02985284,-0.03281833,-0.5140114,-4.469567,0.1323213,0.6556638,1.315035,0.323611,0.1160687,-0.1511002,0.08245631,-0.9151958,0.0909355,-0.03274303,0.7213576,1.371304,0.1765287,0.3729663,1.109933,0.3608927,276.3267,124.4976,137.6499,False
0,1.400002,0.1375474,0.3604266,-0.0173712,-1.380092,1.328514,-3.035817,0.6402395,1.090601,0.4098873,-1.923831,-0.03542249,9.4,0.2,0.2259291,-0.03306718,-0.03070102,-0.514388,-4.470514,0.1308182,0.6560258,1.315056,0.3236089,0.1127629,-0.1489702,0.06970048,-0.9147932,0.08882467,-0.03264689,0.7212819,1.371319,0.1763351,0.3736293,1.109916,0.3612631,276.5332,123.6375,138.2862,False
0,1.411114,0.1172981,0.3432491,-0.03427158,-1.379481,1.325174,-3.035767,0.6410827,1.090599,0.4100528,-1.923548,0.0262776,9.4,0.2,0.2280205,-0.04694657,-0.02873674,-0.5147651,-4.472451,0.1299047,0.6564143,1.315017,0.3236263,0.1137711,-0.1511054,0.06436479,-0.9142019,0.08663356,-0.03261147,0.7212335,1.371347,0.1762087,0.3744951,1.109869,0.3615542,276.4317,124.7025,137.1205,False
0,1.422225,0.0949297,0.3132741,-0.05428588,-1.378551,1.322362,-3.035616,0.6419475,1.090573,0.4102271,-1.923588,-0.003774852,14.2,0.4,0.2269706,-0.05124769,-0.02450818,-0.5149786,-4.473815,0.128705,0.6568701,1.31494,0.323658,0.1115654,-0.1553661,0.0579913,-0.9137295,0.08419211,-0.03227858,0.7212479,1.371363,0.1760938,0.3751012,1.109846,0.3618995,276.6536,123.6275,138.1187,False
0,1.433336,0.08641157,0.2929436,-0.06692898,-1.377654,1.319633,-3.035763,0.6427739,1.0906,0.4103963,-1.923358,0.02114879,14.2,0.4,0.2248904,-0.04915322,-0.02020439,-0.5151225,-4.474751,0.1270711,0.6572697,1.314934,0.3236918,0.1115342,-0.1574945,0.05586435,-0.9130541,0.08195532,-0.03209855,0.721285,1.371433,0.1759982,0.3759216,1.109825,0.3623118,276.4653,123.9445,137.7261,False
0,1.444447,0.06508517,0.2714729,-0.08805709,-1.376361,1.317188,-3.035197,0.6437188,1.090732,0.4106121,-1.92333,0.002590164,14.2,0.4,0.2185997,-0.05244391,-0.008451492,-0.5148002,-4.476187,0.1260935,0.6577051,1.314956,0.3237348,0.1103938,-0.1532412,0.04628782,-0.9127936,0.07984556,-0.03200507,0.7214113,1.37148,0.1759839,0.3764824,1.109825,0.3627937,276.6179,122.2066,139.4003,False
0,1.455558,0.05759703,0.2756777,-0.09552759,-1.375459,1.313779,-3.034833,0.6445806,1.090716,0.4108393,-1.923805,-0.04334684,14.2,0.4,0.216517,-0.05569746,-0.00207383,-0.514739,-4.477647,0.1250466,0.6581059,1.31493,0.3237839,0.1050024,-0.1468421,0.03675153,-0.9125913,0.07794607,-0.03185087,0.7215148,1.371471,0.1758335,0.3772635,1.109821,0.3632846,276.3895,122.4125,139.1216,False
0,1.466669,0.04906652,0.2799202,-0.09660204,-1.374691,1.310368,-3.034429,0.6454017,1.090833,0.411109,-1.923276,0.04890391,14.2,0.4,0.2101564,-0.05570428,0.001183749,-0.5146782,-4.47892,0.1240607,0.6585895,1.314973,0.3238258,0.1059978,-0.1468472,0.02928482,-0.9124379,0.07590409,-0.03178989,0.7216711,1.371503,0.1757321,0.3778703,1.109827,0.3637865,276.5078,121.033,140.4592,False
0,1.47778,0.04160122,0.2873709,-0.09556701,-1.374062,1.306838,-3.033961,0.6462605,1.090962,0.4113066,-1.923783,-0.04665806,20.9,1.7,0.2016649,-0.06319264,0.007577826,-0.5145275,-4.480878,0.1238042,0.6591267,1.315055,0.3237815,0.102697,-0.1521667,0.01972392,-0.9125087,0.07352655,-0.03138882,0.721823,1.371477,0.1755877,0.3787097,1.109843,0.3642774,276.2999,121.5981,139.8253,False
0,1.488891,0.02135153,0.2980142,-0.09239629,-1.373546,1.303025,-3.032781,0.6471219,1.091171,0.4116609,-1.923971,-0.01665061,20.9,1.7,0.1881185,-0.06988542,0.04173106,-0.5131086,-4.483278,0.1242924,0.6597338,1.315136,0.3237884,0.09836391,-0.1617409,0.01550505,-0.9124267,0.07085913,-0.03070651,0.7220479,1.371516,0.1754744,0.3794252,1.109839,0.3649205,276.3145,121.8334,139.5735,False
0,1.500003,0.004303802,0.2969096,-0.09554483,-1.372826,1.299597,-3.031669,0.6480477,1.091269,0.4119632,-1.924079,-0.009694432,20.9,1.7,0.1817844,-0.0806281,0.05233104,-0.5124295,-4.486078,0.124902,0.6603758,1.315249,0.3237958,0.09822326,-0.1692055,0.003785448,-0.9127185,0.06809703,-0.0300322,0.7223996,1.371535,0.1753478,0.3801016,1.109828,0.3658755,276.5462,125.5932,136.0757,False
0,1.511114,-0.01167536,0.2893973,-0.1007944,-1.371853,1.296467,-3.030375,0.6489294,1.091502,0.412297,-1.923569,0.0467931,20.9,1.7,0.1765002,-0.1020564,0.06600633,-0.5114782,-4.490102,0.1266437,0.6610367,1.315357,0.3238285,0.1034669,-0.1670948,-0.005852117,-0.9130493,0.06584492,-0.02997281,0.7226585,1.371578,0.1752446,0.3807915,1.109845,0.3671953,276.5943,127.4884,134.4974,False
0,1.522225,-0.03510648,0.2679803,-0.1134034,-1.370441,1.293984,-3.028777,0.6498099,1.091696,0.4125421,-1.923663,-0.008857336,16,2.7,0.1774961,-0.1158927,0.06478076,-0.5111325,-4.493508,0.1275998,0.6615787,1.315455,0.3238351,0.09797353,-0.1745371,-0.02071128,-0.9136469,0.06309721,-0.0291459,0.723024,1.371571,0.1750848,0.3815019,1.109887,0.3688529,276.587,129.3208,133.061,False
0,1.533336,-0.05109544,0.2615073,-0.1229206,-1.369077,1.291098,-3.027096,0.6507304,1.091939,0.4128075,-1.923612,0.00485789,16,2.7,0.1796001,-0.1244347,0.06573574,-0.5105871,-4.497102,0.1286656,0.6622409,1.315534,0.3238657,0.1010522,-0.1830769,-0.02925686,-0.9140837,0.06009703,-0.02842046,0.7233745,1.371556,0.174871,0.3823119,1.109925,0.3707501,276.587,131.1644,131.7225,False
0,1.544447,-0.07136388,0.2635488,-0.133546,-1.367651,1.287754,-3.024955,0.6517968,1.092303,0.4130487,-1.923357,0.0234518,16,2.7,0.1816811,-0.1286712,0.06247552,-0.5102233,-4.500304,0.129383,0.6630126,1.315591,0.3238895,0.0999691,-0.1883997,-0.02924567,-0.9143436,0.0572308,-0.02773762,0.723704,1.371585,0.1747253,0.3831899,1.10997,0.3727636,276.5798,133.1455,130.3296,False
0,1.555558,-0.09697269,0.2805074,-0.1421207,-1.36628,1.283765,-3.022236,0.6529685,1.092546,0.413254,-1.923518,-0.01483315,16,2.7,0.1838283,-0.1308456,0.0656276,-0.5095932,-4.50354,0.1301844,0.6638838,1.315648,0.3239362,0.1031681,-0.1958655,-0.02608093,-0.9144794,0.05419413,-0.02712696,0.7241365,1.371602,0.1745586,0.3841255,1.11002,0.3747395,276.5582,135.0126,129.0674,False
0,1.566669,-0.1225902,0.3145852,-0.1390794,-1.365492,1.278832,-3.018969,0.6542499,1.092916,0.4135396,-1.923371,0.01375873,16,2.7,0.1850491,-0.1235283,0.07847786,-0.5084481,-4.506212,0.1304294,0.6647062,1.315751,0.3239419,0.1031155,-0.2033309,-0.02927356,-0.9148278,0.05089807,-0.0262886,0.7246269,1.371634,0.1743991,0.3851026,1.110087,0.3766095,276.5289,137.1836,127.4491,False
0,1.577781,-0.1460445,0.3390992,-0.1317246,-1.364898,1.274163,-3.015753,0.6554003,1.093098,0.4138794,-1.923115,0.0233658,15.8,3.2,0.1840401,-0.1257185,0.08485095,-0.5076038,-4.509386,0.1311772,0.6653647,1.315809,0.3239193,0.1072584,-0.2118804,-0.03889631,-0.9154717,0.04744794,-0.02549631,0.7251136,1.37155,0.1742554,0.386158,1.110168,0.3784117,276.5442,140.3169,124.8489,False
0,1.588892,-0.1748571,0.3849168,-0.1234252,-1.36455,1.268021,-3.011557,0.656893,1.093388,0.4141746,-1.922967,0.0135741,15.8,3.2,0.1861176,-0.1524256,0.0909416,-0.5067058,-4.515069,0.1339842,0.6662634,1.315892,0.3239181,0.1134762,-0.2161664,-0.05599906,-0.9166041,0.04418051,-0.02497566,0.7256206,1.37153,0.1740661,0.3873089,1.11025,0.3802794,276.6104,143.9999,121.7096,False
0,1.600003,-0.2004228,0.4019786,-0.1149641,-1.364125,1.262797,-3.007525,0.6583571,1.093716,0.4144676,-1.923195,-0.02078429,15.8,3.2,0.1956384,-0.1770159,0.09484993,-0.5059947,-4.521251,0.1368828,0.6672217,1.31595,0.3238747,0.1080435,-0.2140255,-0.06766598,-0.9176417,0.04113479,-0.02408456,0.7260206,1.37144,0.1738679,0.388529,1.110333,0.3823877,276.8594,149.6028,116.7812,False
