loc,t,aDotUA,bDotUA,gDotUA,aUA,bUA,gUA,xUA,yUA,zUA,qE,qDotE,emgA,emgB,aDotSH,bDotSH,gDotSH,aSH,bSH,gSH,xSH,ySH,zSH,aDotUB,bDotUB,gDotUB,aUB,bUB,gUB,xUB,yUB,zUB,xHand,yHand,zHand,aHand,bHand,gHand,enable
2,0,0.2300299,0.2164305,0.3109767,-1.434701,-4.058324,-2.653802,0.5251702,1.461138,0.4742997,-0.5305715,0.04617158,100,88.25,-0.1325315,0.1780885,-0.1846694,-0.5695751,-3.743897,-0.284562,0.6484028,1.715825,0.397604,-0.09213547,0.2436808,0.08383834,-0.9662066,0.3664447,0.01419225,0.8278169,1.782693,0.237802,0.3588792,1.168976,0.2803208,326.5161,232.3837,350.6651,False
2,0.01111111,0.2248838,0.2494389,0.3084542,-1.43984,-4.060958,-2.65559,0.5258049,1.460251,0.474293,-0.5309406,-0.03409922,100,85.18,-0.1122574,0.1738379,-0.1817303,-0.5720374,-3.741715,-0.2856765,0.6477906,1.715561,0.3976367,-0.08583292,0.2330404,0.07417937,-0.9657192,0.3692625,0.01327932,0.8275263,1.782823,0.2381763,0.3601726,1.168187,0.2793733,326.4672,232.6758,350.267,False
2,0.02222222,0.2055998,0.28664,0.3050689,-1.444895,-4.063079,-2.656764,0.5263234,1.459327,0.4745054,-0.5309182,0.002490504,100,82.31,-0.1056838,0.1706235,-0.1668994,-0.5738633,-3.739337,-0.2866989,0.6472774,1.715433,0.397599,-0.08270272,0.2191807,0.07200709,-0.9648457,0.3715702,0.01304257,0.8273397,1.782825,0.2384872,0.3614267,1.167411,0.2784907,326.4037,233.0526,349.8284,False
2,0.03333334,0.2002723,0.2781032,0.3029941,-1.449249,-4.063945,-2.658447,0.5268428,1.458534,0.4743505,-0.5311568,-0.02174348,100,79.63,-0.1013688,0.1770068,-0.1616141,-0.5760683,-3.73629,-0.2881277,0.646855,1.715321,0.3976209,-0.08058654,0.2085313,0.07410648,-0.9638156,0.3742753,0.01248836,0.8270898,1.782851,0.2388144,0.3626672,1.166588,0.2777043,326.3701,233.3909,349.4383,False
2,0.04444445,0.1971381,0.2524779,0.2946251,-1.452862,-4.064328,-2.66052,0.527317,1.457852,0.4743466,-0.5306199,0.04935018,100,77.12,-0.09045519,0.1705894,-0.1404483,-0.5774042,-3.733755,-0.2895911,0.6464279,1.71524,0.3975883,-0.07845649,0.1904091,0.07831567,-0.9627631,0.3761148,0.01224948,0.8268657,1.782918,0.239064,0.3639649,1.165751,0.2771023,326.3664,233.7126,349.0485,False
2,0.05555556,0.1939925,0.2214861,0.2767055,-1.455979,-4.064589,-2.662303,0.5277271,1.457132,0.4742281,-0.5310423,-0.03894519,100,74.77,-0.08088385,0.1727245,-0.1416266,-0.5795465,-3.731245,-0.2910558,0.6460265,1.71508,0.3976405,-0.07640322,0.1755172,0.07081294,-0.9622374,0.3780904,0.01181245,0.8266122,1.783047,0.2393923,0.3652719,1.164862,0.2766584,326.4447,234.0258,348.7058,False
2,0.06666667,0.1918848,0.2085959,0.2597384,-1.458941,-4.065212,-2.664311,0.528175,1.456523,0.474153,-0.531543,-0.04530162,100,71.74,-0.06383944,0.1482342,-0.1429349,-0.581383,-3.730603,-0.2914302,0.6456228,1.71503,0.3976722,-0.07748733,0.1616626,0.07293664,-0.9611742,0.3796934,0.01190566,0.82638,1.783149,0.2395809,0.3666039,1.163927,0.276281,326.5809,234.2465,348.5153,False
2,0.07777778,0.199366,0.1860755,0.230045,-1.461109,-4.065748,-2.666455,0.5285829,1.456074,0.474088,-0.5313672,0.01646405,100,68.9,-0.04014021,0.1247852,-0.1219526,-0.5822917,-3.729755,-0.2923269,0.6451184,1.715024,0.3977728,-0.07116621,0.1414169,0.06966473,-0.9603305,0.3808352,0.01192137,0.8262148,1.783247,0.2397552,0.3679858,1.162961,0.2759609,326.7227,234.3699,348.3713,False
2,0.08888889,0.2046768,0.1838571,0.2108736,-1.463591,-4.066881,-2.66871,0.5289785,1.455441,0.4739544,-0.5316687,-0.02770117,100,66.24,-0.02724653,0.1109311,-0.1136064,-0.5834683,-3.728921,-0.2931456,0.6447369,1.714932,0.3978214,-0.06589927,0.1318547,0.06321798,-0.9597681,0.3826225,0.01135598,0.8259957,1.783292,0.2399263,0.3693447,1.16194,0.2756521,326.894,234.4806,348.1992,False
2,0.1,0.2046302,0.1933961,0.2022966,-1.466571,-4.068196,-2.670571,0.5294074,1.454934,0.4739854,-0.5318743,-0.01853202,100,63.76,-0.01763126,0.1013438,-0.111603,-0.5847971,-3.728061,-0.2939102,0.6444235,1.714992,0.3978605,-0.05953339,0.1233162,0.0631604,-0.9589212,0.383929,0.01118394,0.8258889,1.783362,0.2401066,0.370683,1.160943,0.275396,327.0805,234.6,347.9863,False
2,0.1111111,0.2077978,0.1997544,0.1937276,-1.469336,-4.069646,-2.672737,0.5298526,1.454279,0.4738765,-0.5320841,-0.01902908,100,60.83,-0.0219163,0.09601104,-0.1136955,-0.5864062,-3.727408,-0.2940111,0.6440516,1.714977,0.3978896,-0.05419553,0.1137214,0.06629626,-0.9580589,0.3852217,0.01081084,0.8256905,1.783455,0.240335,0.3719501,1.159987,0.2752247,327.2612,234.7019,347.7768,False
2,0.1222222,0.2045527,0.2145827,0.1829932,-1.472089,-4.071273,-2.674652,0.5304068,1.453704,0.4738476,-0.5317363,0.03198517,100,58.09,-0.02483506,0.08745469,-0.09130177,-0.5869,-3.726301,-0.2945573,0.6438405,1.714863,0.3979161,-0.04892608,0.1019979,0.06197505,-0.9574367,0.3860388,0.01070724,0.8255837,1.7835,0.2405083,0.3730915,1.159035,0.2751356,327.4059,234.8572,347.5696,False
2,0.1333333,0.2033969,0.2421517,0.1604536,-1.474603,-4.074278,-2.676417,0.5309414,1.453239,0.4739528,-0.5320224,-0.02646608,100,55.53,-0.02567595,0.09594189,-0.07211062,-0.5874838,-3.72429,-0.2958783,0.6434722,1.714939,0.3980515,-0.04900422,0.09669911,0.05237529,-0.9572275,0.3872894,0.0104601,0.8253937,1.783645,0.2407646,0.3741438,1.158135,0.2751287,327.5443,235.0842,347.3835,False
2,0.1444445,0.1958415,0.268542,0.1230191,-1.476494,-4.077678,-2.677838,0.5315005,1.452775,0.4742432,-0.5318333,0.01756038,100,53.13,-0.0309798,0.1172451,-0.0688123,-0.5886481,-3.720905,-0.2981353,0.6431593,1.714904,0.3980322,-0.05011194,0.0924433,0.04918259,-0.9567273,0.3883059,0.01059406,0.8251919,1.783753,0.2409189,0.3751202,1.157241,0.2751522,327.6397,235.3191,347.2549,False
2,0.1555556,0.1786242,0.2843637,0.09854877,-1.478848,-4.080455,-2.679207,0.5319875,1.452243,0.4743395,-0.531804,0.002501899,100,50.89,-0.03208065,0.108721,-0.07201352,-0.5898662,-3.720017,-0.2984474,0.6428333,1.714931,0.398118,-0.04793233,0.08604184,0.05661224,-0.9557659,0.3893988,0.0103818,0.8249803,1.783867,0.2411008,0.3760916,1.156405,0.2752315,327.7417,235.5512,347.1058,False
2,0.1666667,0.1690989,0.2991062,0.07917514,-1.480536,-4.084063,-2.680128,0.532515,1.451911,0.4746559,-0.5315222,0.02577261,100,48.55,-0.0223725,0.09379836,-0.06256244,-0.5903051,-3.719299,-0.2990554,0.6425745,1.714919,0.398206,-0.04368347,0.07856522,0.05870158,-0.9549238,0.3899896,0.01056636,0.8247081,1.783944,0.241231,0.3767028,1.155882,0.2754031,327.7446,235.6662,346.9215,False
2,0.1777778,0.1434867,0.3095346,0.05249677,-1.48213,-4.087502,-2.680459,0.5327951,1.451586,0.4749219,-0.5314263,0.008576219,100,46.37,-0.0096118,0.0767688,-0.06488118,-0.5912979,-3.719195,-0.2993643,0.6422931,1.714846,0.3983188,-0.03728878,0.07431526,0.05971914,-0.954094,0.3912813,0.009993779,0.8244874,1.783846,0.2412617,0.3770364,1.155648,0.2757285,327.5011,235.8619,346.8647,False
2,0.1888889,0.1147063,0.311478,0.03332237,-1.483495,-4.090791,-2.680447,0.5331358,1.451331,0.4752924,-0.5311206,0.02800472,100,44.33,0.02115153,0.0533683,-0.07700716,-0.5924191,-3.720262,-0.2998136,0.6420922,1.714787,0.3985074,-0.03623668,0.07218178,0.05864067,-0.9534942,0.3920936,0.009894176,0.824401,1.783965,0.2413695,0.3771756,1.155511,0.2760984,327.3698,236.1326,346.736,False
2,0.2,0.08808129,0.3049302,0.02059663,-1.48475,-4.093533,-2.680227,0.5333886,1.451138,0.4756498,-0.5305907,0.04823862,100,42.42,0.03591336,0.02250443,-0.09108549,-0.59369,-3.72232,-0.2989105,0.6419657,1.71469,0.3985445,-0.03098828,0.0615383,0.05112423,-0.9531667,0.392559,0.009794308,0.8242244,1.784124,0.2414994,0.3772143,1.155408,0.2765242,327.2644,236.4752,346.4996,False
2,0.2111111,0.04976504,0.2876787,0.002607964,-1.48533,-4.096144,-2.679249,0.5335909,1.451008,0.4761043,-0.5303387,0.02275311,100,40.37,0.04562666,0.00118389,-0.0816526,-0.5941156,-3.723985,-0.2982897,0.6417336,1.714709,0.3987556,-0.02252019,0.04448585,0.04782636,-0.9527816,0.3924375,0.009790845,0.8240514,1.784172,0.2415819,0.3771338,1.155332,0.2769112,327.2246,236.8047,346.2294,False
2,0.2222222,0.01355372,0.281026,-0.02395876,-1.485699,-4.099079,-2.678034,0.533726,1.45099,0.4764678,-0.5302583,0.007390888,100,38.44,0.05000529,-0.005213521,-0.07212849,-0.5945262,-3.724452,-0.298547,0.6415855,1.714621,0.3988287,-0.01731017,0.02956906,0.03711244,-0.9525675,0.3919775,0.01015996,0.8238765,1.784099,0.2416847,0.3770162,1.155272,0.2772827,327.2364,237.1565,345.983,False
2,0.2333333,-0.01629099,0.2840278,-0.0431397,-1.486099,-4.102513,-2.67658,0.5339559,1.450878,0.4768994,-0.5297118,0.05006813,100,36.64,0.04800088,-0.004169896,-0.06145427,-0.5948666,-3.724677,-0.2987449,0.6413974,1.714589,0.3989809,-0.01419263,0.02638709,0.02750293,-0.9524795,0.392275,0.01001562,0.8235672,1.78411,0.2418246,0.3768855,1.155231,0.2776392,327.2539,237.4627,345.7454,False
2,0.2444444,-0.07711185,0.3155803,-0.08270866,-1.486251,-4.107406,-2.673331,0.5342256,1.450873,0.4773672,-0.5297065,0.0002348159,100,34.95,0.0481745,-0.01270781,-0.04762007,-0.594865,-3.725249,-0.2988176,0.641278,1.714582,0.3990781,-0.00678017,0.01572705,0.02422782,-0.9523501,0.3920799,0.009965283,0.8233918,1.784045,0.2419152,0.3766825,1.155217,0.2779876,327.3169,237.7541,345.4975,False
2,0.2555556,-0.1113034,0.3526495,-0.1020944,-1.486953,-4.112622,-2.670707,0.5344914,1.450755,0.477679,-0.5297954,-0.007893709,100,33.37,0.0503403,-0.03082301,-0.04554533,-0.5950306,-3.727299,-0.2977542,0.6410371,1.714633,0.3993158,-0.002599693,0.006144779,0.01673067,-0.9522026,0.3917614,0.01011442,0.823168,1.783941,0.2420352,0.3764038,1.155232,0.2784129,327.452,237.8869,345.3364,False
2,0.2666667,-0.1647971,0.4376053,-0.1238913,-1.48862,-4.120549,-2.66634,0.5348766,1.45058,0.4781234,-0.5284542,0.1229563,100,31.62,0.05574264,-0.05852457,-0.04032842,-0.5949464,-3.730203,-0.2960655,0.6407952,1.714559,0.3994281,-0.005998892,-0.005520087,-0.006703898,-0.9530916,0.3911924,0.01064199,0.8230232,1.783804,0.2421367,0.3760638,1.155269,0.2789232,327.5966,238.0627,345.1081,False
2,0.2777778,-0.2333165,0.5672225,-0.1512732,-1.491091,-4.130972,-2.660774,0.5352689,1.450291,0.4786503,-0.5293192,-0.07992046,100,29.99,0.0537338,-0.06706202,-0.03073143,-0.5947536,-3.731916,-0.2951653,0.6403835,1.714547,0.399503,-0.01055584,-0.00330479,-0.04500956,-0.9547981,0.3912977,0.01089632,0.8228387,1.783623,0.2422593,0.3754483,1.155353,0.2795731,327.8642,238.2876,344.9339,False
2,0.2888889,-0.2976288,0.7170795,-0.1819796,-1.494252,-4.143648,-2.65452,0.5357367,1.449971,0.4791014,-0.5283035,0.09395769,100,28.47,0.03272884,-0.05113222,-0.004885802,-0.593918,-3.731553,-0.2951017,0.6400746,1.714525,0.3996136,-0.008546934,-0.006474252,-0.05994624,-0.9559992,0.3911021,0.01103321,0.8226696,1.783486,0.2423728,0.374195,1.155446,0.280554,327.9274,238.2758,345.4063,False
2,0.3,-0.3426141,0.8148749,-0.1963867,-1.497793,-4.15539,-2.648602,0.5360175,1.449653,0.4795506,-0.5276132,0.06258679,100,27.04,0.008289702,-0.02878094,0.001821054,-0.594066,-3.730597,-0.2951209,0.6397699,1.714469,0.3998384,0.0009768419,-0.007541604,-0.06747793,-0.9569159,0.3909851,0.01079512,0.8224531,1.783397,0.2425516,0.3723114,1.155837,0.2817623,327.9793,238.7964,345.4827,False
2,0.3111111,-0.4153701,0.9360024,-0.2183867,-1.50183,-4.169623,-2.640587,0.536339,1.449477,0.4800014,-0.5275317,0.007343264,100,25.7,-0.007790204,-0.03517318,-0.006521266,-0.5942961,-3.731907,-0.2934055,0.639496,1.714496,0.4000235,0.006354712,-0.0001119915,-0.06217375,-0.9573329,0.391207,0.01049126,0.8222719,1.783212,0.2426972,0.369735,1.156586,0.2830202,327.9492,239.6691,345.3394,False
2,0.3222222,-0.4816595,1.025184,-0.2402055,-1.505717,-4.183681,-2.632027,0.5364633,1.449465,0.4802864,-0.5282812,-0.06811222,100,24.35,-0.009885632,-0.07671721,-0.005484402,-0.5936548,-3.73554,-0.2902164,0.6393113,1.714584,0.4002297,0.01377461,-0.002247386,-0.06649697,-0.9582155,0.3910921,0.01016209,0.8221266,1.783046,0.2428336,0.3665,1.15779,0.2842538,327.7651,240.6562,345.18,False
2,0.3333333,-0.5446236,1.071755,-0.2628047,-1.508977,-4.196771,-2.623502,0.5363398,1.449579,0.4806917,-0.5269346,0.1241411,100,23.09,-0.00428813,-0.09911867,0.0157245,-0.5922652,-3.738327,-0.2880672,0.6390781,1.714568,0.4003603,0.02318743,0.0009986348,-0.09106325,-0.9596914,0.3916674,0.009332782,0.822016,1.782777,0.2428265,0.3627875,1.159486,0.2853968,327.3616,241.6259,345.0849,False
2,0.3444445,-0.6160348,1.081026,-0.2851949,-1.511828,-4.20943,-2.613551,0.5359883,1.449796,0.4809084,-0.5267493,0.0161531,100,21.91,0.008627966,-0.136402,0.02509971,-0.5909634,-3.742518,-0.2851042,0.6388937,1.714521,0.4005573,0.02403596,0.002119679,-0.1177022,-0.9621947,0.3917571,0.008914932,0.8219393,1.782614,0.2429407,0.3586344,1.16169,0.2863803,326.9087,242.6722,344.9148,False
2,0.3555556,-0.6607519,1.066956,-0.3031791,-1.514091,-4.221053,-2.604222,0.535669,1.45012,0.4814029,-0.527299,-0.04984061,100,20.81,-0.008729011,-0.1512832,-0.001352295,-0.5914311,-3.74656,-0.2810516,0.6387362,1.714524,0.4007356,0.02395694,0.004269693,-0.1283529,-0.9639364,0.391881,0.008626245,0.8218645,1.782509,0.2431476,0.3540773,1.164399,0.2871523,326.3802,243.6709,344.7199,False
2,0.3666667,-0.7374329,1.052746,-0.3307507,-1.515969,-4.232984,-2.5927,0.5349791,1.450609,0.4815581,-0.5264958,0.07428762,100,19.77,-0.02141078,-0.1161547,0.009507123,-0.5909043,-3.746493,-0.2803323,0.6385571,1.714598,0.4008818,0.02717412,-0.002136532,-0.1241296,-0.9651743,0.391578,0.008399877,0.8217421,1.782374,0.2432349,0.3492058,1.167555,0.287737,325.7049,244.5396,344.5262,False
2,0.3777778,-0.8151575,1.033221,-0.3550624,-1.517659,-4.244557,-2.580885,0.5343323,1.451107,0.4818504,-0.5275519,-0.09680731,100,18.8,-0.0445151,-0.1140773,0.03748884,-0.5892169,-3.747647,-0.2780583,0.6382935,1.714615,0.4009974,0.03150931,-0.01279519,-0.1124619,-0.965944,0.3914523,0.007936752,0.8215522,1.782128,0.2432981,0.3440558,1.171081,0.2881442,324.9518,245.3259,344.3218,False
2,0.3888889,-0.8950344,1.024352,-0.3794681,-1.519248,-4.256601,-2.567875,0.5333495,1.451755,0.4819667,-0.5261171,0.1325371,100,17.89,-0.06556307,-0.13756,0.05794711,-0.5873532,-3.751293,-0.2735383,0.6380563,1.714839,0.4011633,0.03478635,-0.01815127,-0.1007796,-0.966655,0.3909839,0.007701329,0.8214378,1.781978,0.2433679,0.3387966,1.174928,0.2885008,324.0802,246.0457,344.0917,False
2,0.4,-0.941902,1.022042,-0.3889918,-1.521748,-4.268479,-2.55551,0.5325108,1.45228,0.4821637,-0.5262864,-0.01621909,100,17.04,-0.07896054,-0.1610509,0.09429802,-0.584541,-3.754497,-0.2695585,0.6378613,1.715039,0.4012988,0.03902917,-0.02455609,-0.1018903,-0.9678454,0.3902592,0.007522631,0.8213668,1.781946,0.2436068,0.3332808,1.178951,0.2887818,323.3006,246.7687,343.8362,False
2,0.4111111,-1.011171,1.029217,-0.4060507,-1.523992,-4.281019,-2.541374,0.5312684,1.453058,0.4820778,-0.5258641,0.0393795,100,16.25,-0.09655757,-0.1813649,0.1360287,-0.5811417,-3.758023,-0.2649363,0.6376685,1.71523,0.4013641,0.04424359,-0.03626769,-0.1136765,-0.9695835,0.389187,0.007497331,0.8212887,1.781854,0.2437549,0.3275317,1.183165,0.2890674,322.5447,247.4688,343.582,False
2,0.4222222,-1.074,1.022606,-0.4187547,-1.526188,-4.293234,-2.526923,0.5299439,1.454012,0.482111,-0.5271317,-0.1157167,100,15.41,-0.1128675,-0.1825225,0.1969519,-0.5766484,-3.759507,-0.2619309,0.637479,1.715391,0.401403,0.0452248,-0.04157659,-0.123283,-0.9712996,0.3884162,0.00740412,0.8212034,1.781719,0.2438271,0.3214642,1.187575,0.289379,321.8271,248.197,343.3283,False
2,0.4333333,-1.136799,1.000014,-0.4313633,-1.527909,-4.304806,-2.511919,0.5285525,1.455015,0.4821777,-0.5261953,0.08720455,100,14.62,-0.1337218,-0.1900452,0.2344842,-0.5724523,-3.761935,-0.2577591,0.6374571,1.715599,0.4013231,0.03881033,-0.05326265,-0.1232543,-0.9726328,0.3875955,0.007648332,0.8212558,1.781438,0.2437048,0.3152031,1.192213,0.2897697,321.0225,249.0096,343.072,False
2,0.4444444,-1.201765,0.99127,-0.4408621,-1.530143,-4.316503,-2.495954,0.5269079,1.456125,0.4820294,-0.5263972,-0.01887386,100,13.88,-0.1553355,-0.1858856,0.2976081,-0.5666695,-3.762804,-0.2545476,0.6372118,1.715939,0.4012754,0.0282098,-0.05645443,-0.1157212,-0.9736639,0.3867275,0.008170844,0.8212173,1.781286,0.2436624,0.3086322,1.197081,0.29019,320.3026,249.8591,342.8081,False
2,0.4555556,-1.240085,0.9879237,-0.4514797,-1.532325,-4.3283,-2.480938,0.5253311,1.457092,0.4819443,-0.5265261,-0.01103963,100,13.19,-0.1688925,-0.1859258,0.322271,-0.5621613,-3.764504,-0.2508264,0.6369036,1.716188,0.4012489,0.02067564,-0.07028582,-0.1231524,-0.9753369,0.3850831,0.009042497,0.8211949,1.781249,0.2438102,0.3018318,1.202306,0.2906979,319.5544,250.6391,342.5795,False
2,0.4666667,-1.283759,0.9878453,-0.4461279,-1.535388,-4.339798,-2.464797,0.5233994,1.458458,0.4817266,-0.5262513,0.02566068,100,12.58,-0.1794517,-0.1688994,0.3309453,-0.5580207,-3.76501,-0.2480439,0.6366264,1.716533,0.4012208,0.01426475,-0.08092725,-0.1231244,-0.9767069,0.3835953,0.009923205,0.8211485,1.78111,0.2438004,0.2948143,1.207917,0.2912944,318.7297,251.388,342.3881,False
2,0.4777778,-1.314563,0.9772136,-0.4343161,-1.538587,-4.350548,-2.449599,0.5213466,1.459861,0.4814978,-0.5278044,-0.1417245,100,12.01,-0.2070904,-0.1635961,0.3366106,-0.5539812,-3.766206,-0.2437599,0.6363268,1.716997,0.4012032,0.01106743,-0.08838038,-0.1220454,-0.9779873,0.3821445,0.01063107,0.8211237,1.780991,0.2438655,0.2875134,1.213904,0.2919053,317.8456,252.1964,342.1915,False
2,0.4888889,-1.350736,0.9484349,-0.4287675,-1.541877,-4.361085,-2.432965,0.5191272,1.461656,0.4815373,-0.5273997,0.03865057,100,11.48,-0.2289602,-0.1828466,0.3773319,-0.5479528,-3.768949,-0.2381739,0.636094,1.717431,0.4011347,0.01100367,-0.08835536,-0.1305661,-0.9796928,0.3811387,0.01105238,0.8210812,1.780873,0.2439585,0.2800686,1.220237,0.2925561,316.8167,253.0711,341.9412,False
2,0.5,-1.370909,0.9260882,-0.4211347,-1.545188,-4.37124,-2.416953,0.5169724,1.46315,0.4814203,-0.528736,-0.12221,100,10.97,-0.2400739,-0.2084845,0.4264385,-0.5410292,-3.771913,-0.2326431,0.6359149,1.718063,0.4009712,0.01730025,-0.09155179,-0.1412696,-0.9815602,0.3796148,0.01157863,0.8211225,1.780723,0.2440009,0.2725015,1.22691,0.2931718,315.8377,254.0256,341.64,False
2,0.5111111,-1.407026,0.8845202,-0.41128,-1.547798,-4.380363,-2.399911,0.5146103,1.464876,0.4811056,-0.5278918,0.07861556,100,10.5,-0.24187,-0.2330187,0.4530616,-0.5346339,-3.775549,-0.2268688,0.6358315,1.718544,0.4009132,0.02358879,-0.09259553,-0.1551771,-0.983875,0.3784598,0.01163668,0.8211305,1.780527,0.2439792,0.2649683,1.2339,0.2937321,314.8123,254.9375,341.3182,False
2,0.5222223,-1.435647,0.8333874,-0.4045601,-1.549958,-4.388938,-2.38294,0.5122836,1.466662,0.4808033,-0.5288095,-0.08440673,100,10.29,-0.2554376,-0.2735378,0.4744765,-0.527765,-3.781534,-0.2184194,0.6356661,1.719087,0.4008782,0.02463144,-0.09685633,-0.15626,-0.9856439,0.3770463,0.01221033,0.8211806,1.780404,0.2439742,0.2575016,1.241207,0.2942496,313.8171,255.8021,340.9329,False
2,0.5333334,-1.456818,0.7907986,-0.395782,-1.552115,-4.397362,-2.366091,0.5100021,1.468569,0.4802828,-0.5282833,0.04923937,100,10.09,-0.2585619,-0.2852541,0.4798242,-0.5217878,-3.785672,-0.2119322,0.6354568,1.71963,0.400809,0.02036418,-0.1043122,-0.1551688,-0.987228,0.3753092,0.01311207,0.8211699,1.780279,0.2439106,0.2500937,1.248696,0.294699,312.7151,256.6571,340.5345,False
2,0.5444446,-1.464181,0.754618,-0.3859744,-1.554434,-4.405256,-2.349476,0.5075185,1.47057,0.4799445,-0.5286812,-0.03655348,100,9.91,-0.2659249,-0.3364,0.4851691,-0.51527,-3.794104,-0.2014633,0.6350783,1.720282,0.4008012,0.01411261,-0.1320486,-0.1306746,-0.9879049,0.3724071,0.01479279,0.8211594,1.780123,0.2438588,0.242725,1.256306,0.2950322,311.6395,257.4486,340.1843,False
2,0.5555557,-1.463017,0.7301645,-0.3773283,-1.556782,-4.413093,-2.333518,0.5051066,1.472402,0.4794662,-0.5292404,-0.0505299,100,9.74,-0.2733191,-0.3566451,0.4894994,-0.5088518,-3.800866,-0.1923215,0.6346831,1.720971,0.4007006,0.008800611,-0.1395078,-0.1274552,-0.98931,0.3702525,0.01601439,0.8211652,1.779992,0.2439244,0.2354926,1.264041,0.2952704,310.5761,258.1692,339.8673,False
2,0.5666668,-1.453324,0.6919528,-0.3579298,-1.559243,-4.420014,-2.317298,0.5024261,1.474532,0.4791095,-0.5298482,-0.05485712,100,9.58,-0.2913648,-0.3545325,0.4950466,-0.502416,-3.806667,-0.1833389,0.6342006,1.721736,0.4006066,-0.003020942,-0.1373278,-0.1412083,-0.9913915,0.3685029,0.01740882,0.8211882,1.779844,0.2440367,0.2284444,1.271892,0.2954274,309.5426,258.8825,339.5096,False
2,0.577778,-1.439319,0.6516886,-0.3342949,-1.561649,-4.426417,-2.301823,0.4997516,1.476617,0.4788156,-0.5308048,-0.08684686,100,9.73,-0.312265,-0.330088,0.5304929,-0.4948851,-3.80995,-0.1761953,0.6335908,1.722556,0.4003491,-0.01914056,-0.1063531,-0.1665878,-0.9941176,0.3684027,0.01818806,0.8212491,1.77975,0.2442937,0.2215632,1.279808,0.2955372,308.511,259.5969,339.0765,False
2,0.5888891,-1.415788,0.6199453,-0.3064284,-1.564384,-4.432279,-2.286681,0.4971313,1.478733,0.4784157,-0.5307941,0.001785429,100,9.87,-0.3238662,-0.2832358,0.5424125,-0.488338,-3.811135,-0.1712612,0.6332003,1.723292,0.4001918,-0.04251042,-0.05409211,-0.1705623,-0.9961405,0.3699093,0.01848234,0.8212422,1.779619,0.2444406,0.2148542,1.287692,0.2956337,307.4611,260.339,338.5821,False
2,0.6000003,-1.38585,0.5839269,-0.28597,-1.566902,-4.437642,-2.272256,0.4944739,1.480908,0.4780192,-0.5316277,-0.07619602,100,10.01,-0.3482011,-0.2342683,0.5587541,-0.4815437,-3.810661,-0.1669853,0.6326102,1.724085,0.3998942,-0.05840383,-0.02744931,-0.1650567,-0.9977389,0.3704574,0.01939767,0.8213271,1.779533,0.2445793,0.2082881,1.295528,0.2957357,306.5062,261.054,338.0827,False
2,0.6111114,-1.36233,0.5531795,-0.270885,-1.569266,-4.442859,-2.257825,0.4918813,1.483101,0.4776349,-0.5320926,-0.04183814,100,10.13,-0.3776624,-0.1991723,0.5911224,-0.4738003,-3.810622,-0.1619029,0.6321836,1.725004,0.3995142,-0.1082716,-0.007146731,-0.1443895,-0.9986795,0.3713389,0.02160489,0.8214363,1.779314,0.2446656,0.2019238,1.303293,0.2958697,305.5674,261.7513,337.6107,False
2,0.6222225,-1.329115,0.4894454,-0.2535486,-1.570166,-4.4468,-2.244225,0.4893275,1.485449,0.477339,-0.5328171,-0.06590457,100,10.11,-0.4091472,-0.1704834,0.6320256,-0.4654423,-3.809818,-0.1570509,0.6316934,1.725864,0.3991997,-0.1391892,-0.002835386,-0.1473336,-1.000375,0.3712621,0.02426033,0.8215638,1.779114,0.2448633,0.1958109,1.310963,0.296012,304.6594,262.4902,337.1401,False
2,0.6333337,-1.296962,0.4214503,-0.2361457,4.712345,-4.450058,-2.230681,0.4867438,1.487684,0.4770465,-0.5327968,0.002320217,100,10.09,-0.4280682,-0.1683903,0.6535714,-0.457154,-3.811327,-0.1502689,0.6312677,1.726572,0.3989971,-0.1745271,-0.006995089,-0.1694407,-1.003091,0.3709592,0.02748808,0.8216661,1.778891,0.2451603,0.1899732,1.318492,0.2961398,303.7745,263.2114,336.6729,False
2,0.6444448,-1.261662,0.364105,-0.2198403,4.711728,-4.452931,-2.217584,0.4842894,1.489907,0.47666,-0.5334855,-0.0631241,100,10.07,-0.4288698,-0.1577688,0.6759686,-0.4486063,-3.811778,-0.1449319,0.6308275,1.727409,0.3988719,-0.1950109,-0.009026065,-0.2001804,-1.006356,0.3708553,0.0304149,0.8218069,1.778631,0.2454295,0.1844229,1.325863,0.2962586,302.9479,263.8507,336.2333,False
2,0.655556,-1.227464,0.3301794,-0.2079615,4.710782,-4.456138,-2.205233,0.4818748,1.492127,0.4765592,-0.5334546,0.003218661,100,10.05,-0.425788,-0.1652025,0.6663331,-0.4414493,-3.814172,-0.1381917,0.6303549,1.728204,0.3987441,-0.203729,-0.00789623,-0.2256857,-1.009722,0.3709092,0.03283811,0.8219159,1.778392,0.2457018,0.1791967,1.333052,0.2963813,302.1264,264.2946,335.9314,False
2,0.6666671,-1.152718,0.2623451,-0.1798936,4.710804,-4.457432,-2.194734,0.479585,1.494303,0.4763608,-0.5337002,-0.02265731,100,10.03,-0.3977129,-0.1789561,0.6084455,-0.4361677,-3.818362,-0.1308467,0.6299434,1.728858,0.3986969,-0.2209709,0.001778677,-0.2532307,-1.013502,0.3714303,0.03561765,0.8219906,1.778137,0.2460618,0.1742199,1.340013,0.2964699,301.3405,264.6864,335.6797,False
2,0.6777782,-1.108929,0.2230933,-0.1680075,4.710769,-4.459584,-2.183576,0.4773044,1.496541,0.4761796,-0.5342498,-0.05020872,100,10.29,-0.3844205,-0.201254,0.5613895,-0.430933,-3.824074,-0.121736,0.6295619,1.729636,0.3985891,-0.2198976,0.006031871,-0.2532373,-1.016345,0.371693,0.03785923,0.8221712,1.777935,0.2464001,0.1695051,1.346757,0.2965097,300.6159,265.0938,335.3942,False
2,0.6888894,-1.044886,0.1753622,-0.1581958,4.711344,-4.461133,-2.173838,0.4751447,1.498676,0.4761286,-0.5358509,-0.1461826,100,10.53,-0.3676613,-0.1980163,0.5377536,-0.4255103,-3.827746,-0.1147798,0.6291222,1.730289,0.3985887,-0.2336091,0.03159958,-0.2413597,-1.018639,0.3732998,0.04015967,0.8222575,1.777713,0.2467606,0.1650858,1.353291,0.2965565,299.9276,265.504,335.0544,False
2,0.7000005,-0.9797757,0.1308795,-0.1440937,4.711856,-4.462079,-2.165181,0.4731741,1.500516,0.4759552,-0.5349662,0.08176009,100,10.75,-0.3354644,-0.1692649,0.5587154,-0.418259,-3.827775,-0.1120592,0.6287465,1.730979,0.3984613,-0.2462273,0.04010171,-0.2220681,-1.02042,0.3741727,0.04281404,0.8223833,1.777536,0.2471645,0.1610531,1.359527,0.2965784,299.1868,265.8437,334.8041,False
2,0.7111117,-0.9381722,0.1118557,-0.1333838,4.712126,-4.463499,-2.155973,0.4712115,1.502315,0.4758282,-0.535844,-0.08135061,100,10.96,-0.3408418,-0.1532706,0.5556136,-0.4119628,-3.828946,-0.1068495,0.6283154,1.731592,0.3982904,-0.2483723,0.05503051,-0.2273475,-1.023089,0.3756176,0.04491181,0.8224958,1.777263,0.2475257,0.1572633,1.365428,0.2965658,298.5636,266.105,334.5766,False
2,0.7222228,-0.8517879,0.08453912,-0.10556,4.712239,-4.463763,-2.149416,0.4696613,1.503924,0.4757748,-0.5365646,-0.06546478,100,10.96,-0.3368732,-0.1116912,0.5332494,-0.4067425,-3.827285,-0.1046982,0.6279317,1.732121,0.3982053,-0.2400215,0.06785534,-0.2529524,-1.026781,0.3772531,0.04637868,0.8225383,1.776784,0.2479296,0.1537613,1.37096,0.296571,297.9398,266.2809,334.4073,False
2,0.7333339,-0.8101836,0.06767552,-0.0916489,4.712457,-4.464501,-2.141573,0.4679105,1.505651,0.4756324,-0.5355724,0.0908144,100,10.96,-0.3233608,-0.09355243,0.5064743,-0.4018694,-3.827713,-0.1010811,0.627652,1.73272,0.3981879,-0.2306449,0.06787972,-0.279661,-1.030802,0.3781489,0.04823251,0.8226719,1.776508,0.2483792,0.1505553,1.376024,0.2965729,297.3117,266.5061,334.2218,False
2,0.7444451,-0.7408752,0.04343951,-0.0744848,-1.570338,-4.464539,-2.135698,0.4665636,1.507038,0.4756174,-0.5375633,-0.183232,100,10.96,-0.3194973,-0.1180051,0.4723023,-0.3974885,-3.831993,-0.09370279,0.6273581,1.733184,0.3981955,-0.2233299,0.06257492,-0.2967739,-1.034649,0.3789815,0.05005012,0.8227776,1.77621,0.2487206,0.1476024,1.380632,0.2965674,296.8329,266.7542,334.0191,False
2,0.7555562,-0.7013999,0.02436651,-0.07121074,-1.569542,-4.464974,-2.129321,0.4651549,1.508387,0.4756706,-0.5359409,0.1495861,100,10.96,-0.3057913,-0.1158575,0.46042,-0.3926405,-3.834316,-0.08862627,0.6271068,1.733625,0.3982904,-0.2063253,0.05083297,-0.300129,-1.037977,0.3793911,0.05149302,0.8228717,1.775905,0.2489812,0.1450971,1.384757,0.2965548,296.3718,266.9941,333.8469,False
2,0.7666674,-0.6193433,0.01603714,-0.06800395,-1.569003,-4.465358,-2.12524,0.4642606,1.509308,0.4759152,-0.5371186,-0.1095615,100,10.96,-0.2580052,-0.1254006,0.4470466,-0.3880274,-3.837774,-0.08416388,0.6268196,1.734011,0.3984058,-0.1860633,0.04334797,-0.2971107,-1.041182,0.380054,0.05245043,0.82291,1.775594,0.2492855,0.1428011,1.388429,0.2964608,296.0958,267.1248,333.7531,False
2,0.7777785,-0.5586472,0.03217094,-0.0595902,-1.569366,-4.465785,-2.12102,0.4633692,1.510107,0.4759908,-0.5362046,0.08424569,100,10.69,-0.2190895,-0.1189342,0.4061026,-0.3846371,-3.839981,-0.08090284,0.6266662,1.734362,0.3983653,-0.1806413,0.04650101,-0.2843597,-1.043836,0.3808569,0.05399213,0.8230157,1.775191,0.2496378,0.1408463,1.391672,0.2963316,295.8012,267.1297,333.7257,False
2,0.7888896,-0.5150101,0.05042864,-0.0522652,-1.570105,-4.466706,-2.116612,0.4624739,1.510924,0.4759371,-0.5377764,-0.1449936,100,10.44,-0.1962597,-0.114591,0.3557609,-0.3823245,-3.842463,-0.07720637,0.626379,1.734686,0.3985112,-0.1827554,0.05716772,-0.2853892,-1.046987,0.3823321,0.05531998,0.8230486,1.774896,0.2499802,0.1391241,1.394518,0.2962165,295.561,267.0431,333.7066,False
2,0.8000008,-0.4479488,0.07838471,-0.03645541,4.711398,-4.46741,-2.113974,0.4617787,1.511485,0.4758558,-0.537182,0.05523358,100,10.2,-0.1455591,-0.1388989,0.2304704,-0.383516,-3.849123,-0.07086378,0.626333,1.734803,0.3985865,-0.1614588,0.04432335,-0.2823819,-1.050008,0.3824024,0.05654264,0.8231136,1.774553,0.2502608,0.1378046,1.396929,0.2962371,295.2455,267.0659,333.5765,False
2,0.8111119,-0.4043387,0.1083586,-0.02921212,4.709736,-4.468697,-2.110868,0.4611396,1.512012,0.4757946,-0.5362717,0.08216727,100,9.98,-0.1248027,-0.1345632,0.1854782,-0.3825956,-3.852537,-0.06676811,0.626105,1.735091,0.3987913,-0.1412397,0.02617133,-0.2804444,-1.053049,0.3822255,0.05760045,0.8231972,1.774096,0.2504411,0.1366528,1.398873,0.296325,295.0618,267.3035,333.3284,False
2,0.8222231,-0.3149758,0.1662169,-0.01039747,4.706237,-4.470118,-2.110421,0.4608665,1.512162,0.4756563,-0.5373513,-0.09983491,100,9.61,-0.09419008,-0.1398399,0.1616647,-0.3815074,-3.856923,-0.06267323,0.6259968,1.735381,0.3989232,-0.1262678,-0.01543644,-0.2636007,-1.055541,0.3806561,0.05928756,0.8232186,1.773762,0.2503359,0.1355118,1.400448,0.2964165,295.0609,267.5669,333.1341,False
2,0.8333342,-0.2713538,0.1930186,6.633252E-05,4.703735,-4.471429,-2.108644,0.4604759,1.512576,0.4755478,-0.5364139,0.08622599,100,9.26,-0.07912278,-0.1260051,0.1764098,-0.3788837,-3.859091,-0.06000528,0.6260504,1.735613,0.3989751,-0.1229479,-0.04531895,-0.2402459,-1.057495,0.3792485,0.06136988,0.8232224,1.773599,0.2504056,0.1344867,1.401711,0.2964952,295.0621,267.8704,332.9329,False
2,0.8444453,-0.2042484,0.1985882,0.01385982,4.701371,-4.472152,-2.108615,0.4603069,1.512741,0.4754367,-0.5383064,-0.1743343,100,8.93,-0.05009681,-0.09619343,0.1995413,-0.3758865,-3.858643,-0.06086388,0.6260823,1.735936,0.3990595,-0.1259481,-0.1029177,-0.2019886,-1.058668,0.3758828,0.06451774,0.8232539,1.773203,0.2501833,0.1335909,1.402743,0.2965633,295.1071,268.2227,332.6617,False
2,0.8555565,-0.1594907,0.1902088,0.01817751,4.699516,-4.472722,-2.108105,0.4601297,1.512918,0.4755499,-0.5365364,0.1629533,100,8.62,-0.03499137,-0.09514737,0.2164054,-0.3728692,-3.861166,-0.05846437,0.6261796,1.736189,0.399215,-0.1238597,-0.1519389,-0.1967803,-1.060976,0.3723801,0.06751699,0.8233119,1.772718,0.2501299,0.1330033,1.403514,0.2966395,295.0701,268.7976,332.175,False
2,0.8666676,-0.08274877,0.1733703,0.02144509,4.698162,-4.473201,-2.109611,0.4602826,1.512801,0.4755173,-0.537412,-0.08212603,100,8.33,-0.008678779,-0.0972264,0.1894529,-0.3715296,-3.864086,-0.05658711,0.6262463,1.736223,0.3993759,-0.1325752,-0.1955703,-0.2117167,-1.064045,0.3683668,0.07124089,0.8233311,1.772275,0.2499883,0.1325842,1.404053,0.2966687,295.1396,269.2457,331.7921,False
2,0.8777788,-0.06890275,0.1691225,0.01616187,4.696331,-4.474041,-2.109105,0.4601088,1.51286,0.4755645,-0.5364416,0.08915807,100,8.29,0.006709263,-0.1056694,0.1402508,-0.3716079,-3.868208,-0.05315137,0.6262667,1.736261,0.3996198,-0.1349239,-0.2040244,-0.2383524,-1.067869,0.3660949,0.0738697,0.8234285,1.771895,0.2499697,0.1324134,1.404348,0.2966538,295.1606,269.5121,331.5489,False
2,0.8888899,-0.01137754,0.1692772,0.01826807,4.694569,-4.474827,-2.110908,0.4603021,1.512338,0.4755607,-0.5377103,-0.117267,100,8.25,0.03054252,-0.1236878,0.08347541,-0.3725821,-3.873854,-0.0490794,0.6261401,1.736199,0.3998475,-0.1170115,-0.1912034,-0.2672309,-1.071957,0.3647375,0.07509289,0.8233669,1.771501,0.2499723,0.132441,1.404403,0.2966127,295.2064,269.6596,331.3703,False
2,0.900001,0.02053122,0.1896383,0.02347189,4.691669,-4.475961,-2.11206,0.4603064,1.511853,0.4756687,-0.5352587,0.2247944,100,8.22,0.05140841,-0.1225585,0.04700431,-0.3730423,-3.877646,-0.04673715,0.6259377,1.736025,0.3999238,-0.09881765,-0.1582366,-0.2640982,-1.074753,0.3640496,0.07588039,0.8230605,1.771109,0.2500026,0.1326801,1.404133,0.2965694,295.1975,269.806,331.176,False
2,0.9111122,0.0460592,0.2067738,0.02762801,4.688816,-4.477041,-2.113374,0.4603065,1.511454,0.4758098,-0.5367399,-0.1378569,100,8.2,0.05548128,-0.1044255,0.03206549,-0.3731808,-3.87912,-0.04613927,0.6257459,1.735863,0.4000618,-0.07935075,-0.1167712,-0.2375423,-1.076587,0.3644215,0.07580395,0.8228472,1.770659,0.249963,0.1328404,1.40359,0.2965093,295.36,269.945,330.972,False
2,0.9222233,0.08436117,0.231402,0.03281298,4.685306,-4.478197,-2.115735,0.4602004,1.510733,0.4759302,-0.5357699,0.08972433,100,8.94,0.04318399,-0.09584854,-0.01464435,-0.3747632,-3.881353,-0.04381246,0.6255457,1.735535,0.40031,-0.05243176,-0.09452859,-0.2057391,-1.077743,0.3639292,0.07578318,0.8225638,1.770236,0.2500491,0.1330706,1.402738,0.2965037,295.4423,270.1535,330.7174,False
2,0.9333345,0.1077861,0.2357265,0.0327741,4.682663,-4.479427,-2.117552,0.4602809,1.51007,0.4757867,-0.5353135,0.04049034,100,9.63,0.04057354,-0.08727586,-0.05401961,-0.3766173,-3.883685,-0.04197195,0.6252633,1.735265,0.4006011,-0.02996273,-0.09245476,-0.1952645,-1.079783,0.3629954,0.07566307,0.8223484,1.769849,0.250078,0.1332552,1.401614,0.2965634,295.6599,270.4768,330.3573,False
2,0.9444456,0.1205874,0.2283055,0.03387751,4.680457,-4.480306,-2.119368,0.4602416,1.509374,0.4758079,-0.5358711,-0.05157243,100,10.28,0.03499807,-0.09790195,-0.07527521,-0.3781529,-3.887791,-0.03835458,0.6249382,1.734943,0.4008937,-0.007510513,-0.1053183,-0.1805452,-1.081421,0.3610973,0.07597332,0.8220541,1.769475,0.2501137,0.1333744,1.400312,0.2966976,295.9653,270.7607,330.0704,False
2,0.9555568,0.1270066,0.2208539,0.03285994,4.678308,-4.481034,-2.12108,0.4602328,1.508853,0.4755769,-0.5349566,0.08378773,100,10.89,0.05293327,-0.1053338,-0.08934141,-0.3793582,-3.891968,-0.0355018,0.6248919,1.734586,0.4011099,-0.007529289,-0.1063782,-0.1816101,-1.083558,0.3599178,0.07679651,0.822031,1.769092,0.2500741,0.1334441,1.398844,0.2968884,296.2155,271.1082,329.7972,False
2,0.9666679,0.1323565,0.2102007,0.03078995,4.676523,-4.48182,-2.122771,0.4601385,1.508142,0.4755692,-0.5344698,0.04345281,100,11.46,0.06971278,-0.1116856,-0.1119235,-0.3813162,-3.896055,-0.03303492,0.6245891,1.734207,0.4013977,-0.008570001,-0.09252752,-0.1815737,-1.085606,0.3594723,0.07714725,0.8217482,1.768667,0.2501473,0.1335374,1.397264,0.2970949,296.4667,271.3896,329.6451,False
2,0.977779,0.1344948,0.2027459,0.02870453,4.674441,-4.482729,-2.124185,0.4601639,1.507256,0.4755096,-0.5340181,0.04075224,100,15.49,0.07167581,-0.1212513,-0.1258027,-0.3830243,-3.900515,-0.02963353,0.6244239,1.733874,0.4015946,-0.008553907,-0.07761459,-0.181548,-1.087746,0.3592851,0.07745218,0.8215278,1.768247,0.25014,0.1336447,1.395646,0.2972804,296.7448,271.5544,329.6024,False
2,0.9888902,0.1323767,0.1952589,0.02342206,4.672699,-4.483777,-2.125574,0.4600077,1.506556,0.4755309,-0.5336911,0.02941835,100,19.26,0.07051948,-0.1169803,-0.1332406,-0.3847586,-3.903782,-0.02736132,0.6240432,1.733498,0.4017897,-7.301569E-06,-0.04992547,-0.1847537,-1.089864,0.3600226,0.0768029,0.8212206,1.767849,0.2502735,0.1337574,1.394086,0.2973822,297.0395,271.6619,329.6095,False
2,1.000001,0.1334439,0.1878032,0.02133822,4.670834,-4.484664,-2.12693,0.4599577,1.505799,0.4756093,-0.5331718,0.04709486,100,22.78,0.06095911,-0.1042056,-0.1299061,-0.3859528,-3.905704,-0.02584438,0.6236256,1.73318,0.4019234,0.02018269,-0.02542426,-0.1976452,-1.092515,0.3609778,0.07530754,0.8209215,1.767458,0.2504179,0.1338594,1.392611,0.2974145,297.2533,271.7455,329.5561,False
2,1.011112,0.1302596,0.1813988,0.01924805,4.669122,-4.485577,-2.128283,0.4597727,1.505194,0.4756968,-0.53293,0.02161514,100,26.08,0.03350864,-0.084011,-0.1082438,-0.3864417,-3.906638,-0.02442039,0.6231363,1.732847,0.4020367,0.03302876,-0.02013223,-0.1913447,-1.094475,0.3610758,0.07439993,0.8204927,1.767113,0.2505996,0.133942,1.391239,0.2974029,297.4235,271.8975,329.3843,False
2,1.022224,0.1260392,0.1579815,0.02047972,4.667682,-4.485768,-2.129387,0.4594909,1.504497,0.4760263,-0.5327616,0.01519744,100,29.17,0.02197498,-0.07658015,-0.09211381,-0.3868806,-3.908173,-0.02279639,0.6227438,1.732489,0.402293,0.03320786,-0.0105951,-0.1689551,-1.095556,0.3613273,0.0740926,0.8200918,1.766749,0.2507801,0.1339515,1.389999,0.2973931,297.5838,272.0235,329.1988,False
2,1.033335,0.1197112,0.1271316,0.02706134,4.666777,-4.485678,-2.130321,0.4591508,1.503949,0.4761124,-0.5326418,0.01074246,100,34.6,0.01790877,-0.06807722,-0.07500342,-0.387082,-3.909323,-0.0218049,0.6223521,1.732113,0.4025257,0.03765383,-0.005330034,-0.1466046,-1.096413,0.3613741,0.07348647,0.8197151,1.766405,0.2509291,0.1339347,1.388905,0.297436,297.7199,272.1606,329.012,False
2,1.044446,0.1122961,0.1090177,0.0293035,4.666046,-4.485641,-2.13131,0.4587488,1.503487,0.4761777,-0.5323387,0.02758858,100,39.67,0.0210414,-0.06913361,-0.08036913,-0.3881142,-3.91141,-0.0202062,0.6218849,1.731805,0.4027686,0.03235617,-0.003196619,-0.143363,-1.097872,0.3615385,0.0732071,0.8192865,1.766051,0.251044,0.1338425,1.387951,0.2975477,297.8242,272.2812,328.8487,False
2,1.055557,0.1048738,0.09623983,0.03257601,4.665195,-4.485696,-2.132274,0.4584121,1.503095,0.4762318,-0.5321033,0.02127959,100,44.41,0.02831356,-0.08295874,-0.09645279,-0.3897126,-3.91533,-0.01712386,0.6214193,1.731554,0.4029481,0.03337606,-0.01063836,-0.1476488,-1.099738,0.3613955,0.07286701,0.8188059,1.765862,0.2512805,0.1336679,1.387112,0.297723,297.8814,272.3984,328.7228,False
2,1.066668,0.0878711,0.07915835,0.03480486,4.664884,-4.485504,-2.132675,0.4579295,1.502641,0.47598,-0.5321124,-0.001024525,100,48.86,0.03876968,-0.09784415,-0.1136439,-0.3915134,-3.919616,-0.01393819,0.6209677,1.731299,0.4031904,0.0386307,-0.02768147,-0.1530513,-1.1017,0.3605691,0.07261588,0.8183323,1.765559,0.2513547,0.1333878,1.386376,0.2978882,297.9262,272.5015,328.6876,True
2,1.077779,0.08045514,0.06213531,0.03812522,4.664079,-4.485111,-2.13335,0.4574092,1.502179,0.4761491,-0.532073,0.00360917,100,60.27,0.04082365,-0.09676957,-0.1200587,-0.3929995,-3.922297,-0.01196345,0.6204845,1.730846,0.4034431,0.04287229,-0.03300927,-0.1552238,-1.103495,0.3601098,0.0720899,0.8179561,1.765231,0.2514813,0.1330467,1.385742,0.2980129,297.9638,272.5833,328.6814,True
2,1.08889,0.07623546,0.04185905,0.03397739,4.664243,-4.484917,-2.134029,0.456871,1.501866,0.476058,-0.5315254,0.05007103,100,70.95,0.03465045,-0.1010588,-0.1018795,-0.3934751,-3.925536,-0.009140502,0.6200246,1.730648,0.4036591,0.04296673,-0.04049485,-0.1413907,-1.104586,0.3593619,0.07192425,0.8174726,1.764957,0.2516019,0.1326831,1.385191,0.2980674,297.9813,272.6973,328.6501,True
2,1.100002,0.07095084,0.02162008,0.03304454,4.664121,-4.484492,-2.134595,0.4562027,1.501622,0.4761298,-0.5317795,-0.02365923,100,80.95,0.02547265,-0.09685123,-0.06660569,-0.3929206,-3.927909,-0.006760168,0.6195035,1.730438,0.4039571,0.03886687,-0.03625866,-0.1221654,-1.105096,0.3592811,0.07164276,0.8168969,1.764625,0.2518129,0.1322372,1.384694,0.2979833,297.9858,272.764,328.6335,True
2,1.111113,0.06776983,0.01414991,0.0320155,4.664113,-4.484311,-2.135198,0.455648,1.501322,0.4761074,-0.5318434,-0.005574855,100,90.31,0.01728206,-0.100089,-0.03881633,-0.3925425,-3.931026,-0.003808853,0.6189894,1.730308,0.4041946,0.03462065,-0.02985519,-0.1221155,-1.106426,0.3593271,0.0713349,0.8163662,1.764373,0.2520406,0.1317982,1.384246,0.2978096,297.9809,272.793,328.5633,True
2,1.122224,0.06245664,0.003485547,0.02888956,4.664004,-4.484123,-2.135548,0.4551156,1.501042,0.4761972,-0.5317688,0.006842884,100,99.07,0.0195555,-0.08625448,-0.02604394,-0.3924551,-3.932183,-0.00299579,0.6184181,1.730055,0.4043949,0.02606095,-0.02343359,-0.1284273,-1.108062,0.3594684,0.0712566,0.815792,1.764067,0.2521815,0.1313432,1.383825,0.2975658,297.9822,272.7308,328.5445,True
2,1.133335,0.05500815,0.005575972,0.02674951,4.663839,-4.483935,-2.136103,0.4544242,1.500827,0.4760904,-0.5318109,-0.003883907,100,100,0.01947478,-0.07559587,-0.03241932,-0.3930831,-3.933543,-0.001976598,0.6178015,1.729851,0.4045615,0.02182539,-0.02237523,-0.1251938,-1.109348,0.359202,0.07125767,0.8153046,1.763854,0.2523265,0.1308672,1.38343,0.2973054,298.0003,272.6364,328.5317,True
2,1.144446,0.04862478,0.002378765,0.0289032,4.663692,-4.483559,-2.13641,0.4537947,1.500628,0.4761655,-0.5315952,0.01981543,100,100,0.01065861,-0.07130525,-0.0568118,-0.394559,-3.935337,-0.0001531318,0.6171584,1.729656,0.4047103,0.01659013,-0.02239002,-0.1134345,-1.110222,0.3589795,0.07135168,0.8147653,1.763589,0.2524538,0.1304198,1.383049,0.2970796,298.0036,272.5737,328.5002,True
2,1.155557,0.04649253,0.0002737716,0.03103936,4.663406,-4.483458,-2.136739,0.4531952,1.500253,0.4763396,-0.531812,-0.01999442,96.94,100,-0.004385476,-0.05212629,-0.0661928,-0.3955955,-3.935233,0.0004186489,0.616522,1.729543,0.4049067,0.00180921,-0.01706778,-0.09731744,-1.110572,0.3590594,0.07180735,0.8141845,1.763315,0.2526331,0.129968,1.38268,0.2969138,298.0298,272.546,328.4618,True
2,1.166668,0.03692088,-0.006119834,0.03427931,4.6634,-4.482886,-2.136772,0.452569,1.50008,0.4764409,-0.5316351,0.01639323,92.65,100,-0.01475055,-0.04151243,-0.0415509,-0.3952573,-3.935534,0.00122026,0.6159491,1.72941,0.4050679,-0.007717226,-0.01067248,-0.09083824,-1.111334,0.3592232,0.07216661,0.8136385,1.76305,0.2528076,0.1294368,1.382318,0.296779,298.0657,272.5331,328.454,True
2,1.17778,0.02415272,-0.01041283,0.03536746,4.663613,-4.482419,-2.136649,0.4518039,1.499879,0.476347,-0.5316607,-0.002474494,89.37,100,-0.01454493,-0.03834826,-0.02450507,-0.3949372,-3.936849,0.002481267,0.615317,1.729238,0.4052355,0.006080769,-0.002157781,-0.09945139,-1.112754,0.3595839,0.07142118,0.8131478,1.762808,0.2530253,0.1288999,1.381974,0.2967036,298.0871,272.4999,328.4518,True
2,1.188891,0.01030434,-0.01044153,0.03643133,4.663625,-4.48209,-2.136277,0.45118,1.499694,0.4764259,-0.5314434,0.01992801,86.3,100,-0.02194959,-0.04048854,-0.0201582,-0.3950048,-3.938166,0.00421392,0.6148041,1.729093,0.4054322,0.01240341,0.004250951,-0.1101451,-1.114384,0.3600764,0.07080387,0.8126363,1.762617,0.253226,0.1283667,1.381635,0.2967104,298.0905,272.4996,328.4124,True
2,1.200002,0.003899824,-0.00724628,0.03536502,4.663065,-4.481843,-2.136083,0.4505114,1.499484,0.4767146,-0.531323,0.01090355,83.43,100,-0.008029431,-0.06392818,-0.01503249,-0.3951407,-3.942309,0.007696269,0.6142989,1.728887,0.4057045,0.01665338,-0.001083935,-0.1101911,-1.115644,0.359943,0.07057723,0.8120989,1.762343,0.2533863,0.12779,1.381322,0.2967474,298.1244,272.4926,328.4442,True
2,1.211113,-0.0003766789,-0.002979403,0.03428145,4.662543,-4.481763,-2.135887,0.449804,1.499458,0.4769819,-0.5311419,0.01652299,80.74,100,0.01733917,-0.08839717,-0.03241286,-0.3960376,-3.946967,0.01104546,0.6137135,1.728674,0.4059758,0.02527719,-0.01819051,-0.09324203,-1.116054,0.3588942,0.07049228,0.8115906,1.76217,0.2534678,0.1271117,1.381048,0.296751,298.1591,272.4474,328.5434,True
2,1.222224,-0.004643121,-0.003039332,0.02576191,4.662601,-4.481731,-2.135696,0.449194,1.499363,0.4770639,-0.5313891,-0.02267009,78.22,100,0.0215052,-0.102232,-0.04100467,-0.3968163,-3.951115,0.01448893,0.6131632,1.728533,0.4061913,0.02214583,-0.02885984,-0.08258627,-1.116665,0.3581587,0.07067177,0.811044,1.761988,0.2535088,0.1264487,1.380872,0.2967617,298.1955,272.3949,328.5854,True
2,1.233335,-0.01211976,0.00333129,0.02039547,4.66212,-4.482162,-2.135294,0.4484608,1.499317,0.4772651,-0.5314892,-0.008896525,79.3,100,0.02252185,-0.1075523,-0.04528493,-0.3974629,-3.954566,0.01745196,0.6126102,1.728478,0.4063337,0.021155,-0.03419997,-0.0719381,-1.117219,0.3577425,0.07066139,0.8104883,1.761751,0.2535822,0.1258065,1.380817,0.2968195,298.2312,272.4062,328.5047,True
2,1.244446,-0.01213156,0.007567048,0.01610902,4.661896,-4.482281,-2.135151,0.4478475,1.499295,0.4773848,-0.5315659,-0.006875364,80.31,100,0.01949782,-0.09479104,-0.03031595,-0.3973303,-3.9562,0.01885039,0.6120649,1.728401,0.4064333,0.01474871,-0.03311929,-0.07401668,-1.118145,0.3574211,0.07084408,0.8099594,1.761566,0.2536473,0.1251506,1.380888,0.2969311,298.2443,272.4503,328.4196,True
2,1.255558,-0.01000068,0.008631317,0.01397744,4.661607,-4.482251,-2.135204,0.4471245,1.499422,0.477529,-0.5314007,0.01516669,81.25,100,0.009047776,-0.09055987,-0.01312947,-0.3967551,-3.958419,0.02114443,0.6116387,1.728275,0.4064403,0.01045593,-0.03523046,-0.0782506,-1.119238,0.3570495,0.07096072,0.8094516,1.761398,0.2537422,0.1244569,1.381044,0.2970827,298.1963,272.4836,328.3816,True
2,1.266669,-0.004653753,-0.002035265,0.009776338,4.661963,-4.482086,-2.135315,0.4464743,1.499478,0.4776185,-0.5317145,-0.02875019,82.13,100,-0.0005143285,-0.08950241,-0.0108832,-0.3968339,-3.960954,0.02382011,0.6111475,1.728205,0.406518,0.007155113,-0.02880243,-0.09312627,-1.120791,0.3570587,0.0710036,0.8089488,1.76125,0.2537878,0.1236791,1.381272,0.2972875,298.1509,272.5629,328.3012,True
2,1.27778,0.002826583,-0.01373021,0.007709612,4.662211,-4.481952,-2.135588,0.4458067,1.499551,0.4777198,-0.5319925,-0.02515912,85.53,100,0.001617059,-0.08630596,-0.01090584,-0.3970677,-3.963206,0.0257296,0.6107219,1.72818,0.4066231,0.001871943,-0.02561318,-0.08775619,-1.121629,0.3568664,0.07129522,0.8084583,1.761081,0.2538769,0.1228987,1.381558,0.297534,298.0943,272.6761,328.2304,True
2,1.288891,0.009247069,-0.02970097,0.004590439,4.66293,-4.481854,-2.135824,0.4451585,1.499486,0.4776556,-0.5320922,-0.008853766,91.2,100,0.001746751,-0.09164716,-0.0002610311,-0.3967359,-3.966328,0.0285861,0.6102304,1.728127,0.4066727,0.005130164,-0.02882705,-0.07927058,-1.122288,0.3564934,0.07124569,0.8079588,1.760903,0.2538795,0.1221268,1.381867,0.29778,298.0251,272.7733,328.2007,True
2,1.300002,0.01459877,-0.04249196,0.001467243,4.66371,-4.481448,-2.136141,0.4445451,1.499512,0.47772,-0.5322477,-0.01422955,96.51,100,0.00509835,-0.08633803,0.0124868,-0.3962283,-3.968435,0.03025058,0.6097459,1.727973,0.4067645,0.001947325,-0.03095661,-0.07711951,-1.123113,0.3560784,0.07149415,0.8074176,1.76076,0.2538941,0.1214052,1.382141,0.2979938,297.9219,272.816,328.2197,True
2,1.311113,0.01567204,-0.04358833,-0.004919242,4.664192,-4.481467,-2.136484,0.4439136,1.499459,0.4777875,-0.5322013,0.004355747,100,100,0.0008073673,-0.07674955,0.01042052,-0.3962006,-3.969711,0.03156352,0.6092067,1.727882,0.4067974,-0.004361205,-0.02031086,-0.06959312,-1.123665,0.3562327,0.0715887,0.8069751,1.760632,0.2539656,0.1207235,1.38232,0.29815,297.8094,272.8482,328.233,True
2,1.322224,0.01674482,-0.04677554,-0.003835635,4.66473,-4.48114,-2.136708,0.4433051,1.499416,0.4778471,-0.532261,-0.005515823,100,100,-0.008791063,-0.05757258,0.01055782,-0.3961937,-3.969285,0.03166312,0.6085667,1.727736,0.4068596,-0.006414585,-0.004341156,-0.06315188,-1.124111,0.3568119,0.07147844,0.8064526,1.760479,0.2539945,0.1200789,1.382343,0.2982268,297.7122,272.8373,328.2717,True
2,1.333336,0.01994363,-0.04782769,-0.002766084,4.665199,-4.480834,-2.137017,0.4427079,1.499388,0.4779098,-0.5322444,0.001524527,100,100,-0.01313751,-0.03625903,0.004253889,-0.3962448,-3.968579,0.03128975,0.6080039,1.727575,0.4067478,-0.007439662,0.003107884,-0.05993716,-1.12472,0.3570729,0.07142172,0.8060322,1.760307,0.25407,0.1195188,1.382211,0.298245,297.6782,272.7485,328.3405,True
2,1.344447,0.01888514,-0.05102579,-0.00274637,4.665797,-4.480474,-2.137184,0.4421275,1.49932,0.4779742,-0.5321129,0.01198384,100,100,-0.02909717,-0.02242119,0.006594187,-0.3961138,-3.968034,0.03160347,0.6074598,1.727434,0.4067299,-0.008536361,0.004183873,-0.06418767,-1.125555,0.3572107,0.0714891,0.8055744,1.760133,0.2541161,0.1190016,1.381929,0.2982301,297.7086,272.6393,328.3996,True
2,1.355558,0.01996154,-0.05101154,-0.001686016,4.66621,-4.480262,-2.137573,0.4414831,1.499394,0.4779873,-0.5321614,-0.004534494,100,100,-0.03014833,-0.02668511,0.007666426,-0.3959971,-3.969353,0.03318698,0.6068816,1.727343,0.4067924,-0.01170563,0.004193262,-0.06202631,-1.126095,0.3574127,0.07150667,0.8050426,1.759946,0.2542138,0.1185285,1.381541,0.2981961,297.7925,272.5027,328.4958,True
2,1.366669,0.01888945,-0.04781797,-0.001704356,4.666581,-4.480069,-2.137761,0.4409531,1.499282,0.4780083,-0.5320149,0.01340623,100,100,-0.03123795,-0.02881331,0.00554575,-0.3960153,-3.970353,0.03447462,0.6064094,1.72715,0.4068198,-0.01169191,0.007386914,-0.06095443,-1.126744,0.3576733,0.07150321,0.8046008,1.759763,0.2542644,0.1180901,1.381099,0.2981515,297.8939,272.3399,328.628,True
2,1.37778,0.02101465,-0.03819643,0.002499029,4.666491,-4.47991,-2.138231,0.4402952,1.499156,0.4780505,-0.5322003,-0.0170611,100,100,-0.0248723,-0.02241569,0.003347326,-0.3960589,-3.970505,0.03459499,0.6058505,1.726966,0.4068608,-0.006292226,0.01055193,-0.05246387,-1.126956,0.3578762,0.07125394,0.8041782,1.759626,0.254334,0.1176514,1.380653,0.2980999,298.0124,272.1649,328.7759,True
2,1.388891,0.02422893,-0.04245214,0.002528651,4.666965,-4.479459,-2.138724,0.4397286,1.49911,0.4780092,-0.532009,0.0176497,100,100,-0.02287757,-0.03092081,-0.008407343,-0.3965905,-3.972121,0.03627066,0.605407,1.726775,0.4069102,-0.001994705,0.02225858,-0.05034234,-1.127372,0.3586665,0.07076525,0.8037983,1.759443,0.2543893,0.1171862,1.380258,0.2980481,298.1171,272.0125,328.907,True
2,1.400002,0.03490038,-0.04986109,0.006827375,4.667512,-4.478828,-2.139428,0.4391989,1.499049,0.4780042,-0.5322503,-0.02223369,100,100,-0.01550164,-0.04156055,-0.01596804,-0.3970501,-3.974244,0.03810344,0.6050211,1.726671,0.4069231,0.007508732,0.02012904,-0.06107467,-1.128428,0.3588443,0.07023555,0.8033785,1.759275,0.2544096,0.1167025,1.379925,0.2980087,298.1746,271.9243,328.9731,True
2,1.411114,0.04345657,-0.0584098,0.004736807,4.668616,-4.478095,-2.140399,0.4386417,1.498847,0.4770062,-0.5322914,-0.003580505,100,100,-0.01121772,-0.05434066,-0.01497907,-0.3973149,-3.976782,0.04038338,0.6046734,1.726494,0.406898,0.01069288,0.007333669,-0.05899594,-1.129057,0.3584799,0.07028721,0.8029769,1.759054,0.2543721,0.1161732,1.37965,0.2979724,298.1975,271.9154,328.9768,True
2,1.422225,0.05838048,-0.06371747,0.002627585,4.669373,-4.477643,-2.141489,0.4381543,1.498771,0.4768858,-0.5324708,-0.0164171,100,100,-0.005759742,-0.06394033,-0.00440374,-0.3970667,-3.979418,0.042691,0.6042939,1.726294,0.4068649,0.005443543,-0.001204041,-0.04725403,-1.129258,0.3581796,0.0704976,0.8026079,1.758862,0.2543166,0.1156837,1.379426,0.2979273,298.1868,271.881,329.0334,True
2,1.433336,0.06902733,-0.06265438,-0.001647785,4.670002,-4.477436,-2.142556,0.4376721,1.498647,0.4767828,-0.5327025,-0.02110464,100,100,-0.01111348,-0.06606199,-0.007543696,-0.3973655,-3.981099,0.04442685,0.6038254,1.726046,0.4068475,0.002272511,0.004127601,-0.04508859,-1.129672,0.3585651,0.07043981,0.8021535,1.75865,0.2543337,0.1152158,1.379202,0.2977949,298.1261,271.8925,329.1497,True
2,1.444447,0.08071937,-0.05092439,-0.003856666,4.670219,-4.477438,-2.143837,0.4372059,1.49849,0.4766424,-0.532751,-0.004349667,100,100,-0.01744917,-0.05009319,-0.002119113,-0.3972062,-3.981178,0.0449017,0.6033747,1.725832,0.406745,-0.006213638,0.02544771,-0.04497832,-1.13009,0.3596578,0.07031678,0.8018149,1.758447,0.2543452,0.1147345,1.378886,0.2974074,298.0319,271.8909,329.3256,True
2,1.455558,0.08390746,-0.04558859,-0.00388122,4.67037,-4.477192,-2.144886,0.4367294,1.498263,0.4765239,-0.5326312,0.01091371,100,100,-0.02072164,-0.04475639,-0.008464932,-0.3975332,-3.981798,0.04577841,0.6029024,1.725625,0.4067192,-0.001991555,0.03718176,-0.05351935,-1.131053,0.3607069,0.06960012,0.8014941,1.758271,0.254421,0.114432,1.378485,0.2969097,297.9983,271.7382,329.3907,True
2,1.466669,0.09028874,-0.04024236,-0.002852328,4.670571,-4.47706,-2.146107,0.4362696,1.49807,0.4763918,-0.5327377,-0.009912879,100,100,-0.03561939,-0.02452638,-0.006128353,-0.3975002,-3.980694,0.04571342,0.602421,1.725419,0.4066172,-0.002144329,0.05001161,-0.07586356,-1.132568,0.3619626,0.0690824,0.8011622,1.758082,0.2544754,0.1142422,1.377976,0.2964069,298.0349,271.5522,329.3599,True
2,1.47778,0.09452562,-0.03168974,0.001352159,4.670611,-4.476865,-2.147093,0.4358996,1.49791,0.4761906,-0.5324506,0.02628773,100,100,-0.03561915,-0.02240515,-0.006115727,-0.3974507,-3.981606,0.04689507,0.6021162,1.725338,0.406615,-0.007586988,0.05218218,-0.08966822,-1.133974,0.3627819,0.06915297,0.8008853,1.757974,0.2545431,0.1140875,1.377347,0.2959767,298.1092,271.4103,329.3087,True
2,1.488891,0.097717,-0.03274524,-0.0007638745,4.670741,-4.476739,-2.148152,0.435414,1.497925,0.4762628,-0.5325156,-0.006193002,100,100,-0.02935297,-0.02664839,-0.01685017,-0.3980398,-3.982693,0.04800455,0.6016435,1.725174,0.4065297,-0.008583495,0.04363955,-0.07902484,-1.134462,0.363036,0.06917348,0.8005027,1.757841,0.254513,0.1139117,1.376606,0.2956441,298.2165,271.2943,329.3187,True
2,1.500003,0.1019624,-0.0263637,-0.004000841,4.670904,-4.476819,-2.149406,0.4349655,1.497774,0.4760883,-0.5322418,0.02504904,100,100,-0.02614472,-0.01174026,-0.01473215,-0.3980627,-3.982005,0.04760853,0.6012304,1.725064,0.4063392,-0.01461664,0.02862533,-0.03000159,-1.133086,0.3625409,0.06972822,0.8000802,1.757682,0.2543552,0.1137189,1.375792,0.2954159,298.3465,271.1873,329.4059,True
2,1.511114,0.1072943,-0.01999711,-0.009367855,4.671111,-4.476959,-2.151094,0.4344026,1.497647,0.475785,-0.5322407,-0.0001476931,100,100,-0.02823702,-0.01174574,-0.01151106,-0.3980893,-3.982339,0.04830069,0.6007533,1.724913,0.4062424,-0.01771715,0.02327465,-0.01720237,-1.132908,0.3626396,0.06990851,0.7996196,1.757497,0.2542901,0.1135304,1.374978,0.2952818,298.5259,271.0704,329.5342,True
2,1.522225,0.1200614,-0.0136039,-0.0136762,4.671221,-4.477225,-2.152843,0.4338944,1.497537,0.4756217,-0.5323946,-0.01409187,100,100,-0.03132904,-0.01602495,-0.002955375,-0.3977633,-3.983317,0.04970444,0.6001644,1.724817,0.4060059,-0.02520296,0.03075518,-0.02245517,-1.133208,0.363272,0.07016258,0.7991028,1.757401,0.2542427,0.1132994,1.374232,0.2952506,298.7116,270.9228,329.6792,True
2,1.533336,0.1264435,-0.007208528,-0.01478597,4.671273,-4.477435,-2.154494,0.433326,1.49745,0.47544,-0.5327872,-0.03581164,100,100,-0.03662953,-0.01496228,-0.0007636193,-0.3977761,-3.983583,0.0505239,0.5995207,1.724716,0.4059117,-0.03057741,0.04037365,-0.03091574,-1.133831,0.3642471,0.07021344,0.7986543,1.757369,0.2543159,0.1129566,1.373546,0.2952719,298.8257,270.8593,329.8031,True
2,1.544447,0.1253413,0.01199594,-0.009573355,4.670574,-4.477797,-2.155862,0.4327256,1.49732,0.4752865,-0.5328006,-0.0009630161,100,100,-0.03229443,-0.01070777,0.005582748,-0.397496,-3.98351,0.05067623,0.5988345,1.724657,0.4057481,-0.03064127,0.06170598,-0.04365505,-1.134614,0.3658074,0.06988081,0.798094,1.757332,0.2542994,0.1125048,1.372896,0.2953014,298.8763,270.8652,329.8886,True
2,1.555558,0.1274761,0.01629866,-0.002145531,4.670284,-4.477731,-2.157444,0.4320813,1.497139,0.4750803,-0.5326083,0.01750991,100,100,-0.03219223,-0.01178625,0.0141007,-0.3970981,-3.984044,0.05151565,0.5981491,1.724632,0.4055417,-0.03068045,0.06490981,-0.04897789,-1.135262,0.3666777,0.06989174,0.7975368,1.757293,0.2543163,0.1120409,1.372264,0.295346,298.9119,270.8968,329.9254,True
2,1.566669,0.1285196,0.02479129,-0.007523608,4.669961,-4.4783,-2.158944,0.4313004,1.4971,0.4749186,-0.5322285,0.03454402,100,100,-0.04235934,-0.01610873,0.05470026,-0.395138,-3.985114,0.05333113,0.5971999,1.724692,0.4052591,-0.0358969,0.06595533,-0.03508572,-1.13516,0.3675505,0.07010479,0.7967927,1.757344,0.2542832,0.1115646,1.371633,0.2953822,298.9737,270.9419,329.9345,True
2,1.577781,0.1253167,0.02683046,-0.0182118,4.670432,-4.479058,-2.160309,0.4303844,1.4972,0.4744649,-0.5323744,-0.01370658,100,100,-0.04957311,-0.01933672,0.07502741,-0.3936152,-3.986193,0.05512983,0.5964084,1.72469,0.404959,-0.04416259,0.07655689,-0.004094118,-1.133931,0.3687059,0.07043023,0.7959987,1.757526,0.2542431,0.1110619,1.371007,0.2953805,299.0701,271.028,329.909,True
2,1.588892,0.1274601,0.01719109,-0.02774518,4.67087,-4.479491,-2.161815,0.4294986,1.497282,0.474246,-0.5322471,0.01176896,100,100,-0.08053767,-0.02573515,0.06899568,-0.3930623,-3.987644,0.05845213,0.595264,1.724767,0.4045918,-0.03751767,0.09886548,0.02360605,-1.132601,0.3707208,0.06975378,0.7951804,1.757647,0.2542396,0.1105249,1.370375,0.295301,299.1604,271.0639,329.9229,True
2,1.600003,0.1264253,-0.003153197,-0.0446679,4.672057,-4.479979,-2.163225,0.4281642,1.497693,0.4740152,-0.5320601,0.01694403,100,100,-0.09970903,-0.02574573,0.06922352,-0.3924269,-3.988472,0.06095869,0.5942262,1.724823,0.4042673,-0.02891768,0.110554,0.03102054,-1.131886,0.3724712,0.06904671,0.7943085,1.75776,0.2542286,0.1098591,1.369746,0.2951494,299.2905,271.0256,329.9724,True
2,1.611114,0.1221714,-0.009662371,-0.05955064,4.673229,-4.480712,-2.16454,0.4265975,1.498078,0.4737015,-0.5321773,-0.01082936,100,100,-0.1207623,-0.01939385,0.09079096,-0.3906159,-3.988723,0.06330041,0.592792,1.724905,0.4037392,-0.02146991,0.1212004,0.02672015,-1.131743,0.3742392,0.06819929,0.7932504,1.757888,0.2541854,0.1090298,1.369152,0.2949503,299.429,270.882,330.1078,True
2,1.622225,0.1029931,-0.01081275,-0.06698725,4.673906,-4.481447,-2.165059,0.424987,1.498575,0.4734366,-0.5320804,0.008931275,100,100,-0.1654849,0.0157361,0.09456961,-0.3892865,-3.985321,0.06348869,0.5910606,1.724997,0.4030831,-0.02149538,0.1307991,0.02141362,-1.131576,0.3762067,0.06760594,0.7921944,1.758105,0.2541401,0.1080975,1.368634,0.2947759,299.5641,270.6854,330.254,True
2,1.633336,0.07102438,-0.01098168,-0.08400883,4.674787,-4.482643,-2.164841,0.4229291,1.499241,0.4731212,-0.5319542,0.0114486,100,100,-0.1944217,0.0381121,0.08110222,-0.3887624,-3.982498,0.06391001,0.5895467,1.725072,0.4024959,-0.01597651,0.1413859,0.04482814,-1.130144,0.378074,0.06694548,0.7910804,1.758377,0.2541869,0.1068661,1.368214,0.2946357,299.7235,270.4214,330.4547,True
2,1.644447,0.02522732,-0.02075938,-0.09777617,4.676324,-4.483623,-2.163615,0.4205917,1.500142,0.4726765,-0.5311733,0.07134606,100,100,-0.2291347,0.07745832,0.1199242,-0.3860247,-3.977071,0.0626474,0.5875815,1.72538,0.4018044,0.002696469,0.1795735,0.1086815,-1.126554,0.3814276,0.06486475,0.7895454,1.75886,0.2541692,0.1052947,1.367921,0.2945703,299.8657,270.2024,330.6452,True
2,1.655559,-0.008863475,-0.02090221,-0.1083945,4.677371,-4.484551,-2.162586,0.4184165,1.500935,0.4722068,-0.5304325,0.06719162,100,100,-0.2591821,0.1029123,0.1916888,-0.3814829,-3.972796,0.06239573,0.5855864,1.725689,0.4011607,0.01354665,0.2018826,0.1288791,-1.124441,0.3844807,0.0630333,0.7882421,1.759275,0.2541802,0.1034024,1.367844,0.2946022,300.0365,270.0823,330.7932,True
2,1.66667,-0.05784909,-0.03494994,-0.1242553,4.679161,-4.485689,-2.160237,0.4156585,1.502173,0.4716105,-0.5295584,0.07953645,100,100,-0.2867862,0.1252587,0.2005723,-0.3788075,-3.967385,0.06151556,0.5836205,1.725998,0.4004109,0.01797354,0.2412648,0.1417104,-1.122157,0.3888232,0.06080529,0.786615,1.759827,0.2542498,0.1010256,1.36807,0.2947024,300.2269,269.9573,330.994,True
2,1.677781,-0.1057414,-0.06178347,-0.1400471,4.681728,-4.486574,-2.157544,0.4129445,1.503509,0.471194,-0.5299302,-0.03440608,100,100,-0.3216251,0.1347922,0.2276386,-0.375412,-3.963309,0.06251717,0.5814219,1.726481,0.3997006,0.02224146,0.2615054,0.1385221,-1.120656,0.3926432,0.05884254,0.7849334,1.760336,0.254302,0.09822612,1.368739,0.2948602,300.3583,269.7987,331.296,True
2,1.688892,-0.125954,-0.0778564,-0.1484595,4.683962,-4.487433,-2.155469,0.4101896,1.504864,0.4706454,-0.5289571,0.08952855,100,100,-0.3424523,0.1379257,0.2683793,-0.3709703,-3.959724,0.06365674,0.5792038,1.726974,0.3988776,0.02013947,0.2785535,0.1385739,-1.11893,0.3966073,0.05695676,0.7831031,1.761017,0.2543073,0.0951919,1.369913,0.2950553,300.3402,269.758,331.5379,True
2,1.700003,-0.2143689,-0.08775102,-0.1664668,4.686593,-4.488819,-2.150208,0.4071139,1.506304,0.4700894,-0.5288585,0.008458947,100,100,-0.346617,0.1368522,0.2769482,-0.3676046,-3.956135,0.06426367,0.5767629,1.727486,0.3980548,0.01284072,0.2881172,0.1567638,-1.116427,0.400233,0.05550214,0.7812687,1.761758,0.2542343,0.09179398,1.37163,0.2952136,300.2732,269.6789,331.7904,True
2,1.711114,-0.2633574,-0.09646604,-0.1812997,4.689006,-4.49023,-2.145877,0.4041174,1.50765,0.4697096,-0.5298348,-0.08902106,100,100,-0.3542287,0.1347335,0.2642553,-0.3650565,-3.952713,0.06521762,0.5743874,1.727927,0.3971941,0.01423901,0.3029449,0.1972697,-1.112639,0.404229,0.05359771,0.7791981,1.762612,0.2542117,0.0882192,1.373915,0.2953773,300.0595,269.5365,332.0564,True
2,1.722225,-0.3198269,-0.0955781,-0.1908543,4.691195,-4.491721,-2.140361,0.4008601,1.509153,0.4691739,-0.5271365,0.2477712,100,100,-0.3532115,0.128348,0.2599728,-0.3622378,-3.949833,0.06641844,0.5716464,1.728492,0.396323,0.01132089,0.3145996,0.2303421,-1.108762,0.4083618,0.05172312,0.7769709,1.7635,0.254144,0.08451388,1.376641,0.295524,299.6551,269.5157,332.1981,True
2,1.733337,-0.3667173,-0.08504684,-0.1919588,4.693059,-4.493189,-2.134979,0.397467,1.510509,0.4685981,-0.5282322,-0.1020184,100,100,-0.3606087,0.1325959,0.2653946,-0.3589185,-3.945892,0.06699155,0.5687959,1.729046,0.3953505,0.004075527,0.3273417,0.2538637,-1.105078,0.4125743,0.04991722,0.7745998,1.764317,0.2541318,0.08048663,1.379753,0.2956285,299.2849,269.5011,332.2831,True
2,1.744448,-0.4104467,-0.06063873,-0.192075,4.694093,-4.495079,-2.128977,0.3940074,1.511899,0.4680986,-0.5277283,0.04752359,100,100,-0.3659027,0.1464413,0.2686699,-0.3556769,-3.940312,0.06599793,0.5658044,1.729655,0.3943634,-0.004139811,0.3464578,0.2891237,-1.100543,0.4173605,0.04806313,0.7721095,1.765254,0.2540669,0.07627291,1.383199,0.2957626,298.8159,269.5128,332.323,True
2,1.755559,-0.4350068,-0.03618577,-0.189008,4.694924,-4.49689,-2.123324,0.3905537,1.513226,0.4675753,-0.5282881,-0.05129569,100,100,-0.3713102,0.1507107,0.2623456,-0.3528997,-3.935517,0.06589193,0.5627905,1.730288,0.3933733,-0.004967213,0.3581205,0.3168536,-1.095977,0.4220268,0.0459659,0.7696131,1.766188,0.2539825,0.07179759,1.386903,0.2958947,298.3374,269.6156,332.3241,True
2,1.76667,-0.4670266,-0.006400734,-0.1849031,4.695064,-4.499077,-2.116971,0.3868509,1.514611,0.4671037,-0.5282156,0.007462273,100,100,-0.3468984,0.1784283,0.2557004,-0.3501119,-3.927349,0.06123886,0.5594052,1.73085,0.3922412,-0.01540998,0.3740686,0.3404058,-1.091134,0.4271001,0.04414536,0.7669061,1.767172,0.2538841,0.06712145,1.390768,0.2960095,297.8004,269.8116,332.264,True
2,1.777781,-0.4830373,0.0095817,-0.1764879,4.695728,-4.50096,-2.111106,0.3830643,1.516289,0.4665134,-0.5289959,-0.07112658,100,100,-0.3533479,0.2466051,0.2537487,-0.3469151,-3.912793,0.05169009,0.5559779,1.731454,0.3909483,-0.02065948,0.3815208,0.3489837,-1.086878,0.4319907,0.0423147,0.7642343,1.768149,0.2538245,0.06234795,1.394742,0.2961222,297.2759,270.1169,332.0926,True
2,1.788892,-0.4883276,-0.00643827,-0.1806486,4.697418,-4.502432,-2.105606,0.379148,1.51793,0.465929,-0.5287839,0.0202728,100,100,-0.3816976,0.2912837,0.2903735,-0.3421619,-3.89981,0.04478851,0.5524963,1.73208,0.3896799,-0.02366322,0.3868038,0.3724555,-1.081719,0.4368736,0.04042519,0.7613361,1.769164,0.2537007,0.05756149,1.398736,0.2962342,296.745,270.4755,331.8572,True
2,1.800003,-0.4871854,-0.04808025,-0.195331,4.700649,-4.503857,-2.100174,0.3752478,1.519768,0.4652829,-0.5296122,-0.07571285,100,100,-0.3921649,0.3338671,0.3076036,-0.3379429,-3.884848,0.03545013,0.5489624,1.732659,0.3883982,-0.02766591,0.3878098,0.4055165,-1.075862,0.441544,0.03862356,0.7582741,1.770341,0.2535863,0.0526734,1.402719,0.2963287,296.3234,270.8412,331.604,True
2,1.811115,-0.4785997,-0.08006264,-0.2004587,4.703507,-4.50473,-2.095114,0.3712255,1.521479,0.4646676,-0.5303819,-0.06948044,100,100,-0.3973464,0.3594081,0.3215516,-0.3337719,-3.870924,0.02698368,0.5455425,1.733351,0.3871279,-0.0275887,0.3941838,0.4140518,-1.070738,0.4466178,0.03649889,0.7553289,1.771379,0.2534835,0.04772941,1.406694,0.2963901,295.9309,271.0582,331.5202,True
2,1.822226,-0.4528974,-0.1482869,-0.2171137,4.708529,-4.505279,-2.090989,0.3670649,1.523392,0.4640183,-0.5307456,-0.0326049,100,100,-0.3925675,0.3646754,0.3651823,-0.3281212,-3.858013,0.01900991,0.5418942,1.733952,0.3858879,-0.03687847,0.4079768,0.4493085,-1.064369,0.452134,0.03456304,0.7523196,1.772435,0.2533991,0.04277816,1.410597,0.2964111,295.4822,271.0656,331.6374,True
2,1.833337,-0.4218657,-0.2143042,-0.2220557,-1.569522,-4.505149,-2.087338,0.3628402,1.525216,0.463371,-0.5313091,-0.05121564,100,100,-0.3796784,0.3593466,0.3735406,-0.3237845,-3.846523,0.01183855,0.538294,1.734392,0.3847046,-0.04390624,0.4238563,0.5026615,-1.056844,0.457774,0.03263091,0.7489845,1.773513,0.2534218,0.03787385,1.414387,0.2964117,295.0143,270.8819,331.9146,True
2,1.844448,-0.3962274,-0.2472729,-0.2218761,-1.564912,-4.505326,-2.083852,0.3586798,1.527,0.4626894,-0.5323808,-0.09749173,100,100,-0.3787172,0.3646854,0.3650135,-0.3200108,-3.833262,0.003418966,0.5347286,1.734849,0.383512,-0.0492053,0.4302523,0.5048468,-1.051009,0.4632736,0.03063701,0.7459104,1.774478,0.2533655,0.03299849,1.418001,0.2963738,294.5569,270.6713,332.2144,True
2,1.855559,-0.3450087,-0.2908694,-0.2269741,-1.559726,-4.505391,-2.081737,0.354499,1.52867,0.4619055,-0.5329427,-0.05061959,100,100,-0.388557,0.354055,0.3438049,-0.3171303,-3.822282,-0.002398709,0.531135,1.735184,0.3822484,-0.0566386,0.4526463,0.5028219,-1.045555,0.4697056,0.02827904,0.7427024,1.775318,0.2532167,0.0281579,1.421352,0.2962879,294.0899,270.2356,332.7261,True
2,1.86667,-0.3151556,-0.3025232,-0.2269243,-1.555389,-4.50578,-2.079248,0.3504543,1.530252,0.4611683,-0.5330567,-0.010156,100,100,-0.4037427,0.3391668,0.3205268,-0.3145374,-3.812203,-0.007043262,0.5276011,1.735406,0.3810668,-0.05024058,0.466489,0.5006701,-1.04004,0.4759655,0.02546594,0.7396051,1.776129,0.2531557,0.02339533,1.424363,0.2961395,293.6674,269.7291,333.3089,True
2,1.877781,-0.2682684,-0.3152173,-0.2311218,-1.551136,-4.506102,-2.077669,0.3463214,1.531952,0.4609554,-0.5342695,-0.1109401,100,100,-0.400514,0.3231821,0.3226015,-0.3108261,-3.802234,-0.0123576,0.5240181,1.735675,0.3797421,-0.04074332,0.4686532,0.4899442,-1.034882,0.482163,0.0225085,0.7364237,1.776883,0.2530336,0.01873331,1.427012,0.2959182,293.3497,269.2686,333.8537,True
2,1.888893,-0.2107214,-0.3301015,-0.2470516,-1.546054,-4.506965,-2.077204,0.3421314,1.533623,0.4601309,-0.5338083,0.04298715,100,100,-0.4002881,0.2997203,0.3406773,-0.3064872,-3.793987,-0.01586125,0.5204841,1.735941,0.3785181,-0.03869578,0.453751,0.4824402,-1.029779,0.4871834,0.02025893,0.7332593,1.777568,0.253005,0.01421934,1.429235,0.2956283,293.0633,268.7571,334.4345,True
2,1.900004,-0.1328356,-0.3885877,-0.2574079,-1.539147,-4.506742,-2.078297,0.3378992,1.535283,0.459285,-0.5343941,-0.05426025,100,100,-0.4222821,0.2442735,0.3706829,-0.3014539,-3.790993,-0.01341061,0.5167273,1.736189,0.3771262,-0.053518,0.461199,0.4932406,-1.023712,0.4930871,0.01828979,0.7299743,1.778393,0.2531731,0.009876204,1.431064,0.2953271,292.9376,268.1986,334.9658,True
2,1.911115,-0.08909698,-0.4162645,-0.2668383,-1.532873,-4.506444,-2.07861,0.3337142,1.537038,0.4582324,-0.5352863,-0.08129731,100,100,-0.4414495,0.2581119,0.3719954,-0.297433,-3.779446,-0.01894493,0.5130927,1.736379,0.3757665,-0.07468045,0.4771822,0.5083536,-1.017483,0.4997773,0.01635367,0.7268559,1.779111,0.2532094,0.005622992,1.43256,0.2951082,292.9291,267.5355,335.5449,True
2,1.922226,-0.0293711,-0.4556903,-0.2900806,-1.525365,-4.506777,-2.080335,0.3296117,1.538409,0.4571483,-0.5364959,-0.1102301,100,100,-0.4610242,0.3135463,0.341402,-0.2949685,-3.760396,-0.03136858,0.5092565,1.736394,0.3742807,-0.1223794,0.5187495,0.5333206,-1.010483,0.5079462,0.01513927,0.7235854,1.77975,0.2532415,0.001311763,1.433716,0.2949531,292.9115,266.7481,336.3712,True
2,1.933337,0.0419989,-0.4588535,-0.3092788,-1.51901,-4.50769,-2.082903,0.3254985,1.539728,0.4560945,-0.535354,0.1049123,100,100,-0.4688484,0.3572612,0.3127867,-0.2928353,-3.74162,-0.04388064,0.5053717,1.736368,0.372823,-0.1329786,0.5412294,0.5291577,-1.004913,0.5166157,0.01201139,0.7204818,1.779973,0.2529206,-0.002969213,1.434477,0.2948377,292.8487,265.7936,337.471,True
2,1.944448,0.122938,-0.4469535,-0.3094089,-1.513441,-4.508456,-2.086655,0.3215011,1.540916,0.4550502,-0.5361657,-0.07555871,100,100,-0.4827345,0.3849553,0.3108597,-0.2897285,-3.722861,-0.05604143,0.5016228,1.736275,0.3713768,-0.1341709,0.5647111,0.507908,-0.9999541,0.5248969,0.009106147,0.7173923,1.780349,0.2530034,-0.007216607,1.43489,0.2946762,292.895,264.8757,338.5978,True
2,1.955559,0.1729926,-0.4382851,-0.3031025,-1.507874,-4.508923,-2.090242,0.3175105,1.54203,0.4540458,-0.5366424,-0.04317913,100,100,-0.5135846,0.4126455,0.315513,-0.2864166,-3.7028,-0.06846481,0.4980104,1.736037,0.3698304,-0.1225281,0.5786192,0.4918398,-0.995105,0.533546,0.005196893,0.71422,1.780634,0.2530041,-0.01138179,1.434923,0.2944918,292.927,263.8736,339.7348,True
2,1.966671,0.2241253,-0.4360017,-0.2956931,-1.502176,-4.509126,-2.09425,0.3136809,1.542996,0.4529026,-0.5372853,-0.05886682,100,100,-0.5597237,0.4243807,0.2883782,-0.2844624,-3.684088,-0.07855633,0.4945312,1.735523,0.3682876,-0.1079133,0.5744075,0.4544305,-0.9913638,0.5410143,0.001799498,0.7111477,1.780818,0.2531235,-0.01543632,1.434572,0.2943558,293.0272,263.0374,340.6367,True
2,1.977782,0.2560585,-0.422046,-0.2894059,-1.497105,-4.50956,-2.098106,0.3101579,1.543514,0.4518142,-0.5365598,0.06633756,100,100,-0.5708506,0.4468125,0.2501747,-0.283665,-3.663486,-0.09163857,0.4911183,1.735276,0.3668318,-0.1101307,0.5712311,0.4459172,-0.9866958,0.5483055,-0.0008852347,0.7078722,1.781627,0.2537742,-0.01930132,1.433812,0.2942995,293.1819,262.386,341.3764,True
2,1.988893,0.2720506,-0.426241,-0.2840651,-1.491412,-4.509654,-2.101662,0.306571,1.544072,0.450721,-0.5362946,0.02322271,100,100,-0.559308,0.4127504,0.2340102,-0.2820266,-3.650676,-0.09814548,0.4877436,1.734881,0.3656468,-0.1090619,0.57336,0.445913,-0.981769,0.5560167,-0.003969442,0.7048509,1.781868,0.2539909,-0.02300026,1.432658,0.2942829,293.4408,261.7534,342.1632,True
2,2.000004,0.3103843,-0.4175303,-0.2660379,-1.486381,-4.509527,-2.106152,0.3034282,1.544063,0.4495115,-0.5356187,0.06125181,100,100,-0.5045957,0.337226,0.1746539,-0.281967,-3.646533,-0.09831379,0.4844384,1.734229,0.3645346,-0.1133911,0.5766515,0.4310024,-0.9776208,0.5645196,-0.007493336,0.7016946,1.782024,0.25403,-0.02647167,1.431146,0.2942548,293.7338,261.0668,343.0538,True
2,2.011115,0.3252109,-0.3737821,-0.2588391,-1.482696,-4.510214,-2.110124,0.2998425,1.544325,0.448293,-0.5347766,0.07620364,100,100,-0.476546,0.3074982,0.113556,-0.2829268,-3.637639,-0.1023546,0.4810501,1.73359,0.36339,-0.1145566,0.5831262,0.413947,-0.9737662,0.5731946,-0.01105851,0.6987178,1.782213,0.2541797,-0.02969599,1.429315,0.2941893,294.0579,260.4264,343.8752,True
2,2.022226,0.3432143,-0.3182345,-0.2400066,-1.480203,-4.511101,-2.114543,0.2967852,1.543926,0.4472733,-0.5352181,-0.04127544,100,100,-0.4513032,0.2661247,-0.005068548,-0.2870547,-3.633038,-0.1024502,0.4777293,1.732857,0.3622205,-0.09022224,0.5884535,0.3913938,-0.970188,0.5814919,-0.01543781,0.6957543,1.782368,0.254339,-0.03274669,1.427247,0.2940431,294.4271,259.7505,344.7078,True
2,2.033337,0.3516651,-0.2786971,-0.2210618,-1.477609,-4.511496,-2.118651,0.2936385,1.543649,0.4461315,-0.5344666,0.06885546,100,100,-0.4515302,0.2576335,-0.02425353,-0.2880864,-3.623745,-0.1061688,0.4744057,1.732165,0.3610482,-0.0701803,0.5639213,0.3752303,-0.9664233,0.5879247,-0.01890152,0.6924937,1.782776,0.2547202,-0.0356021,1.424968,0.2937828,294.7784,259.1982,345.4003,True
2,2.044448,0.3547481,-0.2178108,-0.1947938,-1.476695,-4.512385,-2.122687,0.2912077,1.542589,0.4451818,-0.5345124,-0.005005855,100,100,-0.456546,0.2406696,-0.0881535,-0.2915863,-3.617803,-0.1064394,0.4711952,1.731428,0.3599937,-0.04676968,0.5340478,0.3781854,-0.9622433,0.5940639,-0.02266883,0.6895506,1.782927,0.2548761,-0.03851027,1.422571,0.2933927,295.214,258.8461,345.8158,True
2,2.055559,0.3546931,-0.1847255,-0.1821961,-1.474762,-4.512953,-2.126581,0.2883995,1.542053,0.4438715,-0.5338802,0.05768343,100,100,-0.437389,0.2492035,-0.08945985,-0.2929408,-3.607427,-0.1121169,0.4680051,1.73075,0.3589246,-0.04144105,0.5233562,0.3823995,-0.957881,0.6006371,-0.02601828,0.686657,1.783152,0.2550299,-0.04126727,1.420101,0.2929668,295.5675,258.6469,346.0484,True
2,2.06667,0.3439369,-0.1281237,-0.1548278,-1.474811,-4.513868,-2.129916,0.2861246,1.540895,0.4429615,-0.5335398,0.03043097,100,100,-0.396216,0.2620492,-0.1208245,-0.2957451,-3.597024,-0.1191211,0.4650403,1.729874,0.3580067,-0.0381757,0.5297277,0.3898404,-0.9535438,0.6081853,-0.03004765,0.6838275,1.783231,0.2551677,-0.04382818,1.417597,0.2925114,295.8564,258.4808,346.2697,True
2,2.077781,0.3385357,-0.08755849,-0.1380124,-1.47459,-4.514739,-2.133379,0.2837093,1.539925,0.4419284,-0.5331473,0.0355822,100,100,-0.3559764,0.2791409,-0.1404657,-0.2984605,-3.585495,-0.1274607,0.4621979,1.72896,0.3571877,-0.03283286,0.530827,0.3865792,-0.9497072,0.6160054,-0.03456889,0.6809348,1.782929,0.255059,-0.04605078,1.415046,0.2920574,296.0788,258.4839,346.3583,True
2,2.088892,0.3128384,-0.01928247,-0.112835,-1.476344,-4.516227,-2.13583,0.2817416,1.538341,0.4411538,-0.5324479,0.0635718,99.93,100,-0.3328287,0.253626,-0.166351,-0.3013798,-3.579945,-0.1296869,0.4594734,1.727877,0.3562672,-0.007311523,0.523333,0.3810366,-0.9459484,0.6229457,-0.03946219,0.6782328,1.782916,0.2551422,-0.04816612,1.412472,0.2915282,296.3657,258.4327,346.5017,True
2,2.100003,0.1325633,0.1030128,-0.0814743,-1.480847,-4.518764,-2.13068,0.279821,1.536689,0.4401209,-0.5324191,0.002036747,98.78,100,-0.3065951,0.2153353,-0.201869,-0.3048339,-3.577657,-0.1293327,0.4568127,1.726851,0.3555043,0.0181886,0.504091,0.3808223,-0.9418056,0.6289309,-0.04394003,0.6754307,1.782938,0.2553518,-0.05009767,1.409914,0.2909763,296.6486,258.489,346.4836,True
2,2.111114,0.111082,0.1926271,-0.05216944,-1.485232,-4.521132,-2.131109,0.277997,1.535014,0.4392819,-0.5314493,0.0887124,97.7,100,-0.2791463,0.2036623,-0.2235165,-0.3082007,-3.572582,-0.1319029,0.4542154,1.725735,0.354696,0.05430317,0.4817279,0.3698169,-0.9383813,0.6353863,-0.04957581,0.6727858,1.78282,0.2553077,-0.05196043,1.40739,0.2904032,296.8942,258.594,346.3859,True
2,2.122225,0.1663118,0.273797,-0.03777794,-1.490237,-4.524231,-2.134602,0.2762252,1.533227,0.4386568,-0.5241026,0.6711081,96.7,100,-0.2593524,0.1824193,-0.2621377,-0.3126722,-3.569882,-0.132113,0.4515012,1.724498,0.3538978,0.07336259,0.4827888,0.3547544,-0.935217,0.6424285,-0.05521798,0.6702979,1.782734,0.2552993,-0.05374932,1.404912,0.2898567,297.0862,259.0143,345.9847,True
2,2.133336,0.1971563,0.3027331,-0.01879153,-1.493863,-4.52601,-2.137836,0.2744764,1.531503,0.4377906,-0.5294077,-0.4903228,95.76,100,-0.2362115,0.2048298,-0.2858104,-0.3168443,-3.561563,-0.1379475,0.4490761,1.723331,0.353157,0.07446462,0.4849098,0.3579484,-0.9313341,0.6496665,-0.06041887,0.6675588,1.782755,0.2553344,-0.05587782,1.402909,0.2891948,297.6649,259.8589,345.2668,True
2,2.144447,0.2142075,0.3039116,-0.006026678,-1.496986,-4.527601,-2.140717,0.2729288,1.529879,0.437263,-0.5335691,-0.3753572,94.91,100,-0.2191462,0.2048427,-0.2838827,-0.3202835,-3.555133,-0.1420304,0.4468052,1.722196,0.3524916,0.1022754,0.4571372,0.3768448,-0.9267316,0.6554598,-0.0660677,0.6653172,1.782498,0.2551384,-0.05804196,1.401561,0.2884925,297.8915,260.4457,344.7502,True
2,2.155558,0.2185174,0.2794741,0.004764482,-1.498962,-4.528508,-2.142907,0.2715861,1.528177,0.4365253,-0.5335324,0.006088929,94.12,100,-0.193395,0.200573,-0.2682196,-0.3231187,-3.54968,-0.1456978,0.4446091,1.721197,0.3519466,0.1118842,0.4102351,0.3894596,-0.9221786,0.6598747,-0.07030106,0.6630287,1.782576,0.2551866,-0.0599993,1.40057,0.2878952,297.5822,261.0445,344.1523,True
2,2.166669,0.2196367,0.2560723,0.01023,-1.500882,-4.529399,-2.14535,0.2701407,1.526706,0.4359579,-0.5329412,0.05354987,93.37,100,-0.175259,0.1877974,-0.2663167,-0.3262335,-3.545681,-0.1480707,0.4424376,1.720183,0.3513818,0.1161304,0.3867854,0.3925784,-0.9179426,0.664708,-0.07468329,0.6608158,1.782504,0.2551219,-0.06170115,1.399558,0.2873938,297.0886,261.6625,343.5637,True
2,2.17778,0.2197469,0.2049247,0.009478144,-1.501354,-4.529509,-2.147777,0.2689079,1.525121,0.4349825,-0.5320277,0.08295479,92.68,100,-0.1436701,0.1420482,-0.299779,-0.330787,-3.547486,-0.1456909,0.4406881,1.719278,0.3510067,0.09991485,0.3570537,0.3670756,-0.9150302,0.6691793,-0.0779952,0.6587812,1.782415,0.2550826,-0.06309903,1.398269,0.2869999,296.6967,262.1688,343.0974,True
2,2.188891,0.2102793,0.1484318,0.007691767,-1.501211,-4.529415,-2.149802,0.267705,1.52402,0.4344263,-0.5321438,-0.01127112,92.03,100,-0.1362243,0.1292655,-0.3009526,-0.3343103,-3.545774,-0.1458509,0.4388113,1.718377,0.3505654,0.101823,0.3240633,0.3446291,-0.9121401,0.6726936,-0.08142056,0.6568865,1.78231,0.2550697,-0.06427678,1.396564,0.2866405,296.5636,262.5119,342.837,True
2,2.200002,0.2231895,0.08665644,0.005928431,-1.500407,-4.52875,-2.152733,0.2665945,1.522637,0.4336309,-0.532082,0.005764409,92.22,100,-0.1154656,0.1174992,-0.2575322,-0.3359029,-3.543637,-0.1472632,0.4372368,1.717627,0.3501756,0.1176283,0.2995824,0.3263405,-0.9093481,0.6764467,-0.08567895,0.6550735,1.782205,0.2550142,-0.06534275,1.394437,0.2862648,296.6653,262.7191,342.7413,True
2,2.211113,0.2211103,0.06107617,0.005013734,-1.500372,-4.528742,-2.155103,0.2654056,1.521383,0.4329042,-0.5316601,0.03855362,92.4,100,-0.0957589,0.1035967,-0.2130407,-0.3370145,-3.541898,-0.1484265,0.4356352,1.716774,0.349802,0.1280231,0.2793635,0.3006675,-0.9068649,0.6798783,-0.08946117,0.6532434,1.782266,0.2550468,-0.0662485,1.391939,0.2857939,296.922,262.7291,342.8593,True
2,2.222224,0.2158608,0.02592355,0.007358011,-1.499713,-4.528096,-2.157396,0.2644297,1.520606,0.4324846,-0.532481,-0.07536528,92.56,100,-0.08069481,0.1025217,-0.200435,-0.3389666,-3.539407,-0.1503924,0.4341058,1.716017,0.3493721,0.1193116,0.2570421,0.281519,-0.9045821,0.6828772,-0.09237361,0.6517176,1.782253,0.2549715,-0.06697002,1.389257,0.2852452,297.3247,262.539,343.0826,True
2,2.233335,0.2105475,0.02166237,0.01058586,-1.499966,-4.527958,-2.159556,0.2634219,1.519553,0.4318807,-0.5320442,0.0405639,92.72,100,-0.07839642,0.1025047,-0.1855462,-0.340785,-3.536607,-0.1520692,0.4327859,1.71549,0.3490093,0.1054241,0.2421663,0.278408,-0.9016649,0.6862226,-0.09514063,0.6501604,1.782023,0.2546504,-0.06756717,1.386457,0.2845932,297.6834,262.3121,343.3089,True
2,2.244446,0.2031492,-0.006057454,0.009691531,-1.499198,-4.527355,-2.161603,0.2624128,1.518883,0.4315295,-0.5318487,0.0174757,94.3,100,-0.08015268,0.1067225,-0.1535588,-0.3415568,-3.532892,-0.1546218,0.4313803,1.714954,0.3486679,0.09156391,0.2208786,0.2816746,-0.8986086,0.6887941,-0.09726983,0.6488693,1.781912,0.2545874,-0.06810731,1.383692,0.2838804,298.1169,262.1813,343.3614,True
2,2.255557,0.1957906,-0.04758204,0.01634132,-1.497933,-4.525945,-2.163714,0.2614682,1.518151,0.4310904,-0.5317512,0.008791357,95.78,100,-0.07742609,0.1098547,-0.1024582,-0.3411951,-3.528438,-0.157947,0.4302353,1.714437,0.34835,0.08495732,0.2007058,0.2593185,-0.8965851,0.6914028,-0.09962007,0.6477649,1.781743,0.2545915,-0.06851931,1.381166,0.283186,298.5794,262.0083,343.4125,True
2,2.266668,0.1979816,-0.07743673,0.01119125,-1.496354,-4.524939,-2.166075,0.2604683,1.517574,0.4307196,-0.5316282,0.011239,97.16,100,-0.06244037,0.1141187,-0.0962384,-0.3424154,-3.524587,-0.1613745,0.429161,1.713968,0.3480599,0.05782446,0.1902105,0.19773,-0.896484,0.6937538,-0.1009234,0.6466459,1.781648,0.2546394,-0.06896439,1.378954,0.2825209,298.9554,261.8889,343.4291,True
2,2.277779,0.198024,-0.1009104,0.004934788,-1.494725,-4.524109,-2.168272,0.2597138,1.517033,0.4302385,-0.5316617,-0.003145115,98.46,100,-0.06530632,0.07797991,-0.1601744,-0.3461385,-3.527391,-0.1578951,0.4281838,1.713596,0.3477883,0.03620058,0.190318,0.1574159,-0.8963023,0.6964586,-0.1022704,0.6454971,1.781492,0.2545712,-0.06943773,1.377135,0.2819314,299.2221,261.6816,343.5417,True
2,2.28889,0.2001655,-0.1073606,-0.005673341,-1.493526,-4.523634,-2.170642,0.258943,1.516469,0.4296014,-0.5319765,-0.02871254,99.67,100,-0.0684516,0.08010916,-0.1548232,-0.3479729,-3.525068,-0.1590011,0.4271427,1.713189,0.347604,0.01994343,0.1861467,0.1223862,-0.8962437,0.6989233,-0.1035738,0.6445452,1.781419,0.2545819,-0.06994964,1.375682,0.2813945,299.3345,261.4151,343.7586,True
2,2.300001,0.1980543,-0.1191335,-0.01412445,-1.491873,-4.523031,-2.172834,0.2581514,1.516284,0.4292104,-0.5318764,0.009384117,100,100,-0.07433975,0.1024203,-0.1110446,-0.3481124,-3.519525,-0.1631801,0.4261835,1.712986,0.3473215,0.01980169,0.1787241,0.105317,-0.8958794,0.7012689,-0.1053491,0.6435956,1.781393,0.25454,-0.07050031,1.374529,0.2809265,299.3302,261.1602,343.973,True
2,2.311112,0.1980918,-0.1394204,-0.02145258,-1.489825,-4.522047,-2.175113,0.2572447,1.516011,0.428746,-0.532066,-0.01742153,100,100,-0.07610125,0.107705,-0.07906086,-0.348236,-3.515445,-0.1660438,0.4253929,1.712788,0.3471494,0.01565377,0.1542025,0.1234208,-0.8938975,0.7028635,-0.1065432,0.6427146,1.781403,0.2544308,-0.07102191,1.373585,0.2805315,299.2593,261.0031,344.1405,True
2,2.322223,0.1971205,-0.1863517,-0.03076003,-1.486387,-4.520465,-2.177392,0.256456,1.516022,0.4283237,-0.5319036,0.01506089,100,100,-0.0652227,0.1055542,-0.06001481,-0.348448,-3.512322,-0.168633,0.4245118,1.712571,0.3468671,-0.006469786,0.1456603,0.1566063,-0.8912578,0.7049232,-0.1070599,0.6419564,1.781395,0.2544212,-0.07154288,1.37274,0.2801814,299.193,260.9166,344.259,True
2,2.333334,0.1928899,-0.2023735,-0.03598277,-1.483841,-4.51929,-2.179559,0.255656,1.515829,0.4275217,-0.5319446,-0.003916824,100,100,-0.07126144,0.1108408,-0.02904897,-0.3481838,-3.507946,-0.1716208,0.4237972,1.712508,0.3466206,-0.02557226,0.1510103,0.1642334,-0.8893318,0.7077948,-0.1080194,0.641229,1.781344,0.2545204,-0.07206152,1.371944,0.2798857,299.1935,260.7394,344.4352,True
2,2.344445,0.0959035,-0.1845219,-0.04454286,-1.482142,-4.51906,-2.177456,0.2550414,1.515787,0.4270928,-0.5319073,0.003443326,100,100,-0.08448464,0.109698,0.02437922,-0.3463207,-3.503391,-0.1745209,0.4231931,1.712382,0.3463619,-0.0578884,0.1522142,0.1186867,-0.8895757,0.7100381,-0.1077837,0.6408862,1.781276,0.2546761,-0.07260539,1.371121,0.2796151,299.2094,260.4363,344.7477,True
2,2.355556,0.2280408,-0.2044467,-0.0391895,-1.479771,-4.51764,-2.184188,0.254371,1.515743,0.4262435,-0.5318338,0.006693931,100,100,-0.1037134,0.1022379,0.02032908,-0.346457,-3.500911,-0.1749516,0.4225528,1.71225,0.3461103,-0.06680091,0.14591,0.07186547,-0.8904572,0.7115277,-0.1076791,0.6401956,1.781251,0.2548792,-0.07309216,1.37025,0.279346,299.2485,260.0244,345.21,True
2,2.366668,0.2418284,-0.1832442,-0.06169778,-1.477844,-4.518111,-2.187315,0.2537127,1.515798,0.425796,-0.5277852,0.3701807,100,100,-0.102474,0.1064915,0.03523094,-0.346041,-3.496113,-0.178427,0.4221203,1.712244,0.3457856,-0.07044114,0.1460167,0.01543213,-0.8922889,0.7133551,-0.10798,0.6399381,1.781157,0.2550311,-0.07356519,1.369295,0.2790129,299.3182,259.7385,345.5683,True
2,2.377779,0.266259,-0.152335,-0.06722067,-1.47677,-4.518395,-2.191202,0.2532532,1.51567,0.4247391,-0.5361763,-0.7702547,100,100,-0.1034619,0.1011562,0.04162788,-0.3455324,-3.492963,-0.1801927,0.4215888,1.712136,0.3455608,-0.07591337,0.1460558,-0.001566855,-0.8928919,0.7153723,-0.1080836,0.6395339,1.781278,0.2550249,-0.07410181,1.368519,0.2786021,299.6644,259.6107,345.7529,True
2,2.38889,0.266162,-0.1118739,-0.07066148,-1.47634,-4.519186,-2.193775,0.2529508,1.515737,0.4242291,-0.5335792,0.2443202,100,100,-0.1028424,0.07458342,0.003225099,-0.3468927,-3.493626,-0.1783269,0.4213135,1.712007,0.3453593,-0.0790882,0.1428584,0.002715636,-0.8927129,0.717357,-0.108246,0.6392354,1.781044,0.2549694,-0.07437012,1.367738,0.2781464,299.583,259.2861,346.0957,True
2,2.400001,0.2533439,-0.09592699,-0.07181323,-1.47544,-4.519565,-2.196134,0.2526326,1.515845,0.4238086,-0.533641,-0.008632052,100,100,-0.09990624,0.03839486,-0.02029399,-0.3477987,-3.496446,-0.1746624,0.4210006,1.711934,0.3452442,-0.05656204,0.1449149,0.02171694,-0.8920034,0.7196305,-0.1098051,0.6389954,1.780995,0.25509,-0.07451043,1.366766,0.2777415,299.5509,259.15,346.1736,True
2,2.411112,0.2459037,-0.106629,-0.07706758,-1.473526,-4.519371,-2.198534,0.2523141,1.516113,0.4235511,-0.5322647,0.1260036,100,100,-0.1019876,0.01815386,-0.01603033,-0.3475969,-3.49728,-0.172564,0.4207037,1.711975,0.3450372,-0.05016555,0.1438389,0.02273401,-0.8918303,0.7216707,-0.1107595,0.6387571,1.780972,0.2552412,-0.07452216,1.365552,0.2773745,299.6185,259.1751,346.1623,True
2,2.422223,0.2257253,-0.1386904,-0.08751674,-1.470707,-4.518901,-2.200385,0.2520875,1.516434,0.4231157,-0.5317901,0.04227458,100,100,-0.1061019,-0.003169,-0.004290383,-0.347094,-3.499439,-0.1692271,0.4205638,1.712,0.3449516,-0.04819957,0.1545277,0.0003569052,-0.8928961,0.724192,-0.1117513,0.638815,1.780948,0.2554677,-0.07438074,1.364197,0.2771191,299.9093,259.1965,346.1069,True
2,2.433334,0.2182821,-0.1440498,-0.08959848,-1.468722,-4.518562,-2.202662,0.2517065,1.516527,0.4224775,-0.5317502,0.003414703,100,100,-0.1006366,-0.01382867,0.007348094,-0.3466274,-3.500248,-0.1675197,0.4204661,1.712086,0.3448796,-0.04308004,0.1588289,-0.02631069,-0.8942868,0.7264503,-0.1127817,0.6387407,1.780872,0.2556481,-0.07417816,1.362824,0.2769978,300.3149,259.0533,346.2003,True
2,2.444445,0.2054895,-0.1419798,-0.09492756,-1.466759,-4.518651,-2.204527,0.2515534,1.516817,0.4220891,-0.5312202,0.04848118,100,100,-0.09087056,-0.02343123,0.02213642,-0.3457731,-3.501609,-0.1655631,0.4203788,1.712085,0.3448339,-0.03495048,0.1514434,-0.07432832,-0.896918,0.7279409,-0.1135899,0.6388874,1.780791,0.2558613,-0.07395743,1.361552,0.2770267,300.7106,258.736,346.4992,True
2,2.455556,0.1948219,-0.1334893,-0.09603224,-1.465245,-4.518788,-2.206365,0.2512886,1.517129,0.4216621,-0.5316639,-0.04094252,100,100,-0.07818262,-0.05217138,0.01342591,-0.3457428,-3.506008,-0.1609231,0.420581,1.712121,0.3449109,-0.03408282,0.1418925,-0.09672469,-0.8987833,0.7291815,-0.1139447,0.6391207,1.780731,0.2559915,-0.07383172,1.360461,0.2771426,301.0362,258.4112,346.9125,True
2,2.466667,0.1724032,-0.1089921,-0.08870478,-1.464526,-4.519168,-2.207469,0.2512697,1.517416,0.4213636,-0.5314162,0.02307137,100,100,-0.06131434,-0.07877565,-0.002788451,-0.3461428,-3.51148,-0.1556969,0.4207447,1.712272,0.3450541,-0.04067311,0.1248974,-0.1180099,-0.900973,0.7298672,-0.1136845,0.6393907,1.780735,0.2561419,-0.07386188,1.359562,0.2772593,301.2357,258.2361,347.2414,True
2,2.477778,0.1532219,-0.10043,-0.07489249,-1.463651,-4.518924,-2.208619,0.2513198,1.517605,0.4206944,-0.5314248,-0.0009705474,100,100,-0.04519619,-0.1086066,0.008696888,-0.3454029,-3.517475,-0.1499613,0.4208846,1.712659,0.3452277,-0.04173215,0.1163665,-0.1148262,-0.9021852,0.7309477,-0.1137764,0.6397321,1.780792,0.2563667,-0.07390609,1.358916,0.2773877,301.3887,258.1451,347.4436,True
2,2.488889,0.1393475,-0.08441156,-0.06325388,-1.463157,-4.518856,-2.209747,0.2514279,1.517962,0.4204679,-0.5308122,0.0561106,100,100,-0.03874788,-0.1224594,0.01286414,-0.344849,-3.522548,-0.1449876,0.4211119,1.712837,0.3453457,-0.04817447,0.09187987,-0.1158803,-0.9033778,0.7310228,-0.113125,0.6401487,1.780799,0.2564869,-0.07396431,1.358523,0.2775087,301.4903,258.0987,347.5715,True
2,2.5,0.1318907,-0.08008976,-0.05049066,-1.462497,-4.518503,-2.210991,0.251553,1.518281,0.4201374,-0.530849,-0.00372432,100,100,-0.03428658,-0.1075595,0.03093729,-0.3438551,-3.523733,-0.1435412,0.4213767,1.713347,0.3454621,-0.05574283,0.06847185,-0.124387,-0.9050732,0.7307386,-0.1120227,0.6405071,1.780812,0.2565708,-0.07395073,1.358393,0.2775981,301.5359,258.147,347.6513,True
2,2.511111,0.1254593,-0.05981486,-0.04208248,-1.462379,-4.518629,-2.212168,0.2518002,1.518686,0.4197149,-0.5309976,-0.01341356,100,100,-0.02814138,-0.1043275,0.01061894,-0.3444905,-3.526758,-0.1404857,0.4218266,1.713583,0.345571,-0.07188787,0.04829135,-0.1402727,-0.9071355,0.730291,-0.1102842,0.6411237,1.780808,0.2566993,-0.07384545,1.358471,0.277546,301.5116,258.1746,347.7861,True
2,2.522222,0.1254075,-0.03530745,-0.04116331,-1.462473,-4.519258,-2.213519,0.2521037,1.519162,0.4193687,-0.5312202,-0.02014561,100,100,-0.02076218,-0.09792455,0.004148405,-0.3445576,-3.529411,-0.1380503,0.4222654,1.71394,0.345681,-0.0773863,0.0248863,-0.1551856,-0.9092304,0.7292901,-0.1084157,0.641868,1.780972,0.2568014,-0.07360529,1.358715,0.277365,301.4599,258.1346,347.8698,True
2,2.533333,0.1221673,-0.01291359,-0.03596459,-1.462794,-4.519744,-2.214742,0.2523876,1.519644,0.4190214,-0.5313278,-0.009635721,100,100,-0.01412217,-0.1053997,0.02536529,-0.3434386,-3.533104,-0.1345626,0.4228062,1.714333,0.3457713,-0.08181562,0.0164099,-0.1754178,-0.9119665,0.7289956,-0.1073025,0.6423202,1.780968,0.2569191,-0.07327853,1.359036,0.27705,301.3864,258.0837,347.908,True
2,2.544444,0.1189238,0.00732655,-0.03501417,-1.463146,-4.520394,-2.215812,0.2527751,1.520204,0.4189949,-0.5316436,-0.02875908,100,100,-0.01186278,-0.1192591,0.0359742,-0.3424804,-3.538045,-0.1298366,0.4234029,1.71464,0.3459096,-0.08515985,0.008992471,-0.1924455,-0.9145966,0.7285427,-0.1059552,0.6430922,1.780966,0.2570457,-0.07287404,1.359386,0.2766364,301.3416,258.0828,347.8578,True
2,2.555555,0.1103407,0.03390794,-0.04049309,-1.463767,-4.521663,-2.216619,0.2531044,1.520697,0.4186325,-0.531592,0.005035037,100,100,-0.006674506,-0.1309527,0.02418352,-0.3423675,-3.543236,-0.1249872,0.4239417,1.714902,0.3459454,-0.08417893,-0.003770899,-0.1999339,-0.9170095,0.7278421,-0.1046007,0.6438646,1.781003,0.2571464,-0.07241677,1.359719,0.2762038,301.3237,258.103,347.7425,True
2,2.566666,0.1049737,0.054156,-0.03847421,-1.464637,-4.522681,-2.21755,0.2534242,1.521307,0.4186881,-0.5314983,0.008547752,100,100,-0.008971192,-0.1373253,0.01034872,-0.342572,-3.548344,-0.1199163,0.4244727,1.71537,0.3461945,-0.08530631,-0.01440819,-0.205264,-0.9193083,0.7269663,-0.1030689,0.6445792,1.78103,0.2573032,-0.07192659,1.360007,0.2758214,301.3412,258.1182,347.6051,True
2,2.577777,0.1017725,0.05518901,-0.04273938,-1.464824,-4.523564,-2.218435,0.2537451,1.521984,0.4182179,-0.531356,0.01293812,100,100,-0.03029504,-0.152245,0.00844869,-0.342327,-3.554926,-0.1126437,0.4249501,1.715876,0.3463655,-0.09496741,-0.02076232,-0.2137233,-0.9219267,0.7261783,-0.1013194,0.6454813,1.780894,0.2574999,-0.07141361,1.360258,0.2755812,301.3968,258.1479,347.459,True
2,2.588888,0.09751029,0.05301403,-0.0480482,-1.464726,-4.524342,-2.219304,0.2540728,1.522697,0.4178703,-0.5315068,-0.01383478,100,100,-0.04716873,-0.1618538,0.02354626,-0.3413635,-3.560703,-0.1060487,0.4255463,1.716432,0.3465371,-0.09935154,-0.02074015,-0.2286077,-0.9249212,0.7253088,-0.09946188,0.6464493,1.780967,0.257869,-0.07099563,1.360475,0.2755029,301.4945,258.2442,347.313,True
2,2.599999,0.1113987,0.03060292,-0.05964279,-1.463797,-4.524949,-2.220909,0.2543216,1.52363,0.4173343,-0.5315313,-0.002029777,100,100,-0.05470666,-0.1778268,0.01615695,-0.3411829,-3.568251,-0.09805999,0.4261301,1.717016,0.3466129,-0.117638,-0.02066829,-0.2508348,-0.9284211,0.7246146,-0.09714626,0.6474081,1.780933,0.2581673,-0.07063518,1.360713,0.2756197,301.614,258.3851,347.2039,True
2,2.61111,0.1221072,0.0007275902,-0.07224534,-1.462403,-4.525228,-2.222609,0.2546751,1.524565,0.4170704,-0.5315621,-0.002797097,100,100,-0.06510252,-0.171467,0.03866359,-0.3398263,-3.572872,-0.09268306,0.42683,1.717718,0.3467305,-0.1348426,-0.02380508,-0.2709424,-0.9319359,0.7235195,-0.09456432,0.648647,1.781103,0.2584274,-0.07035018,1.360989,0.2758302,301.7264,258.51,347.2598,True
2,2.622221,0.1446166,-0.0728936,-0.09952042,-1.45845,-4.524794,-2.225059,0.2548181,1.525848,0.4163973,-0.5323153,-0.0687997,100,100,-0.08602487,-0.1608625,0.07194759,-0.3377016,-3.576624,-0.0874393,0.4274322,1.718351,0.3467937,-0.1434997,-0.02375926,-0.2879191,-0.9356856,0.7227531,-0.09221035,0.6496542,1.781127,0.2587216,-0.07009614,1.361338,0.2760693,301.8327,258.5704,347.4125,True
2,2.633332,0.1714373,-0.1731702,-0.1319606,-1.452742,-4.5235,-2.227929,0.2550264,1.527315,0.4158869,-0.5324421,-0.01100956,100,100,-0.1020752,-0.1352878,0.0668462,-0.3370667,-3.578096,-0.08442114,0.4281566,1.718976,0.3468423,-0.1446617,-0.02586206,-0.3006975,-0.9394221,0.7219633,-0.09032111,0.6507747,1.78098,0.258904,-0.06980757,1.36176,0.276288,301.8954,258.5097,347.644,True
2,2.644443,0.1971662,-0.2584575,-0.1538349,-1.447129,-4.521995,-2.231008,0.2552315,1.52885,0.4157324,-0.5330498,-0.05559059,100,100,-0.1139632,-0.1501902,0.05205405,-0.336827,-3.584792,-0.07646362,0.4289005,1.719604,0.3470011,-0.1446501,-0.02799585,-0.2985705,-0.9425987,0.7211597,-0.08821428,0.6518675,1.781018,0.2592041,-0.06942549,1.362221,0.2764826,301.9313,258.3324,347.9327,True
2,2.655554,0.228217,-0.3319017,-0.1544848,-1.441158,-4.519591,-2.234857,0.2553591,1.530405,0.4150431,-0.5333167,-0.02400203,100,100,-0.1192342,-0.1832197,0.05633712,-0.3358182,-3.594132,-0.06611457,0.4296492,1.720255,0.3470767,-0.1456156,-0.0226843,-0.2868316,-0.9452938,0.7208921,-0.08642037,0.6529672,1.780906,0.2594583,-0.06899738,1.362648,0.2766121,301.9702,257.8562,348.4896,True
2,2.666665,0.2346938,-0.3723812,-0.1574455,-1.436028,-4.51781,-2.237814,0.2556588,1.531733,0.4146006,-0.5333598,-0.003922067,100,100,-0.1139925,-0.2045214,0.04878965,-0.3353351,-3.603145,-0.0564694,0.4304186,1.720936,0.3472955,-0.1689928,-0.03222864,-0.2770723,-0.9479767,0.7201054,-0.08336866,0.6541891,1.781006,0.2596366,-0.06841251,1.363004,0.2767443,302.0305,257.1014,349.2002,True
2,2.677776,0.2251124,-0.3712666,-0.1457269,-1.432034,-4.516222,-2.24022,0.2559283,1.533023,0.4140642,-0.5338285,-0.04297974,100,100,-0.1163181,-0.2151545,0.03175791,-0.3354001,-3.611494,-0.04721811,0.4310975,1.721618,0.3474195,-0.1817695,-0.04286478,-0.2737942,-0.950822,0.7188012,-0.08016088,0.6553195,1.780995,0.2598841,-0.06769867,1.36325,0.2769327,302.1398,256.4038,349.8408,True
2,2.688887,0.2112291,-0.3488191,-0.1277339,-1.429249,-4.514929,-2.242235,0.2562559,1.534089,0.4134099,-0.5328746,0.08741399,100,100,-0.1184008,-0.189597,0.03713604,-0.3348259,-3.615255,-0.04221377,0.4319096,1.722253,0.3475573,-0.2000513,-0.06728079,-0.2907325,-0.954421,0.7168102,-0.07635256,0.6566781,1.780972,0.2601502,-0.06690876,1.363301,0.2770838,302.2567,255.8147,350.4979,True
2,2.699998,0.1919846,-0.3114807,-0.1119627,-1.427085,-4.514071,-2.243853,0.2566693,1.53511,0.4129889,-0.5321145,0.0686584,100,100,-0.1255938,-0.158734,0.06069519,-0.3333617,-3.61722,-0.0387442,0.4326544,1.722975,0.3476152,-0.2055549,-0.09067652,-0.3077771,-0.9582608,0.7142575,-0.07239297,0.6578826,1.780984,0.2604198,-0.06604943,1.363144,0.2771758,302.4474,255.3746,351.0107,True
2,2.711109,0.1727217,-0.2677619,-0.09941159,-1.425648,-4.513609,-2.245163,0.2571614,1.535941,0.4131579,-0.5316612,0.04092195,100,100,-0.1318323,-0.1331918,0.07464771,-0.332093,-3.619457,-0.03497822,0.4334667,1.723578,0.3477159,-0.1970554,-0.08856604,-0.3110292,-0.9615162,0.7128247,-0.06973967,0.659023,1.781175,0.2607625,-0.06520565,1.362852,0.2771428,302.7396,255.1168,351.3586,True
2,2.72222,0.1566954,-0.2432442,-0.09102377,-1.423769,-4.513012,-2.246412,0.2576342,1.536743,0.4129021,-0.5313172,0.03117396,100,100,-0.1200595,-0.1108233,0.07986446,-0.3310331,-3.620731,-0.0328477,0.4342309,1.724175,0.3478427,-0.1810323,-0.08753868,-0.3058279,-0.9646044,0.7114514,-0.06754735,0.6601436,1.781198,0.2609963,-0.06438223,1.362522,0.2769353,303.0654,254.9609,351.582,True
2,2.733331,0.1288861,-0.18883,-0.06895623,-1.423623,-4.512912,-2.246803,0.2582893,1.537536,0.41343,-0.5311115,0.01863999,100,100,-0.0980027,-0.09800446,0.05298437,-0.3314352,-3.623104,-0.0303382,0.4350178,1.724666,0.3480501,-0.1692382,-0.09395172,-0.2952866,-0.9674428,0.71005,-0.06533799,0.6612749,1.781019,0.2612271,-0.06351333,1.362286,0.2766284,303.3637,254.7611,351.6754,True
2,2.744442,0.09897338,-0.1386296,-0.03620904,-1.424116,-4.512442,-2.246984,0.2590376,1.537916,0.4135027,-0.5311131,-0.0002079211,100,100,-0.08440401,-0.09371333,0.03152386,-0.3318176,-3.625789,-0.0273717,0.4357899,1.725161,0.3482776,-0.1681147,-0.09929582,-0.2867827,-0.970164,0.7082979,-0.06256697,0.6623707,1.781018,0.2614129,-0.06261725,1.362214,0.2763702,303.5763,254.5571,351.6548,True
2,2.755553,0.07334341,-0.09913559,-0.01299889,-1.424484,-4.512137,-2.247077,0.2597645,1.538411,0.4133763,-0.5304607,0.05978571,100,100,-0.0632064,-0.08944027,0.02275606,-0.3318837,-3.628659,-0.02458524,0.4367317,1.725712,0.348671,-0.1585172,-0.1099415,-0.2836828,-0.9730785,0.7065831,-0.06028891,0.6636448,1.780863,0.2615454,-0.06174562,1.362333,0.2762252,303.7149,254.3533,351.6493,True
2,2.766664,0.03059779,-0.03196447,0.01327121,-1.426452,-4.512369,-2.245867,0.2606927,1.538676,0.4139149,-0.5302988,0.01441181,100,100,-0.04404831,-0.1181943,0.02036565,-0.3316647,-3.635689,-0.01809458,0.4376839,1.726062,0.3491042,-0.1445132,-0.1217254,-0.2614416,-0.975093,0.7043212,-0.05787395,0.6646556,1.780821,0.2617047,-0.06085632,1.362702,0.276305,303.7833,254.3167,351.531,True
2,2.777775,-0.01964539,0.06081621,0.04791028,-1.430505,-4.513423,-2.243779,0.2616858,1.538517,0.414252,-0.5304271,-0.01164153,100,100,-0.02386709,-0.1522781,0.01476675,-0.3316285,-3.644884,-0.009771404,0.4387608,1.726524,0.3496294,-0.1293639,-0.1303185,-0.2306976,-0.9767026,0.7023459,-0.05593837,0.6657429,1.780792,0.2617621,-0.06005865,1.363247,0.2764768,303.7448,254.4788,351.4706,True
2,2.788886,-0.06778733,0.1706587,0.08457791,-1.43594,-4.515119,-2.241416,0.2625628,1.538494,0.4149005,-0.5294482,0.08975501,100,100,0.03462727,-0.1916652,0.005515158,-0.3318522,-3.655388,-0.002127599,0.4398416,1.726749,0.3502629,-0.1260952,-0.1324588,-0.2222092,-0.9789162,0.7005258,-0.05370477,0.6669616,1.780715,0.2620168,-0.05931769,1.363926,0.2766423,303.6531,254.6213,351.4726,True
2,2.799997,-0.09136946,0.2463824,0.1075813,-1.4414,-4.516908,-2.239345,0.263509,1.5383,0.4151757,-0.5288777,0.05160977,100,100,0.05969007,-0.2097162,-0.03847767,-0.3337729,-3.664468,0.004918326,0.4408377,1.727012,0.3508193,-0.1251981,-0.1270922,-0.2445782,-0.9822915,0.6988332,-0.05138303,0.6681805,1.780595,0.2620943,-0.05858109,1.364739,0.2768157,303.5285,254.8867,351.2492,True
2,2.811108,-0.1182061,0.360554,0.1484634,-1.449235,-4.519435,-2.23706,0.2644555,1.538162,0.4153383,-0.5289975,-0.01109239,100,100,0.08556543,-0.2394566,-0.1048582,-0.3371983,-3.675244,0.0133174,0.4419185,1.727263,0.3513939,-0.1147352,-0.136651,-0.2670681,-0.9861296,0.6964509,-0.049224,0.669521,1.780666,0.2621601,-0.05796362,1.365669,0.2769325,303.4002,255.4411,350.7274,True
2,2.822219,-0.1332922,0.4523447,0.1830837,-1.457673,-4.52195,-2.234768,0.2655835,1.537984,0.4154828,-0.5296686,-0.06094605,100,100,0.101127,-0.252193,-0.1412764,-0.3401704,-3.684838,0.02069489,0.4430517,1.727561,0.3520515,-0.08812225,-0.1750614,-0.2609601,-0.9886623,0.6923895,-0.04693715,0.6707106,1.78056,0.2621887,-0.05748998,1.366758,0.2769824,303.2838,256.138,350.0624,True
2,2.83333,-0.1365762,0.4982002,0.1924013,-1.464555,-4.524329,-2.232992,0.2667259,1.538147,0.4158583,-0.5299131,-0.02161994,100,100,0.09920882,-0.2522143,-0.1231363,-0.3407435,-3.692998,0.02740606,0.4443297,1.727944,0.3526361,-0.05502799,-0.2198922,-0.2421349,-0.9905345,0.6876787,-0.04479836,0.6719269,1.780416,0.2622097,-0.05711352,1.367987,0.2769076,303.1122,256.8845,349.4218,True
2,2.844441,-0.1302983,0.5504264,0.1942188,-1.472066,-4.527405,-2.231363,0.2680596,1.538457,0.4161656,-0.5301635,-0.02258313,100,100,0.08934598,-0.2501656,-0.05483738,-0.3390417,-3.70121,0.03453481,0.4458745,1.728321,0.3533673,-0.02512491,-0.2636585,-0.2232762,-0.9921878,0.6824078,-0.04258794,0.673115,1.780284,0.2621906,-0.05673632,1.369378,0.2766503,302.9254,257.8356,348.621,True
2,2.855552,-0.1260768,0.5664011,0.1919901,-1.47878,-4.52999,-2.229847,0.2692215,1.538616,0.4161446,-0.5308852,-0.06558826,100,100,0.1118403,-0.270413,-0.04552105,-0.3393272,-3.712368,0.04294267,0.4473311,1.728634,0.3539515,-0.01767856,-0.2882057,-0.2180604,-0.9944675,0.6772138,-0.03961985,0.6742847,1.780382,0.262172,-0.05619413,1.370935,0.2761931,302.7192,258.7863,347.7462,True
2,2.866663,-0.1239322,0.5632133,0.1920095,-1.484913,-4.532019,-2.228284,0.2702936,1.538699,0.4161768,-0.5313129,-0.03852955,100,100,0.1418079,-0.3034404,-0.03418617,-0.3396159,-3.725924,0.05310237,0.4486997,1.728959,0.3545771,-0.03476244,-0.2988205,-0.2200736,-0.9968574,0.6727704,-0.03613457,0.6755475,1.780247,0.2621365,-0.05540495,1.37264,0.2756431,302.5191,259.4875,346.9265,True
2,2.877774,-0.1398133,0.5131029,0.1912535,-1.489549,-4.532874,-2.226139,0.2711675,1.538965,0.4162192,-0.5314908,-0.0159331,100,100,0.1125375,-0.2981815,0.01410493,-0.3381043,-3.736132,0.06231051,0.4499789,1.729225,0.3549595,-0.04226211,-0.2902993,-0.2263788,-0.9994124,0.6688546,-0.03307966,0.6767982,1.78014,0.2621613,-0.05445946,1.374425,0.2751046,302.3139,260.1799,346.0728,True
2,2.888885,-0.1535493,0.4565838,0.1852132,-1.493504,-4.533381,-2.223912,0.272137,1.539273,0.4167166,-0.5314647,0.002572247,100,100,0.0840002,-0.2641281,0.03470963,-0.3373469,-3.742011,0.06786107,0.4511678,1.729582,0.355382,-0.03590563,-0.2892601,-0.2296097,-1.001829,0.6646253,-0.03048307,0.6780446,1.779926,0.2621973,-0.05360617,1.376118,0.2745683,302.0647,260.8659,345.3057,True
2,2.899997,-0.1640025,0.3573825,0.1677002,-1.494821,-4.532763,-2.221801,0.2728218,1.539748,0.4167533,-0.5308543,0.0558426,100,100,0.04492858,-0.1991912,0.06613328,-0.3356052,-3.742667,0.0692808,0.4522026,1.729994,0.3555279,-0.0368481,-0.2775638,-0.2167965,-1.003717,0.6613557,-0.02833577,0.6791707,1.77975,0.2622316,-0.0529059,1.377618,0.2740307,301.8283,261.4627,344.6711,True
2,2.911108,-0.1659867,0.2795273,0.1532462,-1.496128,-4.532237,-2.219828,0.2736079,1.540249,0.416908,-0.5307984,0.004748214,100,100,0.03135891,-0.13958,0.09192768,-0.3338294,-3.742583,0.06916469,0.4533618,1.730374,0.3558233,-0.05172557,-0.2593955,-0.216657,-1.006199,0.6589915,-0.02621456,0.6804714,1.7795,0.2619929,-0.05231004,1.378943,0.2734992,301.6963,261.8353,344.2149,True
2,2.922219,-0.1657388,0.1590619,0.1390483,-1.494787,-4.529872,-2.218165,0.2740932,1.540971,0.4169326,-0.5309677,-0.01538124,100,100,0.01028614,-0.07143061,0.1135579,-0.3316908,-3.737914,0.06537874,0.4543251,1.730783,0.3559208,-0.07403964,-0.2284615,-0.2164212,-1.008574,0.6571993,-0.02365446,0.6815993,1.779369,0.2620301,-0.05170798,1.38017,0.2730522,301.6332,262.0167,343.8983,True
2,2.93333,-0.166589,0.04711193,0.1237284,-1.492984,-4.527449,-2.2163,0.2747207,1.541629,0.4166796,-0.5312591,-0.02637796,100,100,-0.01646905,-0.04479628,0.1032529,-0.3308786,-3.737758,0.06615771,0.45551,1.731107,0.3561597,-0.07287329,-0.1954687,-0.2099806,-1.010721,0.6555685,-0.02189411,0.6828836,1.779348,0.2621896,-0.0511715,1.381324,0.2726565,301.5952,261.9843,343.8479,True
2,2.944441,-0.1695928,-0.04880086,0.1147206,-1.491292,-4.524685,-2.214422,0.2755468,1.542382,0.4174659,-0.5315531,-0.02660537,100,100,-0.01229799,-0.02987712,0.09576897,-0.3300434,-3.73786,0.0662408,0.4567383,1.731409,0.3565142,-0.05137423,-0.1891589,-0.1877707,-1.012043,0.6532006,-0.02085468,0.684073,1.779213,0.2622194,-0.05063061,1.382466,0.2723216,301.5504,261.8789,343.9059,True
2,2.955552,-0.176925,-0.1085038,0.1097534,-1.489365,-4.521893,-2.212427,0.2762598,1.543094,0.4174485,-0.5314423,0.01040993,100,100,0.002649307,-0.03841243,0.09878419,-0.3288524,-3.740944,0.06862593,0.4580162,1.731868,0.3570681,-0.0290022,-0.2020077,-0.183707,-1.013877,0.6497432,-0.01930233,0.685287,1.779213,0.2622504,-0.0501147,1.383587,0.271952,301.4666,261.5886,344.215,True
2,2.966663,-0.1832581,-0.1351352,0.1120508,-1.488541,-4.519516,-2.210383,0.2772339,1.543367,0.4170039,-0.5314471,-0.0005050071,100,100,0.03791657,-0.06824548,0.107931,-0.3273909,-3.746975,0.07266648,0.4593704,1.732251,0.3576515,-0.001362428,-0.2382951,-0.1839941,-1.015889,0.6449328,-0.01761947,0.6865033,1.779084,0.2622406,-0.04946795,1.384723,0.2715221,301.3564,261.1731,344.5667,True
2,2.977774,-0.1822326,-0.1148613,0.1172564,-1.488936,-4.517943,-2.2085,0.2780903,1.54386,0.4169869,-0.5313954,0.004769681,100,100,0.07887364,-0.1097327,0.05627348,-0.3286921,-3.755135,0.07812117,0.4607948,1.732486,0.358331,0.02930152,-0.2755974,-0.2045503,-1.018726,0.6398463,-0.01624155,0.68764,1.778988,0.2621918,-0.04856975,1.385925,0.2711418,301.2502,260.7766,344.7581,True
2,2.988885,-0.185564,-0.04985611,0.1200731,-1.491345,-4.517866,-2.206363,0.2791281,1.54409,0.4171646,-0.5314434,-0.004385738,100,100,0.1055344,-0.1512725,0.05804884,-0.3282697,-3.764308,0.08478253,0.4621648,1.732629,0.3588519,0.03346717,-0.2926578,-0.2109915,-1.02109,0.6351978,-0.01409052,0.6887414,1.778847,0.2620852,-0.04766853,1.38712,0.2706706,301.114,260.5523,344.958,True
2,2.999996,-0.1867568,0.01197826,0.1282297,-1.494112,-4.517817,-2.204262,0.2800867,1.544343,0.4172118,-0.5317363,-0.02669416,100,100,0.07368039,-0.1821808,0.06690442,-0.3275347,-3.774144,0.09434408,0.4634363,1.7329,0.359339,0.01041822,-0.2905743,-0.1628634,-1.021287,0.6314277,-0.01145958,0.689851,1.778736,0.2620733,-0.04677027,1.38826,0.2699914,300.9521,260.5008,345.0664,True
2,3.011107,-0.1879005,0.05248664,0.1322615,-1.496622,-4.517485,-2.202255,0.2809458,1.54461,0.4175982,-0.5316815,0.005247252,100,100,0.06529748,-0.171537,0.07873915,-0.326291,-3.778719,0.09824668,0.4646855,1.733193,0.3596935,-0.006238252,-0.2692842,-0.1179457,-1.020988,0.629505,-0.009901366,0.6909813,1.778333,0.2617478,-0.04585683,1.389381,0.2691583,300.8484,260.5496,344.892,True
2,3.022218,-0.1869558,0.1122139,0.1436249,-1.500534,-4.517882,-2.200198,0.2818809,1.544757,0.4177654,-0.5317448,-0.005873012,100,100,0.05792347,-0.1481103,0.08630873,-0.3251496,-3.781596,0.100582,0.4658669,1.733504,0.3600881,-0.01362863,-0.2426421,-0.1157062,-1.022105,0.6274958,-0.008423844,0.6921397,1.778054,0.2617617,-0.04493767,1.390505,0.2683049,300.7732,260.7862,344.4033,True
2,3.033329,-0.1848729,0.1421233,0.1573002,-1.50382,-4.517429,-2.198363,0.2827442,1.544994,0.4178302,-0.5318578,-0.01018351,100,100,0.05609356,-0.1215031,0.1130018,-0.3229802,-3.783511,0.1017964,0.4670898,1.733772,0.3604028,-0.01925229,-0.2361842,-0.1550761,-1.025499,0.6242735,-0.006446714,0.693434,1.77803,0.2618916,-0.04407966,1.391642,0.2675111,300.7061,261.0388,343.8864,True
2,3.04444,-0.1817023,0.1592695,0.1731759,-1.507259,-4.516825,-2.196511,0.2836599,1.545116,0.4180119,-0.531894,-0.003257184,100,100,0.0507654,-0.1076551,0.1130791,-0.3217727,-3.786097,0.1038715,0.4683015,1.733992,0.3608005,-0.02080466,-0.2371336,-0.2157894,-1.030173,0.6211099,-0.004532168,0.6946378,1.777821,0.2619674,-0.04329131,1.392799,0.2668706,300.6205,261.2418,343.4445,True
2,3.055551,-0.1763884,0.1688943,0.1773811,-1.51022,-4.516304,-2.194845,0.2844748,1.545423,0.4181523,-0.532066,-0.01571493,100,100,0.0577687,-0.1171992,0.07357103,-0.3226761,-3.791364,0.107968,0.4695148,1.734176,0.3612285,-0.01364012,-0.2242564,-0.2563283,-1.034549,0.6190411,-0.003823234,0.6959584,1.777604,0.2618961,-0.04258261,1.393986,0.2663841,300.5229,261.6236,342.9785,True
2,3.066662,-0.172101,0.1593518,0.1827615,-1.5127,-4.515375,-2.193148,0.2853633,1.545802,0.4185116,-0.5320591,0.0008129274,100,100,0.05973008,-0.1310319,0.05861806,-0.3226968,-3.797791,0.1132903,0.4706901,1.734321,0.3616686,-0.004894763,-0.209373,-0.2340146,-1.036421,0.6173303,-0.003458115,0.6970043,1.777444,0.2619095,-0.04189662,1.39519,0.2659793,300.3937,262.0131,342.622,True
2,3.077773,-0.1635303,0.1337467,0.1733194,-1.514113,-4.514419,-2.191679,0.2862256,1.54607,0.4185519,-0.5322365,-0.01622931,100,100,0.04476459,-0.1171841,0.0545423,-0.3223458,-3.800613,0.1159903,0.4718056,1.734557,0.3621233,-0.0001672655,-0.2031042,-0.1765046,-1.036265,0.6149035,-0.002310026,0.6980207,1.777291,0.2619646,-0.0411786,1.396389,0.2655953,300.2553,262.3669,342.3069,True
2,3.088884,-0.1570947,0.1059364,0.1511084,-1.51492,-4.513862,-2.190177,0.287084,1.546445,0.418752,-0.5321805,0.00520975,100,100,0.03211786,-0.1193345,0.06747063,-0.3212821,-3.805367,0.1207174,0.4730364,1.734775,0.3625498,0.01616433,-0.2010942,-0.1329421,-1.0362,0.6122657,-0.001576591,0.6990194,1.777232,0.2621751,-0.04042182,1.39758,0.2652056,300.1475,262.6265,342.018,True
2,3.099995,-0.1421223,0.07175324,0.1299941,-1.515074,-4.51303,-2.189152,0.2878903,1.546856,0.4187326,-0.5323702,-0.01738552,100,100,0.04902621,-0.1150578,0.05556195,-0.3211815,-3.808997,0.1230609,0.4741382,1.734926,0.3629484,0.02589041,-0.2043425,-0.1149153,-1.036828,0.609519,-0.0008064052,0.7000387,1.777076,0.2622328,-0.03959069,1.398759,0.26482,300.0372,262.7787,341.7898,True
2,3.111106,-0.1335389,0.04295684,0.1216424,-1.51542,-4.511782,-2.188072,0.2886897,1.547212,0.4184594,-0.532344,0.002505424,100,100,0.04460631,-0.1235657,0.04176325,-0.3213317,-3.814277,0.127664,0.4753546,1.735106,0.3632832,0.01840729,-0.2011026,-0.1191233,-1.038529,0.6074011,0.0002482066,0.7011162,1.776806,0.2622042,-0.038762,1.399861,0.2644119,299.8929,262.8187,341.6672,True
2,3.122217,-0.1121626,0.003467644,0.1016201,-1.51458,-4.510669,-2.187642,0.289409,1.547759,0.4183955,-0.5327435,-0.0365901,100,100,0.03805633,-0.1267465,0.02798501,-0.3217237,-3.818962,0.1319522,0.4764305,1.735365,0.3637214,-0.00620085,-0.1946363,-0.1338288,-1.040533,0.6051744,0.002346511,0.7021909,1.776616,0.2622561,-0.03795706,1.400872,0.264035,299.7739,262.7812,341.5883,True
2,3.133328,-0.09824223,-0.03275834,0.09543318,-1.513861,-4.509055,-2.187072,0.2902525,1.548292,0.4184635,-0.532637,0.01001456,100,100,0.04768597,-0.1288868,0.03214411,-0.3212502,-3.824158,0.1360636,0.4776688,1.735597,0.3641288,-0.006243482,-0.1935862,-0.1391377,-1.04206,0.6023284,0.003900998,0.703333,1.776556,0.2623751,-0.03719516,1.401762,0.263672,299.6635,262.7469,341.5854,True
2,3.144439,-0.07365346,-0.07863806,0.07544911,-1.511967,-4.50746,-2.18719,0.2908635,1.54876,0.4179976,-0.5331755,-0.04944705,100,100,0.04993866,-0.1310292,0.04276954,-0.3206212,-3.82932,0.1403489,0.4787341,1.735917,0.3645582,3.261864E-05,-0.2052934,-0.1509294,-1.044168,0.5992084,0.005242166,0.704353,1.776413,0.2624528,-0.03645081,1.402527,0.2632482,299.5946,262.726,341.6364,True
2,3.15555,-0.05766339,-0.08393629,0.07440361,-1.511508,-4.506179,-2.187185,0.291573,1.549241,0.4179654,-0.5329497,0.02102202,100,100,0.04981258,-0.1416771,0.03210941,-0.3208725,-3.835728,0.1459708,0.4798764,1.736052,0.3649232,-0.008448556,-0.2212471,-0.1423795,-1.045516,0.5961717,0.006971623,0.7053093,1.77617,0.2623606,-0.03562376,1.403182,0.2628033,299.5459,262.5366,341.7639,True
2,3.166661,-0.04278178,-0.07114267,0.07112715,-1.511712,-4.505361,-2.187204,0.2921861,1.549584,0.4179373,-0.5334604,-0.04705512,100,100,0.06112476,-0.1277874,-0.003158893,-0.3222425,-3.838054,0.1471455,0.48076,1.736251,0.3651168,-0.02954063,-0.2159298,-0.1176906,-1.04588,0.5936627,0.00921001,0.7062048,1.776083,0.2623422,-0.03470393,1.40373,0.2623428,299.5201,262.3148,341.9172,True
2,3.177772,-0.0279153,-0.04764916,0.07523818,-1.512494,-4.504749,-2.187458,0.2929157,1.549883,0.4180112,-0.5332586,0.0187888,100,100,0.05591717,-0.08838397,0.007598933,-0.3217818,-3.83703,0.145741,0.4816916,1.736499,0.3653319,-0.03676541,-0.2000116,-0.09203323,-1.046037,0.5914235,0.01109606,0.7071327,1.776031,0.2623951,-0.03382763,1.404113,0.2618089,299.4897,262.0463,342.1313,True
2,3.188883,-0.0226781,-0.008185806,0.08032492,-1.51412,-4.504622,-2.187227,0.2938112,1.550013,0.4182792,-0.5331212,0.01222549,100,100,0.04370328,-0.06607491,0.05783606,-0.3195277,-3.838651,0.1472651,0.4827445,1.736644,0.3655612,-0.0207838,-0.2138806,-0.08794028,-1.047101,0.5884444,0.01224788,0.7081093,1.775881,0.262238,-0.03292396,1.404374,0.2612768,299.5201,261.899,342.1491,True
2,3.199994,-0.02591701,0.01205388,0.08127248,-1.515331,-4.504354,-2.186847,0.2946087,1.55018,0.4184377,-0.5332096,-0.008290188,100,100,0.03014618,-0.04692981,0.08358159,-0.3177375,-3.839079,0.1478145,0.4837273,1.736855,0.3657417,-0.003699511,-0.2288433,-0.0795837,-1.047716,0.5849739,0.0134455,0.7089849,1.775784,0.2621803,-0.03204567,1.404535,0.2607892,299.5901,261.8911,342.0073,True
2,3.211105,-0.03345732,0.04933085,0.08106069,-1.51739,-4.504684,-2.186136,0.2954533,1.55027,0.4190047,-0.5326343,0.05258295,100,100,0.01860887,-0.0320393,0.0997096,-0.3162717,-3.83961,0.1484595,0.4847358,1.737176,0.3660057,0.0145227,-0.2278502,-0.06695367,-1.048144,0.581931,0.01416908,0.7098744,1.77588,0.2622542,-0.0310947,1.404638,0.2604223,299.6538,261.953,341.7968,True
2,3.222216,-0.05162102,0.07595529,0.08624245,-1.519471,-4.50476,-2.184944,0.2963093,1.550241,0.4192567,-0.5323254,0.02773376,100,100,0.02824304,-0.01180262,0.1038838,-0.3148932,-3.838494,0.1467841,0.4856156,1.737369,0.3662171,0.03056908,-0.2108479,-0.06064754,-1.048515,0.5799348,0.01449798,0.7107104,1.775876,0.2621181,-0.03007634,1.404719,0.2602244,299.7299,262.0975,341.5386,True
2,3.233327,-0.06228097,0.08123115,0.08302596,-1.520649,-4.504544,-2.184056,0.2971065,1.550339,0.4194632,-0.53196,0.03319954,100,100,0.04816489,-0.002186343,0.07596777,-0.3149667,-3.837745,0.1448629,0.4864759,1.7375,0.3664722,0.03804705,-0.1938248,-0.06173267,-1.049197,0.5779819,0.01491237,0.7116212,1.775908,0.2621093,-0.0290957,1.404812,0.2601868,299.8245,262.2073,341.3396,True
2,3.244438,-0.06442535,0.08761825,0.0829896,-1.522154,-4.504477,-2.183285,0.2979225,1.55037,0.4196734,-0.5314359,0.04763663,100,100,0.05624922,-0.01492572,0.03750769,-0.3159201,-3.839219,0.1453529,0.4873618,1.737591,0.3667719,0.03381428,-0.1970213,-0.0574437,-1.049727,0.5753728,0.01598616,0.7124703,1.775876,0.2620754,-0.02819139,1.404974,0.2603515,299.9136,262.3842,341.0974,True
2,3.255549,-0.06761771,0.08762632,0.08511984,-1.523492,-4.504212,-2.182523,0.2987064,1.550471,0.4199173,-0.5317145,-0.02579467,100,100,0.06981626,-0.02981023,0.0128299,-0.3167596,-3.841673,0.1465149,0.4883221,1.737563,0.3671093,0.03066023,-0.2130337,-0.04679415,-1.049929,0.5716604,0.01781362,0.7132932,1.775732,0.262094,-0.02743613,1.405245,0.2606218,299.977,262.6432,340.9178,True
2,3.26666,-0.06976215,0.09292914,0.08189397,-1.524937,-4.504264,-2.181666,0.2994511,1.550479,0.4201405,-0.5319148,-0.01800396,100,100,0.07410264,-0.04472641,0.01489474,-0.3166882,-3.84504,0.1487322,0.4891878,1.737607,0.3674755,0.03285228,-0.2087921,-0.04041505,-1.050235,0.5691293,0.01857768,0.7141066,1.775587,0.2622228,-0.02678694,1.405651,0.2609121,299.9741,262.8196,340.8801,True
2,3.277771,-0.07614799,0.08865753,0.08191826,-1.526144,-4.504118,-2.180573,0.3001779,1.550625,0.4205925,-0.5319489,-0.002981538,100,100,0.040235,-0.05541102,0.03443973,-0.3157715,-3.849139,0.1533725,0.4900633,1.737573,0.3679025,0.03711584,-0.1917744,-0.04147384,-1.050734,0.567077,0.01930446,0.7148541,1.775608,0.2621415,-0.02617302,1.406184,0.2611666,299.9041,263.0034,340.8161,True
2,3.288882,-0.07616022,0.09183946,0.07976878,-1.527531,-4.504071,-2.179676,0.3009579,1.550743,0.4209309,-0.5318807,0.006229535,100,100,0.02848481,-0.04795668,0.03138967,-0.3155968,-3.850209,0.1543965,0.490942,1.737671,0.3682289,0.05086379,-0.1640877,-0.05857017,-1.051967,0.5657815,0.01911164,0.7156414,1.775434,0.2622476,-0.02556269,1.406813,0.2613415,299.7938,263.1983,340.6889,True
2,3.299993,-0.07401501,0.08437448,0.07768088,-1.528594,-4.503849,-2.178922,0.301684,1.550853,0.4211667,-0.5316485,0.0212083,100,100,0.04655926,-0.06605857,0.02796692,-0.3155921,-3.854324,0.157228,0.4918038,1.737747,0.3685882,0.07630432,-0.153447,-0.07686486,-1.053509,0.5643141,0.01807301,0.7163447,1.775324,0.2622819,-0.02496092,1.407488,0.2614342,299.6701,263.3738,340.4977,True
2,3.311104,-0.07187752,0.07793172,0.06813261,-1.529444,-4.503834,-2.17819,0.3022734,1.550956,0.4214611,-0.5318514,-0.01873683,100,100,0.06251423,-0.07138188,0.02564804,-0.3155249,-3.857563,0.1590352,0.4925998,1.737789,0.3689053,0.08273718,-0.1768889,-0.06845608,-1.054146,0.5614554,0.01811722,0.7170786,1.774866,0.2618434,-0.02432778,1.408207,0.2614927,299.5758,263.4965,340.2919,True
2,3.322215,-0.06757792,0.05874066,0.06398208,-1.529778,-4.503353,-2.177599,0.3029478,1.55116,0.4216287,-0.532033,-0.01641224,100,100,0.08793499,-0.08734449,0.01255521,-0.3160682,-3.862244,0.1616254,0.4934208,1.737877,0.3692083,0.07329983,-0.2110126,-0.04181371,-1.053793,0.5573993,0.01961551,0.7178091,1.774749,0.2615764,-0.02366812,1.408943,0.2615253,299.4744,263.6297,340.1013,True
2,3.333326,-0.05902613,0.04272068,0.05341825,-1.529927,-4.503136,-2.17727,0.3035929,1.551379,0.421839,-0.5320815,-0.004309472,100,100,0.1017355,-0.0884009,0.008134719,-0.3162733,-3.865272,0.1629562,0.4942094,1.737959,0.3695068,0.06169047,-0.2355429,-0.02258828,-1.053473,0.5532401,0.0214206,0.7185248,1.774854,0.2616634,-0.02303801,1.409634,0.261516,299.3591,263.7354,339.9558,True
2,3.344437,-0.04941037,0.01919991,0.03437109,-1.529405,-4.503156,-2.176881,0.3042734,1.551566,0.4219267,-0.5321949,-0.01037668,100,100,0.1008748,-0.05859329,0.02628968,-0.3152911,-3.864367,0.1609647,0.4949699,1.738068,0.3696444,0.05436055,-0.2547439,-0.002325512,-1.052837,0.5491038,0.02312076,0.7192085,1.774752,0.2614295,-0.02247122,1.410243,0.2614836,299.2582,263.7965,339.844,True
2,3.355548,-0.04513619,0.00955843,0.02377201,-1.529162,-4.503106,-2.176512,0.30489,1.551774,0.4221067,-0.5324516,-0.02337043,100,100,0.06605639,-0.03945655,0.0565355,-0.3136479,-3.86471,0.16188,0.495644,1.738124,0.3696604,0.04697281,-0.250502,0.005208567,-1.052553,0.545824,0.02445847,0.7198132,1.774738,0.261375,-0.02187902,1.410771,0.2614401,299.1841,263.7957,339.8073,True
2,3.366659,-0.0323399,-0.002216464,0.008916281,-1.528683,-4.503261,-2.176537,0.3054909,1.551994,0.4225979,-0.5323835,0.006385748,100,100,0.04904652,-0.02241334,0.05994321,-0.3128943,-3.864032,0.1612344,0.4963884,1.738173,0.3697793,0.05657493,-0.2238809,-0.0001426674,-1.052757,0.5439485,0.0243325,0.7204662,1.774625,0.261358,-0.0212546,1.4112,0.2614142,299.1208,263.7431,339.8102,True
2,3.37777,-0.02378375,-0.02035202,0.001560474,-1.527852,-4.502997,-2.176586,0.3060216,1.552273,0.4228234,-0.5323414,0.00374495,100,100,0.03832093,-0.01921251,0.05368027,-0.3125262,-3.864672,0.1617426,0.4970502,1.738366,0.3698189,0.05855056,-0.183304,-0.02990858,-1.054019,0.5438467,0.02346325,0.7211096,1.774239,0.2610495,-0.02062054,1.411513,0.261439,299.0801,263.647,339.8468,True
2,3.388881,-0.01628134,-0.03958118,-0.01003888,-1.526799,-4.502664,-2.176819,0.3064742,1.552376,0.4228897,-0.5326849,-0.03145837,100,100,0.03834767,-0.01389309,0.05581883,-0.3118141,-3.865278,0.1617942,0.4977868,1.738437,0.3699956,0.04780311,-0.1555633,-0.04788079,-1.05519,0.5426465,0.02395167,0.7216607,1.774384,0.2611756,-0.0199912,1.41173,0.2615633,299.086,263.5388,339.8596,True
2,3.399992,-0.01304561,-0.06093037,-0.0184371,-1.525372,-4.502266,-2.176802,0.3069954,1.552629,0.4231434,-0.5326583,0.00263497,100,100,0.03188175,0.008484863,0.04952589,-0.3113917,-3.862636,0.1591577,0.4983644,1.738548,0.370084,0.03176367,-0.137401,-0.05943519,-1.056331,0.541704,0.02464409,0.722163,1.774332,0.26108,-0.0193684,1.411864,0.2618577,299.1075,263.4243,339.8797,True
2,3.411103,-0.01195181,-0.07910026,-0.02791163,-1.523876,-4.501845,-2.17665,0.3075624,1.552795,0.4232979,-0.5327462,-0.008134898,100,100,0.03300856,0.009542335,0.05484535,-0.3105395,-3.862851,0.1589486,0.4990124,1.73871,0.3702915,0.03505918,-0.1523701,-0.04351127,-1.056288,0.5388103,0.02553785,0.7227299,1.774353,0.2610431,-0.01883213,1.411906,0.2622609,299.1293,263.3338,340.0113,True
2,3.422215,-0.01087346,-0.08658019,-0.0321293,-1.522603,-4.50157,-2.176577,0.3080923,1.55298,0.4235351,-0.532424,0.02945688,100,100,0.04578001,-0.003238924,0.05361963,-0.3100804,-3.864696,0.1597606,0.4996114,1.738823,0.3704495,0.02995343,-0.1673346,-0.01260471,-1.055453,0.5360976,0.02670751,0.723177,1.774348,0.2608938,-0.01837841,1.41184,0.2626981,299.1331,263.2318,340.2306,True
2,3.433326,-0.007690386,-0.08340102,-0.03641302,-1.521712,-4.501626,-2.176555,0.3086458,1.55313,0.4238038,-0.5321933,0.02083078,100,100,0.0563241,-0.0106834,0.0439039,-0.3100037,-3.866011,0.1600179,0.5002365,1.738806,0.3706429,0.02274723,-0.171663,0.02046675,-1.054316,0.5335258,0.02807584,0.7237585,1.774461,0.2606671,-0.01789181,1.411725,0.2631573,299.1704,263.0787,340.4813,True
2,3.444437,-0.003483754,-0.05998735,-0.04188156,-1.521513,-4.50231,-2.176627,0.3091779,1.553208,0.4241056,-0.5322248,-0.003106433,100,100,0.07641711,-0.02025551,0.03088143,-0.3101847,-3.867705,0.1601127,0.5006541,1.738947,0.370801,0.02276983,-0.1684732,0.02259934,-1.054144,0.5315133,0.02879223,0.7242897,1.774441,0.2605026,-0.01736138,1.411599,0.2636009,299.2285,262.9131,340.7211,True
2,3.455548,0.0006962506,-0.0216238,-0.04104838,-1.522143,-4.503262,-2.176742,0.3097438,1.553238,0.4242773,-0.5322684,-0.003934596,100,100,0.08282188,-0.01492776,0.0318835,-0.3097123,-3.867813,0.1591177,0.5011961,1.738936,0.3708267,0.02383382,-0.1631615,0.0226042,-1.053979,0.5294405,0.0296559,0.7247491,1.774369,0.2604115,-0.01680648,1.411501,0.2640215,299.2953,262.7701,340.8924,True
2,3.466659,0.0006286188,0.01034367,-0.04017326,-1.522775,-4.504208,-2.176698,0.3102864,1.553269,0.4247022,-0.5323638,-0.008690363,100,100,0.08166964,-0.004266649,0.02445148,-0.3096426,-3.866826,0.1573555,0.5016432,1.739099,0.370811,0.01639139,-0.1482399,0.02163066,-1.053745,0.5279662,0.03050598,0.7251872,1.774331,0.2602162,-0.01626038,1.411452,0.2644344,299.3488,262.6937,340.9601,True
