loc,t,aDotUA,bDotUA,gDotUA,aUA,bUA,gUA,xUA,yUA,zUA,qE,qDotE,emgA,emgB,aDotSH,bDotSH,gDotSH,aSH,bSH,gSH,xSH,ySH,zSH,aDotUB,bDotUB,gDotUB,aUB,bUB,gUB,xUB,yUB,zUB,xHand,yHand,zHand,aHand,bHand,gHand,enable
0,0,0.1322544,-0.4580005,0.1059991,-1.530247,-4.380286,-3.101552,0.7186745,1.175157,0.4437993,-1.296987,-0.08116942,100,62.1,-0.1742638,0.4327509,0.001042522,-0.7871452,-4.182405,-0.4549627,0.7028136,1.392312,0.3707654,-0.1757486,0.2350076,0.2288913,-0.6675863,0.2699074,-0.1043139,0.7713667,1.472136,0.2158139,0.5131255,1.008369,0.2826243,308.1369,256.9634,341.0595,False
0,0.01111111,0.1013503,-0.4527555,0.102774,-1.531033,-4.37533,-3.101924,0.7175664,1.174648,0.443722,-1.296436,0.05110298,100,60.1,-0.1692265,0.3977383,-0.01741308,-0.7893983,-4.17871,-0.4558301,0.7018775,1.391952,0.3707108,-0.1758791,0.2275302,0.215054,-0.6658942,0.2738927,-0.105478,0.7710105,1.4721,0.2159815,0.5128015,1.007926,0.281659,308.1411,256.3158,341.5066,False
0,0.02222222,0.06830356,-0.4453731,0.1016681,-1.531808,-4.370617,-3.101738,0.7164595,1.174273,0.4434981,-1.296319,0.01033665,100,60.1,-0.1747752,0.3669786,-0.0304103,-0.7914451,-4.175256,-0.4561731,0.7010198,1.391554,0.3706412,-0.1770715,0.2275128,0.1990806,-0.664553,0.2783358,-0.1070356,0.770624,1.472099,0.2161832,0.5125296,1.007302,0.2805226,308.1733,256.0197,341.5449,False
0,0.03333334,0.05125007,-0.441162,0.098455,-1.532593,-4.36581,-3.101969,0.7153471,1.173843,0.4433458,-1.295957,0.03326514,100,60.1,-0.1748476,0.3585004,-0.03475395,-0.7936934,-4.170775,-0.4573026,0.7001268,1.391225,0.3706312,-0.1750537,0.2242936,0.1862846,-0.6632208,0.2824446,-0.1084085,0.770336,1.472053,0.2163866,0.5123229,1.006539,0.2792295,308.2577,255.8216,341.4373,False
0,0.04444445,0.03522757,-0.4262928,0.09732859,-1.533443,-4.361446,-3.101883,0.7142769,1.173496,0.4431243,-1.295627,0.03007532,100,60.1,-0.1878023,0.3512201,-0.05068511,-0.7962213,-4.166902,-0.4574259,0.6994042,1.390942,0.3705575,-0.1741185,0.2295991,0.1681606,-0.66226,0.2872383,-0.1103723,0.7700679,1.472072,0.2166991,0.5122204,1.005726,0.2778371,308.4051,255.5537,341.3442,False
0,0.05555556,0.02133861,-0.4114186,0.09831779,-1.534242,-4.357084,-3.101837,0.7131625,1.173122,0.4428167,-1.296273,-0.0591127,100,56.5,-0.2092427,0.3215093,-0.0539647,-0.7982059,-4.163956,-0.4564599,0.6986347,1.390822,0.3705583,-0.1848481,0.2423861,0.1565042,-0.6612619,0.2925572,-0.1120725,0.7698418,1.471885,0.2169578,0.5121589,1.004978,0.2763758,308.6011,255.2494,341.2694,False
0,0.06666667,0.009594169,-0.3986686,0.09613438,-1.535079,-4.353052,-3.101666,0.7120686,1.172816,0.4425862,-1.296288,-0.0006650019,100,56.5,-0.2113901,0.2787619,-0.03726505,-0.7988253,-4.161684,-0.4555651,0.6979477,1.390648,0.3704932,-0.1978917,0.2487559,0.1235776,-0.6613385,0.2974872,-0.1133023,0.7696747,1.471827,0.2172248,0.5121059,1.004375,0.2748982,308.7512,254.9544,341.1714,False
0,0.07777778,-0.003214318,-0.3859401,0.0886099,-1.535496,-4.349231,-3.101386,0.7110769,1.172544,0.4423132,-1.296532,-0.0222085,100,56.5,-0.2125131,0.2424698,-0.02798446,-0.7995816,-4.159728,-0.4545555,0.6971685,1.390487,0.3704379,-0.2012583,0.2444733,0.1044361,-0.661077,0.3016853,-0.1142645,0.7694635,1.471658,0.2174196,0.5119866,1.003947,0.2734343,308.8488,254.707,341.0552,False
0,0.08888889,-0.01818035,-0.3614966,0.08211676,-1.536061,-4.346059,-3.100748,0.7100464,1.172258,0.4420438,-1.296637,-0.0092715,100,56.5,-0.2241891,0.220016,-0.01316136,-0.7999545,-4.157409,-0.4532559,0.6964784,1.390299,0.3704112,-0.1992032,0.2338063,0.09804282,-0.6605385,0.3054497,-0.1150675,0.7693185,1.471597,0.2176483,0.5117425,1.003688,0.2719954,308.8754,254.4857,340.9424,False
0,0.1,-0.03101441,-0.3423793,0.075631,-1.53641,-4.342816,-3.100035,0.7090494,1.171903,0.4418032,-1.296717,-0.007139985,100,56.5,-0.2242117,0.2114778,-0.01110912,-0.8010964,-4.154685,-0.4525411,0.6958241,1.390049,0.370338,-0.1948645,0.2274314,0.1097348,-0.6591026,0.3097704,-0.1163865,0.7690694,1.471643,0.2178483,0.5113983,1.003599,0.2706333,308.8416,254.2851,340.8282,False
0,0.1111111,-0.04385259,-0.3157455,0.08297165,-1.537399,-4.340114,-3.099255,0.7080942,1.171504,0.4415295,-1.296561,0.01449211,100,50.8,-0.2209369,0.2370511,-0.01304698,-0.8027892,-4.150428,-0.4531904,0.6952105,1.389824,0.3703072,-0.1916314,0.2199772,0.1161111,-0.657829,0.3135929,-0.1174238,0.7689492,1.471642,0.2180538,0.5109666,1.003649,0.2693861,308.7542,254.0956,340.7344,False
0,0.1222222,-0.05349978,-0.2901891,0.08713124,-1.538426,-4.337564,-3.098377,0.7071867,1.171156,0.4413226,-1.296636,-0.006875332,100,50.8,-0.2240985,0.2573483,-0.01816949,-0.8046315,-4.146179,-0.4535944,0.6946165,1.389736,0.3701928,-0.1853194,0.209306,0.1086144,-0.6572138,0.3170491,-0.1183831,0.7688429,1.471726,0.2182188,0.5103987,1.003777,0.2682677,308.6342,253.9499,340.6382,False
0,0.1333333,-0.06738836,-0.2721047,0.08811074,-1.539195,-4.335044,-3.097291,0.7062606,1.170812,0.4411464,-1.296769,-0.01196926,100,50.8,-0.2260501,0.2668003,-0.001034886,-0.8056685,-4.141794,-0.4540083,0.6940993,1.38974,0.3702013,-0.1834103,0.1964829,0.08518038,-0.65734,0.3198572,-0.1186286,0.7687937,1.471731,0.2183981,0.5097234,1.003935,0.2672849,308.4809,253.8486,340.5581,False
0,0.1444445,-0.07697812,-0.2710595,0.08810681,-1.540033,-4.33204,-3.096213,0.7053647,1.170545,0.4409389,-1.296846,-0.00687964,100,50.8,-0.2077853,0.2280766,0.03470504,-0.8046997,-4.139289,-0.4540037,0.6936888,1.389662,0.3701165,-0.1761355,0.1879247,0.06489484,-0.6575254,0.3230004,-0.119426,0.7688533,1.471668,0.2185612,0.5089911,1.004088,0.266421,308.3363,253.8394,340.4564,False
0,0.1555556,-0.0940262,-0.2690186,0.07531089,-1.540247,-4.329056,-3.094784,0.7044842,1.170378,0.4408228,-1.296796,0.004700563,100,50.8,-0.1929054,0.1895533,0.04809659,-0.8042214,-4.137746,-0.453367,0.6932398,1.389553,0.3700964,-0.1698331,0.181512,0.05420748,-0.6573976,0.3261989,-0.1204481,0.7686833,1.471679,0.2187018,0.5082704,1.004225,0.2656549,308.2164,253.8377,340.3759,False
0,0.1666667,-0.1142674,-0.2691313,0.05826766,-1.540172,-4.326053,-3.092944,0.7037473,1.170261,0.4406638,-1.29693,-0.01214839,100,44.6,-0.1964063,0.1663471,0.02235973,-0.8051887,-4.136801,-0.4517597,0.6927966,1.389399,0.3700483,-0.1592118,0.1750944,0.05199816,-0.6571051,0.3290892,-0.121348,0.7686267,1.471684,0.2188334,0.5075784,1.004331,0.2649465,308.1276,253.7979,340.3413,False
0,0.1777778,-0.121727,-0.2702447,0.05081145,-1.540315,-4.322999,-3.091452,0.7030168,1.170135,0.4405217,-1.296739,0.01762572,100,44.6,-0.200854,0.1708152,-0.001000479,-0.8068259,-4.134759,-0.4507073,0.6924345,1.389277,0.3700106,-0.1538364,0.1729678,0.0583581,-0.6563153,0.3324459,-0.1224639,0.7684926,1.471679,0.2190535,0.5069681,1.004434,0.2642483,308.0699,253.7122,340.3466,False
0,0.1888889,-0.1355798,-0.2692634,0.03695852,-1.540102,-4.320075,-3.089591,0.7024659,1.170232,0.4403906,-1.296464,0.02512981,100,44.6,-0.1944986,0.1804513,-0.009495296,-0.8082497,-4.132132,-0.450572,0.6921499,1.38928,0.3699725,-0.1378507,0.1761297,0.05822054,-0.6558785,0.3358932,-0.1241781,0.7685678,1.471752,0.2191737,0.50645,1.004563,0.2635403,308.032,253.5511,340.3836,False
0,0.2,-0.1409256,-0.2629007,0.03373181,-1.540174,-4.317289,-3.087887,0.7018983,1.170327,0.4402502,-1.296949,-0.04440232,100,44.6,-0.1771863,0.1833247,0.02128062,-0.8079594,-4.128509,-0.4516396,0.6919253,1.389485,0.3698924,-0.1402059,0.1707723,0.03268698,-0.6564905,0.3386975,-0.1247345,0.7686477,1.471752,0.2192552,0.5060138,1.004759,0.2628067,307.9965,253.3661,340.4245,False
0,0.2111111,-0.1601465,-0.2406063,0.02511192,-1.539993,-4.31536,-3.0856,0.7015468,1.170549,0.4401455,-1.296793,0.01473561,98.7,37.6,-0.1532213,0.1720164,0.08810986,-0.8058571,-4.124664,-0.4534056,0.6918701,1.389739,0.3697822,-0.1341586,0.1419448,-0.001411019,-0.6577139,0.3394492,-0.1240306,0.7687771,1.471805,0.2192621,0.5056649,1.005054,0.2620406,307.9451,253.2019,340.4347,False
0,0.2222222,-0.179352,-0.2279105,0.01333743,-1.539546,-4.313279,-3.083014,0.7012085,1.170861,0.4400797,-1.297067,-0.02509925,98.7,37.6,-0.1390609,0.1513363,0.1336159,-0.8035156,-4.121567,-0.4544439,0.6918635,1.389991,0.3696346,-0.1205793,0.1003422,-0.02276513,-0.6585609,0.3389783,-0.1226628,0.7688719,1.471803,0.2192676,0.5054231,1.00549,0.261253,307.9,253.025,340.4433,False
0,0.2333333,-0.2113632,-0.202478,-0.002756894,-1.538773,-4.311911,-3.079633,0.7011797,1.171246,0.4399745,-1.296679,0.03578481,98.7,37.6,-0.1112421,0.09444399,0.1723202,-0.800217,-4.12063,-0.4547947,0.6920473,1.390241,0.3695245,-0.113161,0.07795666,-0.02172805,-0.6587952,0.3391,-0.1217456,0.768963,1.471859,0.2192459,0.50523,1.006067,0.2604403,307.8318,252.8637,340.415,False
0,0.2444444,-0.24231,-0.17493,-0.02204302,-1.537809,-4.31085,-3.075995,0.7011496,1.171693,0.4399805,-1.296488,0.01731218,98.7,37.6,-0.09425506,0.05915351,0.1803992,-0.7979326,-4.12004,-0.4547845,0.6922104,1.390419,0.3694649,-0.1014154,0.06090339,-0.01433654,-0.658531,0.3395116,-0.1213792,0.769006,1.471911,0.2192235,0.505062,1.006808,0.259657,307.7482,252.701,340.3706,False
0,0.2555556,-0.259457,-0.1291972,-0.03182206,-1.53713,-4.310862,-3.072548,0.7012296,1.172126,0.4400351,-1.295896,0.05412077,98.7,37.6,-0.05310753,0.02839714,0.1467506,-0.7975251,-4.120639,-0.4551127,0.6925762,1.390609,0.3695223,-0.07891297,0.05129944,0.003601927,-0.6578658,0.3402471,-0.1218694,0.769283,1.47196,0.2192481,0.5048844,1.007729,0.2589446,307.628,252.5175,340.36,False
0,0.2666667,-0.267031,-0.07278293,-0.0395115,-1.536502,-4.311952,-3.069269,0.7013927,1.172567,0.4401424,-1.295828,0.005932815,76.7,29.1,-0.01484984,0.01123858,0.1430838,-0.7960449,-4.120316,-0.4564155,0.6929833,1.390884,0.3695469,-0.06211334,0.02779169,-0.01994003,-0.6587175,0.3394898,-0.1210993,0.7696496,1.471991,0.2191265,0.5046886,1.008858,0.258353,307.4708,252.3415,340.3746,False
0,0.2777778,-0.2671202,-0.03122072,-0.0375554,-1.536174,-4.312962,-3.066284,0.7014507,1.172922,0.4402821,-1.296306,-0.04353412,76.7,29.1,0.01186876,-0.007115509,0.1608054,-0.7937179,-4.119473,-0.457979,0.693352,1.391093,0.3695903,-0.05689617,0.01604296,-0.03062433,-0.6594781,0.338954,-0.1202233,0.7698927,1.472009,0.2190468,0.5044004,1.01019,0.2579153,307.2708,252.1932,340.3753,False
0,0.2888889,-0.2683273,0.03805178,-0.03038303,-1.536283,-4.315827,-3.063169,0.7017896,1.173325,0.4404645,-1.296775,-0.04230469,76.7,29.1,0.0376686,-0.03417687,0.199775,-0.7899095,-4.118879,-0.4597351,0.6940455,1.391494,0.3695326,-0.03697357,-0.01813316,-0.06056578,-0.6610264,0.3363664,-0.1184987,0.7702553,1.471999,0.2188864,0.503977,1.011695,0.2576889,307.0087,252.149,340.3182,False
0,0.3,-0.2844312,0.0955397,-0.03169373,-1.535995,-4.318689,-3.059256,0.7022206,1.173731,0.4405305,-1.297267,-0.0445451,76.7,29.1,0.0582385,-0.07092956,0.2546823,-0.7850162,-4.118264,-0.4613583,0.6948249,1.392022,0.3695436,-0.01152615,-0.05015443,-0.06605514,-0.661706,0.3336191,-0.1169588,0.7706176,1.472075,0.2186532,0.5033824,1.013294,0.2577187,306.6874,252.205,340.2423,False
0,0.3111111,-0.3058158,0.1348649,-0.04357763,-1.535255,-4.321417,-3.05508,0.7026809,1.174178,0.4405048,-1.297356,-0.007743077,66.4,19.6,0.08402212,-0.1022518,0.2936161,-0.7798359,-4.118175,-0.4632787,0.6956501,1.392505,0.3695319,0.01716276,-0.08856411,-0.06516854,-0.6620576,0.3298483,-0.1151343,0.7711102,1.472156,0.2183454,0.5026329,1.014892,0.2580049,306.3354,252.3583,340.1679,False
0,0.3222222,-0.315441,0.1528941,-0.0585655,-1.534285,-4.323844,-3.051137,0.7030578,1.174611,0.4404676,-1.296668,0.0630188,66.4,19.6,0.1043809,-0.1142075,0.3125232,-0.7753847,-4.117574,-0.4656265,0.6965378,1.392982,0.3695316,0.03297159,-0.1418742,-0.07268441,-0.662775,0.3244038,-0.111739,0.7716717,1.472215,0.2179523,0.5018247,1.016445,0.2585812,306.0048,252.6328,340.0967,False
0,0.3333333,-0.3335938,0.1730244,-0.07675814,-1.533036,-4.326571,-3.046676,0.7036076,1.175063,0.4403296,-1.296473,0.01742288,66.4,19.6,0.1521326,-0.1730077,0.3158812,-0.7704637,-4.120126,-0.4671432,0.6979799,1.393615,0.3695073,0.05516535,-0.1749654,-0.0856034,-0.6638307,0.3191603,-0.1089949,0.7722517,1.472264,0.2176242,0.5009745,1.017914,0.2593618,305.7256,252.8976,340.1649,False
0,0.3444445,-0.3677713,0.2112462,-0.09289997,-1.531781,-4.330426,-3.04114,0.7043272,1.17554,0.4400737,-1.296854,-0.03483636,66.4,19.6,0.1889596,-0.265708,0.3019991,-0.7651539,-4.126116,-0.4662186,0.6992362,1.394187,0.3695402,0.078344,-0.2155334,-0.1070442,-0.6653844,0.3127856,-0.1057075,0.772836,1.472238,0.2171481,0.5000988,1.019313,0.2602172,305.4924,253.0887,340.3609,False
0,0.3555556,-0.4019683,0.2622475,-0.1090797,-1.530623,-4.335198,-3.035316,0.7051511,1.176025,0.4398422,-1.296559,0.02732962,66.4,19.6,0.2226855,-0.2996785,0.2737238,-0.7614308,-4.130172,-0.4668306,0.7005734,1.394783,0.3695655,0.100522,-0.2518222,-0.1210235,-0.6668124,0.3060021,-0.1022601,0.7735713,1.472302,0.2166908,0.4992376,1.020662,0.2610371,305.2685,253.2389,340.5889,False
0,0.3666667,-0.4276487,0.3143638,-0.1167537,-1.529524,-4.340531,-3.029428,0.7060977,1.176496,0.4395685,-1.29569,0.07941178,67.3,9.4,0.2491379,-0.3231221,0.2626463,-0.757223,-4.134151,-0.4675994,0.7021115,1.395402,0.3695376,0.1248413,-0.2913083,-0.1328851,-0.6682084,0.2983666,-0.09846213,0.7743679,1.472367,0.2162006,0.4984513,1.022004,0.2617558,305.0593,253.39,340.7915,False
0,0.3777778,-0.4437038,0.3494883,-0.1190282,-1.528603,-4.345662,-3.023897,0.7069949,1.176995,0.439353,-1.295611,0.006742777,67.3,9.4,0.2544422,-0.3466319,0.2698639,-0.7523143,-4.137517,-0.468026,0.7035841,1.396,0.3694572,0.1407098,-0.3179909,-0.1393709,-0.6694745,0.2913641,-0.09487511,0.7750363,1.47244,0.2156856,0.4977063,1.023415,0.262344,304.8845,253.5567,340.9259,False
0,0.3888889,-0.4629755,0.3973883,-0.1192231,-1.528019,-4.351845,-3.01784,0.7080405,1.177479,0.4390745,-1.295862,-0.02272266,67.3,9.4,0.2552851,-0.403085,0.2683112,-0.7468532,-4.143965,-0.4661589,0.705304,1.396634,0.369364,0.1629634,-0.3478768,-0.145903,-0.6708178,0.2832433,-0.09108517,0.7759292,1.472427,0.2151163,0.4969755,1.024989,0.262843,304.6908,253.7382,340.9879,False
0,0.4,-0.4747859,0.4442604,-0.1140953,-1.527731,-4.35837,-3.012021,0.7091656,1.178067,0.4387634,-1.296498,-0.05776062,67.3,9.4,0.2589869,-0.4731151,0.232529,-0.7421271,-4.152983,-0.4625479,0.7071633,1.397285,0.369247,0.1786188,-0.3863093,-0.1747399,-0.6732146,0.2739618,-0.0862502,0.7768317,1.472376,0.2143714,0.4962445,1.026778,0.2633091,304.4312,253.9398,341.0054,False
0,0.4111111,-0.4801741,0.4751697,-0.1078297,-1.527613,-4.364829,-3.006221,0.7102854,1.178555,0.4385142,-1.296303,0.0184181,76.1,7,0.2724333,-0.5123266,0.2022507,-0.7379172,-4.161582,-0.4597101,0.7089282,1.397895,0.3691592,0.1986248,-0.4130172,-0.1961728,-0.6756546,0.264814,-0.08197077,0.7778134,1.472375,0.2136962,0.495505,1.028776,0.2637878,304.0883,254.1797,340.9799,False
0,0.4222222,-0.4973551,0.544404,-0.1027801,-1.527755,-4.373198,-2.999827,0.7117367,1.179135,0.4382949,-1.296721,-0.03819909,76.1,7,0.3026762,-0.5684719,0.1514341,-0.7344977,-4.17245,-0.4560346,0.7108629,1.398567,0.3691502,0.2155108,-0.4290556,-0.2112039,-0.678085,0.2559487,-0.07804394,0.7787712,1.47238,0.2130184,0.4947329,1.030957,0.2643278,303.7081,254.5168,340.895,False
0,0.4333333,-0.5048975,0.587016,-0.1008094,-1.527779,-4.381124,-2.993612,0.7131174,1.179711,0.4380991,-1.296954,-0.0208436,76.1,7,0.34161,-0.5873871,0.1030051,-0.7316694,-4.18218,-0.4537949,0.7130579,1.399247,0.3689535,0.2270591,-0.4504089,-0.2261824,-0.6807253,0.2464301,-0.07357968,0.7797787,1.472354,0.2122347,0.4939448,1.033293,0.2649686,303.2879,254.9143,340.7978,False
0,0.4444444,-0.5220878,0.6582989,-0.114948,-1.527485,-4.391201,-2.986663,0.7147626,1.180247,0.4377651,-1.296611,0.03157171,76.1,7,0.3619429,-0.5843482,0.1124476,-0.7273993,-4.189936,-0.4527709,0.7150473,1.3999,0.3688056,0.2397844,-0.4898563,-0.2230451,-0.6827035,0.2353348,-0.06793644,0.7809514,1.472409,0.2113569,0.4931661,1.035718,0.2657412,302.8272,255.3586,340.6725,False
0,0.4555556,-0.5446203,0.7455813,-0.1238217,-1.527633,-4.40257,-2.979489,0.716496,1.180814,0.4374232,-1.296883,-0.02504376,76.1,7,0.3877459,-0.5793408,0.1389127,-0.7222818,-4.196695,-0.4527417,0.7172456,1.400611,0.3685927,0.2662688,-0.5208225,-0.2338679,-0.6850886,0.2241579,-0.06322717,0.7821182,1.472471,0.2106373,0.4924181,1.038206,0.2667285,302.3837,255.8742,340.506,False
0,0.4666667,-0.5714129,0.8242675,-0.1465123,-1.527177,-4.414651,-2.971656,0.7183743,1.18142,0.4370492,-1.296439,0.04096443,87.4,12.7,0.4016981,-0.5901902,0.1557482,-0.7171179,-4.204679,-0.4517161,0.7193657,1.401273,0.368386,0.2895657,-0.5485851,-0.2436078,-0.6876905,0.2127018,-0.05837942,0.783193,1.472412,0.2097976,0.4916458,1.040701,0.2679388,301.9352,256.3988,340.3905,False
0,0.4777778,-0.5895945,0.8689294,-0.1562804,-1.527124,-4.425632,-2.964345,0.7201459,1.181961,0.4367001,-1.296396,0.003607159,87.4,12.7,0.4165564,-0.6340408,0.1690972,-0.7113868,-4.214952,-0.4489296,0.7216282,1.401935,0.3682277,0.3044011,-0.5624831,-0.2501044,-0.6902961,0.2019154,-0.05389679,0.7843182,1.47241,0.2089431,0.4907784,1.043172,0.2694158,301.5131,256.9881,340.2799,False
0,0.4888889,-0.6089042,0.9349204,-0.1608102,-1.527494,-4.438545,-2.956313,0.7220527,1.182675,0.4363191,-1.295986,0.03774749,87.4,12.7,0.4379317,-0.6919343,0.2025143,-0.7040791,-4.226274,-0.4459003,0.7238505,1.40268,0.368083,0.3264677,-0.5806887,-0.2822198,-0.6941194,0.1905759,-0.04951908,0.7855009,1.472295,0.208051,0.489789,1.045643,0.271214,301.1217,257.6746,340.1671,False
0,0.5,-0.6132336,0.9711108,-0.1684087,-1.527631,-4.450521,-2.948971,0.7238559,1.183426,0.4359717,-1.296629,-0.0589965,87.4,12.7,0.4636315,-0.6932276,0.2182729,-0.698096,-4.234808,-0.445334,0.726231,1.403463,0.3677135,0.3316094,-0.5881931,-0.302498,-0.6978659,0.1797146,-0.04499251,0.7865852,1.472189,0.2071187,0.4887,1.048157,0.2733403,300.7333,258.3781,340.1557,False
0,0.5111111,-0.6175673,1.007303,-0.1738799,-1.527991,-4.462951,-2.94155,0.7256957,1.184125,0.4355896,-1.296273,0.03324088,87.4,12.7,0.4732471,-0.6922268,0.2213968,-0.6926466,-4.243648,-0.4440134,0.7286066,1.404214,0.3674071,0.3409659,-0.6010312,-0.3259927,-0.701907,0.1685853,-0.04040202,0.7877595,1.472107,0.206167,0.4875762,1.050742,0.2757079,300.3305,259.1608,340.1602,False
0,0.5222223,-0.6293312,1.030668,-0.186742,-1.528111,-4.475546,-2.933579,0.7274991,1.184759,0.4352214,-1.297049,-0.07118329,100,19.6,0.4807419,-0.7083306,0.2329198,-0.6862583,-4.253679,-0.4418717,0.7310339,1.405045,0.367007,0.3504105,-0.6181157,-0.3388296,-0.70589,0.1566706,-0.03559954,0.7889159,1.472025,0.2051928,0.4864261,1.053449,0.2782555,299.9619,260.0416,340.1143,False
0,0.5333334,-0.6474843,1.049747,-0.2006598,-1.528056,-4.488007,-2.925291,0.7293829,1.18538,0.4347894,-1.297216,-0.01450601,100,19.6,0.4998757,-0.724395,0.2347473,-0.680256,-4.264181,-0.4399486,0.7334673,1.405791,0.3665793,0.37051,-0.647997,-0.3485395,-0.7097803,0.1438327,-0.03071264,0.7900839,1.471912,0.2041519,0.4852989,1.056291,0.2808945,299.5372,260.9113,340.0984,False
0,0.5444446,-0.6592261,1.061386,-0.2145551,-1.527945,-4.50048,-2.917059,0.731139,1.186025,0.4343598,-1.296798,0.03838805,100,19.6,0.5082129,-0.7541812,0.2259,-0.6742852,-4.276226,-0.4365166,0.7359005,1.406512,0.3661928,0.3896066,-0.6757367,-0.3507888,-0.713488,0.1308174,-0.02578712,0.7912464,1.471829,0.2030771,0.4842032,1.059222,0.2835447,299.0438,261.8032,340.0387,False
0,0.5555557,-0.6774019,1.082599,-0.2284784,-1.527954,-4.513479,-2.908247,0.733017,1.186649,0.4338417,-1.296567,0.02078832,100,19.6,0.5229932,-0.7915158,0.2254588,-0.6678111,-4.289092,-0.4327099,0.7383378,1.407182,0.365793,0.4097332,-0.6928492,-0.3594579,-0.7176058,0.1179933,-0.02123258,0.7924235,1.471771,0.2018547,0.4831249,1.062192,0.2861545,298.5134,262.6771,339.9588,False
0,0.5666668,-0.6902363,1.108111,-0.2360377,-1.528247,-4.526925,-2.899584,0.7346861,1.187272,0.4332647,-1.296768,-0.01835512,100,27.4,0.5453132,-0.8001026,0.223066,-0.6618174,-4.300915,-0.4301815,0.7407753,1.407893,0.3654394,0.4149529,-0.6971394,-0.3712137,-0.7219718,0.1059635,-0.01695528,0.7935469,1.471627,0.200829,0.4820951,1.065183,0.2886921,297.9873,263.5078,339.8863,False
0,0.577778,-0.7062989,1.14746,-0.2447045,-1.528833,-4.541204,-2.890738,0.7363812,1.187819,0.4326689,-1.296407,0.03325246,100,27.4,0.563494,-0.8152063,0.236624,-0.655111,-4.313032,-0.4275356,0.7431492,1.408752,0.3651314,0.4191223,-0.6961018,-0.382974,-0.7264592,0.09426512,-0.01293923,0.7947763,1.471376,0.1996787,0.4810962,1.068182,0.2911458,297.4786,264.3094,339.7964,False
0,0.5888891,-0.726623,1.192153,-0.2491283,-1.529743,-4.55605,-2.88151,0.738001,1.188426,0.4320896,-1.296708,-0.02764033,100,27.4,0.5793142,-0.8332841,0.2256825,-0.6490645,-4.326284,-0.4240266,0.7455505,1.409455,0.3647232,0.413703,-0.6939776,-0.3946507,-0.731132,0.08276305,-0.00876686,0.7958739,1.471176,0.1986723,0.480107,1.0712,0.2935365,297.0013,265.13,339.657,False
0,0.6000003,-0.7362235,1.201698,-0.2555599,-1.530347,-4.570019,-2.872516,0.7396537,1.18905,0.4315195,-1.296762,-0.004590709,100,27.4,0.5370848,-0.894471,0.1722516,-0.6441351,-4.344495,-0.4140369,0.7479411,1.410113,0.3641317,0.4093277,-0.7057121,-0.4031209,-0.7358351,0.0702948,-0.003689543,0.7969611,1.470954,0.1975546,0.4790236,1.074243,0.2959,296.5284,265.9875,339.4507,False
0,0.6111114,-0.7661363,1.243128,-0.2706332,-1.531082,-4.585647,-2.86236,0.7411052,1.189484,0.4307895,-1.296557,0.01897041,100,27.4,0.4544103,-0.9459227,0.1203305,-0.6394782,-4.363209,-0.4013301,0.7502337,1.410781,0.3635337,0.4166693,-0.7025509,-0.4170474,-0.7409287,0.05887743,-0.0001089233,0.7979991,1.47075,0.1964812,0.4778494,1.077324,0.2983306,296.049,266.908,339.1648,False
0,0.6222225,-0.7874737,1.260072,-0.2856138,-1.531636,-4.600487,-2.852419,0.7423735,1.189927,0.4301367,-1.296883,-0.02993694,100,34.2,0.415874,-0.9498689,0.1003805,-0.6350632,-4.379321,-0.3916224,0.7524045,1.411335,0.3630788,0.4198231,-0.6972492,-0.421338,-0.745683,0.04773357,0.003530819,0.7989891,1.470563,0.1954441,0.4766122,1.080479,0.3009181,295.5723,267.8737,338.8679,False
0,0.6333337,-0.8087727,1.26538,-0.2834975,-1.53282,-4.614676,-2.842584,0.7437224,1.190316,0.4295323,-1.295994,0.08167788,100,34.2,0.4139451,-0.9180399,0.1155926,-0.6298722,-4.391911,-0.3857413,0.7545964,1.411882,0.3625469,0.4091922,-0.6695342,-0.4255602,-0.7505507,0.03830877,0.006339388,0.7999169,1.470318,0.1945071,0.4753656,1.08371,0.303683,295.0406,268.8405,338.6324,False
0,0.6444448,-0.8236802,1.263255,-0.2749653,-1.534365,-4.628761,-2.832484,0.7449212,1.190713,0.4289074,-1.296274,-0.02625316,100,34.2,0.4325651,-0.8384227,0.1406185,-0.6251276,-4.400661,-0.3840473,0.7565691,1.412373,0.3620369,0.3986075,-0.6460716,-0.4233764,-0.7552027,0.02906907,0.009026784,0.8008573,1.470102,0.1935782,0.4739042,1.08699,0.3066339,294.4854,269.8771,338.3745,False
0,0.655556,-0.8364339,1.257982,-0.2578736,-1.536561,-4.642549,-2.822515,0.7459402,1.191214,0.428602,-1.296598,-0.02910872,100,34.2,0.4167901,-0.7894412,0.1486453,-0.620573,-4.411026,-0.3793883,0.758557,1.412802,0.3614721,0.3762553,-0.6311088,-0.4242957,-0.7601562,0.0196235,0.01248383,0.8018503,1.469882,0.192677,0.4723282,1.090337,0.3097716,293.9015,270.9691,338.1163,False
0,0.6666671,-0.8555927,1.249439,-0.253577,-1.538371,-4.656178,-2.812009,0.7468204,1.191482,0.4280663,-1.296532,0.006482845,89,38,0.3794062,-0.7966849,0.1403751,-0.6161218,-4.424689,-0.3712452,0.7603757,1.413185,0.3609555,0.368755,-0.6140622,-0.4338465,-0.7653152,0.01076197,0.01507376,0.8026661,1.4696,0.1918013,0.4708262,1.093755,0.3130352,293.3031,272.2086,337.7688,False
0,0.6777782,-0.8673078,1.251554,-0.2525186,-1.540315,-4.670232,-2.801693,0.7478666,1.191858,0.427423,-1.296786,-0.02322946,89,38,0.3536105,-0.7921676,0.1204308,-0.6121164,-4.4384,-0.3625321,0.7623454,1.413677,0.3602695,0.3644553,-0.6044915,-0.4391518,-0.7705138,0.001375656,0.01801202,0.8036143,1.469347,0.1908588,0.4693758,1.097235,0.3163318,292.7385,273.5226,337.3275,False
0,0.6888894,-0.8726386,1.254732,-0.2546605,-1.542342,-4.68447,-2.791367,0.7485724,1.19213,0.4268606,-1.296419,0.03391205,89,38,0.3332026,-0.7822946,0.09618236,-0.6089568,-4.451991,-0.3544116,0.7639765,1.414034,0.3598526,0.3538818,-0.5842214,-0.4348324,-0.7753351,-0.006812233,0.02030234,0.804344,1.469055,0.1900752,0.4679223,1.100776,0.3196174,292.1716,274.8641,336.8025,False
0,0.7000005,-0.8811873,1.265401,-0.2482828,-1.545159,-4.699007,-2.780909,0.7493771,1.192519,0.4262431,-1.296723,-0.02799944,89,38,0.325698,-0.7640198,0.08041117,-0.6059096,-4.464767,-0.347563,0.7658608,1.414227,0.3596025,0.3326609,-0.5564758,-0.4304436,-0.7801645,-0.01435071,0.022737,0.8051258,1.4688,0.1892498,0.4664292,1.104348,0.322834,291.5638,276.2156,336.2747,False
0,0.7111117,-0.8801242,1.278214,-0.2451216,-1.548108,1.56945,-2.770882,0.7498565,1.192789,0.4256423,-1.296894,-0.01525494,89,38,0.3076572,-0.7511855,0.08280326,-0.602235,-4.477309,-0.3400716,0.7673473,1.414459,0.3592336,0.3114491,-0.52766,-0.4260491,-0.7849507,-0.02128678,0.02485635,0.8057979,1.468502,0.1885498,0.4649786,1.107948,0.3259709,290.9487,277.5739,335.7025,False
0,0.7222228,-0.877982,1.273926,-0.2514941,-1.550448,1.555231,-2.76086,0.750209,1.192974,0.4250586,-1.296894,0.0001971342,59.5,39.4,0.2573718,-0.7422152,0.05240621,-0.5998536,-4.491088,-0.330097,0.7685186,1.414469,0.3587906,0.3007956,-0.5020875,-0.4323943,-0.7902004,-0.02798143,0.02657169,0.8065211,1.468256,0.1877766,0.4634648,1.111546,0.3290564,290.3539,278.9811,335.013,False
0,0.7333339,-0.881113,1.260073,-0.25677,-1.552714,1.541447,-2.750834,0.7505405,1.193189,0.4245424,-1.297409,-0.04695774,59.5,39.4,0.2167777,-0.734418,0.03150044,-0.5976804,-4.504642,-0.3203122,0.7698036,1.414622,0.3584237,0.2774094,-0.4647509,-0.4354557,-0.7953057,-0.03325822,0.02798636,0.807089,1.46795,0.1871333,0.4619259,1.115162,0.3321406,289.8048,280.5043,334.1854,False
0,0.7444451,-0.8800148,1.244088,-0.2588372,-1.555165,1.527799,-2.740692,0.7507032,1.193329,0.424032,-1.297509,-0.008689814,59.5,39.4,0.162428,-0.6860684,0.00786522,-0.5964932,-4.51543,-0.3113605,0.7706592,1.414692,0.35815,0.246741,-0.4060756,-0.4235679,-0.7997622,-0.03680741,0.02867186,0.8074651,1.467642,0.1866262,0.4602614,1.118765,0.3352678,289.2153,282.0741,333.3119,False
0,0.7555562,-0.8650272,1.214309,-0.2555277,-1.557606,1.515157,-2.731409,0.750691,1.19336,0.4236486,-1.29753,-0.001936675,59.5,39.4,0.1339137,-0.6241908,0.009679295,-0.594849,-4.524017,-0.3050739,0.7713598,1.414739,0.3578582,0.2287825,-0.379394,-0.4128123,-0.8042709,-0.04161549,0.0299057,0.8080796,1.467428,0.1861148,0.458548,1.122299,0.33846,288.5899,283.6049,332.4844,False
0,0.7666674,-0.8404793,1.190984,-0.2394563,-1.560686,1.502838,-2.722691,0.7503491,1.193419,0.4232473,-1.297443,0.008040074,46.2,39.2,0.1035996,-0.5412489,0.04153865,-0.5924096,-4.528929,-0.3011449,0.7718635,1.414808,0.3576498,0.194984,-0.3398678,-0.3880858,-0.8078566,-0.04491115,0.0311209,0.8084025,1.467127,0.1856997,0.4568729,1.125739,0.3417238,287.9892,285.1565,331.6403,False
0,0.7777785,-0.8169822,1.172994,-0.2233911,-1.564154,1.490615,-2.714446,0.7501374,1.193462,0.4228544,-1.298286,-0.07703159,46.2,39.2,0.08161092,-0.4827375,0.06033081,-0.5900776,-4.534585,-0.296767,0.7725509,1.41503,0.3573315,0.178076,-0.3195776,-0.3762541,-0.8117874,-0.04893159,0.03246793,0.8088828,1.466883,0.1852558,0.4552014,1.129071,0.3450499,287.4242,286.7927,330.7254,False
0,0.7888896,-0.7871007,1.147596,-0.1955936,-1.568033,1.4793,-2.706752,0.7494746,1.193449,0.4225359,-1.298881,-0.05381329,46.2,39.2,0.03719607,-0.4304993,0.07606646,-0.5878555,-4.538908,-0.2920188,0.7728297,1.415014,0.3571179,0.1537531,-0.2864813,-0.3633161,-0.8153992,-0.05154215,0.03341815,0.8091362,1.466556,0.1849504,0.4535109,1.132262,0.3483919,286.8802,288.549,329.7019,False
0,0.8000008,-0.7594567,1.181894,-0.1584426,4.709617,1.466038,-2.699196,0.7488098,1.193504,0.422111,-1.299268,-0.03497627,46.2,39.2,-0.03264737,-0.4296322,0.006358147,-0.5886018,-4.548644,-0.2812069,0.77299,1.414981,0.3567095,0.136727,-0.2598185,-0.3685321,-0.8197423,-0.05409666,0.03412282,0.8093659,1.466225,0.1846516,0.451757,1.135284,0.3516904,286.4017,290.4658,328.5234,False
0,0.8111119,-0.7337493,1.112581,-0.1890631,4.708426,1.455549,-2.691847,0.748003,1.193308,0.4216242,-1.29965,-0.03484276,46.2,39.2,-0.08733594,-0.418376,-0.0399516,-0.5892233,-4.557356,-0.2712621,0.772808,1.414856,0.3566418,0.1100798,-0.2097095,-0.3833039,-0.8245924,-0.05471438,0.03415158,0.8093243,1.465904,0.184463,0.4500267,1.138119,0.354897,285.9869,292.4628,327.2424,False
0,0.8222231,-0.7379891,1.104087,-0.1805074,4.704676,1.443966,-2.683522,0.7472123,1.193162,0.4212162,-1.299584,0.006250724,45.9,38.1,-0.112632,-0.3458332,-0.04018683,-0.5892883,-4.560265,-0.2667561,0.7725674,1.414709,0.3565814,0.09332526,-0.1702203,-0.3587201,-0.8278399,-0.05540174,0.03415344,0.8093112,1.465652,0.1842971,0.4481577,1.140764,0.3579823,285.6602,294.5453,325.8192,False
0,0.8333342,-0.7282957,1.054041,-0.1813771,4.702034,1.434209,-2.675831,0.7461189,1.192938,0.4209883,-1.299551,0.002789536,45.9,38.1,-0.1316348,-0.3021096,-0.03752933,-0.5889874,-4.564015,-0.2615685,0.7724489,1.414648,0.3565359,0.07359275,-0.1370715,-0.3063954,-0.8294671,-0.05602252,0.03434546,0.8091665,1.465344,0.1842554,0.4461823,1.14324,0.3609908,285.3545,296.6265,324.3935,False
0,0.8444453,-0.7015408,0.9923916,-0.1587603,4.698936,1.425796,-2.669127,0.7448322,1.192754,0.4210036,-1.298367,0.1078464,45.9,38.1,-0.1751557,-0.2550456,-0.03995769,-0.5891626,-4.566397,-0.2561655,0.7718681,1.414507,0.3565545,0.05581287,-0.09970245,-0.2764733,-0.8315534,-0.05581626,0.03413161,0.8090107,1.465114,0.1841707,0.444243,1.145479,0.3638489,284.944,298.1805,323.4661,False
0,0.8555565,-0.6844193,0.9552037,-0.1458248,4.695624,1.416684,-2.662197,0.7438685,1.192652,0.4208837,-1.298766,-0.0372296,45.9,38.1,-0.1826272,-0.2400365,-0.04935277,-0.5893267,-4.571258,-0.2500956,0.7715321,1.414445,0.3565226,0.04627225,-0.08157708,-0.2753595,-0.8347892,-0.05638591,0.03427915,0.8090247,1.464869,0.184083,0.4422854,1.147563,0.3666091,284.6757,299.8271,322.3558,False
0,0.8666676,-0.6566017,0.8935215,-0.1327973,4.692886,1.409256,-2.655984,0.7425213,1.192485,0.4208505,-1.299683,-0.08352532,45.9,38.1,-0.2041825,-0.2397007,-0.07899966,-0.5904617,-4.576694,-0.242622,0.7708485,1.414293,0.356627,0.02604759,-0.05384353,-0.2805588,-0.8380685,-0.05579642,0.0342834,0.8087753,1.464645,0.1841166,0.4402598,1.14956,0.3692651,284.4408,301.4101,321.2697,False
0,0.8777788,-0.6149181,0.8179938,-0.1250322,4.690695,1.402643,-2.650489,0.7410724,1.192361,0.4209154,-1.299351,0.0309362,53.6,32.5,-0.2170821,-0.228836,-0.1001128,-0.5916825,-4.581789,-0.2358623,0.7702507,1.414048,0.356823,0.008043021,-0.01437739,-0.2772707,-0.8410748,-0.05420332,0.03372893,0.8084793,1.464441,0.1842871,0.4382554,1.151504,0.3717852,284.231,303.0234,320.1084,False
0,0.8888899,-0.5807258,0.7648163,-0.1194963,4.688542,1.396193,-2.64534,0.7396473,1.192272,0.4209585,-1.299826,-0.04397893,53.6,32.5,-0.2502317,-0.1964981,-0.1293904,-0.5938658,-4.584688,-0.229508,0.7693386,1.413847,0.3570158,-0.003525853,0.01336162,-0.2665621,-0.8436532,-0.05263911,0.03310682,0.8081751,1.464228,0.1844406,0.4363854,1.15343,0.3741766,284.0384,304.6327,318.9355,False
0,0.900001,-0.5230402,0.6775758,-0.1148751,4.687212,1.391652,-2.641566,0.7380862,1.192208,0.4212105,-1.300374,-0.04978875,53.6,32.5,-0.2714111,-0.1484215,-0.1373267,-0.5955324,-4.58563,-0.2252478,0.7683626,1.413613,0.3572254,-0.03312558,0.05606981,-0.2493314,-0.8457145,-0.04974772,0.03256407,0.8077446,1.464039,0.1847279,0.4345015,1.155342,0.3764186,283.7869,306.2306,317.7634,False
0,0.9111122,-0.4717219,0.581816,-0.111311,4.686553,1.387859,-2.637839,0.7363503,1.192289,0.4215031,-1.300483,-0.0098277,53.6,32.5,-0.287202,-0.1250269,-0.1263434,-0.5963798,-4.587601,-0.2200615,0.7672274,1.413361,0.3574071,-0.05744348,0.09129163,-0.2363948,-0.8478876,-0.04692876,0.032106,0.8072795,1.463749,0.1849561,0.432595,1.157195,0.3784788,283.5018,307.781,316.5829,False
0,0.9222233,-0.4203821,0.475378,-0.1130223,4.68682,1.385708,-2.634918,0.7345589,1.192259,0.4219141,-1.30156,-0.09869395,48.4,22.8,-0.3211346,-0.1079456,-0.1152609,-0.5971484,-4.589011,-0.2142244,0.7660327,1.413181,0.357527,-0.07008943,0.109447,-0.2245976,-0.8499393,-0.04437385,0.03161172,0.8067433,1.463564,0.1851714,0.430701,1.158937,0.3803527,283.2294,309.2486,315.4233,False
0,0.9333345,-0.3754237,0.3646484,-0.1211202,4.687857,1.384083,-2.632025,0.7327855,1.192136,0.4223351,-1.301343,0.02039591,48.4,22.8,-0.3499573,-0.1152605,-0.119345,-0.5983095,-4.592445,-0.2066392,0.7648447,1.413058,0.3576965,-0.07227741,0.1062559,-0.2298998,-0.85266,-0.04283828,0.03145779,0.8061746,1.463455,0.1853969,0.4288225,1.160487,0.3820043,282.9518,310.534,314.392,False
0,0.9444456,-0.3390197,0.2677002,-0.1399114,4.689727,1.383121,-2.629426,0.7309835,1.19214,0.4228144,-1.301718,-0.0349069,48.4,22.8,-0.3927917,-0.1127327,-0.1466636,-0.6005439,-4.595483,-0.1983272,0.7631979,1.412839,0.3579419,-0.08921144,0.120156,-0.2201909,-0.8547708,-0.04044756,0.03139281,0.8054681,1.463258,0.1856918,0.4268824,1.161791,0.3834105,282.7013,311.4684,313.6606,False
0,0.9555568,-0.3154699,0.205908,-0.1524443,4.691135,1.381556,-2.626544,0.7291387,1.19215,0.4234006,-1.301366,0.03217411,48.4,22.8,-0.4012543,-0.08495301,-0.1527558,-0.6024901,-4.596284,-0.1931881,0.7617028,1.412566,0.3581748,-0.09972854,0.1404373,-0.2094792,-0.8566851,-0.03741542,0.03078161,0.8047291,1.463141,0.1859844,0.4249445,1.162776,0.3845213,282.4369,312.1044,313.1605,False
0,0.9666679,-0.2726818,0.1132544,-0.1659271,4.694048,1.38206,-2.624951,0.727283,1.192265,0.4240561,-1.301211,0.01359983,48.4,22.8,-0.4050899,-0.004096717,-0.1381801,-0.6040689,-4.5921,-0.1920744,0.7599906,1.412394,0.3584671,-0.1207552,0.1746093,-0.1848515,-0.8577775,-0.03329897,0.03010464,0.8038957,1.463001,0.1864173,0.4230249,1.163399,0.3853358,282.2115,312.2964,313.0182,False
0,0.977779,-0.2416535,0.04832533,-0.1688751,4.696482,1.382274,-2.623344,0.7254363,1.192452,0.4246871,-1.300521,0.0627135,42.1,21.4,-0.3993374,0.05212709,-0.1132443,-0.6048886,-4.58816,-0.1912634,0.7583562,1.412161,0.358665,-0.1355334,0.1948986,-0.1741056,-0.8592902,-0.0295768,0.02956641,0.8030826,1.462893,0.1868329,0.4210818,1.163696,0.3859175,282.0745,311.8893,313.3668,False
0,0.9888902,-0.1871442,-0.04640802,-0.1748922,4.700261,1.384594,-2.623181,0.7234279,1.192653,0.4254925,-1.301413,-0.08230589,42.1,21.4,-0.3955108,0.1092182,-0.06377938,-0.6045557,-4.582211,-0.1919327,0.7566226,1.412063,0.3588922,-0.1534629,0.220527,-0.159079,-0.8604172,-0.02509989,0.02893738,0.8021175,1.462746,0.1872697,0.4190692,1.16378,0.3864042,282.0409,311.0748,314.0622,False
0,1.000001,-0.1475969,-0.111312,-0.1735718,4.703537,1.386556,-2.622946,0.721368,1.192839,0.426302,-1.301115,0.02770688,42.1,21.4,-0.3876388,0.1312174,-0.02423517,-0.6038313,-4.578568,-0.1909196,0.755011,1.411867,0.3591385,-0.1630011,0.2312071,-0.155815,-0.8619241,-0.02129157,0.02855095,0.8012116,1.46253,0.1877213,0.4171102,1.163724,0.3868041,282.0088,309.9969,315.0416,False
0,1.011112,-0.09308407,-0.2081634,-0.1763835,4.708257,1.390748,-2.623924,0.7192833,1.193071,0.4272251,-1.302115,-0.09203845,42.1,21.4,-0.3854652,0.1236794,-0.01579492,-0.6038686,-4.576518,-0.1884378,0.7533092,1.411751,0.3593574,-0.1640106,0.2322843,-0.1494162,-0.8632743,-0.01778912,0.02812325,0.8002052,1.462398,0.1881208,0.4151852,1.163608,0.3871462,281.9923,308.9043,316.0533,False
0,1.022224,-0.04817948,-0.2986392,-0.1781525,-1.570095,1.395327,-2.624652,0.7172302,1.193231,0.428123,-1.301683,0.03999222,34.5,16.9,-0.3909985,0.08862635,-0.02563813,-0.6045903,-4.577518,-0.1831554,0.7515341,1.411731,0.3596382,-0.1662631,0.2248177,-0.1621648,-0.8653916,-0.0147864,0.02804069,0.7990917,1.462291,0.1885965,0.4132879,1.163433,0.3873861,281.9037,307.8195,317.053,False
0,1.033335,-0.01181605,-0.3763546,-0.1831785,-1.564726,1.399917,-2.62558,0.7150935,1.193619,0.4290633,-1.302348,-0.06163771,34.5,16.9,-0.3676831,0.05230898,-0.02614622,-0.6047277,-4.578875,-0.1790201,0.7497864,1.411634,0.359839,-0.1673157,0.2205648,-0.160017,-0.8669947,-0.01163149,0.02783429,0.7981015,1.462261,0.1890466,0.4113739,1.163185,0.3875197,281.8103,306.7581,318.0035,False
0,1.044446,0.01922709,-0.4551314,-0.1839298,-1.559118,1.405691,-2.62693,0.7131126,1.193866,0.4299283,-1.301663,0.06284072,34.5,16.9,-0.3455295,0.02357349,-0.03936294,-0.6054473,-4.580419,-0.1747441,0.7479887,1.411484,0.3601458,-0.1661546,0.2237743,-0.1493782,-0.8681958,-0.008256732,0.02744094,0.796981,1.462174,0.1895053,0.4095427,1.162798,0.3874524,281.6681,305.4947,319.1387,False
0,1.055557,0.04170573,-0.5136767,-0.1858243,-1.553777,1.411001,-2.628137,0.7110955,1.194073,0.430855,-1.301288,0.03339012,34.5,16.9,-0.3468801,0.001423448,-0.06404315,-0.6068652,-4.581938,-0.1696567,0.7460579,1.41138,0.3604414,-0.1714067,0.2333829,-0.1429564,-0.8694539,-0.004359728,0.0269914,0.7958695,1.462069,0.18995,0.4077488,1.162238,0.3871458,281.5739,303.9281,320.5107,False
0,1.066668,0.07268378,-0.5583688,-0.1877781,-1.548161,1.416629,-2.630061,0.7091942,1.194274,0.4317005,-1.301224,0.005323155,34.5,16.9,-0.363265,-0.01414055,-0.1066485,-0.6093206,-4.584054,-0.1634121,0.7439266,1.41115,0.3607528,-0.1797637,0.2547327,-0.1290643,-0.8701959,0.000429701,0.02616076,0.7946181,1.461935,0.1905026,0.4059532,1.161538,0.3866226,281.5485,301.9512,322.2252,False
0,1.077779,0.09511367,-0.588138,-0.1844642,-1.542803,1.422136,-2.632047,0.7071204,1.194476,0.4326022,-1.300665,0.05075393,35.6,13.3,-0.3632448,-0.006675988,-0.1076501,-0.6104732,-4.58391,-0.1594456,0.7418529,1.410996,0.361059,-0.1956107,0.2760935,-0.1183063,-0.8710214,0.005591307,0.02563372,0.7933255,1.461876,0.1910522,0.4042607,1.160701,0.3858706,281.5419,299.8552,324.0047,False
0,1.08889,0.1239236,-0.6125555,-0.1769112,-1.537492,1.428116,-2.634651,0.7052506,1.194617,0.4334588,-1.300926,-0.02457086,35.6,13.3,-0.3421011,0.06825173,-0.03367514,-0.6088519,-4.577331,-0.1617415,0.739657,1.410889,0.3612576,-0.2052424,0.2761069,-0.1235543,-0.8725879,0.009636248,0.02565849,0.7920735,1.461753,0.1915157,0.4026106,1.159758,0.3849638,281.5697,297.7108,325.7677,False
0,1.100002,0.1580042,-0.6092386,-0.1630782,-1.533117,1.433129,-2.637599,0.703407,1.194769,0.4342282,-1.300651,0.02527166,35.6,13.3,-0.3275301,0.1412474,0.01902876,-0.6075438,-4.570004,-0.1647333,0.7376787,1.410853,0.3614998,-0.2031015,0.2782273,-0.1225087,-0.8738194,0.01365256,0.02527633,0.7908612,1.46169,0.1920049,0.4010201,1.15872,0.3839664,281.6091,295.5149,327.5555,False
0,1.111113,0.1824686,-0.5889179,-0.1546387,-1.529088,1.43754,-2.640663,0.7016037,1.194853,0.4349508,-1.300845,-0.01829603,35.6,13.3,-0.3199175,0.1752805,0.02245272,-0.6076944,-4.564443,-0.1660326,0.7356546,1.41076,0.3617594,-0.2094591,0.2771798,-0.1181941,-0.8749123,0.01760136,0.02525183,0.7895576,1.461611,0.1924231,0.3994106,1.157607,0.3829645,281.6787,293.3656,329.2884,False
0,1.122224,0.212185,-0.5291058,-0.1314443,-1.526667,1.440542,-2.644139,0.6997368,1.194898,0.4354768,-1.300872,-0.002539464,33.9,10.1,-0.3021128,0.1862084,-0.01915029,-0.609768,-4.561162,-0.1659243,0.7337753,1.410573,0.3620324,-0.2124266,0.2633842,-0.08725389,-0.8747802,0.02092006,0.02563026,0.7881973,1.461549,0.1928549,0.3979118,1.156411,0.3819896,281.7753,291.3756,330.8857,False
0,1.133335,0.2323423,-0.483197,-0.1156496,-1.523998,1.443704,-2.647457,0.6979491,1.194902,0.4359648,-1.300642,0.02081812,33.9,10.1,-0.294991,0.1672774,-0.05133464,-0.6115528,-4.559785,-0.1640417,0.7318073,1.410489,0.3623514,-0.2081409,0.2484715,-0.08087856,-0.8754934,0.02391026,0.02584864,0.7869111,1.461392,0.1932223,0.3964801,1.155144,0.3811174,281.9146,289.6572,332.2408,False
0,1.144446,0.2429515,-0.4597193,-0.1104179,-1.521026,1.44703,-2.650669,0.6962866,1.194884,0.4364192,-1.300736,-0.009023125,33.9,10.1,-0.2858361,0.1217008,-0.08269751,-0.6135183,-4.560726,-0.1603745,0.7299409,1.41038,0.3626266,-0.1942341,0.2260894,-0.06817724,-0.8757603,0.02616343,0.02609871,0.7855783,1.461286,0.1935465,0.395045,1.153821,0.3804269,282.0931,288.2284,333.3581,False
0,1.155557,0.2482142,-0.4298449,-0.1020128,-1.518445,1.449996,-2.653632,0.6947702,1.194885,0.436938,-1.300253,0.04394634,33.9,10.1,-0.2593008,0.08429676,-0.08005071,-0.614215,-4.561193,-0.1582227,0.7279906,1.410201,0.362874,-0.1793006,0.2122209,-0.06296008,-0.8763659,0.02875881,0.02589631,0.7842333,1.461233,0.1939464,0.3935414,1.152466,0.3799814,282.3023,287.25,334.1256,False
0,1.166668,0.2513734,-0.4095342,-0.0861151,-1.516209,1.45327,-2.656737,0.6932356,1.194724,0.4373085,-1.299794,0.04143828,33.9,10.1,-0.2293231,0.08938958,-0.06534392,-0.6146799,-4.559082,-0.1584112,0.725965,1.410114,0.3631172,-0.1792473,0.2122304,-0.05656853,-0.8767259,0.03186006,0.02591575,0.7828967,1.461142,0.1942954,0.3920678,1.151073,0.379744,282.507,286.3358,334.9389,False
0,1.17778,0.2609389,-0.3956195,-0.07551736,-1.513915,1.456561,-2.660242,0.6916114,1.194668,0.4377861,-1.299287,0.04587509,29.3,6.6,-0.2216775,0.1180464,-0.05557311,-0.6153596,-4.555042,-0.1594403,0.7239971,1.409894,0.3632381,-0.1768969,0.2122574,-0.03102597,-0.8761587,0.03491644,0.02584331,0.7815846,1.461022,0.194644,0.3907292,1.149653,0.379638,282.7169,285.3622,335.8576,False
0,1.188891,0.2726265,-0.3784675,-0.0542807,-1.512426,1.459814,-2.663864,0.6901612,1.194397,0.4381223,-1.299179,0.009319294,29.3,6.6,-0.2204543,0.1456816,-0.04895242,-0.6160818,-4.550875,-0.1603899,0.7220549,1.409659,0.3633664,-0.1746633,0.203749,-0.01718121,-0.8758152,0.03737667,0.02605157,0.7802356,1.460941,0.1950369,0.3895389,1.148246,0.379615,282.9394,284.5339,336.6499,False
0,1.200002,0.2842952,-0.349602,-0.03308991,-1.511369,1.462602,-2.667524,0.6887374,1.1941,0.4383659,-1.299407,-0.0209472,29.3,6.6,-0.2172791,0.1521069,-0.05425094,-0.617146,-4.547906,-0.1605258,0.7202165,1.409446,0.3635399,-0.1692667,0.195231,-0.006560122,-0.8754567,0.03973756,0.02620817,0.7789878,1.460814,0.195318,0.388409,1.14687,0.3795904,283.1424,283.9016,337.279,False
0,1.211113,0.2948968,-0.3218504,-0.02467959,-1.510262,1.464884,-2.67127,0.6873811,1.193769,0.4386411,-1.29938,0.002552085,29.3,6.6,-0.2120079,0.1499976,-0.05964148,-0.6182342,-4.545642,-0.1601947,0.7184149,1.409193,0.3637037,-0.1693037,0.1930927,-0.01081589,-0.8756596,0.04239713,0.02633094,0.7776254,1.460755,0.1955678,0.3872789,1.145524,0.3794972,283.3194,283.3206,337.8374,False
0,1.222224,0.3086045,-0.2503971,-0.01218279,-1.510392,1.465281,-2.675029,0.6862249,1.193295,0.4387422,-1.299266,0.01028198,29.3,6.6,-0.1887199,0.1308143,-0.06958763,-0.6193868,-4.544764,-0.1597417,0.7165896,1.408939,0.3637578,-0.1578519,0.1813034,-0.03965586,-0.8770583,0.04444842,0.02636183,0.776279,1.460594,0.1957924,0.3862141,1.144165,0.3792696,283.4678,282.9608,338.1581,False
0,1.233335,0.3138647,-0.2173498,-0.01018893,-1.509653,1.466422,-2.678644,0.6849786,1.192937,0.4389677,-1.299208,0.005091873,23.3,3.8,-0.1612653,0.1170501,-0.09230937,-0.6212601,-4.544003,-0.1594898,0.7148266,1.408663,0.364023,-0.1599182,0.1845119,-0.03325591,-0.8771435,0.04725686,0.02637941,0.7750126,1.46056,0.1962154,0.3851838,1.142761,0.3788897,283.62,282.6305,338.3998,False
0,1.244446,0.3265651,-0.1725455,-0.0007818788,-1.509829,1.466859,-2.682729,0.6839781,1.192532,0.4391239,-1.299177,0.002604782,23.3,3.8,-0.1390059,0.1256352,-0.1094686,-0.6233197,-4.541711,-0.1605681,0.7130662,1.408404,0.364224,-0.1545093,0.1898395,-0.02478629,-0.8770567,0.05024293,0.02598073,0.7736634,1.46048,0.1965032,0.3841929,1.141287,0.3784157,283.7877,282.2294,338.63,False
0,1.255558,0.3382249,-0.1415991,0.006551515,-1.509822,1.467634,-2.686916,0.6829019,1.192184,0.4392998,-1.298849,0.02992527,23.3,3.8,-0.1121733,0.1520716,-0.09774153,-0.6242828,-4.537299,-0.163725,0.7113341,1.408176,0.3643281,-0.1448218,0.1823862,-0.01101014,-0.8767568,0.05262939,0.02576528,0.7722671,1.460459,0.1967196,0.383243,1.139737,0.3779809,283.9878,281.9537,338.7063,False
0,1.266669,0.3562831,-0.1138679,0.006438998,-1.509759,1.467989,-2.691515,0.6819466,1.191865,0.4394271,-1.299196,-0.03213769,23.3,3.8,-0.09595898,0.1763672,-0.08062346,-0.6250476,-4.532633,-0.1670036,0.7096508,1.407962,0.3644516,-0.131874,0.164284,0.0134158,-0.875698,0.0542402,0.0257794,0.7708791,1.460471,0.1969359,0.3823237,1.138126,0.3776624,284.2316,281.5786,338.9087,False
0,1.27778,0.3668931,-0.08936679,-5.178456E-05,-1.509458,1.468105,-2.695974,0.6810674,1.191557,0.4394443,-1.299184,0.0013566,17.8,3.7,-0.08212389,0.1677731,-0.07868235,-0.6261241,-4.530329,-0.1683842,0.7080585,1.407857,0.3645918,-0.1223357,0.1504082,0.01122302,-0.8756911,0.05577445,0.02587075,0.7696222,1.460456,0.1971571,0.3815233,1.136477,0.3775078,284.4999,281.3853,338.9962,False
0,1.288891,0.3647283,-0.0702012,-0.002260519,-1.509292,1.468181,-2.69995,0.6801475,1.19127,0.439513,-1.29946,-0.02533535,17.8,3.7,-0.05552229,0.133487,-0.06747998,-0.6265305,-4.530101,-0.1688404,0.7064935,1.407785,0.3647723,-0.1149281,0.1354741,0.009053584,-0.8756697,0.05706196,0.02605797,0.7683119,1.460382,0.1973407,0.3807912,1.134806,0.3775139,284.7802,281.2706,339.0876,False
0,1.300002,0.3710674,-0.0435771,-0.007694459,-1.509241,1.467621,-2.704147,0.6793822,1.191051,0.4396055,-1.299202,0.02362976,17.8,3.7,-0.03435262,0.1239285,-0.08051914,-0.6279542,-4.528726,-0.1704181,0.704933,1.407699,0.3649471,-0.1086398,0.1173373,0.0005030194,-0.875968,0.05795372,0.02637595,0.7670647,1.460344,0.1974781,0.3801535,1.133112,0.3776577,285.0503,281.1751,339.226,False
0,1.311113,0.3721102,-0.0297388,-0.009878928,-1.509119,1.46758,-2.708332,0.6784562,1.190789,0.4397581,-1.298551,0.05917751,17.8,3.7,-0.02690089,0.1142865,-0.07746828,-0.6288581,-4.527265,-0.1715499,0.7032435,1.407573,0.3651431,-0.1033264,0.1098623,0.001540767,-0.8757869,0.05914894,0.02666064,0.7656655,1.460261,0.197701,0.379572,1.131399,0.377905,285.3236,281.0873,339.399,False
0,1.322224,0.3603814,-0.02447268,-0.01948706,-1.508616,1.467407,-2.711912,0.6778153,1.190775,0.439774,-1.298648,-0.009385443,17.8,3.7,-0.02981015,0.1236302,-0.04753342,-0.6286573,-4.524268,-0.1735193,0.7019407,1.40757,0.3651915,-0.08090024,0.08639623,0.014173,-0.8751861,0.05939621,0.0265677,0.764419,1.460255,0.1977632,0.3789783,1.129704,0.3782285,285.6325,281.0173,339.552,False
0,1.333336,0.3550781,-0.03410674,-0.02903259,-1.507775,1.467813,-2.715829,0.6770526,1.190658,0.4398425,-1.298549,0.009104101,13.4,8.6,-0.02333604,0.114965,-0.03381226,-0.6287563,-4.522553,-0.1748176,0.7004859,1.407554,0.365257,-0.07448822,0.06615209,0.02160597,-0.8747126,0.05946639,0.02712137,0.7631032,1.460276,0.1978457,0.378394,1.128073,0.3786233,285.94,280.9597,339.6846,False
0,1.344447,0.3401929,-0.05016942,-0.04281631,-1.506431,1.468418,-2.719137,0.6763924,1.19058,0.439991,-1.297889,0.06022822,13.4,8.6,-0.02134492,0.0840793,-0.03622356,-0.6292197,-4.522963,-0.174232,0.6992548,1.407523,0.3652987,-0.06600719,0.04376303,0.0226329,-0.8744586,0.05905453,0.02786732,0.7618898,1.460219,0.1978333,0.3778057,1.126522,0.3790516,286.2351,280.9239,339.8224,False
0,1.355558,0.3263719,-0.06622669,-0.05659876,-1.50497,1.469077,-2.722358,0.6758409,1.190589,0.4402161,-1.298101,-0.01989701,13.4,8.6,-0.0002267584,0.05104124,-0.04414077,-0.6299026,-4.524118,-0.1739721,0.6980227,1.407375,0.365308,-0.059631,0.03202786,0.02366557,-0.8741592,0.05904934,0.0283347,0.7607648,1.46014,0.1977789,0.3773212,1.125104,0.3794448,286.5323,280.7928,340.0841,False
0,1.366669,0.3093683,-0.08862103,-0.05437697,-1.50381,1.470423,-2.725372,0.6751596,1.190517,0.4405179,-1.297524,0.05299116,13.4,8.6,0.01996271,0.05744472,-0.05384389,-0.6309881,-4.522743,-0.1760291,0.6967654,1.407256,0.3653829,-0.05007061,0.02561003,0.02146228,-0.8740036,0.05914455,0.02845881,0.7596858,1.460062,0.1978004,0.3771627,1.12438,0.3796734,286.7504,281.5574,339.2495,False
0,1.37778,0.3008703,-0.102481,-0.05325126,-1.502713,1.471706,-2.728528,0.6744185,1.19034,0.4408209,-1.297408,0.01016115,11,15.4,0.02631649,0.06601322,-0.06234995,-0.632179,-4.521337,-0.1776472,0.6954476,1.407152,0.3654594,-0.04684237,0.01922113,0.02676859,-0.8735674,0.05918662,0.02881407,0.7585341,1.459926,0.1977854,0.3771548,1.124103,0.3797428,286.6934,281.7291,338.9861,False
0,1.388891,0.290248,-0.1195435,-0.05317761,-1.501475,1.473179,-2.731501,0.6736963,1.190385,0.4411235,-1.297225,0.01680544,11,15.4,0.03504564,0.0785991,-0.0431385,-0.6322142,-4.51912,-0.1800827,0.6944118,1.407112,0.3654811,-0.04156577,0.004291974,0.02461808,-0.8733368,0.05857689,0.02949185,0.7574149,1.459931,0.1977334,0.3769947,1.123975,0.3797199,286.4427,281.7314,338.9241,False
0,1.400002,0.2796165,-0.1313072,-0.05952157,-1.499915,1.474548,-2.734333,0.6730372,1.190467,0.441479,-1.297432,-0.01911509,11,15.4,0.03938217,0.06888565,-0.02940849,-0.6321519,-4.518161,-0.1813788,0.6934406,1.407141,0.3654406,-0.03094314,-0.004259286,0.02347745,-0.8731381,0.05805878,0.029829,0.7562863,1.45985,0.1977108,0.3768696,1.123797,0.3798011,286.3188,282.0496,338.5048,False
0,1.411114,0.2615409,-0.1505945,-0.07968225,-1.497644,1.475977,-2.736757,0.6724913,1.190651,0.4418037,-1.297341,0.008594679,11,15.4,0.03915939,0.0263442,-0.03723487,-0.6327591,-4.520164,-0.180178,0.6925334,1.407171,0.3654575,-0.02465846,-0.01707359,0.01385739,-0.8733091,0.05722627,0.03043008,0.7552409,1.459857,0.1977034,0.3764729,1.123658,0.3797525,286.1793,281.9049,338.568,False
0,1.422225,0.2392361,-0.1869414,-0.1008415,-1.494699,1.478267,-2.73884,0.6718251,1.190905,0.4421813,-1.297273,0.006192192,11,15.4,0.04326079,-0.01200279,-0.03972256,-0.6329716,-4.522623,-0.1788377,0.6916553,1.407238,0.3654265,-0.02368803,-0.02455596,0.004273898,-0.8735935,0.0564465,0.0311992,0.7544,1.459874,0.1976538,0.3761135,1.123531,0.3797089,286.1014,281.7377,338.6316,False
0,1.433336,0.2275826,-0.2211409,-0.1220153,-1.491356,1.480772,-2.74128,0.6711393,1.191166,0.4425225,-1.296951,0.02946664,6.1,23.6,0.04965839,-0.0237944,-0.03455622,-0.6331303,-4.523717,-0.1788046,0.6907299,1.407302,0.365449,-0.02688824,-0.03201067,0.005380041,-0.8734226,0.0555803,0.03214169,0.7533533,1.459834,0.1976347,0.375882,1.123421,0.3796865,286.1288,281.5826,338.6177,False
0,1.444447,0.2084973,-0.2702779,-0.1463195,-1.487195,1.484176,-2.743207,0.6704132,1.191581,0.4429445,-1.296636,0.02864723,6.1,23.6,0.06695049,-0.008070413,-0.01219377,-0.6325822,-4.522833,-0.180892,0.6898846,1.407374,0.3653991,-0.02159124,-0.03735192,0.003213251,-0.8734641,0.05481837,0.03270282,0.7523847,1.459798,0.1975348,0.3757128,1.123292,0.3796455,286.0978,281.6497,338.3577,False
0,1.455558,0.1979247,-0.3087187,-0.1632077,-1.483306,1.487635,-2.745549,0.6697211,1.191969,0.443388,-1.297082,-0.04094985,6.1,23.6,0.07353203,0.0120334,0.001776361,-0.6322387,-4.521029,-0.1833203,0.6889979,1.407442,0.365283,-0.02159402,-0.04906921,0.00536204,-0.8733448,0.05358586,0.03367328,0.7514507,1.459803,0.1973577,0.3755444,1.123237,0.3795822,286.1646,281.1064,338.7399,False
0,1.466669,0.1841322,-0.3396702,-0.1705393,-1.479498,1.491253,-2.747468,0.6689681,1.192409,0.443815,-1.296682,0.03706405,6.1,23.6,0.05779088,0.006499674,0.03275631,-0.6308603,-4.520852,-0.183573,0.6882787,1.407679,0.3651242,-0.01416595,-0.07571434,0.008540157,-0.8731525,0.05130247,0.03502509,0.7506229,1.459791,0.1971552,0.3755287,1.12333,0.3791685,285.908,278.4872,341.1324,False
0,1.47778,0.1724334,-0.3514242,-0.1736827,-1.47602,1.494514,-2.749277,0.6682415,1.192802,0.4443119,-1.297162,-0.04413289,10.6,33.5,0.04399548,-0.008469757,0.04552536,-0.6298829,-4.521603,-0.183013,0.6874701,1.407843,0.3651648,-0.005634528,-0.08957525,0.01275055,-0.8729181,0.04937607,0.03596466,0.7497315,1.459836,0.1970608,0.3755418,1.123326,0.3789588,285.7877,276.918,342.6015,False
0,1.488891,0.1490225,-0.3642677,-0.1789583,-1.472272,1.497752,-2.750471,0.6675189,1.193292,0.4448121,-1.2969,0.02445537,10.6,33.5,0.04077724,-0.03089454,0.0528171,-0.6288384,-4.523338,-0.1819842,0.6868112,1.407965,0.3650572,0.0007636324,-0.08853219,0.01375926,-0.8728196,0.04803823,0.03669836,0.7490195,1.45981,0.1968153,0.3754724,1.123282,0.3789132,285.6954,277.0309,342.4029,False
0,1.500003,0.1287943,-0.3696528,-0.1821208,-1.468731,1.501114,-2.751559,0.6667516,1.193718,0.4451919,-1.296903,-0.0004322289,10.6,33.5,0.03962607,-0.0286612,0.04112576,-0.6287937,-4.523717,-0.1822023,0.686131,1.40802,0.3648677,-0.009966902,-0.09171779,0.005330883,-0.8730907,0.04660172,0.03809705,0.7483427,1.459793,0.1966045,0.3751666,1.123213,0.378946,285.8789,277.9709,341.3233,False
0,1.511114,0.1096313,-0.3718264,-0.1842425,-1.465188,1.504209,-2.752637,0.6660191,1.194161,0.4456453,-1.296433,0.0431055,10.6,33.5,0.04278548,-0.03826021,0.04101977,-0.6281928,-4.524748,-0.1819525,0.6855179,1.408176,0.3647659,-0.01318065,-0.09384699,0.003234085,-0.8731169,0.04508545,0.03927284,0.7475145,1.459788,0.1964195,0.3748296,1.123131,0.3789619,286.0081,279.129,339.983,False
0,1.522225,0.07980587,-0.374077,-0.2002116,-1.461013,1.50713,-2.752852,0.6652672,1.194629,0.4461129,-1.296431,1.68159E-05,10.6,33.5,0.05032125,-0.04585411,0.05367602,-0.6270594,-4.525713,-0.1819775,0.6849312,1.408343,0.3646913,-0.01426259,-0.1055645,0.004319476,-0.8732116,0.04294427,0.04081827,0.7468418,1.459799,0.1961663,0.3742797,1.123087,0.3788574,285.7318,279.8778,339.1111,False
0,1.533336,0.05532401,-0.3816142,-0.208697,-1.456931,1.510355,-2.753114,0.6644927,1.195197,0.4465966,-1.296628,-0.01794102,12.8,46.7,0.04937851,-0.04704779,0.06859037,-0.6256873,-4.52634,-0.1820095,0.6843976,1.408479,0.3645625,-0.008906871,-0.1076972,0.008540465,-0.8729767,0.04137021,0.04174691,0.7460532,1.459673,0.1960211,0.3737797,1.123139,0.3786854,285.9646,279.8418,338.9613,False
0,1.544447,0.02870585,-0.3891765,-0.2225147,-1.452481,1.513464,-2.752952,0.6636139,1.195842,0.4470694,-1.295993,0.05840771,12.8,46.7,0.05061092,-0.04080617,0.08567946,-0.6241123,-4.526248,-0.1827043,0.6838812,1.408645,0.3644431,-0.01627253,-0.1065996,0.01925359,-0.8724207,0.03982318,0.04318449,0.7454156,1.459629,0.1958218,0.3728219,1.123171,0.3784885,285.4707,279.9719,338.8573,False
0,1.555558,0.02125586,-0.3924086,-0.2267578,-1.448452,1.516651,-2.753353,0.6627803,1.19646,0.4475901,-1.296143,-0.01411676,12.8,46.7,0.04214327,-0.03441534,0.08900795,-0.6229911,-4.526244,-0.1829184,0.683408,1.408848,0.3643019,-0.01835056,-0.1140451,0.02780308,-0.8719573,0.03774432,0.04482792,0.7447964,1.459625,0.1955957,0.3720986,1.123256,0.3783659,285.635,279.6301,339.1185,False
0,1.566669,0.01061035,-0.3849714,-0.2182297,-1.445273,1.520191,-2.753772,0.6620039,1.196925,0.447957,-1.295984,0.01489493,12.8,46.7,0.03793556,-0.04514334,0.09960318,-0.621438,-4.527222,-0.1824771,0.6830026,1.409035,0.3641548,-0.01415428,-0.1289765,0.02353096,-0.8719125,0.03517956,0.04645965,0.7442751,1.459578,0.1953359,0.3711777,1.123362,0.3782912,285.3721,279.301,339.3388,False
0,1.577781,-0.004317179,-0.3774956,-0.2065406,-1.442002,1.523171,-2.753604,0.6610773,1.197407,0.4483392,-1.296727,-0.06787103,12.8,46.7,0.02303438,-0.06007449,0.1081216,-0.6198055,-4.528709,-0.1810393,0.6826058,1.409303,0.3640008,-0.01524889,-0.1374994,0.02248892,-0.8717937,0.0328228,0.04822266,0.7438258,1.4595,0.1950097,0.3701637,1.123537,0.3781993,285.2082,278.5468,339.9561,False
0,1.588892,-0.01498671,-0.367915,-0.2023173,-1.438558,1.525953,-2.753476,0.6601676,1.197854,0.4486945,-1.296951,-0.0197835,10.7,56,0.01556278,-0.06751276,0.1091839,-0.618435,-4.530028,-0.1799626,0.6821699,1.409489,0.3638518,-0.01737442,-0.1374917,0.02356929,-0.8715978,0.03085499,0.04980404,0.7432237,1.459534,0.1947496,0.3691908,1.123691,0.378121,285.1257,277.796,340.6107,False
0,1.600003,-0.04806289,-0.3392178,-0.20349,-1.435366,1.5277,-2.752138,0.6592953,1.198303,0.4491296,-1.296588,0.03341006,10.7,56,-0.005804267,-0.06951031,0.1029527,-0.6173357,-4.53113,-0.178337,0.6817289,1.40962,0.3636608,-0.01945899,-0.1332173,0.0278387,-0.8712335,0.02912113,0.05114974,0.7428679,1.459485,0.1945121,0.3683584,1.123804,0.3780009,285.0929,277.0015,341.4251,False
0,1.611114,-0.06195703,-0.3179266,-0.2014435,-1.432266,1.529548,-2.75129,0.6584628,1.198627,0.449445,-1.296761,-0.01600546,10.7,56,-0.02287067,-0.05765308,0.09467744,-0.6164845,-4.53125,-0.1775527,0.6813015,1.409751,0.3635702,-0.01839446,-0.1215081,0.02461579,-0.871136,0.02779355,0.05217532,0.742353,1.459426,0.1943743,0.367677,1.123894,0.3778929,285.2078,276.1189,342.209,False
0,1.622225,-0.08653072,-0.2796054,-0.1973351,-1.429712,1.530416,-2.749645,0.6577053,1.198912,0.4496682,-1.295891,0.07988171,10.7,56,-0.03129822,-0.03739995,0.09705236,-0.6154011,-4.530471,-0.1775583,0.6808684,1.409816,0.3634813,-0.0268619,-0.1044417,0.02679131,-0.8708031,0.02701404,0.05325523,0.7419512,1.459383,0.1942778,0.367009,1.123981,0.3777822,285.2619,275.2614,342.963,False
0,1.633336,-0.1026036,-0.2274061,-0.1890257,-1.42756,1.530613,-2.748158,0.6569939,1.199327,0.4498496,-1.296476,-0.05405911,8.2,60.2,-0.0333152,-0.01932918,0.1025511,-0.6141281,-4.529451,-0.1780273,0.6804732,1.409913,0.3634346,-0.0289222,-0.09377418,0.03318329,-0.8702779,0.02602481,0.05435725,0.7415419,1.459315,0.1941988,0.3662193,1.124117,0.3777114,285.2385,274.376,343.7125,False
0,1.644447,-0.1197257,-0.1869333,-0.1827962,-1.42549,1.530732,-2.746357,0.6564056,1.199604,0.4501009,-1.296108,0.0343851,8.2,60.2,-0.04908472,0.01473598,0.1125635,-0.6128003,-4.526619,-0.1792584,0.6800824,1.410014,0.3633664,-0.03308423,-0.076709,0.04064958,-0.8695658,0.02564784,0.05510799,0.7412368,1.459296,0.1941328,0.3653305,1.124223,0.377807,285.121,271.856,346.3763,False
0,1.655559,-0.1197697,-0.1634677,-0.1754333,-1.423469,1.531087,-2.745093,0.6557467,1.199897,0.4503381,-1.296518,-0.03772441,8.2,60.2,-0.06077063,0.02115763,0.1137784,-0.6116487,-4.525713,-0.1789106,0.6797668,1.410096,0.3632975,-0.03637812,-0.0649988,0.02574039,-0.8698907,0.02530016,0.055814,0.7410104,1.4593,0.1940362,0.3644241,1.124394,0.378177,285.1461,268.9507,349.4308,False
0,1.66667,-0.128337,-0.1357405,-0.1648941,-1.421838,1.531064,-2.743471,0.6551378,1.200245,0.4504733,-1.296468,0.00512767,8.2,60.2,-0.06405896,0.01805583,0.1041911,-0.6108589,-4.52533,-0.1783889,0.6794254,1.410187,0.3632307,-0.04078731,-0.05969176,0.006593091,-0.8705155,0.02468378,0.05680549,0.7406917,1.459273,0.1939685,0.3635353,1.124629,0.3786725,285.2712,266.758,351.7416,False
0,1.677781,-0.1241448,-0.09948675,-0.158651,-1.42033,1.530401,-2.742089,0.6546814,1.200572,0.4506187,-1.297126,-0.06010867,8.2,60.2,-0.05555397,0.02231007,0.1009567,-0.6099635,-4.524479,-0.1786973,0.6791019,1.410297,0.363131,-0.04403035,-0.043715,-0.002988582,-0.8708339,0.02488191,0.05732641,0.7404033,1.459239,0.1939189,0.3627253,1.124837,0.3790773,285.4494,265.4626,353.0726,False
0,1.688892,-0.1210032,-0.06748106,-0.1491891,-1.419195,1.529634,-2.740809,0.6540469,1.200805,0.4508317,-1.297031,0.009247674,10.4,61.2,-0.03861358,0.0223581,0.08802994,-0.6094804,-4.523819,-0.1794646,0.6788544,1.410344,0.3631465,-0.04608348,-0.03411494,0.003406642,-0.8705171,0.0247156,0.05797222,0.7401426,1.459251,0.1938934,0.3620248,1.125023,0.3792446,285.6432,265.6983,352.6993,False
0,1.700003,-0.1221624,-0.01735044,-0.1334106,-1.41895,1.527821,-2.739113,0.6536258,1.200875,0.4510195,-1.297452,-0.03852806,10.4,61.2,-0.01647734,0.008608984,0.06641634,-0.6094421,-4.524453,-0.1794635,0.6786546,1.410396,0.3631375,-0.03961917,-0.03305238,0.01187144,-0.8701304,0.02419402,0.05852776,0.7399734,1.45931,0.1938508,0.3614885,1.125145,0.3792642,285.9146,265.5255,352.7575,False
