loc,t,aDotUA,bDotUA,gDotUA,aUA,bUA,gUA,xUA,yUA,zUA,qE,qDotE,emgA,emgB,aDotSH,bDotSH,gDotSH,aSH,bSH,gSH,xSH,ySH,zSH,aDotUB,bDotUB,gDotUB,aUB,bUB,gUB,xUB,yUB,zUB,xHand,yHand,zHand,aHand,bHand,gHand,enable
3,0,0.04532759,-0.6182476,0.05053773,-1.509671,-4.344324,3.103014,0.6857516,1.182288,0.4494188,-1.406248,-0.004696668,1.3,4.3,-0.1295108,0.2494701,-0.01482211,-0.7375119,-4.169617,-0.3640222,0.6747521,1.403369,0.3752246,-0.06444225,0.1696247,0.1558295,-0.7756606,0.3747817,-0.09965975,0.7590464,1.471161,0.2303262,0.4854327,1.022641,0.2842175,306.3816,253.6294,342.9582,False
3,0.01111111,0.03998214,-0.5970265,0.03339285,-1.509665,-4.338447,3.102401,0.6846442,1.182164,0.4494216,-1.406307,-0.005229936,1.3,4.3,-0.1188407,0.2440702,-0.010706,-0.7384477,-4.166017,-0.365705,0.6739961,1.403235,0.3752203,-0.05815142,0.161075,0.147257,-0.774492,0.3771124,-0.1008728,0.7585112,1.47118,0.2304912,0.4852177,1.022438,0.283189,306.3805,252.9686,343.2936,False
3,0.02222222,0.0346315,-0.5811137,0.02159142,-1.509679,-4.332374,3.101844,0.6836157,1.182064,0.4494131,-1.406195,0.01037214,1.5,3.6,-0.1135138,0.2354917,-0.006566649,-0.739211,-4.162699,-0.3670236,0.6731272,1.40312,0.3752038,-0.05499163,0.1557307,0.144037,-0.7731727,0.3794372,-0.1020907,0.757943,1.471179,0.2306976,0.4851476,1.022155,0.2819579,306.4149,252.5764,343.3186,False
3,0.03333334,0.02929489,-0.5672838,0.01833065,-1.51,-4.326568,3.101346,0.6825621,1.181981,0.4494677,-1.406362,-0.01531868,1.5,3.6,-0.1091372,0.2343009,0.006170815,-0.7396237,-4.158933,-0.3687597,0.6724716,1.403027,0.3752034,-0.05302717,0.1461141,0.1291162,-0.7723657,0.3813651,-0.1029389,0.7575144,1.471161,0.2308581,0.4851944,1.021813,0.2805695,306.487,252.2066,343.2464,False
3,0.04444445,0.01862157,-0.5492238,0.01079172,-1.510121,-4.320981,3.101216,0.6816942,1.181912,0.449501,-1.406397,-0.003025493,1.5,3.6,-0.1090472,0.2267237,0.01996322,-0.7397239,-4.155456,-0.3700066,0.6719596,1.403015,0.3751996,-0.05523258,0.1397049,0.122755,-0.7713601,0.3831843,-0.1035578,0.7570698,1.47116,0.231046,0.4853553,1.021451,0.2791192,306.5692,251.79,343.1795,False
3,0.05555556,0.004757065,-0.5226409,0.003192972,-1.509997,-4.315901,3.101207,0.6809304,1.18198,0.4496651,-1.406433,-0.003234964,1.5,3.6,-0.09721902,0.2084023,0.03994206,-0.7393755,-4.15248,-0.3714151,0.6715446,1.402987,0.3752179,-0.04791383,0.13115,0.1099092,-0.7707571,0.3849716,-0.1046122,0.7567089,1.471179,0.2312593,0.4856113,1.021107,0.2776814,306.6605,251.3757,343.1062,False
3,0.06666667,-0.005910795,-0.5034884,-9.005982E-05,-1.510096,-4.310801,3.101315,0.6800807,1.181986,0.4497724,-1.406163,0.02482497,1.3,2.8,-0.0886506,0.1933586,0.05145512,-0.7391065,-4.149629,-0.372757,0.6710488,1.402943,0.3751931,-0.04282499,0.1193861,0.08750591,-0.7705931,0.3863352,-0.1053464,0.7564204,1.471253,0.2313333,0.4859055,1.020808,0.2763114,306.7507,251.0022,343.0113,False
3,0.07777778,-0.02086579,-0.4747752,-0.007676969,-1.509925,-4.306239,3.101903,0.6793218,1.182049,0.449837,-1.406139,0.002020636,1.2,2.6,-0.07693671,0.1687383,0.0607304,-0.7386442,-4.14747,-0.373911,0.6707124,1.402988,0.3752148,-0.03767885,0.1044345,0.07256357,-0.770346,0.3871879,-0.1056393,0.7561142,1.471229,0.2313652,0.486238,1.020598,0.2750711,306.8316,250.6351,342.9426,False
3,0.08888889,-0.03367257,-0.4450065,-0.01846752,-1.509499,-4.302264,3.102437,0.6786985,1.182104,0.4499295,-1.406128,0.001126837,1.2,2.6,-0.06114424,0.1207411,0.06018263,-0.7379524,-4.147555,-0.3737185,0.6704748,1.403009,0.3752031,-0.01761303,0.06708725,0.06069181,-0.7701228,0.3863048,-0.1056497,0.7559321,1.471293,0.2313592,0.4865533,1.020511,0.2740143,306.9012,250.2732,342.8956,False
3,0.1,-0.04008499,-0.4226835,-0.02604093,-1.50907,-4.2981,3.102798,0.6780319,1.182164,0.4501653,-1.405796,0.03037588,1.2,2.6,-0.05285774,0.08243933,0.05019453,-0.7376967,-4.147975,-0.3730987,0.6701961,1.402968,0.3752875,-0.007015228,0.05108169,0.05848321,-0.7695087,0.3864388,-0.1059978,0.755652,1.471253,0.231477,0.486723,1.020524,0.2731104,306.938,249.9656,342.8719,False
3,0.1111111,-0.0507658,-0.3854511,-0.03580171,-1.508421,-4.295094,3.103544,0.6775449,1.182271,0.4502494,-1.405982,-0.01711426,1.2,2.6,-0.03724897,0.03354053,0.03045755,-0.7376157,-4.149957,-0.3717102,0.6700912,1.403083,0.3754077,-0.003892347,0.03508985,0.05421441,-0.7690538,0.3862489,-0.1059224,0.7554829,1.47126,0.231463,0.4867315,1.02065,0.2723522,306.9368,249.6897,342.895,False
3,0.1222222,-0.05079088,-0.3588545,-0.04231427,-1.507899,-4.291834,3.103924,0.676984,1.182309,0.4502614,-1.406289,-0.0277865,0.8,1.4,-0.03088812,0.02071611,0.03242307,-0.7371513,-4.149842,-0.3716353,0.6698848,1.403095,0.3754621,-0.002889447,0.01589786,0.05103063,-0.7685936,0.3855136,-0.1054356,0.7553619,1.471266,0.2315121,0.486633,1.020899,0.2717617,306.8737,249.4295,342.9456,False
3,0.1333333,-0.04763316,-0.3013334,-0.04365817,-1.507347,-4.290439,3.1042,0.6766483,1.18242,0.4503002,-1.406109,0.01671105,0.8,1.4,-0.02348341,-0.002781793,0.03642073,-0.736339,-4.150604,-0.3710417,0.6698093,1.403155,0.3754697,-0.004148228,0.0009540599,0.03401348,-0.7688046,0.38462,-0.1047158,0.7552991,1.471221,0.2314851,0.4864735,1.021242,0.2713404,306.7662,249.2027,343.0015,False
3,0.1444445,-0.04871526,-0.2736427,-0.04378107,-1.50704,-4.28811,3.104612,0.6762118,1.182462,0.4504061,-1.406526,-0.03821927,0.8,1.4,-0.01921552,-0.02419027,0.04685895,-0.7351059,-4.151427,-0.3702143,0.669704,1.40317,0.3755112,-0.001139377,-0.0001514899,0.01481151,-0.7692274,0.3844266,-0.1047235,0.7553356,1.471262,0.2314899,0.4862373,1.02163,0.2710482,306.651,249.0362,343.0817,False
3,0.1555556,-0.05406062,-0.2416815,-0.04180539,-1.506645,-4.286532,3.105269,0.6759017,1.182545,0.4505036,-1.406857,-0.02987734,0.8,1.4,-0.02139034,-0.03376836,0.04680181,-0.7343752,-4.15198,-0.3693802,0.6695973,1.403187,0.3755789,0.005241243,-0.001238922,0.01367963,-0.769147,0.3842248,-0.1048918,0.7552918,1.471174,0.2314568,0.4859402,1.022012,0.2708222,306.5295,248.9086,343.1723,False
3,0.1666667,-0.07327953,-0.1947902,-0.03562967,-1.506477,-4.286023,3.106891,0.6758758,1.182689,0.4506617,-1.406726,0.01217783,0.5,1.5,-0.03425601,-0.02188583,0.03317067,-0.7345493,-4.151871,-0.3686358,0.6695917,1.403223,0.3755805,0.01153489,0.00298896,0.002959008,-0.7694458,0.384333,-0.1053112,0.755267,1.471215,0.2314801,0.4856481,1.022368,0.270688,306.4169,248.8289,343.2225,False
3,0.1777778,-0.0882247,-0.1585509,-0.03047365,-1.506281,-4.285423,3.108378,0.6758955,1.183002,0.4509892,-1.406545,0.0164628,0.5,1.6,-0.03527045,-0.008031178,0.03329775,-0.7343289,-4.151057,-0.3687847,0.6696014,1.403374,0.3756287,0.007232708,0.002986759,-0.001262561,-0.7696221,0.3842611,-0.105189,0.7552239,1.471214,0.2315366,0.4853872,1.022658,0.2706048,306.3242,248.7494,343.2786,False
3,0.1888889,-0.09889705,-0.1297954,-0.03060619,-1.505965,-4.284905,3.109797,0.6759728,1.183219,0.4512138,-1.405709,0.07643877,0.5,1.6,-0.02014093,-0.0008010436,0.05346074,-0.7332524,-4.150042,-0.3698204,0.6696988,1.40348,0.375643,0.007026771,-0.001305826,-0.02148884,-0.7704232,0.3838334,-0.1049349,0.7553426,1.471167,0.2315364,0.4852092,1.0229,0.2705736,306.2751,248.679,343.3206,False
3,0.2,-0.06907393,-0.134055,-0.03486196,-1.505369,-4.283187,3.109509,0.6757897,1.183382,0.4513187,-1.405873,-0.01555439,0.5,1.6,-0.01265457,-0.006200785,0.05866872,-0.73243,-4.150089,-0.3699267,0.6698066,1.403647,0.3756404,0.01222054,-0.0173235,-0.03217243,-0.7710325,0.3824514,-0.1043163,0.7554725,1.471125,0.2314506,0.4851537,1.02318,0.2706337,306.2983,248.6367,343.326,False
3,0.2111111,0.06729969,-0.1627969,-0.04967465,-1.504469,-4.280316,3.103777,0.6757647,1.183611,0.451426,-1.406111,-0.02148545,0.5,1.6,0.002421048,-0.0256465,0.08393518,-0.7303559,-4.150456,-0.3702518,0.670081,1.403831,0.3756614,0.02056117,-0.03014655,-0.048216,-0.7720248,0.3811972,-0.1039432,0.7555573,1.471116,0.2314157,0.4851985,1.023578,0.2707916,306.3326,248.5733,343.3531,False
3,0.2222222,0.1099026,-0.1585367,-0.0561079,-1.503499,-4.278638,3.101163,0.675996,1.183917,0.4515243,-1.407828,-0.1567784,0.3,2.6,0.03658596,-0.06326686,0.1078047,-0.7278057,-4.152278,-0.3703746,0.6704046,1.404049,0.3756754,0.02995084,-0.04298121,-0.06640124,-0.7732536,0.3795644,-0.1034723,0.7556885,1.471097,0.2313972,0.4852123,1.024066,0.2709576,306.3041,248.5023,343.4339,False
3,0.2333333,0.08856338,-0.1041646,-0.04464179,-1.503362,-4.279291,3.101015,0.6764561,1.184379,0.451849,-1.413167,-0.486907,0.4,2.4,0.06294361,-0.1026703,0.09444159,-0.7264411,-4.155346,-0.3696294,0.6707265,1.404232,0.3757927,0.04275145,-0.03342491,-0.06654216,-0.7739791,0.3792816,-0.1041421,0.7557856,1.471033,0.231365,0.4852318,1.024569,0.2710525,306.1723,248.3901,343.5888,False
3,0.2444444,0.04804332,-0.06477793,-0.04588191,-1.502758,-4.279921,3.10217,0.6770447,1.185023,0.4524527,-1.410214,0.2736737,0.4,2.4,0.06901606,-0.1323449,0.07283265,-0.7254813,-4.158819,-0.3678555,0.671023,1.404448,0.3758717,0.05025753,-0.03024122,-0.06234877,-0.774312,0.3788556,-0.1046803,0.7559202,1.471062,0.231293,0.4856954,1.024913,0.2711839,305.8829,248.2639,343.7249,False
3,0.2555556,-0.2556994,0.1320001,-0.06803951,-1.500871,-4.288095,3.116135,0.6780093,1.185603,0.4531949,-1.407111,0.2806135,0.4,2.4,0.06975483,-0.17802,0.05645497,-0.7242829,-4.163939,-0.3647468,0.6714041,1.404791,0.3760574,0.05768967,-0.03878501,-0.06347959,-0.7750374,0.3775653,-0.1046865,0.7560818,1.471038,0.2311883,0.4865464,1.024869,0.271356,305.8102,248.188,343.7063,False
3,0.2666667,-0.3281656,0.1994087,0.004105657,-1.503649,-4.292614,3.122466,0.6786563,1.185811,0.4532471,-1.405435,0.1509836,0.4,2.4,0.08474907,-0.208088,0.07737593,-0.7215675,-4.167902,-0.3632032,0.6719645,1.405352,0.3761039,0.05437224,-0.05264366,-0.07301372,-0.7760393,0.3758022,-0.1038857,0.75626,1.47099,0.2310736,0.4875685,1.024545,0.2716452,306.0799,248.1299,343.5761,False
3,0.2777778,-0.3356483,0.2238499,-0.006673835,-1.502897,-4.295243,3.126019,0.6790969,1.186386,0.4538786,-1.393515,1.089208,1.5,2.2,0.09575225,-0.2127153,0.1166476,-0.7184197,-4.169776,-0.3632355,0.6724719,1.405751,0.3761702,0.05628173,-0.09208796,-0.08789647,-0.7773176,0.3722556,-0.1020435,0.7565624,1.471013,0.2308762,0.4884658,1.024173,0.272161,306.5234,247.9487,343.4626,False
3,0.2888889,-0.294121,0.2569071,-0.005780756,-1.502791,-4.299338,3.128167,0.6795309,1.18694,0.4542804,-1.400612,-0.6574262,1.5,2.2,0.12837,-0.2080909,0.1856347,-0.7134966,-4.170423,-0.365281,0.6731147,1.406157,0.3761384,0.06350975,-0.1347354,-0.1028217,-0.778638,0.3678752,-0.09985895,0.7568549,1.471016,0.2306476,0.4882021,1.02421,0.2728736,307.25,247.9893,343.3157,False
3,0.3,-0.2930558,0.2525883,-0.01748121,-1.502054,-4.301922,3.131468,0.6801036,1.187589,0.454263,-1.405098,-0.4025356,1.5,2.2,0.1413708,-0.2051238,0.2068403,-0.7101048,-4.171968,-0.3662195,0.6737705,1.406466,0.3761828,0.07087332,-0.1635235,-0.1071231,-0.7797592,0.3638583,-0.09808076,0.7572705,1.47097,0.2303901,0.4870234,1.025277,0.2737218,307.4958,248.362,343.3361,False
3,0.3111111,-0.2887834,0.2290704,-0.03548423,-1.501001,-4.303668,3.134681,0.6805971,1.188268,0.4544504,-1.407315,-0.1997422,1.5,2.2,0.1464916,-0.2199235,0.1906882,-0.7075779,-4.175362,-0.365493,0.6745433,1.406811,0.3762507,0.0782657,-0.1805873,-0.1103674,-0.7808474,0.3599928,-0.09646396,0.7575653,1.470932,0.2301834,0.4855985,1.027413,0.2747782,307.1008,248.5753,343.5746,False
3,0.3222222,-0.3047642,0.2247192,-0.05144392,-1.49987,-4.305981,3.138798,0.6813667,1.1888,0.4545596,-1.406335,0.09104013,2.5,1.5,0.151923,-0.2906984,0.1165323,-0.7067928,-4.183962,-0.360722,0.6754349,1.407137,0.3763735,0.1005915,-0.1902333,-0.1137755,-0.7820884,0.3562493,-0.09576701,0.7580273,1.470947,0.229887,0.4841511,1.030252,0.2759949,306.2706,248.9446,343.7113,False
3,0.3333333,-0.3473721,0.2054045,-0.0758487,-1.498235,-4.307785,-3.138991,0.6822412,1.189389,0.4546497,-1.406286,0.003567772,2.6,1.6,0.1588778,-0.3362364,0.08092965,-0.7051571,-4.191551,-0.3569605,0.6762372,1.407491,0.3764431,0.1057927,-0.2009118,-0.1244648,-0.7836117,0.3523096,-0.09433848,0.75845,1.470928,0.2296207,0.4828445,1.033362,0.2771688,305.3271,249.3365,343.8907,False
3,0.3444445,-0.3686746,0.1946626,-0.09177348,-1.496661,-4.309612,-3.133966,0.6828336,1.189941,0.4547865,-1.405542,0.06815925,2.6,1.6,0.1669745,-0.3786488,0.05279802,-0.7034868,-4.199953,-0.3526545,0.6771864,1.407865,0.3764541,0.1012672,-0.219047,-0.1478357,-0.7859063,0.3476075,-0.09192699,0.7589185,1.470937,0.229378,0.481816,1.036392,0.2781484,304.4296,249.5989,344.0832,False
3,0.3555556,-0.3995638,0.1871296,-0.103452,-1.495036,-4.311408,-3.128374,0.6834316,1.190451,0.4549344,-1.404343,0.1091973,2.6,1.6,0.1648921,-0.3829634,0.06024131,-0.7010931,-4.205522,-0.3500613,0.6780478,1.408311,0.3763812,0.09684218,-0.23398,-0.1616246,-0.787918,0.3427713,-0.08942842,0.7594559,1.470826,0.2289541,0.4811336,1.039084,0.2788592,303.6847,249.7767,344.2289,False
3,0.3666667,-0.4390056,0.2116395,-0.09610065,-1.494223,-4.314575,-3.121845,0.6842291,1.190862,0.4549747,-1.404864,-0.04837882,2.6,1.6,0.156729,-0.356532,0.08823797,-0.6982148,-4.209126,-0.3488115,0.6789441,1.408739,0.3763118,0.1010454,-0.2457073,-0.1648436,-0.7894999,0.3381763,-0.0874156,0.7600274,1.470783,0.2286291,0.4807353,1.041329,0.2792457,303.1884,249.7859,344.3745,False
3,0.3777778,-0.4613835,0.2254919,-0.09296701,-1.493325,-4.317699,-3.115828,0.6848735,1.191294,0.4549966,-1.40466,0.0193846,2.8,1.5,0.14975,-0.3184536,0.1237809,-0.6950099,-4.211276,-0.3487042,0.6799977,1.409264,0.3762131,0.1019687,-0.260644,-0.1765499,-0.791549,0.3330607,-0.08500996,0.7606143,1.470783,0.2282133,0.4804625,1.043124,0.2793238,302.8897,249.6689,344.4672,False
3,0.3888889,-0.4560649,0.2307881,-0.09938553,-1.492088,-4.320409,-3.110693,0.68537,1.191798,0.4549396,-1.404102,0.05109245,2.8,1.5,0.1531502,-0.3090303,0.14194,-0.6918845,-4.214716,-0.3478669,0.6809569,1.409701,0.3761373,0.09866911,-0.2819526,-0.1828794,-0.7934633,0.3274118,-0.08201338,0.7612088,1.470728,0.2278483,0.4802575,1.044571,0.2792089,302.7274,249.5355,344.4917,False
3,0.4,-0.4454174,0.2361388,-0.09515804,-1.491109,-4.323124,-3.105967,0.685871,1.192206,0.454936,-1.404871,-0.07047318,2.8,1.5,0.1565719,-0.3145849,0.1684848,-0.6882418,-4.218717,-0.3466767,0.6820225,1.410126,0.3761666,0.1017975,-0.2862267,-0.1892996,-0.7955352,0.3226293,-0.07993717,0.761817,1.470609,0.227525,0.4800343,1.045844,0.2790258,302.6593,249.5,344.4345,False
3,0.4111111,-0.4368942,0.235084,-0.09408986,-1.490201,-4.325755,-3.101182,0.6863098,1.192633,0.4548936,-1.406068,-0.1086383,2.8,1.5,0.1608226,-0.3274199,0.1725991,-0.684899,-4.223717,-0.3447603,0.6831297,1.410555,0.3761213,0.1028482,-0.2883609,-0.1903722,-0.7974309,0.3178275,-0.07775924,0.7624518,1.470538,0.2271404,0.479707,1.047107,0.278864,302.6026,249.4522,344.4296,False
3,0.4222222,-0.427301,0.2254436,-0.1057717,-1.488625,-4.327909,-3.096615,0.6866705,1.193044,0.4547529,-1.406738,-0.06034257,3.4,2.4,0.1657487,-0.3655592,0.1445276,-0.6826358,-4.231536,-0.3407994,0.6843717,1.410976,0.3761113,0.1080617,-0.3001053,-0.1999965,-0.7996653,0.3123768,-0.0753616,0.7631606,1.470377,0.2267201,0.4792683,1.048464,0.2787974,302.4733,249.3697,344.5027,False
3,0.4333333,-0.4155731,0.2147419,-0.119577,-1.48689,-4.330108,-3.092316,0.6870198,1.193469,0.4545913,-1.406792,-0.004437711,3.3,2.5,0.1557204,-0.410011,0.1144097,-0.6805063,-4.240336,-0.3354321,0.6855401,1.411388,0.3760834,0.1068092,-0.3171761,-0.2159446,-0.8023364,0.3062627,-0.07225795,0.76394,1.470241,0.226234,0.4787472,1.049942,0.2788888,302.2438,249.3573,344.56,False
3,0.4444444,-0.4081111,0.2008095,-0.1386897,-1.484819,-4.331961,-3.087922,0.6873277,1.193771,0.4544365,-1.406995,-0.0185654,3.3,2.5,0.1404266,-0.4470233,0.08867125,-0.678435,-4.249643,-0.3292269,0.6867124,1.411739,0.3760169,0.1087715,-0.329985,-0.2298013,-0.8050991,0.3003622,-0.06932128,0.7646542,1.470202,0.2256687,0.4781158,1.051515,0.2791231,301.9534,249.3958,344.6523,False
3,0.4555556,-0.4017273,0.1954493,-0.1471948,-1.482992,-4.33408,-3.083341,0.6876569,1.194099,0.4542603,-1.407289,-0.0267888,3.3,2.5,0.1221244,-0.4531858,0.06961546,-0.6765441,-4.257216,-0.3242223,0.6878711,1.412069,0.3758743,0.104378,-0.3299932,-0.2436084,-0.8079562,0.2951479,-0.06676891,0.765511,1.470077,0.2252614,0.4773772,1.053132,0.2794483,301.6199,249.3878,344.8561,False
3,0.4666667,-0.3932007,0.1879833,-0.1503581,-1.481345,-4.336061,-3.079061,0.6880022,1.194372,0.4540713,-1.407179,0.01034031,3.3,2.5,0.1124989,-0.4349417,0.05813827,-0.6749403,-4.263486,-0.3202741,0.6889554,1.41238,0.3757584,0.09379634,-0.3203772,-0.2381917,-0.8102066,0.2904535,-0.06423145,0.7662927,1.469932,0.2248151,0.4765818,1.054745,0.2798313,301.2549,249.3537,345.1088,False
3,0.4777778,-0.3846723,0.18374,-0.148212,-1.479912,-4.338101,-3.074898,0.6883246,1.194714,0.4538527,-1.406983,0.01781569,2.4,3.1,0.1083287,-0.4200427,0.06256274,-0.6728349,-4.269258,-0.3168107,0.6900888,1.412693,0.3756797,0.09060204,-0.3150452,-0.2392385,-0.8126812,0.2856609,-0.06188148,0.7670331,1.469875,0.2244482,0.475768,1.056286,0.2802305,300.8854,249.3104,345.369,False
3,0.4888889,-0.3729475,0.1816197,-0.1460684,-1.478576,-4.340119,-3.07096,0.688699,1.194942,0.4536421,-1.407241,-0.02383103,2.4,3.1,0.1011652,-0.397832,0.08518864,-0.6700242,-4.274086,-0.3138988,0.6911316,1.412953,0.375525,0.08418018,-0.3097095,-0.243438,-0.8152639,0.2809088,-0.05938077,0.7679374,1.469847,0.2240431,0.4749814,1.057738,0.280616,300.5627,249.3036,345.5936,False
3,0.5,-0.3708258,0.1870047,-0.13651,-1.477457,-4.342717,-3.066467,0.6893157,1.195144,0.4534299,-1.407374,-0.01190062,2.4,3.1,0.0916414,-0.368983,0.07911749,-0.6684896,-4.278862,-0.3110514,0.6923097,1.413313,0.3753486,0.07779357,-0.3011765,-0.2444568,-0.8179409,0.276394,-0.05695969,0.7686334,1.469732,0.2236843,0.4742745,1.059097,0.2809548,300.2853,249.3182,345.7935,False
3,0.5111111,-0.361246,0.1998094,-0.1333756,-1.476253,-4.345513,-3.062475,0.6898329,1.195358,0.4532034,-1.407563,-0.01725038,2.4,3.1,0.07464214,-0.3411639,0.07311215,-0.6671128,-4.283057,-0.3079773,0.6933165,1.413592,0.3752108,0.07247993,-0.3000994,-0.243341,-0.8204517,0.2716276,-0.05432849,0.769406,1.469613,0.2232671,0.4736665,1.06037,0.2812137,300.048,249.3278,345.9745,False
3,0.5222223,-0.3452725,0.220107,-0.1238829,-1.475469,-4.348798,-3.058882,0.6903268,1.195547,0.4529428,-1.407035,0.04831623,1.6,3.2,0.06834531,-0.3273253,0.07755011,-0.6651192,-4.287534,-0.3050411,0.694432,1.41388,0.375073,0.06289977,-0.2915576,-0.2443175,-0.8229535,0.2673743,-0.05184988,0.7702645,1.469374,0.2227287,0.4732056,1.061559,0.2813976,299.8076,249.3314,346.1239,False
3,0.5333334,-0.3197213,0.2446862,-0.111219,-1.47488,-4.352405,-3.055729,0.6909773,1.195749,0.4527276,-1.407464,-0.03956587,1.5,3.1,0.07704961,-0.3200406,0.09457155,-0.6626296,-4.291904,-0.3027372,0.6955165,1.414149,0.3748806,0.05328247,-0.2862193,-0.2495611,-0.8258058,0.2630049,-0.04933719,0.771246,1.469297,0.2223341,0.4728919,1.062684,0.2815301,299.5993,249.345,346.2255,False
3,0.5444446,-0.2941854,0.2980567,-0.09229659,-1.474862,-4.357465,-3.052735,0.6917301,1.195896,0.4524236,-1.407907,-0.04023944,1.5,3.1,0.08996472,-0.3212644,0.1072246,-0.659942,-4.296906,-0.3004978,0.6966854,1.414458,0.3746698,0.04785609,-0.2840935,-0.2601645,-0.8289589,0.2585567,-0.04666923,0.7720876,1.469153,0.2218993,0.4726058,1.063753,0.2816203,299.4176,249.343,346.3017,False
3,0.5555557,-0.2750303,0.3247351,-0.08497135,-1.474396,-4.36185,-3.049678,0.6922952,1.196055,0.452256,-1.408314,-0.03686564,1.5,3.1,0.08457987,-0.3318788,0.1050637,-0.6576303,-4.302657,-0.2966767,0.6978325,1.414631,0.3744376,0.04671469,-0.2809111,-0.2686818,-0.8320866,0.2541629,-0.04422046,0.7729582,1.46903,0.2214863,0.472306,1.06478,0.2817252,299.2443,249.3937,346.3213,False
3,0.5666668,-0.2622763,0.3759709,-0.0649706,-1.474849,-4.367682,-3.046595,0.6931857,1.196182,0.451937,-1.408498,-0.01671844,1.5,3.1,0.08549064,-0.3488463,0.09532425,-0.6556101,-4.309336,-0.2923751,0.6988626,1.414862,0.3742754,0.04027933,-0.2766451,-0.2739516,-0.8351918,0.2499853,-0.04166808,0.7737718,1.468874,0.2210467,0.4720404,1.065779,0.2819332,299.0647,249.5229,346.291,False
3,0.577778,-0.2548363,0.4165005,-0.05449864,-1.475201,-4.373489,-3.043471,0.6939667,1.196352,0.4517083,-1.408218,0.02558136,1.6,2.3,0.08649574,-0.3306213,0.08161555,-0.6543056,-4.313908,-0.2897439,0.6998262,1.415126,0.3741515,0.03602281,-0.26492,-0.2749956,-0.8382438,0.2463447,-0.03939721,0.7745453,1.468671,0.2205997,0.4717354,1.066726,0.282297,298.8829,249.7371,346.2213,False
3,0.5888891,-0.241019,0.4676927,-0.04408567,-1.475742,-4.380473,-3.040595,0.6950275,1.19646,0.4513268,-1.408137,0.007023837,1.6,2.3,0.08974656,-0.3189246,0.08274905,-0.6524766,-4.318487,-0.2872214,0.7008253,1.415394,0.3739798,0.02648765,-0.2595689,-0.2706484,-0.8410183,0.2425558,-0.0368174,0.7753296,1.468519,0.2201478,0.4713512,1.067611,0.2828403,298.7203,249.9587,346.1955,False
3,0.6000003,-0.2325291,0.5189281,-0.02302068,-1.476844,-4.387715,-3.037509,0.6961936,1.196576,0.4509525,-1.407949,0.0170941,1.6,2.3,0.09759633,-0.2851092,0.1117385,-0.6495801,-4.320849,-0.2866509,0.7016717,1.41566,0.3737431,0.02014813,-0.2520931,-0.2663447,-0.8438823,0.2389286,-0.03440351,0.7762593,1.468352,0.2196822,0.4709361,1.06847,0.283594,298.5859,250.3286,346.119,False
3,0.6111114,-0.2250995,0.5691045,-0.0008889586,-1.478294,-4.395534,-3.034508,0.6974333,1.196538,0.4504356,-1.408155,-0.01912256,1.6,2.3,0.103094,-0.2767331,0.1266706,-0.6470299,-4.32464,-0.2849452,0.7026894,1.415918,0.37356,0.01590338,-0.2446288,-0.2663155,-0.846817,0.2354411,-0.03214462,0.7770578,1.468199,0.2192314,0.4704758,1.069328,0.2845368,298.4655,250.7513,346.0658,False
3,0.6222225,-0.2155357,0.6118076,0.01595701,-1.479831,-4.403572,-3.031697,0.6986352,1.196592,0.4499836,-1.407862,0.02695942,2.2,1.7,0.1074706,-0.2800614,0.1404523,-0.6441819,-4.328781,-0.2829736,0.7036675,1.41619,0.3733382,0.01263416,-0.2478241,-0.2726738,-0.8499761,0.2315805,-0.02957653,0.7778409,1.468062,0.2187128,0.4700473,1.070211,0.2856646,298.324,251.2706,346.0031,False
3,0.6333337,-0.209163,0.6480958,0.02963682,-1.48145,-4.411736,-3.028852,0.6998716,1.196702,0.4496582,-1.40784,0.001702278,2.1,1.8,0.1160493,-0.2929716,0.1519811,-0.6411912,-4.333704,-0.2806064,0.7046283,1.416466,0.373143,0.0104301,-0.251026,-0.2801089,-0.8533152,0.2275936,-0.02706624,0.7786361,1.467948,0.218291,0.4696661,1.071123,0.2869169,298.1675,251.9117,345.8911,False
3,0.6444448,-0.1996048,0.6982945,0.05496958,-1.483902,-4.420972,-3.026117,0.7012764,1.196661,0.4491634,-1.407931,-0.008475356,2.1,1.8,0.1157432,-0.3055273,0.124181,-0.639621,-4.33965,-0.2771219,0.7055749,1.416704,0.3729622,0.009370387,-0.2488898,-0.280107,-0.8563991,0.2239604,-0.02477379,0.7794065,1.467692,0.2178833,0.4692945,1.072038,0.2881985,297.9935,252.6237,345.7398,False
3,0.655556,-0.1879082,0.7388467,0.06862703,-1.486144,-4.430347,-3.023642,0.7026181,1.196685,0.4487095,-1.407797,0.01230394,2.1,1.8,0.1091444,-0.3159939,0.1049718,-0.6381056,-4.345577,-0.2734731,0.7066236,1.41692,0.372761,0.006240726,-0.2488751,-0.273692,-0.859246,0.2201783,-0.02232262,0.7802722,1.467546,0.2174988,0.4689441,1.072958,0.2894711,297.8396,253.3087,345.5636,False
3,0.6666671,-0.1698417,0.8039742,0.09708047,-1.489402,-4.441205,-3.021394,0.7041174,1.196641,0.4480755,-1.407863,-0.006253058,2.1,1.8,0.1046791,-0.3254128,0.08682241,-0.6367208,-4.351803,-0.2694789,0.7075267,1.417156,0.3725636,-0.002283424,-0.2445988,-0.2746799,-0.8622666,0.216702,-0.01976492,0.7810253,1.46738,0.2170484,0.4686389,1.073895,0.2907447,297.6953,254.0056,345.3298,False
3,0.6777782,-0.1613307,0.828514,0.1033694,-1.491996,-4.450742,-3.019175,0.7055501,1.196664,0.4476156,-1.408014,-0.01375147,1.9,1.7,0.1121216,-0.3254242,0.08462834,-0.6347943,-4.357053,-0.266828,0.7083775,1.41735,0.3722992,-0.004424393,-0.2403376,-0.2767986,-0.8653644,0.2133393,-0.01749138,0.7818263,1.467166,0.2165282,0.46836,1.07484,0.2920266,297.5352,254.8224,344.9932,False
3,0.6888894,-0.1549584,0.8605284,0.1149397,-1.494927,-4.46084,-3.016914,0.7070357,1.196641,0.4470134,-1.408224,-0.01925031,1.9,1.6,0.1229284,-0.308501,0.09425908,-0.6327383,-4.361008,-0.2653632,0.7091773,1.417545,0.3720651,-0.0182381,-0.2392398,-0.2734743,-0.868288,0.2099013,-0.01460211,0.7825503,1.466934,0.2160702,0.46808,1.075775,0.2933306,297.3783,255.6829,344.6221,False
3,0.7000005,-0.1517724,0.8744001,0.118075,-1.497604,-4.470692,-3.014595,0.7084945,1.196627,0.4464405,-1.408002,0.02047292,1.9,1.6,0.1145533,-0.2882873,0.1009021,-0.6307319,-4.364406,-0.2636508,0.7101402,1.417723,0.3717494,-0.01818553,-0.2328443,-0.2692228,-0.8710651,0.2067505,-0.01238769,0.7832968,1.466815,0.2155702,0.4678165,1.076687,0.2946917,297.2234,256.6465,344.1841,False
3,0.7111117,-0.1528449,0.8871976,0.1212124,-1.500368,-4.480657,-3.012167,0.7099857,1.196626,0.445745,-1.407822,0.01607889,1.9,1.6,0.1019147,-0.2563,0.1034222,-0.6291186,-4.366629,-0.2625301,0.7109913,1.417969,0.3714314,-0.01804799,-0.2264346,-0.256449,-0.8733752,0.203783,-0.01028539,0.784003,1.466584,0.2151034,0.4676166,1.077558,0.2961027,297.0772,257.534,343.8303,False
3,0.7222228,-0.1443336,0.8988997,0.1168946,-1.50276,-4.490598,-3.010141,0.7114047,1.196564,0.445085,-1.4076,0.02010075,1.9,1.6,0.09889072,-0.2532404,0.1205184,-0.6266157,-4.37042,-0.2604982,0.7117448,1.418239,0.3711269,-0.02227867,-0.2274789,-0.253208,-0.8759765,0.2005997,-0.007864049,0.7846431,1.466349,0.2146146,0.4674494,1.078376,0.2975361,296.9493,258.4327,343.4782,False
3,0.7333339,-0.1390152,0.9116638,0.1125713,-1.505196,-4.500766,-3.008132,0.712841,1.196521,0.4443626,-1.407373,0.02050123,1.5,0.6,0.0970019,-0.2491748,0.1450718,-0.6236021,-4.37361,-0.2588933,0.7126336,1.418526,0.3708253,-0.02870816,-0.2338668,-0.2563377,-0.8789886,0.1968503,-0.004981976,0.7853802,1.466143,0.2140884,0.4673009,1.079147,0.2989718,296.8448,259.3228,343.1415,False
3,0.7444451,-0.1315635,0.9223269,0.1125218,-1.507819,-4.511075,-3.006287,0.7143344,1.196412,0.4436543,-1.407663,-0.02664359,1.5,0.6,0.09494793,-0.2524348,0.1535872,-0.6209512,-4.377541,-0.2567871,0.7135671,1.418747,0.3705206,-0.02662724,-0.2391988,-0.2595571,-0.8820816,0.1932057,-0.002379268,0.7861933,1.466059,0.2135017,0.4671503,1.079886,0.300382,296.7537,260.2022,342.8204,False
3,0.7555562,-0.1241161,0.9382989,0.1103168,-1.510483,-4.521816,-3.004525,0.7157648,1.196336,0.4429214,-1.407633,0.002913546,1.5,0.6,0.09896368,-0.2693303,0.1342271,-0.6193565,-4.383187,-0.2534413,0.7144964,1.418964,0.3702171,-0.02123269,-0.2445261,-0.2521491,-0.8846797,0.1893934,1.118528E-05,0.7869328,1.465913,0.2129734,0.4669885,1.08059,0.3017682,296.6457,261.0399,342.5134,False
3,0.7666674,-0.1304901,0.9383164,0.1156516,-1.513477,-4.531989,-3.002466,0.7171019,1.196157,0.4422708,-1.407692,-0.005549955,1.5,0.6,0.1167747,-0.2969305,0.1135919,-0.6176739,-4.39033,-0.2495052,0.7153035,1.419141,0.3698986,-0.0234248,-0.2477187,-0.2574513,-0.8877749,0.1857916,0.002650378,0.7876642,1.465672,0.2124326,0.4668402,1.081262,0.3031538,296.5371,261.8954,342.1764,False
3,0.7777785,-0.1336785,0.9340534,0.1156734,-1.516183,-4.541967,-3.00035,0.7186518,1.196106,0.4416134,-1.407699,-0.0005724714,1.4,0.2,0.1262491,-0.287246,0.09760787,-0.6163535,-4.394748,-0.2475738,0.7161397,1.419243,0.3695672,-0.02975243,-0.2391761,-0.2531417,-0.8904833,0.1827899,0.005008874,0.788411,1.465392,0.2117298,0.4667266,1.081896,0.3045672,296.4333,262.7923,341.7937,False
3,0.7888896,-0.1485714,0.9010051,0.1126336,-1.518624,-4.550627,-2.997717,0.7199754,1.196116,0.4409182,-1.407264,0.039629,1.2,0.3,0.1270927,-0.2806346,0.07102118,-0.6157846,-4.399635,-0.2450561,0.7169794,1.419457,0.3692825,-0.02432632,-0.2306523,-0.2446838,-0.8929685,0.1798829,0.006927148,0.7891041,1.465166,0.2111933,0.4665946,1.082483,0.3060278,296.3444,263.7101,341.3917,False
3,0.8000008,-0.1570576,0.8721949,0.1053175,-1.520839,-4.559041,-2.995492,0.7213524,1.196077,0.4403276,-1.407079,0.01663115,1.2,0.3,0.1270837,-0.2795697,0.06997619,-0.6140615,-4.404656,-0.2422955,0.717979,1.41971,0.3689384,-0.025334,-0.2295765,-0.239359,-0.8956062,0.1766359,0.00922519,0.7898401,1.464983,0.2107599,0.4664701,1.083037,0.3075363,296.2747,264.6486,340.9909,False
3,0.8111119,-0.1612985,0.8359086,0.09163696,-1.522528,-4.566772,-2.993194,0.7225929,1.196152,0.4396389,-1.406452,0.05719507,1.2,0.3,0.1242084,-0.2809194,0.1051454,-0.6110144,-4.409023,-0.2400046,0.7189047,1.420061,0.3685741,-0.0338372,-0.2306222,-0.2371437,-0.898166,0.1734077,0.01191285,0.7905209,1.464756,0.2102013,0.4664572,1.083611,0.3090729,296.2314,265.5403,340.6745,False
3,0.8222231,-0.1655466,0.8070906,0.08005854,-1.524299,-4.57459,-2.99087,0.723822,1.196416,0.4389288,-1.406796,-0.03188706,1.2,0.3,0.1180667,-0.2789797,0.130794,-0.6080028,-4.413141,-0.2377662,0.7198747,1.420349,0.3682101,-0.03378946,-0.2370053,-0.2318152,-0.9006832,0.1698169,0.0144061,0.7912803,1.464469,0.2096004,0.466475,1.084244,0.3105331,296.1984,266.3339,340.4527,False
3,0.8333342,-0.1655368,0.7857259,0.06737594,-1.525876,-4.582445,-2.988689,0.7250283,1.196541,0.4382923,-1.406757,0.003825627,0.5,0,0.1173219,-0.2856842,0.1680297,-0.6041711,-4.41768,-0.2353084,0.7208408,1.420619,0.367789,-0.02314484,-0.246613,-0.2319139,-0.9033623,0.1659952,0.01650734,0.7919834,1.464261,0.2090683,0.4665444,1.084963,0.3118736,296.1217,267.0613,340.2422,False
3,0.8444453,-0.176169,0.7697348,0.0653266,-1.52779,-4.590269,-2.986134,0.7263007,1.196613,0.4376774,-1.40674,0.001529425,0.5,0,0.1163459,-0.2868265,0.1776226,-0.6011809,-4.422264,-0.2328303,0.7218623,1.420802,0.3674312,-0.01469439,-0.250899,-0.2373152,-0.9061938,0.1623408,0.01877955,0.7927939,1.464111,0.2084193,0.4666089,1.085775,0.3130469,296.0443,267.7214,340.0486,False
3,0.8555565,-0.1942729,0.7537127,0.05901964,-1.529579,-4.597918,-2.983043,0.7275538,1.1967,0.4371057,-1.4069,-0.01458607,0.5,0,0.1183648,-0.292081,0.1679671,-0.5990765,-4.427539,-0.2298396,0.7228475,1.421082,0.3671277,-0.00733009,-0.2562473,-0.2459037,-0.9092879,0.1586854,0.02084589,0.793502,1.463762,0.2076983,0.4666627,1.086708,0.3140641,295.9582,268.3377,339.8269,False
3,0.8666676,-0.2251484,0.7248914,0.04957515,-1.530999,-4.604949,-2.979212,0.7288882,1.196849,0.4366775,-1.406556,0.03157766,0.5,0,0.1362787,-0.3197653,0.1579801,-0.5966738,-4.434728,-0.2260337,0.7238227,1.421202,0.3667893,0.006433725,-0.2648055,-0.2534873,-0.9124597,0.1546606,0.02271969,0.7941105,1.463491,0.2071886,0.4667163,1.087735,0.3149864,295.796,268.9491,339.538,False
3,0.8777788,-0.2357682,0.6854435,0.04337168,-1.532348,-4.61109,-2.976109,0.7300392,1.196965,0.4362431,-1.40602,0.04882124,0.4,0,0.1424304,-0.3334627,0.1365019,-0.5949081,-4.44163,-0.2221955,0.7247177,1.421379,0.3664424,0.01292315,-0.2637329,-0.2450296,-0.9149253,0.1512596,0.02432957,0.7947193,1.463315,0.2068858,0.4667962,1.088821,0.3158801,295.598,269.6096,339.1743,False
3,0.8888899,-0.3134921,0.6107494,0.0277552,-1.532805,-4.615305,-2.969667,0.7310462,1.19738,0.4360561,-1.405314,0.0642485,0.3,0,0.1466345,-0.2917369,0.1133754,-0.5940633,-4.44465,-0.2214607,0.7257711,1.421627,0.3661494,0.02393737,-0.2487929,-0.2110665,-0.9162025,0.1484414,0.02543159,0.7952625,1.463086,0.2063901,0.4669062,1.08995,0.3167958,295.406,270.229,338.8444,False
3,0.900001,-0.3315501,0.5605971,0.01415232,-1.533453,-4.619727,-2.965641,0.7318573,1.19777,0.4357586,-1.406083,-0.07073888,0.3,0,0.1573677,-0.2672747,0.1124149,-0.5923605,-4.447895,-0.2208096,0.7269385,1.422,0.3658323,0.0358423,-0.2541132,-0.1919999,-0.9177658,0.144774,0.02676637,0.7957749,1.462936,0.2057786,0.4670545,1.091149,0.3177622,295.2339,270.7625,338.6058,False
3,0.9111122,-0.3389618,0.4795178,-0.009974621,-1.532982,-4.62227,-2.961527,0.7324682,1.198214,0.4355183,-1.403,0.2826985,0.3,0,0.1746734,-0.2814739,0.1462277,-0.5888547,-4.453108,-0.2190298,0.7282933,1.422432,0.3654497,0.05187196,-0.2871523,-0.1803926,-0.9194329,0.1394002,0.02891021,0.7964023,1.462764,0.2051325,0.4671915,1.092412,0.3187464,295.0477,271.2359,338.4437,False
3,0.9222233,-0.3325304,0.4133234,-0.04161794,-1.532091,-4.624938,-2.95819,0.7329755,1.198533,0.4354393,-1.405381,-0.219969,0.3,0,0.1961103,-0.3404693,0.1838966,-0.5841537,-4.462286,-0.2142947,0.7297121,1.422619,0.3649292,0.06455338,-0.3191563,-0.1868573,-0.9219049,0.1334148,0.03118855,0.7971259,1.462553,0.2044873,0.4671667,1.093846,0.3196629,294.9604,271.5298,338.4412,False
3,0.9333345,-0.3303806,0.3802527,-0.05211918,-1.531714,-4.628141,-2.954475,0.733518,1.198873,0.4352579,-1.405795,-0.03556493,0.2,0,0.204216,-0.4374089,0.1787383,-0.5808967,-4.476019,-0.2053308,0.731234,1.422966,0.3645437,0.09921747,-0.3778809,-0.2265405,-0.926151,0.125577,0.03356275,0.7978969,1.462397,0.203748,0.4669847,1.095527,0.3204695,294.7571,271.8063,338.4462,False
3,0.9444456,-0.3399388,0.3428583,-0.07538154,-1.530636,-4.631116,-2.950377,0.7340932,1.199092,0.4351509,-1.406727,-0.08495707,0.2,0,0.194981,-0.5222477,0.1365603,-0.5790927,-4.491401,-0.1943705,0.7325997,1.423169,0.3641746,0.1171533,-0.390714,-0.2448107,-0.9296153,0.1199417,0.03474546,0.7986887,1.462012,0.2032914,0.4667204,1.09738,0.3211071,294.4017,271.9658,338.5013,False
3,0.9555568,-0.363358,0.2958639,-0.09965193,-1.529246,-4.633307,-2.945375,0.7345306,1.199489,0.4350889,-1.406545,0.01737592,0.2,0,0.1913634,-0.5656819,0.1085289,-0.5773893,-4.505175,-0.1848591,0.7339509,1.423383,0.3638158,0.1255822,-0.3864833,-0.2576883,-0.9330454,0.1150555,0.03577744,0.7993218,1.461908,0.2026021,0.4664383,1.09927,0.3216116,293.9386,272.1003,338.4631,False
3,0.9666679,-0.4048626,0.2136347,-0.1376152,-1.526495,-4.633558,-2.939518,0.7347922,1.199983,0.4350345,-1.406187,0.03254943,0.2,0,0.1792289,-0.5727487,0.06703431,-0.5767496,-4.51733,-0.176313,0.7351205,1.423577,0.3635137,0.1268116,-0.3555818,-0.2470755,-0.9354657,0.1113926,0.03646826,0.7999341,1.461745,0.2021425,0.4661846,1.101076,0.3220549,293.4866,272.2987,338.3248,False
3,0.977779,-0.4261487,0.1730547,-0.1576637,-1.524434,-4.634897,-2.934131,0.7353647,1.200449,0.4348869,-1.405333,0.07790606,0.2,0,0.1632226,-0.5512748,0.05457362,-0.5755736,-4.526711,-0.1698508,0.7363483,1.423842,0.3630602,0.1269036,-0.3449275,-0.2396385,-0.9380591,0.1070296,0.03766961,0.80064,1.461381,0.2013912,0.4659753,1.102715,0.3224949,293.0963,272.3755,338.3022,False
3,0.9888902,-0.4463602,0.115385,-0.1861576,-1.521361,-4.634948,-2.928384,0.7355706,1.201,0.4347873,-1.404513,0.07444017,0.1,0,0.1270468,-0.5041417,0.04038899,-0.5749515,-4.534183,-0.1637932,0.7373817,1.424095,0.3626366,0.1220056,-0.3054613,-0.2034035,-0.9389315,0.1043344,0.03805151,0.8011115,1.461474,0.2006958,0.4657374,1.104209,0.322924,292.8344,272.2506,338.5155,False
3,1.000001,-0.4537874,0.07694911,-0.2030229,-1.51861,-4.635223,-2.923286,0.7356783,1.20162,0.4346642,-1.405209,-0.06400178,0.1,0,0.1063167,-0.4415234,0.07732984,-0.5723453,-4.53908,-0.1602467,0.7385192,1.424448,0.3620651,0.1133846,-0.3012159,-0.2000744,-0.9406146,0.1000586,0.04119511,0.8018216,1.461202,0.1990759,0.465486,1.105663,0.323274,292.6519,271.9012,338.9708,False
3,1.011112,-0.4420535,0.04599944,-0.2167327,-1.515653,-4.635252,-2.91871,0.7356378,1.202178,0.4345345,-1.405128,0.00817519,0.1,0,0.09546784,-0.3856162,0.1482153,-0.5680357,-4.542744,-0.1579241,0.7395366,1.424812,0.3615205,0.09734756,-0.3043884,-0.2052392,-0.9432155,0.09585742,0.0431528,0.8024433,1.461047,0.1983321,0.4653132,1.107188,0.3235457,292.4621,271.6024,339.3631,False
3,1.022224,-0.4271233,0.0342406,-0.2283866,-1.513055,-4.636035,-2.914647,0.7354435,1.202588,0.4344416,-1.405972,-0.07711729,0.1,0,0.08659874,-0.3488164,0.2103987,-0.5633864,-4.546759,-0.1552892,0.7407403,1.425191,0.3610048,0.0939303,-0.3129423,-0.219,-0.9458621,0.09116213,0.04576216,0.8029748,1.460874,0.1977007,0.4650415,1.108822,0.3236931,292.2449,271.2131,339.8068,False
3,1.033335,-0.4132822,0.04488242,-0.2327,-1.510554,-4.637545,-2.910417,0.735405,1.203038,0.434325,-1.406711,-0.06682163,0.1,0,0.08265848,-0.34482,0.2434873,-0.559226,-4.552844,-0.1509493,0.7418045,1.4256,0.3605943,0.09272403,-0.317219,-0.2317601,-0.9489669,0.08681772,0.04734115,0.8035035,1.460805,0.1971169,0.4646355,1.110592,0.3237204,291.9655,270.8262,340.2006,False
3,1.044446,-0.4111668,0.0874755,-0.2382233,-1.508345,-4.640757,-2.905846,0.7352322,1.203473,0.434341,-1.407377,-0.06036017,0.1,0,0.0988781,-0.3429489,0.2678594,-0.5549085,-4.558953,-0.1474819,0.7427558,1.425827,0.3601766,0.08955306,-0.3065574,-0.2263881,-0.9511432,0.08316813,0.04910763,0.8040998,1.460359,0.1966047,0.4640776,1.112439,0.3236554,291.5895,270.4498,340.5329,False
3,1.055557,-0.4218327,0.1098331,-0.2393819,-1.506258,-4.64316,-2.900632,0.7352209,1.203915,0.4343307,-1.407302,0.007365228,0.1,0,0.09657173,-0.3267503,0.2424381,-0.5529127,-4.564303,-0.1439412,0.7437663,1.426143,0.3597987,0.08969367,-0.2937539,-0.2136123,-0.9530548,0.07990349,0.05015425,0.8045002,1.460545,0.1964238,0.463396,1.114259,0.32359,291.1568,270.1441,340.7528,False
3,1.066668,-0.4431485,0.1225648,-0.2479572,-1.503711,-4.645661,-2.894786,0.7350051,1.204448,0.434294,-1.407022,0.0254896,0.1,0,0.05564241,-0.3176362,0.1906897,-0.5522214,-4.570174,-0.1381784,0.7447408,1.426475,0.3593724,0.08684802,-0.281983,-0.1762902,-0.9535965,0.07656641,0.05171806,0.805083,1.460237,0.1959705,0.4626765,1.11598,0.3236531,290.7652,269.8528,340.9395,False
3,1.077779,-0.4452733,0.1182851,-0.2521866,-1.501297,-4.647406,-2.889797,0.7348326,1.205031,0.43434,-1.406316,0.064302,0.1,0,0.04926118,-0.3251102,0.1949557,-0.5491891,-4.577117,-0.1326318,0.7457312,1.426821,0.3588016,0.08703241,-0.2766238,-0.1592535,-0.9548935,0.07319126,0.05263551,0.8055453,1.46025,0.1955736,0.4618675,1.117583,0.3240055,290.4524,269.6014,341.1255,False
3,1.08889,-0.4506014,0.1128917,-0.2660026,-1.498367,-4.649256,-2.884505,0.7346047,1.205587,0.4342406,-1.4057,0.05585235,0.1,0,0.0533621,-0.3538432,0.1893491,-0.5466362,-4.586055,-0.1257433,0.746682,1.427114,0.358309,0.07956588,-0.272352,-0.1581006,-0.9565766,0.06972196,0.05435751,0.8061568,1.459986,0.1950567,0.46105,1.119113,0.3246758,290.2183,269.3987,341.4207,False
3,1.100002,-0.4506074,0.1202461,-0.289478,-1.494889,-4.651851,-2.879374,0.7344428,1.20614,0.4340684,-1.406563,-0.07929207,0.1,0,0.03395557,-0.3695948,0.170218,-0.5447927,-4.594683,-0.1182318,0.7475964,1.427452,0.3577495,0.07407203,-0.2734292,-0.1750772,-0.9590906,0.06618408,0.05574582,0.8067167,1.459684,0.1945543,0.4601412,1.120658,0.325595,290.0421,269.1631,341.8784,False
3,1.111113,-0.4559392,0.1276712,-0.2948349,-1.492026,-4.654297,-2.873962,0.7342687,1.206625,0.4339368,-1.406462,0.0100505,0.1,0,0.02638733,-0.3780169,0.1616943,-0.5427906,-4.602962,-0.111183,0.7484385,1.427723,0.3572543,0.07402024,-0.272373,-0.1804039,-0.9613958,0.0626719,0.05694211,0.8072207,1.45955,0.1940262,0.4592551,1.122288,0.3266551,289.826,268.9641,342.3853,False
3,1.122224,-0.474058,0.1553493,-0.2970895,-1.489433,-4.657731,-2.867934,0.7341937,1.207158,0.4338551,-1.406718,-0.02349264,0.1,0,0.007169604,-0.3543952,0.1482126,-0.5412949,-4.608823,-0.1055898,0.7491531,1.427898,0.3567665,0.07081389,-0.2553153,-0.1856949,-0.9633389,0.06029583,0.05757861,0.8078218,1.459543,0.1935017,0.4583616,1.124001,0.3277277,289.5438,268.728,342.9608,False
3,1.133335,-0.4847066,0.1766475,-0.2971683,-1.487157,-4.661021,-2.862235,0.734058,1.207731,0.433866,-1.406515,0.018792,0.1,0.2,0.002960891,-0.3437397,0.1494095,-0.5391932,-4.615263,-0.09999824,0.7498405,1.428089,0.3562181,0.05496947,-0.2286315,-0.1770188,-0.964606,0.05849407,0.05861484,0.8083469,1.459489,0.1928544,0.4574812,1.125779,0.3287525,289.2036,268.4262,343.5584,False
3,1.144446,-0.4964475,0.2160663,-0.2952147,-1.485102,-4.665497,-2.855972,0.7339928,1.208237,0.4337659,-1.406027,0.04449727,0,0.4,0.001302212,-0.2778715,0.1723529,-0.5364032,-4.616822,-0.09874202,0.750383,1.428322,0.3557734,0.04238647,-0.1976898,-0.1630937,-0.9660409,0.05713839,0.05930433,0.8087127,1.45938,0.1923959,0.4566164,1.127605,0.3296973,288.8615,268.1983,344.0144,False
3,1.155557,-0.5017888,0.248069,-0.2857737,-1.483414,-4.669978,-2.849913,0.7339104,1.208734,0.4336319,-1.406395,-0.03391284,0,0.4,-0.0007772148,-0.2586708,0.1703997,-0.5344304,-4.621003,-0.0950618,0.7509838,1.428601,0.3552661,0.03187393,-0.1784711,-0.1533839,-0.9668947,0.05564063,0.06010515,0.8090867,1.459197,0.1919401,0.4557515,1.129503,0.3305905,288.5585,267.983,344.3914,False
3,1.166668,-0.5007471,0.29179,-0.2763858,-1.482193,-4.675369,-2.843962,0.7338226,1.209239,0.4335258,-1.406082,0.02902357,0,0.4,-0.03437766,-0.2012614,0.1999596,-0.5312942,-4.620755,-0.09373155,0.7514192,1.428924,0.3547931,0.02690014,-0.160299,-0.1214034,-0.9672005,0.05431623,0.06074404,0.8094211,1.459106,0.191493,0.45487,1.131494,0.331472,288.2468,267.7659,344.7442,False
3,1.17778,-0.4943645,0.3301885,-0.2669733,-1.481115,-4.680732,-2.838447,0.7336825,1.209748,0.4333794,-1.406349,-0.02469488,0,0.4,-0.03413226,-0.1907988,0.2224171,-0.5279802,-4.624022,-0.09054641,0.7520157,1.429181,0.3542707,0.02061465,-0.1495988,-0.1138887,-0.9681144,0.05303898,0.06126895,0.8097439,1.459104,0.1909156,0.4539398,1.133583,0.3324006,287.9084,267.6081,345.0604,False
3,1.188891,-0.4997049,0.3557919,-0.2585649,-1.480051,-4.68603,-2.832269,0.7335823,1.210197,0.4332368,-1.406659,-0.02797968,0.2,0.4,-0.02534491,-0.1707616,0.242747,-0.524517,-4.625846,-0.0889826,0.7525316,1.429482,0.3538108,0.01415975,-0.1442747,-0.1212922,-0.9698561,0.05134082,0.06227776,0.8100741,1.459024,0.1904464,0.4529682,1.135766,0.3334107,287.5395,267.5452,345.3152,False
3,1.200002,-0.5018471,0.381395,-0.2501627,-1.479181,-4.691566,-2.826168,0.733497,1.210758,0.4330964,-1.407166,-0.0460919,0.2,0.4,-0.02424152,-0.1654582,0.2449115,-0.521701,-4.628818,-0.08619481,0.7530739,1.429773,0.3533671,0.01091512,-0.1431952,-0.1265616,-0.9711483,0.04984758,0.06310999,0.8106101,1.458729,0.1901116,0.451947,1.138021,0.3345492,287.1496,267.5898,345.4923,False
3,1.211113,-0.5018465,0.3792706,-0.2490782,-1.477936,-4.696307,-2.820193,0.7333167,1.211314,0.4330699,-1.406571,0.0547451,0.2,0.4,-0.009335697,-0.1697836,0.2457993,-0.5188072,-4.632329,-0.08350501,0.7536028,1.429994,0.3529487,0.01196495,-0.144246,-0.1276444,-0.9727436,0.04824902,0.06381547,0.8107853,1.458679,0.1896765,0.4509085,1.140293,0.335824,286.7268,267.6957,345.6664,False
3,1.222224,-0.5178088,0.3760691,-0.2479952,-1.476666,-4.701052,-2.813588,0.7330024,1.211692,0.4331222,-1.406634,-0.006204726,0.2,0.4,-0.01062901,-0.1877317,0.2275525,-0.5165393,-4.637368,-0.0790831,0.7540143,1.4302,0.3526001,0.012959,-0.1378701,-0.1361872,-0.974668,0.04678721,0.06444796,0.8110837,1.458607,0.1892707,0.4498811,1.142545,0.3372081,286.3272,267.8352,345.8516,False
3,1.233335,-0.5359157,0.3643422,-0.2468536,-1.47546,-4.705389,-2.806572,0.7327691,1.212309,0.4330823,-1.406751,-0.01066276,0.2,0.4,-0.02042112,-0.1853698,0.2031495,-0.5149877,-4.641364,-0.07520501,0.7544869,1.430555,0.3519764,0.01197325,-0.1240139,-0.1308737,-0.9760197,0.04575337,0.06494438,0.8113803,1.458541,0.188863,0.4488769,1.144785,0.3386679,285.9673,267.9608,346.0707,False
3,1.244446,-0.5422987,0.3483544,-0.2478434,-1.47396,-4.709508,-2.799893,0.7323866,1.212875,0.4330158,-1.406191,0.05137527,0.1,1,-0.02378324,-0.1745163,0.1808994,-0.513662,-4.64436,-0.07220602,0.7549851,1.430839,0.3515902,0.01119944,-0.1132955,-0.1042831,-0.9767047,0.045025,0.06508952,0.8114932,1.458511,0.1885409,0.4478621,1.146995,0.3401485,285.591,267.9702,346.3925,False
3,1.255558,-0.5454791,0.3355817,-0.2445916,-1.472616,1.569692,-2.793493,0.7322115,1.213406,0.4328971,-1.40578,0.03720358,0.1,1,-0.02159041,-0.1735147,0.1872746,-0.5112577,-4.647891,-0.06897534,0.7555071,1.431124,0.3511424,0.007062554,-0.1047373,-0.09366574,-0.9783154,0.04414549,0.06554439,0.811795,1.458491,0.1881247,0.4467753,1.149171,0.3416089,285.2289,267.9839,346.6953,False
3,1.266669,-0.5507918,0.313222,-0.2412922,-1.471108,1.566287,-2.786876,0.7317709,1.214038,0.4328043,-1.406185,-0.03726941,0.1,1,-0.02231434,-0.1748836,0.2234874,-0.5074504,-4.651538,-0.06564186,0.7559971,1.43153,0.3506215,0.001787305,-0.09513389,-0.09043218,-0.9792379,0.04337224,0.06616783,0.8121046,1.458428,0.1877465,0.4456657,1.151379,0.3429834,284.9283,267.9885,347.0248,False
3,1.27778,-0.5592953,0.2908343,-0.2433086,-1.469501,1.563007,-2.780156,0.7314365,1.214574,0.4327455,-1.40661,-0.03837904,0.1,1,-0.02849191,-0.1836109,0.2501,-0.5037572,-4.656021,-0.0612037,0.7565699,1.431805,0.3504109,-0.001531407,-0.09300922,-0.104318,-0.981842,0.04243521,0.06659874,0.8125904,1.458369,0.1874094,0.4445714,1.153654,0.3442119,284.6018,267.8979,347.4341,False
3,1.288891,-0.5667425,0.2780906,-0.2336531,-1.46844,1.55963,-2.773293,0.7310213,1.215299,0.4327002,-1.406451,0.01488714,0.3,1.5,-0.02712706,-0.1753361,0.2789226,-0.4995041,-4.658943,-0.05837782,0.7571419,1.432166,0.3500023,-0.001684189,-0.09940618,-0.1192846,-0.9845206,0.04124597,0.06712151,0.8132145,1.458296,0.1869104,0.4435985,1.155985,0.3452576,284.2352,267.7835,347.8212,False
3,1.300002,-0.5795161,0.2631932,-0.2282553,-1.467146,1.556491,-2.766066,0.730478,1.215989,0.4326415,-1.406383,0.006108928,0.3,1.3,-0.02481186,-0.175498,0.2970118,-0.4955791,-4.662279,-0.05544302,0.7577574,1.432549,0.3495789,-0.002879679,-0.1015527,-0.132054,-0.986479,0.03994995,0.06790688,0.8136183,1.458219,0.1865349,0.4426257,1.158369,0.346092,283.8499,267.546,348.2586,False
3,1.311113,-0.5922856,0.239794,-0.2174851,-1.465953,1.554004,-2.758832,0.7298601,1.21667,0.4325807,-1.406325,0.005252745,0.3,1.3,-0.02575885,-0.1788072,0.3108466,-0.491505,-4.666496,-0.05144615,0.7584151,1.432843,0.3490565,-0.002963096,-0.1047625,-0.1395058,-0.9883374,0.03853061,0.06878066,0.8140107,1.458129,0.186116,0.4416809,1.160793,0.3467391,283.4661,267.2169,348.7006,False
3,1.322224,-0.6061164,0.2184811,-0.2163377,-1.464397,1.551562,-2.75133,0.7290558,1.21739,0.432533,-1.406028,0.02726937,0.3,1.3,-0.0387632,-0.203143,0.296912,-0.4885255,-4.672536,-0.04528386,0.7590089,1.433197,0.3486116,-0.00514926,-0.1068736,-0.1448552,-0.9908115,0.0375302,0.06940757,0.8145878,1.458088,0.1857305,0.4406787,1.163293,0.3472554,283.1141,266.8987,349.0797,False
3,1.333336,-0.6231461,0.1918404,-0.2151351,-1.46275,1.549489,-2.743654,0.7283694,1.218127,0.4324398,-1.406033,-0.0006358702,0.3,1.3,-0.04428473,-0.2328776,0.2881838,-0.4855486,-4.679832,-0.03815058,0.7596445,1.43359,0.3481731,0.003320575,-0.1249821,-0.1459891,-0.992697,0.03561485,0.07017855,0.8152744,1.458142,0.1852248,0.439566,1.165888,0.3476853,282.7454,266.498,349.5361,False
3,1.344447,-0.6305998,0.1758717,-0.2129059,-1.461208,1.547218,-2.736116,0.7274604,1.218877,0.4323704,-1.405893,0.0128519,0.5,0.8,-0.06590131,-0.2763473,0.2720211,-0.4830463,-4.68968,-0.0281339,0.7602855,1.434074,0.3474929,0.001187623,-0.1313681,-0.144894,-0.9944158,0.03376036,0.07123902,0.8156686,1.458089,0.1848013,0.4383522,1.168581,0.3480428,282.3403,266.0334,350.0614,False
3,1.355558,-0.6486951,0.160994,-0.2021801,-1.460043,1.545234,-2.728225,0.7265739,1.219637,0.43224,-1.405804,0.00815448,0.5,0.8,-0.09272884,-0.2824844,0.2541097,-0.4807304,-4.69648,-0.02012631,0.7608739,1.434405,0.3471508,0.001286328,-0.1334466,-0.1342756,-0.9960872,0.03262119,0.0718646,0.8159927,1.45796,0.1843188,0.4370461,1.171366,0.3483469,281.9117,265.4333,350.7184,False
3,1.366669,-0.6689314,0.15566,-0.2010882,-1.458688,1.542923,-2.719945,0.7256795,1.220409,0.4321837,-1.406094,-0.02643264,0.5,0.8,-0.09678055,-0.260202,0.2671217,-0.4772608,-4.700799,-0.01516857,0.7614243,1.434728,0.34672,-0.0007577091,-0.1270406,-0.1268066,-0.9973325,0.03128988,0.07267181,0.816354,1.45788,0.1839437,0.4357508,1.174232,0.3486099,281.4724,264.7523,351.4521,False
3,1.37778,-0.7072691,0.1322708,-0.1860705,-1.457558,1.541543,-2.710638,0.7247755,1.221245,0.4320898,-1.405875,0.0202776,0.5,0.8,-0.09232695,-0.2347437,0.2779527,-0.4736251,-4.70432,-0.01130033,0.7619938,1.435123,0.3462725,0.003732845,-0.1100081,-0.1066444,-0.9981304,0.03007188,0.07319245,0.8163756,1.457556,0.1838441,0.4344043,1.177169,0.3488576,281.0173,264.0869,352.1643,False
3,1.388891,-0.7455932,0.09072602,-0.1794719,-1.455873,1.541146,-2.701152,0.7236757,1.222198,0.4320624,-1.405638,0.02160212,0.4,1.8,-0.1167015,-0.2080344,0.2805368,-0.4704975,-4.707414,-0.006427539,0.7626355,1.435466,0.3456976,0.01131149,-0.1068119,-0.09500447,-0.9988457,0.02886267,0.07346463,0.8167012,1.457444,0.1834984,0.43305,1.180167,0.3490957,280.5621,263.4692,352.8382,False
3,1.400002,-0.7690064,0.05449168,-0.1793004,-1.453774,1.540838,-2.691705,0.7226175,1.223194,0.4319818,-1.404677,0.08785244,0.3,1.8,-0.1400109,-0.2155052,0.2945677,-0.4667291,1.570071,0.001177916,0.7634799,1.435984,0.3451123,0.01451646,-0.14199,-0.08648453,-1.000067,0.02517233,0.07520793,0.8169544,1.45734,0.1830921,0.4317026,1.183229,0.3493419,280.1153,262.7576,353.6082,False
3,1.411114,-0.7977364,-0.008353293,-0.1768354,-1.451236,1.541925,-2.681988,0.721392,1.224315,0.4319658,-1.404544,0.01164922,0.3,1.8,-0.1261677,-0.259415,0.3142943,-0.4624473,1.560007,0.01106437,0.7643157,1.43638,0.3444927,0.01860216,-0.1633304,-0.09928129,-1.001876,0.02216442,0.07658106,0.8173369,1.457258,0.1826715,0.430345,1.186414,0.3495445,279.7029,262.0516,354.4073,False
3,1.422225,-0.8264483,-0.07763013,-0.1776251,-1.448025,1.543958,-2.672005,0.7199917,1.225537,0.4318774,-1.40486,-0.02875761,0.3,1.8,-0.1177839,-0.2881971,0.3118417,-0.4590885,1.550313,0.02080302,0.7651031,1.436823,0.3439445,0.02363651,-0.1836388,-0.124873,-1.00441,0.01880245,0.07793874,0.8178703,1.45717,0.1821799,0.428948,1.189786,0.3496147,279.2825,261.0389,355.5137,False
3,1.433336,-0.8349641,-0.09253202,-0.1743392,-1.445837,1.544365,-2.662447,0.7188056,1.226607,0.4318047,-1.404742,0.01122721,0.3,1.8,-0.1362285,-0.3241663,0.2903985,-0.4567811,1.539364,0.03279443,0.7658042,1.437225,0.3434751,0.02658296,-0.1954174,-0.1483243,-1.007045,0.0157028,0.07914621,0.8184999,1.457019,0.1817675,0.427578,1.193361,0.3494917,278.8138,259.6227,356.9846,False
3,1.444447,-0.8541172,-0.1255703,-0.171003,-1.443002,1.545884,-2.652438,0.7173548,1.227762,0.4316549,-1.404623,0.01100226,0.2,0.7,-0.1482393,-0.3388207,0.2648167,-0.4549159,1.529387,0.04382897,0.7665417,1.437633,0.3429737,0.02428371,-0.2060863,-0.163202,-1.009583,0.01277558,0.0805284,0.8189404,1.456896,0.1813271,0.4262014,1.19714,0.3490941,278.3051,257.8045,358.8095,False
3,1.455558,-0.8605066,-0.1298061,-0.1667103,-1.440814,1.546331,-2.642879,0.7161045,1.228761,0.4315434,-1.405494,-0.07958049,0.2,0.7,-0.146359,-0.3546368,0.2444171,-0.4532647,1.519091,0.05461824,0.7671995,1.438074,0.3425386,0.01876301,-0.2135797,-0.1823066,-1.01236,0.009624797,0.08207037,0.8194026,1.456811,0.180989,0.4248176,1.201106,0.3483605,277.7621,255.4,1.123687,False
3,1.466669,-0.8669043,-0.1148578,-0.1582569,-1.439163,1.546281,-2.632983,0.7146794,1.229848,0.4314222,-1.405229,0.02520904,0.2,0.7,-0.1550663,-0.3587022,0.2252863,-0.4516263,1.509579,0.06502747,0.7676932,1.438528,0.3420994,0.01018858,-0.2135695,-0.1875489,-1.01484,0.007028481,0.08361687,0.8198122,1.456714,0.1806591,0.4235083,1.205188,0.3473894,277.1537,252.563,3.753288,False
3,1.47778,-0.8679815,-0.09558658,-0.1381007,-1.438228,1.546133,-2.623162,0.7133795,1.23094,0.4312615,-1.405958,-0.06693541,0.2,0.7,-0.1816482,-0.3639812,0.2308016,-0.4492593,1.499369,0.07690517,0.7682337,1.439198,0.3413868,-0.002467245,-0.1975684,-0.1778623,-1.016698,0.004992362,0.08514552,0.8201098,1.45677,0.1802495,0.4221991,1.209316,0.3462436,276.5432,248.9954,7.065639,False
3,1.488891,-0.8711846,-0.06672861,-0.1158642,-1.437749,1.545685,-2.61337,0.7120923,1.232055,0.4310274,-1.405926,0.003665639,0.2,0.3,-0.2101753,-0.3437766,0.2482834,-0.4461445,1.491519,0.08731866,0.7686563,1.439612,0.3408711,-0.01087478,-0.182625,-0.1692773,-1.018391,0.003389938,0.08640147,0.8204542,1.456677,0.1799333,0.4209422,1.213404,0.3450637,275.9496,244.7817,10.96756,False
3,1.500003,-0.8786532,-0.04858887,-0.1074189,-1.436985,1.545182,-2.603148,0.7107221,1.23314,0.4308267,-1.406128,-0.01846194,0.1,0.3,-0.2238009,-0.311865,0.2593387,-0.4430403,1.485195,0.09598245,0.7692391,1.439991,0.3404014,-0.02238679,-0.1570338,-0.1532212,-1.019707,0.002163685,0.08773065,0.8207363,1.456745,0.1795888,0.4196218,1.217432,0.3439931,275.4312,240.4547,14.9984,False
3,1.511114,-0.8839951,-0.02404401,-0.0990112,-1.43646,1.544215,-2.592919,0.7095146,1.234211,0.430604,-1.40633,-0.01817834,0.1,0.3,-0.2489606,-0.2501405,0.2782086,-0.4393539,1.48262,0.1019527,0.7695431,1.440412,0.3399239,-0.02756543,-0.1442364,-0.1404118,-1.021087,0.0006235791,0.08904172,0.8210402,1.456665,0.1793001,0.4183047,1.221393,0.3431211,274.9784,236.2949,18.95494,False
3,1.522225,-0.8861338,-0.006972641,-0.09269854,-1.436036,1.543329,-2.582818,0.7081417,1.235291,0.430275,-1.406027,0.02788638,0.1,0.3,-0.2572823,-0.2064476,0.2797167,-0.4364207,1.479634,0.1075438,0.7700031,1.440858,0.3394535,-0.02972916,-0.1399767,-0.1446578,-1.022978,-0.0008728511,0.09021751,0.82138,1.456592,0.1790354,0.4169804,1.225305,0.3424747,274.5648,231.8875,23.2685,False
3,1.533336,-0.8967946,0.0101051,-0.08425949,-1.435747,1.542407,-2.572398,0.7067449,1.236403,0.4299419,-1.406153,-0.01172301,0.1,0.3,-0.2571087,-0.1916403,0.2926238,-0.4330183,1.474546,0.1149684,0.770447,1.441246,0.3391082,-0.03618252,-0.132547,-0.153123,-1.025044,-0.002539857,0.09161834,0.8216745,1.456441,0.1787729,0.4156364,1.229188,0.3420426,274.1954,226.7212,28.41494,False
3,1.544447,-0.9095823,0.02293797,-0.07153271,-1.435807,1.541638,-2.561824,0.7054061,1.237453,0.4296069,-1.40639,-0.02143587,0.2,0.4,-0.2495329,-0.1864319,0.3032508,-0.429512,1.469122,0.1223778,0.7708541,1.441687,0.3387184,-0.03945176,-0.1325509,-0.1605482,-1.027205,-0.004039616,0.0929358,0.8219818,1.456361,0.1785371,0.414325,1.23307,0.341803,273.8547,220.9011,34.28,False
3,1.555558,-0.923438,0.04327337,-0.05031047,-1.436518,1.540723,-2.551012,0.7040656,1.238579,0.4292619,-1.406192,0.01839377,0.2,0.4,-0.2507038,-0.2012817,0.2967491,-0.4268334,1.461566,0.1319631,0.771253,1.442115,0.3383455,-0.03950608,-0.1293778,-0.16694,-1.029346,-0.005602092,0.09413742,0.8222265,1.456314,0.1783159,0.4129667,1.236987,0.3416816,273.5305,214.2398,41.05375,False
3,1.566669,-0.9266357,0.05615081,-0.02906356,-1.437427,1.540043,-2.540509,0.7027015,1.239716,0.4289114,-1.406089,0.009269356,0.2,0.4,-0.2346205,-0.2025092,0.3083021,-0.4234559,1.454797,0.1401744,0.7717717,1.442632,0.3379602,-0.0394467,-0.1208494,-0.1626911,-1.031127,-0.006650712,0.09510069,0.8224916,1.456246,0.178112,0.4115809,1.24096,0.3415927,273.2453,206.537,48.89472,False
3,1.577781,-0.9266614,0.09248465,-0.003653236,-1.439365,1.538606,-2.529863,0.7014167,1.240971,0.4284484,-1.405976,0.01031305,0.2,0.4,-0.2239557,-0.1993587,0.3082276,-0.4203619,1.448376,0.1481487,0.7722734,1.443137,0.3374891,-0.04039063,-0.1155222,-0.1520358,-1.032546,-0.008018911,0.09622161,0.822955,1.456124,0.1779025,0.4102403,1.245004,0.3414565,273.0045,197.713,57.84262,False
3,1.588892,-0.940524,0.1223665,0.0100681,-1.441211,1.537005,-2.518698,0.7000087,1.242217,0.428051,-1.406351,-0.03430484,0.2,0,-0.266736,-0.2043874,0.2926041,-0.4180934,1.441427,0.1589878,0.7727883,1.443494,0.3369906,-0.03711523,-0.1176473,-0.1435422,-1.033973,-0.009485647,0.09727862,0.8232266,1.456062,0.1776805,0.4089508,1.249166,0.341218,272.8235,187.7893,67.85432,False
3,1.600003,-0.9533086,0.1330461,0.01641702,-1.442617,1.535712,-2.507471,0.6986454,1.243413,0.4276538,-1.406441,-0.007867396,0.2,0,-0.2856412,-0.1885258,0.3131355,-0.4144997,1.435714,0.1678503,0.7733247,1.444056,0.3364284,-0.02325892,-0.1294107,-0.1404558,-1.035513,-0.01178622,0.09826319,0.8235829,1.455979,0.1774023,0.4077333,1.253465,0.340844,272.7244,176.47,79.21706,False
3,1.611114,-0.9778138,0.1361983,0.01002595,-1.443482,1.534382,-2.495558,0.6970506,1.244664,0.4272344,-1.406032,0.0375313,0.2,0,-0.2813159,-0.1950129,0.3226285,-0.411004,1.428166,0.1776768,0.7738562,1.444448,0.3359702,-0.002006859,-0.1347869,-0.144919,-1.037444,-0.01354657,0.098452,0.8238425,1.455905,0.1771731,0.4065559,1.257937,0.340359,272.7303,164.2377,91.44077,False
3,1.622225,-1.001237,0.1116703,0.005875479,-1.443629,1.533911,-2.483502,0.6951293,1.24616,0.4268875,-1.405989,0.00364315,0.2,0,-0.2888234,-0.2131044,0.3236159,-0.407934,1.418934,0.1895026,0.7744737,1.444807,0.3355522,0.01510686,-0.135887,-0.1365532,-1.03877,-0.01537123,0.09880488,0.8241976,1.455966,0.1769989,0.4053745,1.262587,0.3398133,272.9131,151.6481,103.9853,False
3,1.633336,-1.009752,0.09142072,0.005956886,-1.443939,1.533679,-2.471926,0.6934156,1.247529,0.4266124,-1.405448,0.04962223,0.2,0,-0.3295659,-0.2821963,0.3234057,-0.405593,1.403243,0.209035,0.7749966,1.445201,0.3350811,0.01948777,-0.1337481,-0.1248807,-1.03988,-0.01690601,0.09919423,0.8244765,1.455936,0.1767769,0.4042152,1.267368,0.339237,273.2935,140.2859,115.3006,False
3,1.644447,-1.019325,0.06584232,0.003955638,-1.44384,1.5338,-2.460315,0.6913862,1.249083,0.4264083,-1.405314,0.0118834,0.3,0,-0.3639383,-0.3170854,0.3074497,-0.403846,1.389947,0.2265037,0.7754066,1.445534,0.334667,0.02594288,-0.1167249,-0.121762,-1.040982,-0.01771615,0.09920754,0.8247001,1.45592,0.1765423,0.4029141,1.272294,0.3386365,273.8117,131.6888,123.8583,False
3,1.655559,-1.031039,0.04982392,-0.003423784,-1.443689,1.53352,-2.448498,0.6895075,1.250648,0.4261103,-1.40594,-0.05715141,0.3,0,-0.383291,-0.3253995,0.2915786,-0.4020872,1.379233,0.2410992,0.775647,1.445968,0.3342133,0.02378017,-0.1156727,-0.1249249,-1.042473,-0.01921617,0.09985496,0.824936,1.455844,0.1763418,0.4014641,1.277357,0.3379926,274.3969,125.55,129.9527,False
3,1.66667,-1.047017,0.0412243,-0.01829612,-1.443247,1.532963,-2.436481,0.6875376,1.252175,0.425878,-1.406079,-0.01207381,0.3,0,-0.3992396,-0.3200229,0.2928383,-0.3997884,1.369046,0.2553668,0.7758843,1.446413,0.333823,0.0160429,-0.129544,-0.1503965,-1.045138,-0.02115242,0.1009237,0.8251722,1.455766,0.1761246,0.4000725,1.282449,0.3373103,275.0312,120.6975,134.7364,False
3,1.677781,-1.085368,0.03371624,-0.02251018,-1.443076,1.532691,-2.423266,0.6854929,1.253843,0.4256694,-1.406053,0.002562824,0.3,0,-0.4341526,-0.2965884,0.3082861,-0.3965239,1.360424,0.2690964,0.7759895,1.446826,0.3333113,0.0149595,-0.1274188,-0.1525205,-1.047017,-0.0225354,0.1015005,0.8254187,1.455736,0.1759536,0.3986633,1.287551,0.3365866,275.6903,117.0687,138.2827,False
3,1.688892,-1.117324,0.02299301,-0.03416657,-1.442437,1.532265,-2.409859,0.6832724,1.255636,0.4254456,-1.406003,0.004622607,0.3,0,-0.4649709,-0.255922,0.3003953,-0.3939955,1.354853,0.2804221,0.7759968,1.447318,0.3328798,0.001088336,-0.09545969,-0.1619972,-1.048831,-0.02236483,0.1018007,0.8255368,1.455771,0.1757739,0.3973078,1.292613,0.3358437,276.3671,114.4628,140.801,False
3,1.700003,-1.130106,0.01124114,-0.03837537,-1.441846,1.532114,-2.397041,0.6813134,1.257404,0.4251456,-1.40492,0.09902914,0.4,1,-0.4905169,-0.230179,0.2912744,-0.39171,1.348633,0.292246,0.7761345,1.447774,0.3323758,-0.005226374,-0.08906779,-0.1555228,-1.049978,-0.02344341,0.1026111,0.82583,1.455806,0.175631,0.3959495,1.297644,0.3351221,277.047,112.5336,142.623,False
3,1.711114,-1.154592,-0.02077074,-0.04674749,-1.440324,1.532582,-2.383636,0.678956,1.259406,0.424927,-1.404852,0.005601124,0.4,1,-0.5092072,-0.1760331,0.3217382,-0.3873376,1.345281,0.3016514,0.7761005,1.448266,0.3319607,-0.013529,-0.07943209,-0.1352138,-1.050796,-0.02394288,0.103303,0.8259299,1.455829,0.175499,0.3944833,1.302755,0.3344324,277.6624,111.055,144.0078,False
3,1.722225,-1.174812,-0.06666055,-0.06144846,-1.437935,1.533485,-2.370153,0.6767346,1.261422,0.424612,-1.40565,-0.07282595,0.4,1,-0.4929974,-0.1581364,0.3387944,-0.3834361,1.338503,0.3126583,0.7761819,1.44874,0.3314843,-0.01761754,-0.07087703,-0.1191923,-1.051413,-0.02446433,0.1039104,0.8258908,1.455818,0.1754122,0.3929548,1.308025,0.3337655,278.2717,109.9238,145.0888,False
3,1.733337,-1.201414,-0.1147105,-0.08038044,-1.435011,1.534552,-2.356308,0.6744336,1.263427,0.4242551,-1.405279,0.0347648,0.4,1,-0.5199305,-0.1791386,0.3154312,-0.3817833,1.329335,0.3277528,0.7760288,1.449276,0.3310332,-0.02704445,-0.06444305,-0.104194,-1.052035,-0.02495329,0.1047874,0.8259082,1.455854,0.1752892,0.3915504,1.313418,0.3330879,278.9288,108.8219,146.1767,False
3,1.744448,-1.219517,-0.1328983,-0.0952061,-1.432443,1.534975,-2.342263,0.6719415,1.26562,0.4239833,-1.405293,-0.001479993,0.2,1.8,-0.5734509,-0.19261,0.2923556,-0.3806701,1.320273,0.3440975,0.7758462,1.449991,0.3305225,-0.04292919,-0.05694961,-0.09657735,-1.052761,-0.02544118,0.1059736,0.8258172,1.455808,0.1752439,0.3901528,1.318987,0.3323154,279.6494,107.9149,147.0824,False
3,1.755559,-1.221653,-0.1382357,-0.09841418,-1.430301,1.535093,-2.328401,0.669481,1.267848,0.4237385,-1.405131,0.01498156,0.2,1.7,-0.5956531,-0.1766559,0.3033316,-0.3778951,1.313065,0.3580122,0.7756314,1.450738,0.3300683,-0.06734241,-0.04091322,-0.09103443,-1.053616,-0.025269,0.1074418,0.8257595,1.455905,0.1752601,0.3888878,1.324663,0.331357,280.444,107.2237,147.7683,False
3,1.76667,-1.222722,-0.1329143,-0.09950236,-1.428527,1.535153,-2.314737,0.6668016,1.270235,0.4234953,-1.405221,-0.008200258,0.2,1.7,-0.5973327,-0.1524737,0.3419069,-0.3735339,1.305875,0.3713895,0.7752564,1.451413,0.3296247,-0.08113671,-0.02596742,-0.08878424,-1.054405,-0.02492199,0.1085859,0.8256621,1.455882,0.1751933,0.3876934,1.330442,0.3301564,281.2892,106.7343,148.1691,False
3,1.777781,-1.219531,-0.1222264,-0.09636761,-1.427211,1.535027,-2.301359,0.6643419,1.272484,0.4233813,-1.405669,-0.04068344,0.2,1.7,-0.6142501,-0.1407626,0.3506879,-0.3701107,1.298687,0.3852984,0.7749358,1.451946,0.3293319,-0.09395072,-0.01743301,-0.09399948,-1.055676,-0.02479163,0.1098748,0.8256763,1.4559,0.1750205,0.3864487,1.336376,0.3287727,282.1419,106.3865,148.2961,False
3,1.788892,-1.213149,-0.1062426,-0.09643973,-1.426028,1.534608,-2.288052,0.6616727,1.274822,0.4231479,-1.406089,-0.03799558,0.2,1.7,-0.6652033,-0.1257666,0.3640823,-0.3663428,1.291629,0.4010239,0.7744362,1.452764,0.3288877,-0.1002724,-0.008889541,-0.0886234,-1.056471,-0.02447751,0.1110578,0.8255482,1.455962,0.1749587,0.3851623,1.342451,0.327328,282.9979,106.0257,148.3669,False
3,1.800003,-1.188666,-0.07419646,-0.08809622,-1.425727,1.53358,-2.275552,0.6588372,1.277439,0.422883,-1.406557,-0.04237432,0.7,1.1,-0.6991118,-0.11726,0.3793566,-0.3626916,1.283836,0.4169898,0.773958,1.45358,0.3283772,-0.1118059,-0.009902917,-0.069329,-1.056562,-0.02467738,0.1127753,0.8254644,1.455995,0.1749811,0.3838337,1.348633,0.3259388,283.8643,105.5941,148.5009,False
3,1.811115,-1.159912,-0.05711618,-0.08391902,-1.425186,1.532959,-2.263566,0.6558688,1.280027,0.4226065,-1.406781,-0.02012658,0.7,1.1,-0.7210608,-0.09617856,0.4159698,-0.3574207,1.276053,0.4331197,0.7733586,1.454433,0.3278973,-0.1223172,-0.007729374,-0.05537892,-1.056683,-0.02465714,0.1144949,0.8252956,1.456125,0.1749001,0.3825981,1.354786,0.3247225,284.7461,105.0684,148.77,False
3,1.822226,-1.13223,-0.02937208,-0.08300332,-1.424945,1.531671,-2.251608,0.6528831,1.282633,0.4221489,-1.407702,-0.08402458,0.7,1.1,-0.7409387,-0.06220964,0.4409533,-0.3519394,1.270595,0.4469399,0.7727107,1.454966,0.3273973,-0.1254116,0.002935328,-0.04684047,-1.056922,-0.02431905,0.1158664,0.8250203,1.456286,0.1748421,0.3812771,1.360948,0.3237216,285.5962,104.5157,149.1478,False
3,1.833337,-1.122643,-0.0240353,-0.08303364,-1.424269,1.531022,-2.239299,0.6501157,1.285223,0.4218786,-1.408186,-0.04365583,0.7,1.1,-0.7599708,-0.05691379,0.4539664,-0.3473423,1.262558,0.463512,0.7720605,1.455714,0.326952,-0.1275021,0.001880936,-0.04255678,-1.057236,-0.02429229,0.117337,0.8247938,1.456397,0.1747732,0.3797432,1.367152,0.3229715,286.4016,103.9258,149.6437,False
3,1.844448,-1.118383,-0.0186637,-0.07347154,-1.42393,1.530617,-2.22687,0.6471204,1.287867,0.4215603,-1.408223,-0.003170026,0.4,0.8,-0.7695539,-0.03443605,0.4457235,-0.343005,1.257155,0.4775271,0.7712116,1.456613,0.3265376,-0.1401372,0.01789455,-0.03074001,-1.057205,-0.02363129,0.1189663,0.8245339,1.456577,0.1750038,0.3780202,1.373296,0.3224438,287.1868,103.297,150.2858,False
3,1.855559,-1.118383,-0.01649305,-0.06602062,-1.423582,1.530274,-2.214229,0.6442699,1.290562,0.4212494,-1.407646,0.05265025,0.3,0.6,-0.7738215,-0.02479559,0.4415725,-0.3388191,1.250682,0.4923892,0.7704319,1.457431,0.3260489,-0.1635177,0.02966295,-0.02733172,-1.057339,-0.02282675,0.1211781,0.8242161,1.456769,0.1750944,0.3761989,1.379274,0.3220813,287.9097,102.7446,150.9281,False
3,1.86667,-1.118365,-0.03984685,-0.04780371,-1.422725,1.531059,-2.201978,0.6412644,1.293382,0.4209535,-1.407337,0.02773278,0.3,0.6,-0.7587669,0.02312255,0.4375789,-0.3338278,1.248777,0.5020866,0.7693703,1.458298,0.3256521,-0.1783575,0.06058279,-0.02616883,-1.057425,-0.02093591,0.1227653,0.8237344,1.456915,0.1751165,0.3744187,1.385024,0.3218006,288.5352,102.3097,151.4689,False
3,1.877781,-1.109832,-0.05581707,-0.04027155,-1.421571,1.531696,-2.190086,0.6383606,1.296119,0.4205046,-1.407044,0.02652859,0.3,0.6,-0.7468851,0.04858881,0.4440662,-0.328829,1.244978,0.5133815,0.7683669,1.459321,0.3250496,-0.1879641,0.05739298,-0.02713566,-1.05775,-0.0205359,0.1249113,0.8234708,1.457069,0.1750607,0.3726205,1.390669,0.3214901,289.085,101.9035,151.9756,False
3,1.888893,-1.123726,0.02192593,-0.0438161,-1.42328,1.529713,-2.176998,0.635404,1.298928,0.4200509,-1.407219,-0.01611746,0.3,0.6,-0.7520015,0.05910754,0.4623159,-0.323377,1.238862,0.5276225,0.76736,1.460263,0.324573,-0.2071827,0.05635983,-0.0312053,-1.058151,-0.0197986,0.1274853,0.8229431,1.457318,0.1750541,0.370868,1.396289,0.3210569,289.587,101.562,152.3998,False
3,1.900004,-1.06082,-0.0846314,-0.05611091,-1.419471,1.531444,-2.167313,0.6322997,1.301918,0.4194703,-1.407588,-0.033664,0.2,0.6,-0.76241,0.07604766,0.4806731,-0.3175085,1.233008,0.5420686,0.7663826,1.461057,0.324018,-0.2145509,0.05212572,-0.0215366,-1.058008,-0.01938115,0.1298677,0.8225515,1.457461,0.1751416,0.3691909,1.401959,0.3203788,290.119,101.2304,152.7902,False
3,1.911115,-1.01393,-0.1133723,-0.0570593,-1.417191,1.532183,-2.157516,0.6291516,1.304922,0.4190185,-1.406783,0.07381435,0.1,0.6,-0.7578161,0.0874868,0.5116237,-0.3109422,1.225349,0.5577695,0.7653562,1.461913,0.3234878,-0.2196641,0.05855998,-0.00125446,-1.057214,-0.01849725,0.1320944,0.8219861,1.457668,0.1751585,0.3676132,1.407692,0.3194111,290.718,100.973,152.9939,False
3,1.922226,-0.9723812,-0.09507331,-0.0166684,-1.417495,1.533535,-2.148241,0.6261109,1.307774,0.4184597,-1.409457,-0.2451194,0.1,0.6,-0.7662192,0.07139301,0.5296823,-0.3051637,1.214469,0.5768471,0.7641417,1.462951,0.3228624,-0.21527,0.06601048,0.01044603,-1.056099,-0.01771548,0.1338902,0.8214811,1.457721,0.1751614,0.3660351,1.413633,0.3182918,291.3567,100.7335,153.1132,False
3,1.933337,-0.9979439,-0.103693,-0.02834905,-1.415761,1.533811,-2.136089,0.6231699,1.310589,0.4179792,-1.409579,-0.0091781,0.1,0.6,-0.7834573,0.07164741,0.5085392,-0.3006155,1.207892,0.592511,0.7630194,1.463776,0.3223231,-0.2216192,0.07560453,0.01371231,-1.055467,-0.01666207,0.1361472,0.820852,1.458157,0.1753085,0.3646137,1.419496,0.3169042,292.1658,100.6285,153.1526,False
3,1.944448,-1.060836,-0.03551921,-0.02118376,-1.417395,1.532696,-2.121954,0.6201895,1.313204,0.4173961,-1.409668,-0.008520447,0.1,0.6,-0.7974363,0.0953334,0.4854332,-0.2957462,1.204156,0.6055661,0.7618361,1.464599,0.3218255,-0.2449447,0.099098,0.02029808,-1.054777,-0.01458347,0.1386295,0.8202066,1.458394,0.1754005,0.3632224,1.42518,0.315272,292.955,100.4199,153.1377,False
3,1.955559,-1.181259,0.04871343,0.0125545,-1.420767,1.532067,-2.104904,0.6173602,1.315766,0.4166908,-1.406732,0.2682294,0.1,0.7,-0.7898952,0.1198159,0.4834334,-0.2901972,1.199747,0.6180928,0.760743,1.465444,0.3212345,-0.2439003,0.1044156,0.01708265,-1.054537,-0.01310528,0.1405936,0.8195817,1.45864,0.175492,0.3618273,1.430613,0.3135238,293.6547,100.0413,153.2029,False
3,1.966671,-1.264389,0.121223,0.03888047,-1.424718,1.531211,-2.087786,0.6144404,1.318348,0.4160116,-1.404635,0.1895025,0.1,0.7,-0.7689103,0.0879609,0.4616583,-0.2865945,1.190593,0.6347338,0.7596306,1.466366,0.3207529,-0.2250064,0.09687847,-0.009728191,-1.055485,-0.01204002,0.1419201,0.8187293,1.458808,0.1755934,0.36033,1.435906,0.3117724,294.248,100.0223,152.8989,False
3,1.977782,-1.316645,0.2172621,0.08531252,-1.430695,1.530625,-2.071357,0.6114357,1.320914,0.4153142,-1.40176,0.2617303,0.1,0.7,-0.7818584,0.04217649,0.4634896,-0.2832719,1.176178,0.6577606,0.7585584,1.46723,0.3201475,-0.2306059,0.1032332,-0.03845181,-1.056741,-0.01034891,0.1438139,0.8178919,1.459062,0.175689,0.358715,1.441381,0.3102321,294.6872,99.92004,152.669,False
3,1.988893,-1.100396,0.2334376,0.0990373,-1.434478,1.530317,-2.065648,0.6075399,1.32395,0.4143932,-1.40197,-0.02091634,0.1,0.7,-0.7621356,-0.02263108,0.4339819,-0.2814972,1.160094,0.6812936,0.7572606,1.468025,0.3196306,-0.2434754,0.1075047,-0.04791915,-1.0574,-0.00864036,0.1461452,0.8170912,1.459326,0.1757395,0.3571662,1.447362,0.3090255,295.0143,99.56648,152.8147,False
3,2.000004,-0.8660144,0.2090467,0.09588151,-1.435562,1.530726,-2.064956,0.6044683,1.326524,0.4135003,-1.403263,-0.1173396,0.1,1.5,-0.7559462,-0.01607096,0.4115924,-0.278483,1.151635,0.6977812,0.7558075,1.468894,0.3191299,-0.2434939,0.09897628,-0.04791755,-1.057896,-0.00771358,0.1484638,0.8163658,1.459544,0.1757395,0.355911,1.454034,0.3081931,295.4862,98.99345,153.3136,False
3,2.011115,-0.8255466,0.2357883,0.1191898,-1.439558,1.530991,-2.056446,0.6017143,1.329092,0.4126565,-1.414237,-1.0022,0.1,1.5,-0.7601446,0.00847286,0.4086446,-0.2745208,1.143831,0.713854,0.7543592,1.469681,0.3186789,-0.2401799,0.08407965,-0.03301165,-1.057688,-0.007297328,0.1507906,0.8154372,1.459817,0.1757963,0.3549984,1.461455,0.3077186,296.2727,98.05454,154.3113,False
3,2.022226,-0.815996,0.2944646,0.1370263,-1.445164,1.530393,-2.047451,0.5987208,1.331564,0.4113152,-1.419666,-0.488409,0.1,1.5,-0.7571375,0.08988911,0.3549613,-0.2703385,1.149875,0.7163547,0.7525846,1.470356,0.3182166,-0.2453732,0.09689474,-0.02233321,-1.0574,-0.005547897,0.1528005,0.8144816,1.460019,0.1759176,0.3543831,1.468871,0.3074937,297.6852,96.92341,155.6539,False
3,2.033337,-0.8053479,0.2955647,0.1487193,-1.448799,1.530668,-2.038801,0.5953004,1.334587,0.4105349,-1.411229,0.773944,0.1,1.5,-0.7348877,0.1273127,0.3273547,-0.2668402,1.14992,0.7236477,0.7510928,1.471145,0.3176205,-0.2462695,0.1224812,-0.01065303,-1.056929,-0.00304386,0.1542806,0.8134124,1.460304,0.176008,0.3540371,1.475001,0.3073963,299.238,95.82809,156.9412,False
3,2.044448,-0.6497263,0.1365747,0.06950411,-1.444204,1.530928,-2.037022,0.5920973,1.337626,0.409524,-1.409114,0.185672,0.1,1.5,-0.7199231,0.1197281,0.3356738,-0.2631821,1.142915,0.7378426,0.7495141,1.471986,0.3170905,-0.25041,0.1352886,-0.001044337,-1.056324,-0.0009162606,0.1561305,0.8123178,1.460597,0.1760449,0.3531651,1.480139,0.3072748,300.1317,94.85733,158.0357,False
3,2.055559,-0.5996207,0.1048853,0.1271482,-1.445585,1.533869,-2.032509,0.5886359,1.340539,0.4088352,-1.408889,0.01938513,0,1.7,-0.7099607,0.1300289,0.3718772,-0.258121,1.133356,0.7545992,0.7477639,1.472756,0.3164313,-0.2578261,0.1385017,0.002216779,-1.056017,0.0008282431,0.1583297,0.8113822,1.460926,0.1761286,0.3514178,1.484831,0.3070185,300.4839,94.20478,158.8307,False
3,2.06667,-0.6262096,0.03768127,0.111477,-1.444458,1.53536,-2.024917,0.5855728,1.343036,0.4078047,-1.415304,-0.5867659,0,1.7,-0.7058605,0.1558161,0.3443598,-0.2542195,1.132446,0.7631365,0.7458386,1.473618,0.3159277,-0.2567167,0.1289222,0.008613242,-1.055523,0.002000567,0.1605577,0.8101962,1.461296,0.1761568,0.3488829,1.48933,0.3065189,300.5803,94.03612,159.21,False
3,2.077781,-0.6378885,-0.03703922,0.08517008,-1.441888,1.536751,-2.017266,0.5826898,1.345471,0.4070513,-1.412241,0.2845707,0,1.7,-0.7029621,0.1859627,0.3040792,-0.2508858,1.135653,0.768106,0.744013,1.474656,0.3152874,-0.2597769,0.1300156,0.02248597,-1.054645,0.003521231,0.1628361,0.8091054,1.461597,0.1762064,0.3460518,1.49309,0.3055731,300.7736,94.27609,159.1441,False
3,2.088892,-0.6516634,-0.1447251,0.06754862,-1.437058,1.539218,-2.009881,0.5797241,1.347867,0.4060841,-1.408288,0.357859,0,1.7,-0.6861823,0.2417312,0.2532638,-0.2469986,1.146372,0.7647709,0.7419737,1.475499,0.3147547,-0.2903374,0.1322613,0.05581106,-1.052584,0.004952281,0.1664369,0.8077924,1.46199,0.1761634,0.3429092,1.496255,0.3041895,300.7337,94.08619,159.214,False
3,2.100003,-0.6505808,-0.1724147,0.07085534,-1.435002,1.541235,-2.002982,0.5767969,1.350059,0.4052379,-1.407573,0.06237552,0.1,1.6,-0.6818909,0.2876379,0.239748,-0.2421564,1.154036,0.7649043,0.7399722,1.476408,0.3143578,-0.2967019,0.1290832,0.05907547,-1.051617,0.00631542,0.1692657,0.8065894,1.462385,0.1762433,0.3398006,1.498926,0.3023695,300.5098,94.20731,158.9604,False
3,2.111114,-0.6335354,-0.1734723,0.06979256,-1.433506,1.542774,-1.996769,0.5738783,1.352343,0.4043126,-1.407562,0.0007749418,0,1.5,-0.7031201,0.3026116,0.242203,-0.2373729,1.157949,0.7696818,0.7379257,1.477316,0.313787,-0.28479,0.1141841,0.08135055,-1.049868,0.006799716,0.1717499,0.8052382,1.462667,0.1763318,0.33702,1.501361,0.3001544,300.272,94.70045,158.2859,False
3,2.122225,-0.5951729,-0.197976,0.06564633,-1.431217,1.544647,-1.991694,0.5709991,1.35455,0.4033351,-1.408017,-0.04165235,0,1.5,-0.7504209,0.2743207,0.2082877,-0.235269,1.159986,0.7778888,0.7360249,1.478011,0.3132179,-0.284714,0.1173794,0.08773734,-1.048505,0.008002533,0.1741268,0.8039752,1.463002,0.1763151,0.3346754,1.503843,0.2975348,300.1746,95.23571,157.4627,False
3,2.133336,-0.529112,-0.2289169,0.04447216,-1.427832,1.54589,-1.988106,0.5681248,1.356889,0.4022069,-1.408681,-0.06053816,0,1.5,-0.7678512,0.2565494,0.175234,-0.2333259,1.164464,0.7826402,0.733966,1.478854,0.3124545,-0.2996823,0.1333692,0.07933542,-1.047607,0.0101304,0.1769487,0.802673,1.463278,0.1762891,0.332745,1.506637,0.2947054,300.2668,95.5535,156.6561,False
3,2.144447,-0.4609209,-0.2480953,0.03282973,-1.42471,1.547273,-1.985573,0.5652202,1.359094,0.4010384,-1.409622,-0.08570994,0,1.5,-0.7571289,0.2906529,0.169036,-0.2291693,1.172935,0.7823043,0.7320248,1.479529,0.311805,-0.3136599,0.1429594,0.06453217,-1.047182,0.01222977,0.1798057,0.8013827,1.463554,0.1762936,0.3311476,1.50985,0.2918953,300.5854,95.71962,155.9765,False
3,2.155558,-0.4119141,-0.2481337,0.02110448,-1.422097,1.548385,-1.982682,0.5623675,1.361322,0.3998594,-1.410954,-0.1212957,0.1,1.9,-0.7441548,0.3043349,0.1828893,-0.2245631,1.177281,0.7857084,0.7299256,1.480288,0.3113124,-0.3105253,0.144008,0.05810735,-1.046479,0.01400197,0.1822588,0.8001069,1.463854,0.1763046,0.32983,1.513325,0.2892375,301.1255,95.80494,155.4924,False
3,2.166669,-0.3384095,-0.2513662,0.00086651,-1.419132,1.54889,-1.981645,0.5594424,1.363402,0.3987012,-1.411656,-0.06351789,0.1,1.9,-0.7358635,0.2638972,0.1739431,-0.2222035,1.177061,0.7938726,0.7278659,1.481068,0.3107512,-0.2956878,0.1450294,0.05048955,-1.04609,0.01574661,0.1841432,0.7987852,1.464217,0.1763308,0.3286228,1.516845,0.2867745,301.8185,95.86833,155.1521,False
3,2.17778,-0.2670176,-0.2630527,-0.0001669824,-1.415858,1.550346,-1.981185,0.5564766,1.365422,0.3977151,-1.410867,0.07222918,0.1,1.9,-0.726493,0.2309347,0.1629269,-0.2201619,1.176872,0.8018703,0.7257005,1.481829,0.310245,-0.3063402,0.1588959,0.04737351,-1.045233,0.01817754,0.1866114,0.7973773,1.464565,0.1762607,0.3273282,1.520165,0.2845339,302.5137,95.82357,154.9675,False
3,2.188891,-0.2052074,-0.2830049,0.05318019,-1.413385,1.553866,-1.981606,0.553696,1.367169,0.3967385,-1.412163,-0.1196821,0.1,1.9,-0.7055515,0.2205052,0.1274872,-0.2185923,1.182591,0.8033527,0.7235306,1.48254,0.3096721,-0.3170629,0.1663612,0.03894275,-1.044696,0.02051659,0.1893244,0.7959726,1.464923,0.1761765,0.3257402,1.523192,0.2825243,303.0664,95.78112,154.8347,False
3,2.200002,-0.1370193,-0.2968495,0.04258014,-1.409976,1.555339,-1.982624,0.5509347,1.368754,0.3958578,-1.412153,0.001642807,0.1,2.1,-0.684213,0.257818,0.1159053,-0.2147871,1.193306,0.7997446,0.7211806,1.483254,0.3089387,-0.3212163,0.1653123,0.04964188,-1.043446,0.0221844,0.1920682,0.7944952,1.465383,0.1760948,0.323769,1.525737,0.2807561,303.5064,95.81861,154.6785,False
3,2.211113,-0.09866409,-0.2999486,0.05750307,-1.407298,1.557802,-1.983261,0.548225,1.370238,0.394928,-1.412052,0.008674622,0.1,2.1,-0.6745914,0.2695094,0.1148516,-0.2115003,1.200296,0.800029,0.7189405,1.483946,0.3083174,-0.3284179,0.1717585,0.07420579,-1.041364,0.02423503,0.1949112,0.7930036,1.465752,0.1760426,0.3213961,1.527654,0.2791822,303.7073,95.79575,154.6134,False
3,2.222224,-0.05714596,-0.2615447,0.06158467,-1.406244,1.559181,-1.984057,0.5456304,1.371196,0.3940189,-1.412311,-0.02428911,0.1,2.1,-0.6480777,0.293014,0.09350958,-0.2083444,1.211636,0.7954183,0.7166468,1.484549,0.3076401,-0.3398995,0.1824701,0.09666429,-1.039204,0.02650498,0.1979791,0.7914878,1.466049,0.1760426,0.3187257,1.52885,0.277681,303.6614,95.72567,154.6448,False
3,2.233335,-0.03265225,-0.2477123,0.05406262,-1.404295,1.560379,-1.984506,0.5429931,1.372521,0.3933372,-1.411186,0.1027533,0.1,2.1,-0.6429438,0.2782102,0.07842939,-0.2061958,1.218706,0.7955129,0.7143279,1.485175,0.3069568,-0.3440676,0.1920783,0.1041474,-1.037321,0.02899903,0.2006703,0.789963,1.46639,0.1760137,0.3157481,1.529398,0.276177,303.4809,95.91232,154.4314,False
3,2.244446,-0.0007163212,-0.2178648,0.05285777,-1.403211,1.561466,-1.98574,0.5404574,1.373351,0.3925204,-1.410838,0.03046532,0.1,2.1,-0.6354842,0.2920767,0.0731528,-0.2031481,1.229031,0.792157,0.7119058,1.485632,0.3063405,-0.3535764,0.2261887,0.1052519,-1.035385,0.03283624,0.2029236,0.7883706,1.466725,0.1759481,0.3125278,1.529484,0.2746377,303.1285,96.14378,154.1158,False
3,2.255557,0.02163378,-0.1912311,0.04953815,-1.402256,1.562333,-1.986734,0.5379355,1.374294,0.3916965,-1.410031,0.07329094,0.1,3.1,-0.6218253,0.3125166,0.04444726,-0.2003725,1.245221,0.7827976,0.7094853,1.486126,0.3056483,-0.3535951,0.2336479,0.1020276,-1.034126,0.0358596,0.2052836,0.7868047,1.467108,0.1758676,0.3091857,1.529282,0.2731354,302.697,96.42258,153.6864,False
3,2.266668,0.0567443,-0.1380507,0.02479052,-1.402337,1.561701,-1.988449,0.5355073,1.374611,0.3910632,-1.410332,-0.02845739,0.1,3,-0.5912612,0.2881213,0.01838681,-0.1991634,1.255998,0.7777905,0.7069817,1.486628,0.3050766,-0.355694,0.2336572,0.1052443,-1.032396,0.03847975,0.207942,0.7851824,1.467436,0.1758375,0.3057718,1.529089,0.2717192,302.2373,96.80584,153.1512,False
3,2.277779,0.06844905,-0.1189116,0.01511645,-1.401598,1.561931,-1.98956,0.5329549,1.375323,0.3903761,-1.409783,0.0502341,0.1,3,-0.5796992,0.2860755,0.003350809,-0.1972966,1.268198,0.7720461,0.7045776,1.487222,0.3044116,-0.3555438,0.2666951,0.1137124,-1.030072,0.04271524,0.2096877,0.7835405,1.46778,0.1758044,0.3024972,1.528917,0.2704537,301.8577,97.09017,152.764,False
3,2.28889,0.07801733,-0.094422,0.01074301,-1.401388,1.561992,-1.990772,0.5305417,1.375475,0.389926,-1.410308,-0.04875498,0.1,3,-0.559453,0.2956156,4.978478E-05,-0.1948821,1.282018,0.7640553,0.7020297,1.487621,0.3039246,-0.351185,0.2880112,0.1189549,-1.027893,0.04680226,0.2113333,0.7819154,1.468133,0.1757698,0.2994255,1.528844,0.2693681,301.5994,97.31368,152.4665,False
3,2.300001,0.08652706,-0.06987251,0.02021756,-1.401457,1.562624,-1.992028,0.5281143,1.375626,0.3895113,-1.409266,0.09554645,0,2.4,-0.5489151,0.311734,-0.01907796,-0.1925002,1.300551,0.7516969,0.6993762,1.487896,0.3032806,-0.3435996,0.2997314,0.1295147,-1.02537,0.05060312,0.2129328,0.7802659,1.468503,0.1757779,0.2966119,1.528775,0.2685792,301.5132,97.45348,152.2598,False
3,2.311112,0.09077925,-0.05597236,0.03080713,-1.401615,1.563339,-1.993305,0.5257146,1.375741,0.3891277,-1.408963,0.02648892,0,2.2,-0.5448033,0.3139949,-0.03614263,-0.1908043,1.317901,0.740615,0.6968753,1.488181,0.3027699,-0.3489372,0.3146489,0.1252822,-1.023297,0.05481425,0.2148255,0.7785717,1.468818,0.1757677,0.2939131,1.528821,0.2680434,301.4719,97.49915,152.2086,False
3,2.322223,0.09928246,-0.03355179,0.04029276,-1.40229,1.563906,-1.994729,0.5234286,1.375589,0.3888838,-1.408647,0.02865015,0,2.2,-0.4838696,0.3435205,-0.02578127,-0.1873971,1.337034,0.7252826,0.6942875,1.488223,0.30247,-0.3480019,0.3284697,0.1092704,-1.021742,0.05941446,0.2163179,0.7768807,1.469056,0.1757665,0.2914115,1.528804,0.2677614,301.4844,97.43552,152.299,False
3,2.333334,0.1045889,-0.005816562,0.04762368,-1.4034,1.564281,-1.99612,0.5212164,1.375339,0.38867,-1.408412,0.02112447,0,2.2,-0.420173,0.3274603,-0.04355478,-0.1859792,1.353879,0.7114835,0.6918722,1.488432,0.3022463,-0.3108495,0.3358188,0.0939681,-1.020537,0.06370095,0.2163201,0.7752081,1.469303,0.1757524,0.2890075,1.528752,0.2676496,301.4866,97.26781,152.5348,False
3,2.344445,0.1077624,0.02402832,0.05068423,-1.404741,1.564377,-1.997433,0.5190927,1.374959,0.3884857,-1.40838,0.00265677,0,2.2,-0.371836,0.2680235,-0.09139925,-0.1871425,1.367366,0.7011173,0.689536,1.488763,0.3019371,-0.2885633,0.3410846,0.08415163,-1.019072,0.06812526,0.2164985,0.7735536,1.469572,0.1757329,0.2866552,1.528638,0.2676236,301.4804,97.09201,152.7968,False
3,2.355556,0.1109377,0.05706947,0.0537286,-1.406596,1.564259,-1.998797,0.5168065,1.374759,0.3882749,-1.40821,0.01534908,0,1.4,-0.3255831,0.2117803,-0.135981,-0.1888171,1.380249,0.6908874,0.6870489,1.48906,0.3016129,-0.2779917,0.3357293,0.07659759,-1.017674,0.07207046,0.2171978,0.7718164,1.469966,0.1757095,0.2843717,1.52837,0.2676628,301.4731,96.92178,153.0221,False
3,2.366668,0.121554,0.1061,0.05776665,-1.409588,1.563774,-2.000461,0.5148582,1.374182,0.38833,-1.408011,0.01800963,0,1.2,-0.2600011,0.1702728,-0.1699698,-0.1909071,1.392424,0.6796965,0.6847051,1.489199,0.3014197,-0.2779772,0.3325368,0.07873327,-1.015965,0.07598878,0.2182841,0.7700667,1.470267,0.1757021,0.2821147,1.527945,0.2677588,301.4418,96.76324,153.2142,False
3,2.377779,0.1289922,0.1242161,0.05874724,-1.411453,1.563638,-2.00202,0.5130138,1.374044,0.3880625,-1.407947,0.0056128,0,1.2,-0.2212959,0.2157707,-0.1497023,-0.1891137,1.412871,0.6610916,0.6822454,1.489247,0.3011494,-0.2605863,0.3251152,0.1147809,-1.012932,0.07937512,0.2188604,0.7682724,1.470633,0.1756754,0.2798063,1.527429,0.2679048,301.374,96.63162,153.3739,False
3,2.38889,0.1439045,0.1252639,0.05234832,-1.412926,1.563357,-2.004091,0.5111405,1.373639,0.3880236,-1.408173,-0.02081418,0,1.2,-0.21359,0.2475817,-0.1356506,-0.1876367,1.432322,0.6440908,0.6800053,1.489313,0.3008718,-0.2443801,0.3134053,0.1402087,-1.009877,0.08228555,0.2194474,0.7666018,1.470932,0.1756546,0.2773784,1.52692,0.268121,301.2605,96.51258,153.4916,False
3,2.400001,0.1620281,0.09857414,0.04500398,-1.412517,1.563868,-2.006459,0.5093737,1.372984,0.3871787,-1.407908,0.02430036,0,1.2,-0.2327876,0.2455315,-0.1365569,-0.187249,1.448779,0.6313844,0.6778306,1.489338,0.3006697,-0.1836545,0.2770883,0.1471255,-1.007596,0.08415296,0.2183347,0.7648816,1.471112,0.1760416,0.2749879,1.526308,0.2685093,301.0767,96.35158,153.6716,False
3,2.411112,0.1822816,0.08254551,0.03015663,-1.412803,1.563534,-2.009099,0.5075807,1.372634,0.3870084,-1.408276,-0.03391219,0.1,1.8,-0.2197959,0.2410014,-0.1122052,-0.1862508,1.460078,0.6223147,0.6755939,1.489423,0.300626,-0.161442,0.2727522,0.1319949,-1.006145,0.08724582,0.2179126,0.7632496,1.471325,0.1760857,0.2726198,1.525712,0.268982,300.8506,96.24365,153.9234,False
3,2.422223,0.2014566,0.08250898,0.02057171,-1.413569,1.563219,-2.011939,0.5057359,1.372263,0.386833,-1.408345,-0.006146363,0.1,1.8,-0.1889431,0.2419902,-0.1167433,-0.1858231,1.476763,0.6069978,0.6734903,1.489446,0.3004825,-0.1541178,0.2897542,0.1148501,-1.004572,0.09139755,0.2171744,0.7616565,1.47152,0.1761749,0.2703894,1.524994,0.269454,300.721,96.08932,154.3425,False
3,2.433334,0.2227418,0.1016003,-0.001889806,-1.414918,1.561715,-2.014842,0.5040699,1.371933,0.3867176,-1.40858,-0.02156869,0.1,1.8,-0.1437909,0.2007339,-0.1707776,-0.1883494,1.492439,0.5917823,0.6717066,1.489279,0.3004725,-0.1500229,0.2993653,0.0945341,-1.003426,0.09652974,0.2160844,0.7602769,1.471831,0.1762073,0.2682994,1.524053,0.2696635,300.6475,95.95676,154.7947,False
3,2.444445,0.2333913,0.1058211,-0.01256271,-1.415883,1.560691,-2.017637,0.502404,1.371497,0.386683,-1.408615,-0.003105398,0.1,1.8,-0.1268412,0.1601364,-0.1648903,-0.1894573,1.49929,0.5859159,0.669776,1.489281,0.3003881,-0.1352563,0.2939851,0.08054864,-1.002364,0.09998825,0.2152401,0.7587987,1.472028,0.1762917,0.2661841,1.523022,0.2695956,300.5492,95.99383,154.8077,False
3,2.455556,0.2355321,0.09513065,-0.01996955,-1.416204,1.560107,-2.020228,0.5008796,1.371015,0.3867018,-1.408661,-0.004445049,0.1,1.2,-0.1033211,0.1343268,-0.1461458,-0.1896757,1.505342,0.5803949,0.6680187,1.489226,0.3002322,-0.1289133,0.2897455,0.07727696,-1.001044,0.1039337,0.2145933,0.7572913,1.472255,0.1762915,0.2639643,1.521976,0.269381,300.4017,96.1002,154.5697,False
3,2.466667,0.2323518,0.07378882,-0.02733001,-1.416101,1.559538,-2.022628,0.4993981,1.370711,0.3867664,-1.408289,0.03396053,0.1,1.1,-0.0754972,0.1287605,-0.1304701,-0.1897896,1.513639,0.5721692,0.666238,1.489251,0.3001125,-0.1152303,0.2609356,0.06653635,-1.000269,0.1060531,0.2142558,0.7558362,1.472429,0.1763105,0.2616642,1.520924,0.269231,300.2198,96.28767,154.2151,False
3,2.477778,0.2281119,0.0417714,-0.04103046,-1.415303,1.558958,-2.024885,0.4978333,1.370379,0.3869476,-1.407817,0.04273614,0.1,1.1,-0.06348419,0.1466272,-0.1069824,-0.1888256,1.525409,0.5608138,0.66447,1.489196,0.3001261,-0.1120215,0.2492503,0.06971595,-0.9988282,0.1091232,0.2137685,0.7542052,1.472513,0.1763675,0.2593741,1.519801,0.2692746,300.0206,96.43992,153.9772,False
3,2.488889,0.2249704,-0.02856887,-0.04710452,-1.412537,1.559492,-2.027378,0.4964356,1.370208,0.3870926,-1.407469,0.03141677,0.1,1.1,-0.04931821,0.1676612,-0.08136395,-0.1874386,1.537453,0.5490282,0.6628482,1.489202,0.299999,-0.09265678,0.2162499,0.08875826,-0.9970593,0.1108081,0.2134484,0.7527856,1.472704,0.1763389,0.2571689,1.518593,0.2695145,299.7832,96.5667,153.8784,False
3,2.5,0.221812,-0.08191149,-0.06178068,-1.409415,1.559651,-2.029732,0.4949988,1.369978,0.3871975,-1.407232,0.02139705,0.1,1.1,-0.04070637,0.1686284,-0.07184307,-0.1868048,1.548499,0.5384557,0.6609592,1.489075,0.2998478,-0.08537531,0.1980908,0.08231881,-0.9959099,0.1121855,0.2132177,0.7513178,1.47281,0.1763403,0.2550253,1.517411,0.269892,299.5392,96.73406,153.8083,False
3,2.511111,0.2325199,-0.1640802,-0.09443468,-1.404316,1.559785,-2.032676,0.4938347,1.369951,0.3873601,-1.407236,-0.0005234189,0,0.8,-0.019482,0.1525886,-0.0743082,-0.1870104,1.55618,0.5303518,0.6594282,1.489007,0.2997344,-0.08657704,0.1757011,0.07279229,-0.9950635,0.1134282,0.2135083,0.7498139,1.472975,0.1763029,0.2529632,1.516281,0.2703358,299.3289,96.92596,153.7599,False
3,2.522222,0.2335981,-0.1822663,-0.1092628,-1.401151,1.559539,-2.035294,0.4925392,1.369743,0.3874714,-1.407131,0.009577611,0,0.8,-0.01451693,0.1283294,-0.1033247,-0.1886072,1.565688,0.5210515,0.6578666,1.488971,0.2996204,-0.07698157,0.1565102,0.07805946,-0.9937793,0.1143892,0.2135456,0.7484429,1.473127,0.1762428,0.2510542,1.51516,0.2706825,299.1547,97.16354,153.7118,False
3,2.533333,0.2325308,-0.1876783,-0.1273436,-1.398361,1.558771,-2.037651,0.491333,1.369627,0.387675,-1.407675,-0.04982422,0,0.8,-0.01002386,0.1174104,-0.07362584,-0.1878114,1.569668,0.5172061,0.6563199,1.489013,0.2995441,-0.06519019,0.1532946,0.08540904,-0.9922102,0.1159338,0.212892,0.7469518,1.473251,0.176271,0.2493011,1.514026,0.2708045,299.0282,97.50584,153.5283,False
3,2.544444,0.2271893,-0.1717705,-0.1423289,-1.396202,1.557459,-2.039777,0.4901789,1.369509,0.3878956,-1.407418,0.0239105,0,0.8,0.01999997,0.1117713,-0.05051434,-0.1871552,-4.709099,0.5116372,0.6549707,1.489024,0.2994108,-0.05660073,0.1415729,0.09493259,-0.9905756,0.1170477,0.2126236,0.7456626,1.473361,0.1762004,0.2477248,1.512824,0.2706358,298.9472,98.01566,153.0711,False
3,2.555555,0.2207945,-0.1728968,-0.1551076,-1.393529,1.556365,-2.041799,0.4891181,1.369464,0.3882515,-1.407158,0.02346475,0.2,0.5,0.02435563,0.1159352,-0.04093259,-0.1866317,-4.70149,0.5039076,0.6534398,1.489043,0.2993388,-0.0523977,0.1351614,0.08957404,-0.9895539,0.1183462,0.2122968,0.7442857,1.473423,0.1761284,0.2461934,1.511639,0.2702487,298.8819,98.47174,152.4932,False
3,2.566666,0.2058898,-0.1835462,-0.1518692,-1.390635,1.55598,-2.043462,0.4881382,1.369439,0.3886867,-1.406975,0.01650693,0.2,0.2,0.03980543,0.1239348,0.01332732,-0.1840447,-4.699123,0.5006292,0.6523672,1.489022,0.2991977,-0.04076216,0.1116941,0.08630268,-0.9886325,0.1186116,0.2122044,0.7431233,1.473486,0.1759768,0.2446402,1.510536,0.2698005,298.8006,98.95525,151.7959,False
3,2.577777,0.1824838,-0.212346,-0.1549353,-1.386767,1.555887,-2.044767,0.4872213,1.36954,0.389204,-1.406821,0.01403139,0.2,0.2,0.0505476,0.1280919,0.02179161,-0.1827626,-4.69225,0.4930813,0.6511211,1.488987,0.299176,-0.02913454,0.09993678,0.07874779,-0.9879587,0.1192978,0.2116417,0.741908,1.473502,0.1758771,0.243068,1.509538,0.2694688,298.7043,99.47499,151.0666,False
3,2.588888,0.1569833,-0.2890789,-0.1577833,-1.380792,1.556838,-2.045909,0.4864063,1.369738,0.3897738,-1.406355,0.04245439,0.2,0.2,0.07493371,0.1110022,0.01609138,-0.1824287,-4.689025,0.4882347,0.6501832,1.488921,0.2991078,-0.0197088,0.07326629,0.06804561,-0.9876354,0.1190061,0.2116355,0.7408066,1.473544,0.1757138,0.2415521,1.508608,0.2693664,298.5924,99.98896,150.414,False
3,2.599999,0.13892,-0.350906,-0.1617639,-1.374431,1.557958,-2.047003,0.4856397,1.369916,0.390167,-1.405971,0.0348401,0.2,0.2,0.08646695,0.08440677,0.007233124,-0.1826715,-4.687948,0.48591,0.6492234,1.488852,0.2989986,-0.0049951,0.05083133,0.05195927,-0.9876605,0.118683,0.2113149,0.7398072,1.473532,0.1754694,0.2401581,1.507738,0.269498,298.4617,100.442,149.9233,False
3,2.61111,0.1038233,-0.4276953,-0.1752625,-1.36672,1.559187,-2.04716,0.4850581,1.370124,0.3906193,-1.405701,0.02445781,0.2,0,0.1053266,0.04614157,-0.01138229,-0.1838114,-4.690321,0.4863715,0.648361,1.488802,0.2989769,0.008790005,0.03161054,0.04972605,-0.9872253,0.1180844,0.2110995,0.7388114,1.473634,0.1752925,0.2389338,1.506931,0.2697705,298.3463,100.9151,149.5235,False
3,2.622221,0.06336869,-0.4661871,-0.1985161,-1.359537,1.559523,-2.046536,0.4844787,1.370244,0.3909168,-1.405738,-0.003493596,0.2,0,0.1231724,0.01960732,-0.02988462,-0.1849193,-4.690503,0.4845113,0.6473869,1.488822,0.298805,0.02258399,0.02092211,0.04641339,-0.9868743,0.1178206,0.2105335,0.7378225,1.47365,0.175106,0.2379443,1.506149,0.2699911,298.2785,101.4318,149.1596,False
3,2.633332,0.03140042,-0.4578291,-0.2294455,-1.353895,1.558378,-2.045705,0.4839478,1.370442,0.3911757,-1.404963,0.07105364,0.2,0,0.1220245,0.005790539,-0.03318887,-0.1854876,-4.691099,0.4838088,0.646588,1.488849,0.2987149,0.03200589,-0.004693814,0.03464196,-0.9871145,0.1166675,0.2104797,0.7369089,1.473672,0.1749411,0.2371937,1.505371,0.269967,298.2744,101.9714,148.76,False
3,2.644443,0.01431766,-0.4131727,-0.245624,-1.349704,1.556782,-2.044923,0.4834517,1.370685,0.3914728,-1.404511,0.04098389,0.2,0,0.1023601,0.02457704,0.02149289,-0.1830923,-4.691812,0.4841209,0.6458752,1.488948,0.2986717,0.04370499,-0.01962833,0.03561541,-0.9869621,0.1159666,0.2102749,0.7359564,1.473707,0.1747577,0.2366765,1.504595,0.2695687,298.3293,102.6433,148.1269,False
3,2.655554,0.01109496,-0.3812225,-0.2468279,-1.345721,1.555861,-2.044787,0.48296,1.370921,0.391829,-1.404859,-0.03188678,0.2,0,0.115474,0.04026259,0.05026933,-0.1811988,-4.690623,0.4811946,0.6452015,1.488933,0.2985983,0.05218861,-0.03670081,0.03556243,-0.9866863,0.1144643,0.2099982,0.7351239,1.4737,0.1746452,0.2362845,1.50395,0.2687972,298.4409,103.4077,147.2324,False
3,2.666665,0.02062267,-0.308744,-0.2396967,-1.343611,1.554217,-2.044977,0.4824339,1.371359,0.3921235,-1.40532,-0.04166878,0.3,0,0.1441506,0.03060803,0.04565642,-0.180867,-4.690859,0.4788609,0.644641,1.488917,0.2985177,0.06706481,-0.06336239,0.03759145,-0.9865467,0.112445,0.2098443,0.734324,1.473714,0.1744456,0.2359219,1.503572,0.2678458,298.5886,104.1794,146.156,False
3,2.677776,0.02379728,-0.2820445,-0.2259673,-1.340657,1.553429,-2.045151,0.4819103,1.371632,0.392431,-1.406068,-0.06789459,0.3,0,0.1514385,0.004017904,0.03789915,-0.181292,-4.694841,0.4808417,0.644089,1.488892,0.2984374,0.07126352,-0.07190988,0.03330081,-0.986609,0.1110018,0.2097796,0.7335439,1.473773,0.1741977,0.235583,1.503479,0.266982,298.7622,104.8041,145.1694,False
3,2.688887,0.03123621,-0.2574985,-0.2175569,-1.337937,1.552418,-2.045532,0.4814022,1.372001,0.392746,-1.406756,-0.06230498,0.3,0,0.1628802,-0.03960055,0.02569891,-0.1823125,-4.704083,0.4877215,0.643696,1.488924,0.2983778,0.07320103,-0.09430941,0.01840285,-0.987334,0.1088921,0.2100531,0.7328432,1.473745,0.1739607,0.2352668,1.50361,0.2663841,298.9524,105.2298,144.4454,False
3,2.699998,0.02697181,-0.2552815,-0.1983939,-1.334648,1.552342,-2.045543,0.4810306,1.372393,0.3930309,-1.406676,0.007883377,0.3,0,0.1594536,-0.06821962,0.01163056,-0.1833991,-4.710411,0.4921919,0.6431734,1.488883,0.2983611,0.07516313,-0.1103216,0.004557487,-0.9881638,0.1068659,0.2102816,0.7321758,1.473732,0.1737046,0.2348933,1.503945,0.2661777,299.1442,105.4691,144.0406,False
3,2.711109,0.02376675,-0.2393084,-0.1995322,-1.331691,1.551247,-2.045496,0.480624,1.372824,0.3932106,-1.406949,-0.02505088,0.3,0,0.1359941,-0.08735186,0.01701077,-0.1838844,1.563575,0.50058,0.6427568,1.488988,0.2982397,0.08040956,-0.1231299,-0.0008011607,-0.9887134,0.1047637,0.2103831,0.731564,1.473825,0.173403,0.2345041,1.504291,0.2663604,299.3354,105.6055,143.9163,False
3,2.72222,0.02054935,-0.2159395,-0.2145534,-1.328948,1.549318,-2.045119,0.4802921,1.373302,0.3935077,-1.406428,0.04784819,0.2,0,0.1211508,-0.08842883,0.02566455,-0.1837139,1.557739,0.5055377,0.6423659,1.489125,0.2980468,0.07499377,-0.1359121,-0.007120425,-0.9893968,0.1025609,0.2109538,0.7309397,1.473838,0.1731215,0.2340728,1.504566,0.2668425,299.4669,105.7264,143.933,False
3,2.733331,0.01734275,-0.2031862,-0.2199407,-1.32601,1.547816,-2.044841,0.4799261,1.37375,0.3937542,-1.406596,-0.01578003,0.2,0,0.1075369,-0.06613731,0.04196612,-0.1827616,1.555769,0.5066784,0.6418534,1.48923,0.2978234,0.06431256,-0.1401543,-0.009141328,-0.9899108,0.1006251,0.2116739,0.7302736,1.473844,0.1728616,0.2336098,1.50473,0.2674522,299.5016,105.8932,143.992,False
3,2.744442,0.00988468,-0.2043198,-0.2337836,-1.322608,1.546097,-2.044267,0.4795072,1.374211,0.3940706,-1.406552,0.004244348,0.2,0,0.1047548,-0.02053913,0.06795284,-0.180639,1.557953,0.5034882,0.6413594,1.48935,0.2976384,0.0432239,-0.1304902,0.01128712,-0.9893638,0.09909582,0.2128233,0.7297161,1.473844,0.172657,0.2330563,1.504856,0.26806,299.5086,106.1984,143.9011,False
3,2.755553,0.003493454,-0.2064786,-0.2391,-1.319212,1.544648,-2.043723,0.4790707,1.37465,0.3944013,-1.406599,-0.00424034,0.2,0,0.1017309,-0.01213147,0.08296782,-0.1793213,1.554854,0.5054946,0.6408695,1.489463,0.2974718,0.04222459,-0.1230219,0.01661045,-0.9892471,0.0977207,0.2131336,0.7290715,1.473815,0.1724422,0.2324313,1.504978,0.2686477,299.5066,106.6029,143.6476,False
3,2.766664,0.005635915,-0.223584,-0.2528721,-1.314985,1.543104,-2.043481,0.47865,1.375209,0.3947463,-1.406423,0.01615616,0.3,0,0.09794146,0.007760033,0.1257918,-0.1764003,1.550719,0.5086851,0.6404921,1.489488,0.2974455,0.04331515,-0.111306,0.01658121,-0.9892567,0.09670723,0.2131711,0.72849,1.473819,0.1722519,0.2317738,1.505099,0.2691802,299.5193,106.995,143.3825,False
3,2.777775,0.01417041,-0.2427942,-0.262378,-1.310559,1.541695,-2.043572,0.4781484,1.375829,0.3950887,-1.406436,-0.001318351,0.3,0,0.1106222,-0.0007472187,0.118142,-0.1757447,1.546158,0.5115246,0.6401025,1.489544,0.2974544,0.04549475,-0.1113077,0.02188322,-0.9892136,0.0950594,0.2134966,0.7278953,1.473773,0.1720505,0.2311057,1.505216,0.2696229,299.5611,107.4068,143.0739,False
3,2.788886,0.02162456,-0.2534787,-0.2708545,-1.306302,1.54014,-2.043523,0.4778698,1.376425,0.395467,-1.40683,-0.03592253,0.3,0,0.1273312,-0.04112324,0.09846267,-0.1763433,1.536106,0.5194381,0.6397643,1.489605,0.2973807,0.0379452,-0.1113067,0.01236818,-0.9896791,0.09365552,0.2141011,0.7273346,1.473713,0.1718571,0.2304615,1.505318,0.2699515,299.6136,107.8299,142.7282,False
3,2.799997,0.02482434,-0.258842,-0.2782898,-1.301994,1.538526,-2.043483,0.4775515,1.377129,0.395838,-1.4072,-0.03352541,0.3,0,0.1378845,-0.05818234,0.09502693,-0.1760733,1.52696,0.5266135,0.639449,1.489789,0.2973115,0.02712557,-0.09640746,-0.007790528,-0.9905787,0.09307522,0.2145602,0.7268965,1.47367,0.1716535,0.2298426,1.505404,0.2701448,299.6943,108.3239,142.2837,False
3,2.811108,0.02377755,-0.2812434,-0.2845799,-1.296996,1.537294,-2.043389,0.4772788,1.377767,0.3962512,-1.407131,0.00652254,0.3,0,0.1453001,-0.06565638,0.09383574,-0.1755305,1.519446,0.5321891,0.6391288,1.489907,0.2971532,0.02173883,-0.09534025,-0.01413359,-0.9911774,0.09199091,0.2151014,0.7263845,1.473609,0.171452,0.229248,1.505458,0.2702163,299.7851,108.8444,141.7603,False
3,2.822219,0.01740461,-0.3089755,-0.2908436,-1.291545,1.53622,-2.042998,0.4770542,1.378344,0.3966424,-1.407132,-0.0001389144,0.4,0,0.1389875,-0.05287673,0.09720041,-0.1745489,1.515138,0.5350429,0.6387985,1.489994,0.2970204,0.02066816,-0.1070548,-0.01197663,-0.991586,0.09010193,0.2159248,0.7259685,1.473629,0.1712101,0.2287247,1.505457,0.2702246,299.8523,109.4013,141.1578,False
3,2.83333,0.01314331,-0.3229001,-0.3056996,-1.286111,1.534469,-2.04242,0.4768707,1.378897,0.3969014,-1.406973,0.01453281,0.4,0,0.1294802,-0.04542163,0.102679,-0.1735273,1.51065,0.5383149,0.6383961,1.490075,0.2967618,0.020712,-0.119828,-0.005564621,-0.9917974,0.08796141,0.2167182,0.725476,1.473623,0.1709583,0.228241,1.505457,0.27021,299.9267,109.9754,140.5321,False
3,2.844441,0.001423456,-0.3229622,-0.3174161,-1.281123,1.53251,-2.041484,0.47671,1.379371,0.3972669,-1.406631,0.03117963,0.4,0,0.1242425,-0.01982641,0.1018822,-0.1722421,1.510638,0.5371202,0.6380602,1.490176,0.2966554,0.02404889,-0.1262012,0.01039344,-0.9915423,0.08587988,0.2174756,0.7249824,1.473629,0.1707168,0.2278393,1.505411,0.2701911,300.0309,110.5388,139.9421,False
3,2.855552,-0.004978802,-0.3155377,-0.3227694,-1.276585,1.530647,-2.040665,0.4766102,1.379848,0.3975351,-1.406634,-0.0005429919,0.4,0,0.1179595,-0.005992606,0.1073787,-0.1709142,1.509259,0.5372807,0.637708,1.490196,0.2965264,0.0262989,-0.1293898,0.02315851,-0.9912648,0.08381847,0.218197,0.7244819,1.473545,0.1704948,0.2275152,1.505315,0.2701451,300.1547,111.1057,139.3789,False
3,2.866663,-0.01140508,-0.2728834,-0.3123076,-1.273696,1.528521,-2.039677,0.4765699,1.380103,0.3978696,-1.406402,0.02126332,0.1,0,0.1083724,-0.001679569,0.1053728,-0.1699374,1.506153,0.5394185,0.6375721,1.490179,0.2964311,0.0295302,-0.127261,0.02631984,-0.9911545,0.08212723,0.2186801,0.7240586,1.473553,0.1703289,0.2272314,1.505206,0.2700712,300.3029,111.7036,138.7769,False
3,2.877774,-0.009300701,-0.2344906,-0.3028966,-1.27101,1.526286,-2.039049,0.4764798,1.380478,0.3981616,-1.406536,-0.01239979,0.1,0,0.1115408,0.005804956,0.1000804,-0.1690228,1.504438,0.539839,0.6373924,1.490202,0.2963681,0.03055679,-0.1251387,0.02203672,-0.9915124,0.0806272,0.2191651,0.7237437,1.4735,0.1701336,0.2270195,1.505261,0.2701206,300.4358,112.2749,138.205,False
3,2.888885,-0.01041129,-0.1747378,-0.2818606,-1.269819,1.523991,-2.038207,0.4765856,1.38073,0.3985782,-1.40653,0.0007460368,0.1,0,0.1231476,0.005861774,0.08825486,-0.1684748,1.503058,0.5394523,0.6372331,1.490266,0.2963731,0.02832241,-0.1113081,0.008185808,-0.9920776,0.07985555,0.2193545,0.7233722,1.473512,0.1699815,0.2267558,1.505168,0.2701115,300.6272,113.028,137.4794,False
3,2.899997,-0.008330945,-0.1075174,-0.2587272,-1.269766,1.521497,-2.037446,0.4766846,1.380791,0.3989551,-1.406971,-0.04026126,0.1,0,0.1433522,0.0004730821,0.08695424,-0.1677168,1.499617,0.5406355,0.6371244,1.490338,0.2964628,0.03032148,-0.1102619,-0.005688263,-0.9928595,0.07876232,0.2195148,0.7231311,1.473527,0.1699078,0.2265653,1.505156,0.2702478,300.6581,113.1927,137.2012,False
3,2.911108,-0.00303648,-0.05947748,-0.2376397,-1.269667,1.519224,-2.036967,0.4767396,1.380893,0.3993392,-1.406848,0.01154841,0.2,0,0.1506903,-0.01547696,0.080355,-0.1675043,1.493957,0.5442569,0.6369649,1.490376,0.2964959,0.0345156,-0.1166649,-0.01104083,-0.9933602,0.07711822,0.2199119,0.7227221,1.473487,0.1698074,0.2263988,1.50526,0.2705721,300.7229,113.4534,136.9005,False
3,2.922219,0.007569499,0.002443269,-0.2112925,-1.270991,1.516785,-2.0367,0.4769046,1.380853,0.3997574,-1.406983,-0.01239778,0.1,0,0.1707783,-0.02183434,0.067334,-0.1675203,1.490475,0.5452465,0.6368868,1.490366,0.2964599,0.03662656,-0.1113482,-0.01426583,-0.9938416,0.07594057,0.2200932,0.7224284,1.473466,0.1696894,0.2262619,1.505411,0.2712087,300.7302,113.7699,136.653,False
3,2.93333,0.02138459,0.04944379,-0.185936,-1.272203,1.514704,-2.036804,0.4770094,1.380929,0.400238,-1.407216,-0.02123668,0.1,0,0.1846848,-0.02193603,0.07359376,-0.1667043,1.486703,0.5465217,0.6367663,1.490326,0.2965069,0.04841351,-0.1102962,-0.006922474,-0.9938959,0.07454547,0.2200253,0.7220428,1.473464,0.1696424,0.2262025,1.505662,0.2721428,300.7832,113.7849,136.7162,False
3,2.944441,0.04267607,0.07194214,-0.1615383,-1.273167,1.513087,-2.037519,0.4771397,1.380998,0.4007118,-1.407472,-0.02325665,0.1,0,0.2122709,-0.03262895,0.06578799,-0.1666383,1.48153,0.548347,0.6367329,1.490323,0.2965891,0.06027354,-0.1102965,0.007875441,-0.9936067,0.0729766,0.2198597,0.7217914,1.473463,0.1695414,0.2261945,1.506019,0.2733069,300.8285,113.7334,136.9411,False
3,2.955552,0.05226713,0.07200391,-0.1498195,-1.273181,1.511555,-2.037962,0.4772657,1.381041,0.4011559,-1.407703,-0.02098177,0.1,0,0.2174175,-0.05065355,0.0538625,-0.1671443,1.475294,0.5519915,0.636678,1.490347,0.2966433,0.05713172,-0.1102744,0.01322665,-0.9936147,0.07163344,0.2200527,0.7215378,1.473482,0.1693292,0.2262238,1.506431,0.2746787,300.857,113.6005,137.2838,False
3,2.966663,0.05867373,0.05500281,-0.1412214,-1.272638,1.510385,-2.038506,0.4774221,1.381115,0.4016235,-1.408107,-0.03678194,0.7,0,0.2110823,-0.0592338,0.06343608,-0.1667767,1.467013,0.5580531,0.6366392,1.490387,0.2967138,0.05612441,-0.1209106,0.02177566,-0.9934757,0.06955205,0.2206426,0.7212455,1.473487,0.1691687,0.2262321,1.506876,0.276181,300.8672,113.4354,137.7005,False
3,2.977774,0.06509389,0.01879782,-0.1389304,-1.271007,1.509456,-2.039101,0.4775522,1.381137,0.402072,-1.407738,0.0338749,0.5,0,0.206927,-0.04754445,0.06996544,-0.1658329,1.464155,0.5587701,0.6365132,1.490357,0.296761,0.05388987,-0.134752,0.01435976,-0.993986,0.06755547,0.2211942,0.7210714,1.47343,0.1690507,0.2262219,1.507242,0.2777086,300.8804,113.2723,138.1618,False
3,2.988885,0.06406066,-0.01957549,-0.1440854,-1.268879,1.508467,-2.039516,0.4777477,1.381173,0.4025207,-1.407588,0.01338209,0.5,0,0.1962509,-0.03892753,0.06374425,-0.1655128,1.461946,0.5590508,0.6364915,1.490319,0.2968023,0.05169559,-0.1294309,0.006913587,-0.9944776,0.06622297,0.221453,0.7208259,1.473397,0.1689403,0.2259779,1.507283,0.2792418,300.7543,113.531,138.3486,False
3,2.999996,0.06195124,-0.05262446,-0.149264,-1.266602,1.507501,-2.039789,0.477994,1.381148,0.4028504,-1.407484,0.009346162,0.5,0,0.1846168,-0.0165152,0.06404652,-0.1646345,1.462369,0.5570225,0.6364261,1.490362,0.2967761,0.04538334,-0.1198038,0.01335082,-0.9943205,0.06521123,0.2218056,0.7206725,1.473286,0.1688576,0.2252487,1.506704,0.2808112,300.4424,114.2494,138.148,False
3,3.011107,0.06302813,-0.06756101,-0.1545237,-1.264687,1.506291,-2.040167,0.4782583,1.381096,0.4032435,-1.407256,0.02073235,0.5,0,0.1728816,-0.001489863,0.05576048,-0.1641338,1.463459,0.554362,0.6363972,1.490298,0.2968218,0.05184073,-0.1144612,0.01860116,-0.9941671,0.06419883,0.221501,0.7206072,1.473237,0.1687493,0.2242232,1.505623,0.2822171,299.9589,115.0212,137.7934,False
3,3.022218,0.05983862,-0.0782163,-0.154473,-1.262872,1.505298,-2.040372,0.4783937,1.381079,0.4037154,-1.407051,0.01849541,0.8,0,0.1642466,0.01147351,0.03890404,-0.1638675,1.4668,0.5495646,0.6363749,1.490199,0.297045,0.05939154,-0.1091373,0.02704226,-0.9938001,0.06283822,0.2213215,0.7204129,1.473197,0.1686862,0.2233892,1.504703,0.2831428,299.3098,115.3608,137.6694,False
3,3.033329,0.06517449,-0.08460479,-0.1544452,-1.261083,1.504216,-2.041033,0.4785216,1.381056,0.4041166,-1.407194,-0.01316989,0.8,0,0.1609092,0.006264731,0.02610592,-0.1640752,1.465994,0.5486661,0.6363441,1.490263,0.297143,0.05201802,-0.1122779,0.03669731,-0.9935029,0.06149332,0.2218043,0.7201732,1.473136,0.1686108,0.22316,1.504542,0.2834237,299.0463,115.2396,137.8226,False
3,3.04444,0.07476731,-0.08989473,-0.1480309,-1.259374,1.503434,-2.041957,0.4786828,1.381032,0.404433,-1.406964,0.02114721,0.8,0,0.1532924,-0.004249856,0.01330196,-0.1645296,1.464751,0.5484282,0.6363603,1.490243,0.2972467,0.05411755,-0.1122877,0.03348093,-0.9935077,0.05997878,0.2219513,0.7199925,1.473085,0.168529,0.2232831,1.50446,0.283548,299.2675,115.2062,137.8071,False
3,3.055551,0.08756549,-0.09730966,-0.1405441,-1.257557,1.502819,-2.04326,0.4788379,1.381008,0.4047067,-1.407402,-0.04030939,0.8,0,0.1552741,-0.02765097,0.007758616,-0.1651304,1.458851,0.5525372,0.6363577,1.490295,0.2972455,0.0476361,-0.1154523,0.02501779,-0.9938544,0.05891099,0.2222182,0.7197529,1.473023,0.1685064,0.2235941,1.504271,0.2836886,299.6541,115.295,137.6054,False
3,3.066662,0.09715517,-0.09514216,-0.1341637,-1.256074,1.502086,-2.04447,0.4790025,1.380941,0.4049563,-1.407588,-0.01659835,1.1,0.2,0.1370495,-0.03175212,-0.00276089,-0.1657424,1.457549,0.5529087,0.6363208,1.490288,0.2972629,0.04227126,-0.1122494,0.02080407,-0.9939876,0.05758819,0.2226941,0.7195309,1.473062,0.1684535,0.2239322,1.504031,0.2838385,299.9272,115.2893,137.5056,False
3,3.077773,0.1046021,-0.08763574,-0.1256736,-1.255007,1.501394,-2.04557,0.4791314,1.380841,0.4052155,-1.407856,-0.02449262,0.9,0.2,0.09897655,0.01623709,0.007594534,-0.1645317,1.464625,0.5461126,0.6363033,1.490173,0.2972281,0.03815062,-0.1047336,0.03360751,-0.9934214,0.05683732,0.2228171,0.7193931,1.472991,0.1682806,0.2242744,1.503742,0.2839984,300.1172,115.3428,137.3559,False
3,3.088884,0.1099052,-0.06734385,-0.1161837,-1.254502,1.500404,-2.046503,0.4793749,1.38072,0.4054439,-1.407736,0.01114652,0.9,0.2,0.09051342,0.03759765,0.004657736,-0.1640214,1.470437,0.5395282,0.6363117,1.490123,0.2972639,0.03926872,-0.1068533,0.03999265,-0.9930416,0.05523942,0.2232744,0.7192187,1.472976,0.1682284,0.2245308,1.503513,0.2840976,300.2184,115.3285,137.3324,False
3,3.099995,0.1120164,-0.04173695,-0.1077766,-1.254441,1.499368,-2.047503,0.479546,1.380599,0.405632,-1.407508,0.02061188,0.9,0.2,0.08205841,0.03862769,0.01220252,-0.1634755,1.471717,0.537693,0.6364553,1.490057,0.2974167,0.04574903,-0.09936236,0.04737303,-0.9924126,0.0546755,0.2228464,0.7191344,1.472886,0.168298,0.2247257,1.50334,0.2842021,300.2818,115.2806,137.3223,False
3,3.111106,0.1098708,-0.02254834,-0.1046672,-1.254309,1.498176,-2.048269,0.4797792,1.38043,0.4058409,-1.407346,0.01463948,0.9,0.2,0.08838838,0.0268978,0.009911899,-0.1635809,1.470318,0.5378113,0.6365111,1.490013,0.2975118,0.04888661,-0.1014725,0.04201489,-0.9923652,0.05382981,0.2227199,0.7190901,1.472873,0.1683295,0.2248261,1.50327,0.2843638,300.342,115.1839,137.4384,False
3,3.122217,0.1066503,0.0009148717,-0.09731664,-1.254594,1.496979,-2.048867,0.4800324,1.38029,0.4061487,-1.407362,-0.001633521,0.5,0.1,0.1136146,-0.01351692,-0.009847783,-0.165018,1.464254,0.5417794,0.6365863,1.490005,0.297745,0.04982901,-0.0961704,0.02814776,-0.9927199,0.05283845,0.2226677,0.7190081,1.472834,0.1683702,0.2250032,1.503127,0.2847493,300.4714,115.2022,137.3853,False
3,3.133328,0.09916796,0.02651134,-0.0889061,-1.255238,1.495833,-2.04927,0.480238,1.380084,0.4063797,-1.407144,0.0199609,0.5,0.1,0.1206808,-0.03777747,-0.04101788,-0.1668268,1.462956,0.5416494,0.6365392,1.489907,0.2978621,0.04553815,-0.08548732,0.02283783,-0.9927561,0.0526214,0.2224538,0.7189883,1.472798,0.168354,0.2252089,1.502948,0.2851204,300.5858,115.1987,137.3424,False
3,3.144439,0.08956377,0.04782856,-0.08473946,-1.25601,1.494494,-2.049525,0.4804397,1.379867,0.4066489,-1.406933,0.01911984,0.5,0.1,0.1185433,-0.03561989,-0.04311372,-0.1674436,1.463234,0.5400941,0.6365988,1.489852,0.2979953,0.04446711,-0.07377187,0.01963348,-0.9927508,0.05208823,0.2222765,0.7189039,1.47277,0.1683836,0.225428,1.502748,0.2854599,300.6858,115.2016,137.2906,False
3,3.15555,0.0778304,0.06809791,-0.07630663,-1.257013,1.493285,-2.049638,0.480641,1.379665,0.4069593,-1.406709,0.02023212,0.5,0.1,0.1166712,-0.01126126,-0.02477745,-0.1667357,1.46615,0.536056,0.6364701,1.489675,0.2980437,0.04447584,-0.0726747,0.02174477,-0.9927615,0.05164828,0.2222083,0.7189195,1.472822,0.168396,0.2257024,1.502512,0.2859378,300.7681,115.1757,137.2695,False
3,3.166661,0.07035957,0.08515528,-0.07211724,-1.257997,1.491997,-2.049774,0.480839,1.37949,0.407326,-1.406629,0.007289184,0.3,0,0.09874358,0.01215421,-0.01482053,-0.1661791,1.469763,0.5319598,0.6364558,1.489624,0.298157,0.04565513,-0.07476728,0.03346393,-0.9920222,0.05068688,0.222122,0.7189245,1.472947,0.168416,0.2258044,1.502373,0.2863442,300.77,115.299,137.1474,False
3,3.177772,0.0543611,0.1096641,-0.06796362,-1.259515,1.490471,-2.049395,0.4810479,1.379197,0.4075985,-1.406487,0.01291913,0.3,0,0.08481817,0.01441557,-0.02320207,-0.1665892,1.473359,0.5280042,0.6365392,1.48969,0.2983518,0.0414067,-0.06410684,0.03242281,-0.9917612,0.05015997,0.2220778,0.7188798,1.472964,0.1685097,0.2259668,1.502228,0.2868522,300.7987,115.271,137.1412,False
