loc,t,aDotUA,bDotUA,gDotUA,aUA,bUA,gUA,xUA,yUA,zUA,qE,qDotE,emgA,emgB,aDotSH,bDotSH,gDotSH,aSH,bSH,gSH,xSH,ySH,zSH,aDotUB,bDotUB,gDotUB,aUB,bUB,gUB,xUB,yUB,zUB,xHand,yHand,zHand,aHand,bHand,gHand,enable
3,0,0.2543302,-0.8727792,0.2266281,-1.453738,-4.260185,-3.06683,0.6776959,1.175807,0.4543419,-1.240296,-0.01659142,43.1,16.6,-0.1965282,0.4377351,-0.1965867,-0.7588986,-4.252627,-0.276944,0.6922153,1.391375,0.3764734,-0.1105947,0.3617107,0.281594,-0.799865,0.3444941,-0.1180923,0.784266,1.466996,0.2284322,0.4850411,0.9985722,0.2861315,308.3849,246.1977,348.0948,False
3,0.01111111,0.2286859,-0.8365381,0.2413773,-1.4563,-4.251583,-3.069489,0.6763099,1.175261,0.4539096,-1.238846,0.1330652,43.1,16.6,-0.2025335,0.4673168,-0.1664265,-0.7613797,-4.244309,-0.2804327,0.6909356,1.391043,0.3763657,-0.1195097,0.3467683,0.245495,-0.7984737,0.3497537,-0.1200364,0.783627,1.467072,0.2288201,0.4850958,0.9977036,0.2846226,308.4689,244.5706,349.2859,False
3,0.02222222,0.1817307,-0.7843093,0.2634873,-1.459396,-4.244257,-3.070782,0.6750463,1.174774,0.4533353,-1.238818,0.001539044,44,17.5,-0.2199025,0.4944969,-0.1010221,-0.7622979,-4.235073,-0.2842568,0.6897954,1.390835,0.3761957,-0.1261465,0.3414118,0.2221274,-0.7971848,0.3550712,-0.1220721,0.7830197,1.467123,0.2291725,0.4855649,0.9964013,0.2825638,308.7401,244.0533,349.3091,False
3,0.03333334,0.1453889,-0.7331713,0.2792306,-1.46254,-4.237296,-3.07172,0.673817,1.174343,0.4527085,-1.239512,-0.06304625,44,17.5,-0.2289726,0.5068731,-0.05181571,-0.763026,-4.226107,-0.28786,0.6886684,1.390676,0.3760278,-0.132578,0.3361073,0.2190005,-0.7952604,0.3607349,-0.124367,0.7824796,1.467196,0.2295175,0.4863695,0.9948421,0.2800185,309.1547,243.7971,348.9258,False
3,0.04444445,0.1112078,-0.6873855,0.2885803,-1.465444,-4.230666,-3.072595,0.672581,1.17384,0.4521873,-1.238751,0.07040699,44,17.5,-0.2347561,0.4785075,0.02469371,-0.7618095,-4.218684,-0.2903096,0.687757,1.390602,0.3758981,-0.1316174,0.3211831,0.2126297,-0.7933999,0.3655744,-0.1262597,0.7819434,1.467237,0.2298255,0.4875248,0.9932387,0.2771652,309.596,243.439,348.4803,False
3,0.05555556,0.0717426,-0.6522738,0.29479,-1.46839,-4.224197,-3.07292,0.6713751,1.173474,0.4515786,-1.238741,0.000434701,44,17.5,-0.2369589,0.4486408,0.02977531,-0.7625663,-4.212784,-0.2917829,0.6868286,1.390447,0.3757501,-0.1212798,0.2849017,0.1891553,-0.7923293,0.3687337,-0.1274786,0.7816139,1.46725,0.2300699,0.4888219,0.9917695,0.2741405,310.0653,243.0938,347.9583,False
3,0.06666667,0.03225298,-0.6257396,0.2893445,-1.470942,-4.217738,-3.07251,0.6702397,1.173105,0.45105,-1.239136,-0.03573157,44,17.5,-0.2353381,0.396737,-0.003737278,-0.7645152,-4.209382,-0.2917352,0.6861005,1.390249,0.3756702,-0.1204055,0.2731486,0.172134,-0.7911596,0.372791,-0.1290216,0.7812716,1.467313,0.2303326,0.4900492,0.9905962,0.2710818,310.4616,242.7359,347.4355,False
3,0.07777778,0.002392322,-0.6034695,0.2806936,-1.473129,-4.211627,-3.072304,0.6690834,1.17265,0.4504576,-1.23904,0.009369751,40.1,17.8,-0.2313821,0.372412,-0.02530777,-0.7664375,-4.205168,-0.2922769,0.6853557,1.390146,0.375596,-0.1099811,0.260306,0.1518115,-0.7905295,0.3764374,-0.1307002,0.7809548,1.4673,0.2305131,0.4910463,0.9897996,0.2681443,310.707,242.3839,346.9464,False
3,0.08888889,-0.04559934,-0.5855042,0.2689012,-1.475231,-4.205525,-3.07067,0.6679542,1.172438,0.4499702,-1.238682,0.03287453,40.1,17.8,-0.2158107,0.3203615,-0.0482994,-0.7681936,-4.203158,-0.2919754,0.6847886,1.38996,0.3756156,-0.1049829,0.2495908,0.1208898,-0.7905508,0.3798652,-0.132076,0.7806883,1.467265,0.2307801,0.4917298,0.9894214,0.2654329,310.8121,242.0831,346.5382,False
3,0.1,-0.07862661,-0.5803059,0.2550156,-1.476991,-4.199086,-3.06941,0.666855,1.172303,0.4495327,-1.23928,-0.05464058,40.1,17.8,-0.1979274,0.2681174,-0.05108351,-0.769278,-4.201678,-0.2913663,0.6843369,1.389973,0.3756597,-0.1061798,0.2453171,0.10705,-0.790268,0.3837799,-0.133679,0.7804948,1.467281,0.23104,0.4920591,0.9894392,0.2629953,310.7621,241.8119,346.2469,False
3,0.1111111,-0.1404559,-0.5720842,0.2155743,-1.477561,-4.192801,-3.066242,0.6658655,1.172424,0.4490688,-1.238326,0.08795223,40.1,17.8,-0.1949094,0.2265801,-0.05361777,-0.7702368,-4.200225,-0.2903535,0.6839495,1.389902,0.3756495,-0.0957458,0.2303402,0.0878007,-0.7901855,0.3867212,-0.135043,0.7803572,1.467317,0.2312446,0.4920436,0.989767,0.2608426,310.5782,241.5917,346.0429,False
3,0.1222222,-0.173478,-0.5722625,0.1910596,-1.478265,-4.186305,-3.063959,0.664863,1.172422,0.4486516,-1.238969,-0.05926561,33.4,18.6,-0.1949518,0.1977574,-0.04641663,-0.7708973,-4.198316,-0.2894622,0.683562,1.389926,0.3756561,-0.09273362,0.2153919,0.07288284,-0.7901348,0.3894315,-0.1359656,0.7802,1.467349,0.2314293,0.4917801,0.9903823,0.2589662,310.3806,241.4144,345.9151,False
3,0.1333333,-0.2225028,-0.5671827,0.1569496,-1.478277,-4.180096,-3.060405,0.664057,1.172648,0.4482749,-1.237609,0.1251989,33.4,18.6,-0.1851359,0.1600817,-0.007431608,-0.7698261,-4.197031,-0.2885849,0.683382,1.390053,0.3756566,-0.07406707,0.1779802,0.03015729,-0.7912475,0.390235,-0.1362239,0.7802887,1.46743,0.2316051,0.4914019,0.9912519,0.2573191,310.1387,241.208,345.9054,False
3,0.1444445,-0.273732,-0.5301192,0.1290619,-1.478206,-4.175311,-3.056012,0.6633621,1.172826,0.4478652,-1.238781,-0.1078936,33.4,18.6,-0.1745152,0.1098178,0.009058744,-0.7689974,-4.197508,-0.286652,0.6832706,1.390177,0.375659,-0.0553092,0.1672054,-0.01048471,-0.7927815,0.39211,-0.1374841,0.7803347,1.467415,0.2317522,0.4909333,0.9923359,0.2557944,309.9065,240.9324,346.0002,False
3,0.1555556,-0.3238755,-0.4877495,0.09583139,-1.477729,-4.171354,-3.051278,0.6628133,1.173058,0.44752,-1.238146,0.05945476,33.4,18.6,-0.1734594,0.09164767,0.01527616,-0.7688115,-4.196778,-0.2852645,0.6831281,1.390283,0.3756909,-0.05121253,0.1746189,-0.02971424,-0.7939773,0.3950413,-0.1390831,0.7803897,1.467328,0.2318418,0.4904592,0.993585,0.2543183,309.5974,240.6526,346.104,False
3,0.1666667,-0.3751145,-0.438934,0.07430273,-1.477502,-4.167915,-3.045686,0.662294,1.173419,0.4472272,-1.237821,0.02944205,33.4,18.6,-0.1528692,0.0773381,0.057565,-0.767033,-4.195273,-0.2852474,0.6833282,1.390585,0.3758492,-0.04604252,0.1564666,-0.04144683,-0.7948822,0.3963172,-0.1396599,0.7805996,1.467341,0.2319489,0.490042,0.9949568,0.2528417,309.2932,240.3656,346.1891,False
3,0.1777778,-0.428443,-0.4029658,0.04004222,-1.476483,-4.164634,-3.039724,0.6619366,1.173789,0.4468689,-1.238029,-0.01888735,23.7,21.2,-0.1193962,0.05433825,0.1135026,-0.7641706,-4.194076,-0.2857809,0.6835502,1.390907,0.3758762,-0.03364542,0.1201587,-0.07240061,-0.7967235,0.396144,-0.1395632,0.7808529,1.467372,0.2320271,0.4896028,0.9964129,0.2513212,308.9971,240.0919,346.2182,False
3,0.1888889,-0.4615521,-0.3615148,0.03026189,-1.476152,-4.161912,-3.033705,0.661464,1.174104,0.4465728,-1.237754,0.02573749,23.7,21.2,-0.09784901,0.03264593,0.1471931,-0.7615016,-4.193427,-0.2858208,0.6837971,1.391177,0.3759689,-0.01043129,0.08172531,-0.08533354,-0.7979422,0.3954578,-0.1396586,0.7811339,1.467314,0.2320418,0.4891365,0.997973,0.2498088,308.7061,239.8185,346.2121,False
3,0.2,-0.5032356,-0.2849737,0.008601263,-1.475458,-4.161514,-3.026749,0.6612234,1.17455,0.4461923,-1.237877,-0.01108656,23.7,21.2,-0.0774603,-0.01141188,0.1806941,-0.7581263,-4.194232,-0.2848517,0.6843904,1.391512,0.3762255,0.01186404,0.06248786,-0.08871317,-0.7990575,0.3954265,-0.1405427,0.781387,1.467269,0.2321203,0.4886121,0.9996746,0.2483306,308.424,239.5571,346.2151,False
3,0.2111111,-0.5299961,-0.2136649,0.004005298,-1.47532,-4.161456,-3.019892,0.6609896,1.174852,0.4458685,-1.238389,-0.04640354,23.7,21.2,-0.05411431,-0.08090428,0.1979509,-0.7546663,-4.197585,-0.2825968,0.6851706,1.391849,0.3764567,0.04042018,0.02190967,-0.09956631,-0.8002788,0.3935432,-0.1406173,0.7817836,1.467215,0.232101,0.488005,1.001533,0.2468883,308.0979,239.2675,346.2761,False
3,0.2222222,-0.6006279,-0.02197912,0.01056391,-1.476473,-4.167747,-3.010166,0.6610933,1.175174,0.4455547,-1.238199,0.01811903,12.9,22.6,0.007735245,-0.1485464,0.2308407,-0.7502631,-4.201185,-0.2819209,0.6860425,1.392241,0.3767481,0.05938894,-0.006925486,-0.1135454,-0.8018352,0.3919273,-0.1407108,0.7821019,1.467136,0.2320573,0.4872487,1.003536,0.245482,307.7328,239.0641,346.2681,False
3,0.2333333,-0.660566,0.1453458,0.04067189,-1.478761,-4.174253,-3.000275,0.6611184,1.17539,0.4452484,-1.23875,-0.0502815,12.9,22.6,0.05490871,-0.1575621,0.2654666,-0.7457117,-4.202397,-0.283232,0.6869641,1.392649,0.3770382,0.07636642,-0.05170541,-0.1083031,-0.8025745,0.3889581,-0.139971,0.7825243,1.467091,0.231971,0.4862807,1.005696,0.2441762,307.344,238.9507,346.2176,False
3,0.2444444,-0.705474,0.2454751,0.05404836,-1.480584,-4.179723,-2.990403,0.6611061,1.175705,0.4448736,-1.237027,0.158352,12.9,22.6,0.1147042,-0.1867774,0.291268,-0.7410246,-4.204555,-0.2847934,0.688097,1.393258,0.3772924,0.09548932,-0.08903715,-0.104156,-0.8031923,0.385659,-0.1394125,0.7829113,1.467092,0.2318704,0.4850457,1.008004,0.2430391,306.9094,238.9939,346.0501,False
3,0.2555556,-0.7952253,0.4051581,0.05543229,-1.4828,-4.189193,-2.977851,0.6612742,1.176135,0.444463,-1.237224,-0.01896634,12.9,22.6,0.1454045,-0.3032475,0.3165591,-0.7348838,-4.213205,-0.2809177,0.6894981,1.39381,0.3776047,0.1226011,-0.1680085,-0.144764,-0.8055412,0.3791379,-0.1371872,0.7835888,1.467005,0.2316279,0.4832748,1.010511,0.2421786,306.5263,239.3905,345.6393,False
3,0.2666667,-0.8208447,0.4327672,0.04571235,-1.483855,-4.194493,-2.967443,0.6613069,1.176471,0.4440231,-1.237764,-0.04859005,12.9,22.6,0.1795873,-0.3836411,0.3570532,-0.7280273,-4.220746,-0.278458,0.6909668,1.39444,0.3779578,0.1286208,-0.2085539,-0.1724527,-0.8078177,0.3737436,-0.1349687,0.7842854,1.46694,0.2314229,0.4809588,1.013319,0.2416509,306.0746,239.9529,345.3162,False
3,0.2777778,-0.9029875,0.4974945,0.01664546,-1.484403,-4.202388,-2.954074,0.6613097,1.176825,0.4432492,-1.236083,0.1544773,7.2,23.9,0.2243355,-0.4468898,0.38269,-0.7214146,-4.228359,-0.2765581,0.6925596,1.395108,0.3782239,0.1462947,-0.264051,-0.2034257,-0.8104633,0.3667463,-0.1323532,0.7850595,1.466763,0.2311215,0.4782621,1.016481,0.2414193,305.5209,240.5179,345.1787,False
3,0.2888889,-0.94028,0.4951683,-0.01103809,-1.484501,-4.207757,-2.941948,0.6613259,1.177251,0.4425807,-1.238261,-0.2001125,7.2,23.9,0.2336382,-0.4926279,0.3704663,-0.7160723,-4.236947,-0.2730212,0.694173,1.395679,0.3784835,0.1629059,-0.3120873,-0.2354617,-0.8133289,0.3593327,-0.129477,0.7859079,1.46665,0.2308431,0.4751771,1.020053,0.2414313,304.9059,241.1762,345.0813,False
3,0.3,-0.9818565,0.5002275,-0.05792081,-1.483541,-4.214105,-2.929125,0.6612434,1.177543,0.4419472,-1.236383,0.1739991,7.2,23.9,0.2029891,-0.5911655,0.3240576,-0.7116872,-4.250476,-0.2638729,0.695782,1.396218,0.3787484,0.1754897,-0.3355788,-0.2504593,-0.8159974,0.3529052,-0.1274533,0.7866994,1.466507,0.2306118,0.4719655,1.023981,0.241565,304.0648,241.7201,345.2018,False
3,0.3111111,-1.013865,0.5182,-0.07612523,-1.483386,-4.220524,-2.916147,0.6613285,1.178143,0.4413085,-1.237758,-0.1270591,7.2,23.9,0.1789447,-0.6482374,0.2832892,-0.7076344,-4.263246,-0.2553167,0.6973851,1.396731,0.379009,0.1837037,-0.3612111,-0.2760681,-0.8192475,0.3457774,-0.1248557,0.7876298,1.466351,0.2303793,0.4685748,1.028141,0.2416069,303.1904,242.261,345.3349,False
3,0.3222222,-1.034156,0.5437304,-0.08262154,-1.483978,-4.227787,-2.903351,0.6612965,1.178688,0.4409046,-1.237897,-0.01099788,7.2,23.9,0.1842011,-0.6257424,0.2674614,-0.7036743,-4.271119,-0.2515798,0.6988315,1.397329,0.3793416,0.1740635,-0.3611879,-0.2813005,-0.821983,0.3399613,-0.1225006,0.788515,1.466211,0.2301755,0.4653101,1.032501,0.2415132,302.2149,242.6618,345.5207,False
3,0.3333333,-1.078995,0.5990926,-0.08074167,-1.485174,-4.236378,-2.88904,0.6611215,1.179427,0.4404788,-1.238251,-0.03201667,12.1,24,0.2144813,-0.550374,0.2848983,-0.6991027,-4.274655,-0.2523473,0.7003638,1.397878,0.3795571,0.1709197,-0.3654328,-0.2759375,-0.8243703,0.3339235,-0.1203879,0.7893634,1.466139,0.2299826,0.4622158,1.036929,0.2412591,301.2372,242.9738,345.6279,False
3,0.3444445,-1.092901,0.6288494,-0.09047508,-1.485805,-4.244227,-2.87587,0.6609429,1.180109,0.4399958,-1.239002,-0.06796856,12.1,24,0.2138879,-0.475987,0.3058169,-0.694432,-4.277293,-0.2525247,0.7018886,1.398526,0.3797836,0.1740131,-0.3707828,-0.2855443,-0.8272817,0.3276298,-0.1182063,0.7902389,1.466015,0.2297549,0.4593942,1.04142,0.240917,300.36,243.3367,345.5591,False
3,0.3555556,-1.128097,0.6499838,-0.1182618,-1.485788,-4.252602,-2.861507,0.660704,1.180866,0.4395726,-1.238101,0.08317658,12.1,24,0.1488169,-0.4981107,0.3062313,-0.6896964,-4.285411,-0.2458854,0.703482,1.399265,0.3799717,0.1748563,-0.4027817,-0.3014871,-0.8306298,0.3194475,-0.1148651,0.7912955,1.465826,0.2293589,0.4567095,1.045927,0.240542,299.5622,243.7713,345.2885,False
3,0.3666667,-1.153705,0.6722181,-0.1375378,-1.486064,-4.261042,-2.847114,0.660444,1.181609,0.4390893,-1.239473,-0.1259146,12.1,24,0.1274133,-0.5171738,0.3030683,-0.6850092,-4.293923,-0.240145,0.7050596,1.399945,0.3801055,0.1768773,-0.4123859,-0.3100086,-0.8337004,0.3123949,-0.1121095,0.7922506,1.465719,0.2290583,0.4539058,1.050474,0.2401725,298.8583,244.2336,344.976,False
3,0.3777778,-1.179333,0.705132,-0.1547356,-1.48651,-4.270495,-2.832316,0.6601528,1.182289,0.4386623,-1.238864,0.05701009,26.2,22.6,0.06637186,-0.5711643,0.2914451,-0.6803551,-4.305424,-0.229879,0.7066274,1.400579,0.380193,0.177675,-0.4305481,-0.3344975,-0.8378012,0.3043748,-0.1089398,0.7933565,1.46554,0.2286563,0.4509896,1.055086,0.2399094,298.0833,244.5846,344.8235,False
3,0.3888889,-1.202825,0.7391477,-0.1623514,-1.487508,-4.280044,-2.817358,0.6598668,1.183217,0.4381433,-1.239113,-0.0231066,26.2,22.6,0.03421646,-0.5933027,0.2787607,-0.6761926,-4.315973,-0.2211172,0.708281,1.401153,0.3802686,0.1755004,-0.430548,-0.3387352,-0.8411109,0.2974932,-0.1061914,0.7943753,1.465392,0.2283428,0.4479044,1.059768,0.2398251,297.2917,244.8934,344.755,False
3,0.4,-1.22095,0.7390059,-0.1889726,-1.487485,-4.288974,-2.802301,0.6595674,1.184159,0.4377177,-1.239195,-0.006957941,26.2,22.6,0.009705991,-0.5889196,0.2769042,-0.6718878,-4.324621,-0.2136731,0.7097965,1.401748,0.380379,0.1691395,-0.4198875,-0.3408381,-0.8446817,0.2911542,-0.1039653,0.795441,1.465198,0.2280724,0.4446458,1.064554,0.239972,296.4754,245.2976,344.6671,False
3,0.4111111,-1.236916,0.7314953,-0.194255,-1.488079,-4.296992,-2.78735,0.6591252,1.185118,0.4372439,-1.239386,-0.0171739,26.2,22.6,-0.004121244,-0.5749948,0.273966,-0.6677445,-4.333031,-0.2066126,0.7113348,1.402431,0.380429,0.1509293,-0.4081433,-0.3523993,-0.8484874,0.2850831,-0.1008337,0.796522,1.464981,0.2277164,0.4412111,1.069468,0.2403954,295.6671,245.8575,344.5136,False
3,0.4222222,-1.252876,0.7121791,-0.2197276,-1.4876,-4.305115,-2.772154,0.6587868,1.186197,0.4365644,-1.239579,-0.01722632,26.2,22.6,-0.01251075,-0.5590497,0.281648,-0.6632683,-4.340961,-0.1999919,0.7128836,1.403061,0.380455,0.1412478,-0.4006882,-0.3640336,-0.8524667,0.27886,-0.09800992,0.7975365,1.464851,0.2273798,0.4376827,1.074574,0.2410908,294.8718,246.4978,344.4039,False
3,0.4333333,-1.274157,0.6981941,-0.2399046,-1.487085,-4.313207,-2.756627,0.6584889,1.187207,0.4359965,-1.239919,-0.03078372,40,20.3,-0.01423079,-0.5177338,0.3086817,-0.6580223,-4.346514,-0.1953586,0.7146274,1.403716,0.3804107,0.1295433,-0.3931962,-0.363939,-0.8561397,0.2729311,-0.09510654,0.7986528,1.464719,0.2270758,0.4341622,1.079881,0.241996,294.0182,247.0604,344.4405,False
3,0.4444444,-1.281603,0.6864085,-0.2494324,-1.486961,-4.320989,-2.741578,0.6580759,1.188297,0.4354663,-1.23999,-0.005984915,40,20.3,-0.012858,-0.4934391,0.3312607,-0.6527669,-4.35242,-0.190567,0.7162427,1.404361,0.3804259,0.13065,-0.3910656,-0.363978,-0.8600311,0.2668048,-0.09306017,0.7998136,1.464579,0.2268777,0.4306952,1.085368,0.2429557,293.11,247.688,344.4721,False
3,0.4555556,-1.283698,0.6618385,-0.262096,-1.486486,-4.32812,-2.727059,0.6576415,1.18939,0.4349794,-1.239916,0.006878199,40,20.3,0.002376854,-0.4809656,0.3589282,-0.6470416,-4.358641,-0.1862671,0.7180272,1.405022,0.3804348,0.1349129,-0.3985444,-0.3629466,-0.8636237,0.260118,-0.09047291,0.8008562,1.464558,0.2264905,0.4273603,1.090989,0.2438441,292.1533,248.2071,344.5974,False
3,0.4666667,-1.287945,0.6596783,-0.2695421,-1.486519,-4.335931,-2.712163,0.657232,1.190489,0.434479,-1.240598,-0.0622341,40,20.3,0.01503074,-0.4990714,0.3533183,-0.6424173,-4.367665,-0.1795975,0.7197353,1.405601,0.3803241,0.1401399,-0.4070861,-0.3704386,-0.8674811,0.2535518,-0.08786221,0.8019378,1.464336,0.2261744,0.4242125,1.096705,0.244613,291.1804,248.6636,344.6685,False
3,0.4777778,-1.302905,0.6584617,-0.2780461,-1.486568,-4.343925,-2.696804,0.6567558,1.191689,0.4340518,-1.241328,-0.06604679,49.4,16.7,0.01359162,-0.5500353,0.3336755,-0.6382564,-4.379708,-0.1700804,0.7214156,1.406302,0.3802726,0.1422038,-0.418837,-0.3779057,-0.8715621,0.2463653,-0.08524645,0.8030397,1.464107,0.2257226,0.4212557,1.10247,0.2452377,290.2066,249.1112,344.64,False
3,0.4888889,-1.31781,0.6755031,-0.2887828,-1.486881,-4.352689,-2.681212,0.6562307,1.192921,0.433569,-1.241194,0.01285061,49.4,16.7,0.004737854,-0.5903183,0.3152942,-0.6341402,-4.392003,-0.1599247,0.7230743,1.406898,0.3802712,0.1410978,-0.4231021,-0.3800152,-0.8753251,0.2396998,-0.08236145,0.8041272,1.463912,0.2253938,0.418512,1.108205,0.245728,289.2266,249.4821,344.5993,False
3,0.5,-1.328458,0.6893399,-0.2995096,-1.487155,-4.361766,-2.665275,0.6557178,1.194275,0.4331796,-1.240833,0.03295258,49.4,16.7,0.0001056194,-0.6241631,0.2905326,-0.6304229,-4.404589,-0.14959,0.724773,1.407523,0.3801715,0.1379312,-0.4156406,-0.3778663,-0.879102,0.2334777,-0.07976407,0.8052044,1.46352,0.2247963,0.415892,1.113866,0.2461225,288.3065,249.8476,344.4812,False
3,0.5111111,-1.334879,0.6956737,-0.3016559,-1.4879,-4.370229,-2.649673,0.655057,1.195685,0.4326842,-1.240759,0.006583736,49.4,16.7,-0.04689455,-0.6186889,0.2724774,-0.6271068,-4.415083,-0.1398945,0.7263137,1.408298,0.3801279,0.1325823,-0.4177421,-0.3757106,-0.8827985,0.2270715,-0.0769571,0.8062909,1.463323,0.2244601,0.4132721,1.11948,0.2464932,287.4735,250.1579,344.3638,False
3,0.5222223,-1.340193,0.693534,-0.3048466,-1.488434,-4.378678,-2.633824,0.6545482,1.197102,0.4322908,-1.24059,0.01547161,49.4,16.7,-0.07347292,-0.6227283,0.2816634,-0.6227152,-4.426104,-0.128567,0.7279396,1.408999,0.3801091,0.128335,-0.4124375,-0.3703039,-0.8862094,0.2205848,-0.07322121,0.8072457,1.46332,0.2238803,0.4105552,1.125116,0.2469478,286.697,250.4519,344.2601,False
3,0.5333334,-1.343355,0.6700602,-0.3089811,-1.488753,-4.386321,-2.61797,0.653978,1.19869,0.4318061,-1.241007,-0.03819815,56,11.8,-0.09354976,-0.6292268,0.302039,-0.6177303,-4.43775,-0.1174025,0.7295114,1.40964,0.3799317,0.1240169,-0.4017865,-0.3788041,-0.8904444,0.2148633,-0.07084195,0.8084173,1.463053,0.2234857,0.4077322,1.130869,0.2476029,285.9464,250.7948,344.1689,False
3,0.5444446,-1.346517,0.6476439,-0.3131502,-1.488824,-4.393652,-2.602413,0.6534865,1.20013,0.4311931,-1.240943,0.006392592,56,11.8,-0.1040194,-0.6293595,0.3213151,-0.6127369,-4.448939,-0.1067243,0.7310181,1.410283,0.3797858,0.1248644,-0.3847934,-0.4001231,-0.8950133,0.2096455,-0.06840222,0.8095335,1.462675,0.2227926,0.40485,1.136797,0.2484821,285.1496,251.313,344.0222,False
3,0.5555557,-1.3529,0.6412121,-0.3195097,-1.489192,-4.40147,-2.58661,0.6527909,1.201603,0.4307868,-1.240984,-0.00376645,56,11.8,-0.1154888,-0.616699,0.340718,-0.6077024,-4.459046,-0.09695318,0.7325456,1.411042,0.3795905,0.1098619,-0.3794385,-0.4074335,-0.8992978,0.2041886,-0.06536729,0.8104942,1.462417,0.2226257,0.4020586,1.142915,0.2495907,284.2978,251.9285,343.8767,False
3,0.5666668,-1.349631,0.6082207,-0.316174,-1.489271,-4.408093,-2.571467,0.65211,1.203216,0.4303398,-1.241373,-0.035444,56,11.8,-0.1570138,-0.5898511,0.333897,-0.603826,-4.468442,-0.08592423,0.7339227,1.411799,0.3793647,0.08766267,-0.3665753,-0.3933884,-0.9029117,0.1991648,-0.06252969,0.811452,1.462158,0.2222955,0.3993988,1.149224,0.2508122,283.3859,252.598,343.7652,False
3,0.577778,-1.34847,0.5539073,-0.3116693,-1.488911,-4.41364,-2.556029,0.6511024,1.205052,0.4301238,-1.241303,0.006812674,56,11.8,-0.1981323,-0.5569535,0.3654853,-0.598277,-4.476762,-0.07549796,0.7352567,1.412458,0.3790994,0.07195199,-0.3462417,-0.3698293,-0.9060116,0.1949945,-0.06011713,0.8123975,1.461919,0.2222581,0.3968995,1.155657,0.2520212,282.3842,253.2726,343.627,False
3,0.5888891,-1.349481,0.5261691,-0.3189709,-1.488702,-4.419775,-2.540609,0.6501972,1.206777,0.4298406,-1.241916,-0.05615849,61.2,5.9,-0.2102531,-0.5243982,0.4223616,-0.5912516,-4.4846,-0.06622909,0.7365215,1.413087,0.3787897,0.068872,-0.3376977,-0.3602237,-0.9095025,0.1902189,-0.05789419,0.8133614,1.461721,0.2219183,0.394475,1.16216,0.2531616,281.3784,253.9791,343.3503,False
3,0.6000003,-1.354764,0.5016302,-0.3241932,-1.488261,-4.425909,-2.524839,0.6492679,1.208594,0.4296572,-1.241643,0.02545451,61.2,5.9,-0.23341,-0.4839414,0.4346675,-0.5858305,-4.491467,-0.05729605,0.7377311,1.413674,0.3785365,0.06899816,-0.3419313,-0.3463667,-0.9126706,0.1849722,-0.05551706,0.8143134,1.461475,0.2216957,0.3921673,1.168676,0.2541889,280.4055,254.576,343.1212,False
3,0.6111114,-1.37176,0.4674025,-0.3474613,-1.486902,-4.431809,-2.508591,0.6481354,1.210499,0.4294229,-1.241706,-0.005951805,61.2,5.9,-0.2653725,-0.4624327,0.4255791,-0.5812349,-4.499138,-0.04698562,0.7389582,1.414335,0.3782847,0.06252101,-0.341924,-0.3548345,-0.9167479,0.1799238,-0.05291674,0.8152225,1.461274,0.2214103,0.3899094,1.17519,0.2550482,279.4826,254.9047,343.0709,False
3,0.6222225,-1.380248,0.4449528,-0.3590792,-1.485903,-4.437828,-2.492475,0.647034,1.212428,0.429189,-1.241418,0.02648959,61.2,5.9,-0.2750542,-0.4569586,0.4129368,-0.5768801,-4.507953,-0.03634442,0.740128,1.414897,0.3780284,0.05286896,-0.3333914,-0.3643449,-0.920953,0.1753887,-0.0504717,0.8161155,1.461075,0.2211945,0.3877417,1.181681,0.2557921,278.5661,255.108,343.0792,False
3,0.6333337,-1.387638,0.3990376,-0.3748196,-1.484035,-4.442863,-2.476371,0.6457773,1.21442,0.4290249,-1.240969,0.04076464,67.1,3.1,-0.2816279,-0.4653134,0.3969423,-0.5728428,-4.517857,-0.02472878,0.7411449,1.41548,0.3777649,0.04006195,-0.3131403,-0.3727794,-0.9252429,0.1714985,-0.04818005,0.8169307,1.46081,0.2209125,0.3856248,1.188158,0.2564822,277.6727,255.004,343.3493,False
3,0.6444448,-1.393936,0.3488418,-0.3980031,-1.481508,-4.447751,-2.460329,0.6444281,1.216525,0.428926,-1.241177,-0.01924092,67.1,3.1,-0.2837389,-0.4535586,0.3938794,-0.5683207,-4.526389,-0.01436695,0.7421818,1.416166,0.3775108,0.03483045,-0.2939423,-0.368498,-0.9290832,0.16796,-0.04631929,0.8176862,1.460606,0.2206669,0.3834657,1.194664,0.2571457,276.8046,254.4054,344.108,False
3,0.655556,-1.397065,0.30933,-0.4201919,-1.478772,-4.452796,-2.444417,0.6429605,1.218632,0.4288447,-1.241249,-0.006360491,67.1,3.1,-0.2846959,-0.448305,0.4024588,-0.563567,-4.535168,-0.003877296,0.7430592,1.416739,0.3772831,0.02445719,-0.2757663,-0.3439254,-0.9319264,0.1646955,-0.04423803,0.8183259,1.460492,0.2204673,0.3813175,1.201233,0.257848,275.9358,253.6271,345.0664,False
3,0.6666671,-1.390633,0.2805282,-0.4242963,-1.476656,-4.457408,-2.429013,0.6414084,1.220726,0.4287572,-1.241404,-0.0140847,67.1,3.1,-0.318539,-0.4216812,0.4179381,-0.5585448,-4.542283,0.006707171,0.7438614,1.417398,0.3769917,0.01305303,-0.2565247,-0.317202,-0.9343429,0.1617107,-0.04226144,0.8190043,1.460398,0.2202342,0.3792075,1.207867,0.258586,275.0461,252.1611,346.7352,False
3,0.6777782,-1.383157,0.2570032,-0.4273639,-1.474493,-4.462079,-2.413679,0.6399192,1.222823,0.4287035,-1.24165,-0.02233112,67.1,3.1,-0.3407381,-0.4217565,0.4341208,-0.5534395,-4.551398,0.01870525,0.7446738,1.418076,0.3766534,0.007000953,-0.2426042,-0.2862771,-0.936491,0.1587556,-0.04044569,0.8196036,1.460233,0.2199574,0.3771305,1.214568,0.2593525,274.1397,249.3761,349.7127,False
3,0.6888894,-1.382023,0.2271931,-0.4325533,-1.471861,-4.466541,-2.397937,0.6383413,1.225118,0.4285948,-1.24219,-0.0491037,68.9,1.6,-0.3778498,-0.4175042,0.4504946,-0.548005,-4.560416,0.03181359,0.7454963,1.418799,0.3762562,-0.004647404,-0.2351104,-0.2808426,-0.9392958,0.15558,-0.03812528,0.8202709,1.46013,0.2197244,0.3750563,1.22132,0.2601571,273.2221,244.9981,354.2706,False
3,0.7000005,-1.375592,0.2101069,-0.4463454,-1.469077,-4.471558,-2.382408,0.6366012,1.227481,0.4284501,-1.242325,-0.01188375,68.9,1.6,-0.4183161,-0.4130879,0.449853,-0.5432854,-4.569428,0.04534032,0.7460984,1.419464,0.3759913,-0.01530921,-0.229762,-0.2828794,-0.9424788,0.1524258,-0.03573643,0.8208816,1.459936,0.2194898,0.3730244,1.228073,0.2610047,272.3083,238.2974,1.169801,False
3,0.7111117,-1.369197,0.211193,-0.4442087,-1.467333,-4.476531,-2.367119,0.6348112,1.229748,0.428375,-1.241894,0.03937136,68.9,1.6,-0.4480482,-0.3970257,0.4534803,-0.5384384,-4.57739,0.05803481,0.7466476,1.420133,0.3757224,-0.02809545,-0.2116334,-0.2881077,-0.945681,0.1501092,-0.03366875,0.8214763,1.459749,0.2193365,0.3710729,1.234774,0.2618796,271.4878,223.8809,15.81373,False
3,0.7222228,-1.363868,0.2101603,-0.4378107,-1.465704,-4.481532,-2.351524,0.6330648,1.232118,0.4282725,-1.242116,-0.02067028,68.9,1.6,-0.454205,-0.3704976,0.466552,-0.5331398,-4.584538,0.06925151,0.7472293,1.420857,0.3753283,-0.03233093,-0.1999083,-0.2891564,-0.9489285,0.1476355,-0.0318088,0.8220758,1.459628,0.2191412,0.3691055,1.241458,0.2627088,271.0095,188.4969,51.43291,False
3,0.7333339,-1.360678,0.2187383,-0.4271905,-1.464644,-4.486491,-2.336196,0.6312031,1.234477,0.4282868,-1.242378,-0.0237094,65.4,1.1,-0.4582005,-0.355754,0.4869698,-0.527324,-4.592138,0.08084478,0.7477179,1.421558,0.3749971,-0.04080307,-0.1743267,-0.291234,-0.9519634,0.1461748,-0.03022315,0.8225611,1.459496,0.2190397,0.367059,1.248166,0.2634868,271.1981,142.7748,97.34441,False
3,0.7444451,-1.364931,0.2155778,-0.4154544,-1.46338,-4.491175,-2.320231,0.6294665,1.237015,0.4283164,-1.242081,0.02728234,65.4,1.1,-0.4665265,-0.3398735,0.5010352,-0.5216674,-4.599832,0.0929856,0.7483044,1.422134,0.374881,-0.04932961,-0.1572765,-0.2964808,-0.9551049,0.1445878,-0.02845667,0.8231415,1.459336,0.2189622,0.3649957,1.254885,0.264273,271.8003,118.4005,121.8797,False
3,0.7555562,-1.364916,0.2070571,-0.4143463,-1.461755,-4.495903,-2.304462,0.6276271,1.239628,0.4283242,-1.242288,-0.01914815,65.4,1.1,-0.4672515,-0.3284338,0.5320432,-0.514911,-4.607749,0.1051586,0.7487239,1.422925,0.374603,-0.05778208,-0.1455344,-0.2932279,-0.9582863,0.1428212,-0.02659166,0.8234793,1.459246,0.2188253,0.3629626,1.261624,0.2650945,272.5264,107.2448,133.2038,False
3,0.7666674,-1.362752,0.1900276,-0.4110646,-1.459961,-4.500284,-2.288694,0.625701,1.242246,0.4282761,-1.241646,0.05886486,65.4,1.1,-0.4843125,-0.3486822,0.5384108,-0.5092677,-4.618961,0.1209429,0.7490644,1.42376,0.3742788,-0.06835091,-0.1348351,-0.2867283,-0.9609836,0.1414959,-0.02465341,0.823958,1.459179,0.2187238,0.360996,1.268397,0.2659804,273.2877,101.141,139.4786,False
3,0.7777785,-1.36271,0.1665803,-0.4098914,-1.457759,-4.504364,-2.273085,0.6237577,1.244996,0.4281814,-1.241795,-0.01416202,65.4,1.1,-0.4821646,-0.354044,0.5415456,-0.503681,-4.62887,0.1348164,0.7494769,1.42448,0.3739183,-0.07882082,-0.1262578,-0.2706671,-0.9635413,0.1399607,-0.02262622,0.8241785,1.459113,0.2185547,0.3591354,1.275255,0.2669193,274.0447,97.81731,143.0076,False
3,0.7888896,-1.357339,0.1366997,-0.4214641,-1.454916,-4.5086,-2.25762,0.6216781,1.247865,0.4281452,-1.241821,-0.00217821,60.1,2.3,-0.4884337,-0.361626,0.5575165,-0.4975621,-4.639699,0.1499778,0.7496878,1.425198,0.3736222,-0.07971534,-0.1230264,-0.2535776,-0.965267,0.1385047,-0.02085335,0.8244675,1.458933,0.2184665,0.3573452,1.282256,0.2678674,274.8635,95.71358,145.3396,False
3,0.8000008,-1.348769,0.1090206,-0.429881,-1.451958,-4.51307,-2.242212,0.6195419,1.250905,0.4281392,-1.241974,-0.01392299,60.1,2.3,-0.5098736,-0.3753182,0.5480089,-0.4925463,-4.651417,0.1665741,0.7499455,1.425855,0.3732431,-0.06556062,-0.1208757,-0.2228261,-0.9667695,0.136858,-0.01971884,0.8246137,1.458873,0.2183895,0.3556195,1.289402,0.268768,275.7445,94.01744,147.2786,False
3,0.8111119,-1.339124,0.07170822,-0.4382237,-1.448453,-4.516898,-2.227112,0.6172752,1.253874,0.4281132,-1.242164,-0.01730232,60.1,2.3,-0.5367701,-0.361057,0.5143077,-0.4886235,-4.660511,0.1813999,0.7500323,1.426561,0.3728871,-0.06315643,-0.1037911,-0.1983609,-0.967945,0.1361697,-0.01863148,0.8246444,1.458688,0.2182674,0.3539656,1.296667,0.2695592,276.6751,92.91138,148.6108,False
3,0.8222231,-1.333746,0.0407808,-0.4423383,-1.445005,-4.520542,-2.211942,0.6150631,1.256782,0.4280508,-1.242264,-0.009003114,60.1,2.3,-0.5464403,-0.3438315,0.498575,-0.4843118,-4.669215,0.195411,0.7500828,1.427471,0.3724947,-0.07494996,-0.1016445,-0.2067635,-0.9704383,0.1348674,-0.01665275,0.8247608,1.458538,0.2182832,0.3523398,1.304021,0.270221,277.6408,92.47726,149.2003,False
3,0.8333342,-1.328385,0.01947962,-0.4433015,-1.441684,-4.524289,-2.196764,0.6128786,1.259651,0.4279885,-1.242482,-0.01986855,62.2,4.7,-0.5388462,-0.3183317,0.5029947,-0.4792236,-4.677332,0.2083825,0.7500472,1.428272,0.3721309,-0.07926276,-0.1048367,-0.2120454,-0.9730093,0.1332747,-0.01480718,0.8248907,1.458533,0.2183144,0.3507233,1.311428,0.2707871,278.6229,92.33475,149.4457,False
3,0.8444453,-1.330485,0.001354724,-0.4389414,-1.438503,-4.527709,-2.181396,0.6107372,1.262472,0.427906,-1.242376,0.00973592,62.2,4.7,-0.5407401,-0.3217524,0.5285537,-0.4732464,-4.688683,0.2245039,0.7499371,1.429035,0.3718092,-0.09425762,-0.07926822,-0.2279431,-0.9762403,0.1330292,-0.01322686,0.8245709,1.458835,0.2182436,0.3491624,1.318782,0.271273,279.6385,92.16434,149.7215,False
3,0.8555565,-1.325173,0.01416449,-0.4294197,-1.436429,-4.531693,-2.166408,0.6086735,1.265224,0.4278085,-1.242331,0.004077971,62.2,4.7,-0.5704805,-0.304615,0.5311306,-0.4680048,-4.697908,0.2400723,0.7497331,1.42979,0.3713887,-0.1133516,-0.06536224,-0.2235272,-0.9786536,0.1326057,-0.01118368,0.8245015,1.458775,0.2182248,0.347716,1.325981,0.27168,280.6345,91.9841,150.0125,False
3,0.8666676,-1.315621,0.03768665,-0.4146204,-1.435195,-4.535835,-2.15165,0.6065586,1.268054,0.427762,-1.242073,0.02350121,62.2,4.7,-0.6249278,-0.2904018,0.5126176,-0.4637682,-4.706809,0.2566028,0.7496328,1.430757,0.3709142,-0.1216953,-0.05572397,-0.2075268,-0.9809812,0.1320201,-0.009279252,0.8244029,1.458754,0.2182665,0.346392,1.332981,0.2720113,281.58,91.89893,150.1954,False
3,0.8777788,-1.287973,0.07413319,-0.3743209,-1.435357,-4.53934,-2.137769,0.6044262,1.270913,0.4275982,-1.242476,-0.03709497,62.2,4.7,-0.651511,-0.2646847,0.5088412,-0.4590597,1.568767,0.2715774,0.7493041,1.431555,0.3705039,-0.1245705,-0.04075304,-0.178773,-0.9821791,0.1319314,-0.007862184,0.8243517,1.458622,0.2183452,0.3451805,1.339794,0.272268,282.4505,91.87262,150.293,False
3,0.8888899,-1.270948,0.09018934,-0.363751,-1.434611,-4.543303,-2.123722,0.6026053,1.273842,0.4274285,-1.24273,-0.02288447,64.9,9.1,-0.6332802,-0.240265,0.5110198,-0.4540556,1.561203,0.2846158,0.749014,1.432246,0.3701224,-0.1307735,-0.03005328,-0.1617037,-0.983645,0.1318942,-0.006160957,0.8243843,1.458754,0.2183237,0.3440293,1.346485,0.2725027,283.257,91.80283,150.381,False
3,0.900001,-1.265647,0.1061968,-0.3552846,-1.434161,-4.547201,-2.109305,0.6005071,1.276686,0.4273098,-1.243441,-0.06483974,64.9,9.1,-0.6149262,-0.1988639,0.5208044,-0.4484135,1.555466,0.2959699,0.7484353,1.433109,0.3697245,-0.1445689,-0.009781547,-0.1616114,-0.9855043,0.1325012,-0.004410461,0.8241764,1.458704,0.2182617,0.3428432,1.353158,0.2727797,283.9973,91.57605,150.6076,False
3,0.9111122,-1.262473,0.1233031,-0.3447207,-1.434041,-4.551255,-2.094885,0.5985761,1.279353,0.4270079,-1.243267,0.01629573,64.9,9.1,-0.6223724,-0.1689276,0.5062057,-0.444194,1.549765,0.3077805,0.7479537,1.43406,0.3691528,-0.1605795,-0.004427552,-0.1668072,-0.9877797,0.1325281,-0.002201902,0.8241191,1.458647,0.2182765,0.3416607,1.359833,0.2731389,284.7022,91.11544,151.1362,False
3,0.9222233,-1.258236,0.1414184,-0.3416186,-1.434046,-4.555495,-2.080513,0.5965194,1.282184,0.4268088,-1.242715,0.0501896,64.9,9.1,-0.626736,-0.1410121,0.4851924,-0.4400559,1.54522,0.3191127,0.7472878,1.435023,0.3688931,-0.1732758,0.0009354204,-0.1592305,-0.9891843,0.1325783,9.108011E-05,0.8238722,1.458578,0.2183485,0.340571,1.366479,0.2735904,285.4348,90.88514,151.4994,False
3,0.9333345,-1.239101,0.1680754,-0.3385535,-1.434641,-4.55997,-2.066882,0.5944107,1.28492,0.4264076,-1.242572,0.01248379,64.9,9.1,-0.6106484,-0.1123275,0.481021,-0.4355674,1.540282,0.3292506,0.7467562,1.435913,0.3684912,-0.1807742,-0.003312156,-0.1623467,-0.9911044,0.1323684,0.002477805,0.8236072,1.458587,0.2183926,0.3395015,1.373145,0.2741137,286.2177,90.62049,151.9107,False
3,0.9444456,-1.201854,0.195879,-0.324855,-1.435761,-4.564161,-2.054272,0.5923899,1.287694,0.4260378,-1.242561,0.0009321836,65.1,12.3,-0.6259371,-0.1504243,0.4552244,-0.4328787,1.529776,0.3459539,0.7461617,1.436786,0.3680997,-0.1956951,-0.009676635,-0.1611202,-0.9928062,0.1317735,0.005480519,0.8232595,1.458635,0.2184286,0.3384949,1.379808,0.274697,287.0153,90.26763,152.4337,False
3,0.9555568,-1.164586,0.2088181,-0.296143,-1.437056,-4.567236,-2.042177,0.5903248,1.290336,0.4255936,-1.243241,-0.06223653,65.1,12.3,-0.6761444,-0.1597173,0.444976,-0.4292792,1.521146,0.3630597,0.7452031,1.437747,0.367574,-0.2211283,0.00851728,-0.152389,-0.9942278,0.1326315,0.008250739,0.8227891,1.458727,0.218504,0.3374692,1.386529,0.2753149,287.8116,89.93237,152.9397,False
3,0.9666679,-1.128365,0.2078594,-0.2801389,-1.437921,-4.570405,-2.030277,0.5882261,1.292944,0.4251938,-1.244136,-0.08136825,65.1,12.3,-0.672718,-0.1129091,0.4506979,-0.4243044,1.517215,0.373996,0.7443088,1.438492,0.3672638,-0.2285253,0.0138682,-0.1469975,-0.9956824,0.1329865,0.01087262,0.8224344,1.458829,0.2185168,0.3364371,1.393261,0.2759641,288.6216,89.50813,153.556,False
3,0.977779,-1.099603,0.2111425,-0.2663134,-1.438874,-4.573599,-2.01874,0.5861802,1.295505,0.4247375,-1.244347,-0.01880129,65.1,12.3,-0.6561825,-0.02903363,0.4768788,-0.417671,1.517371,0.380582,0.743341,1.4394,0.366673,-0.2389957,0.01605973,-0.1287924,-0.9965458,0.1332881,0.01361887,0.8219295,1.458934,0.2185566,0.3354742,1.399876,0.2766426,289.4318,88.95908,154.3157,False
3,0.9888902,-1.044237,0.22837,-0.2440313,-1.44078,-4.576605,-2.008765,0.5842246,1.298047,0.424166,-1.244281,0.005879916,56.8,12.7,-0.6592355,-0.0002878308,0.4803774,-0.4123245,1.514328,0.3906815,0.7425307,1.440376,0.3662143,-0.2441486,0.02035719,-0.1117006,-0.9971328,0.1335847,0.01627751,0.8214239,1.459031,0.2185924,0.3345909,1.406254,0.2772658,290.2426,88.35045,155.1552,False
3,1.000001,-0.9803779,0.2658495,-0.2250549,-1.44372,-4.580052,-1.999605,0.5822119,1.300445,0.4236686,-1.244348,-0.006411499,56.8,12.7,-0.6826611,0.02224475,0.4733519,-0.4074477,1.511688,0.4014715,0.7415265,1.441349,0.3656852,-0.264294,0.01936421,-0.1019204,-0.9979445,0.1338555,0.01966238,0.8208519,1.459101,0.2186437,0.3337341,1.412337,0.2777557,291.0233,87.92525,155.7822,False
3,1.011112,-0.9399446,0.2947384,-0.2134735,-1.446796,-4.583591,-1.9902,0.580234,1.302863,0.4231298,-1.24556,-0.1109973,56.8,12.7,-0.6834018,0.04438561,0.4991257,-0.4011924,1.507994,0.4124946,0.7406858,1.442267,0.3651369,-0.2866159,0.0439145,-0.1028202,-0.999217,0.1352926,0.02283528,0.8203431,1.459205,0.2186294,0.3328701,1.418116,0.2780886,291.7095,87.61148,156.2449,False
3,1.022224,-0.8761137,0.343922,-0.1956163,-1.45099,-4.587194,-1.9821,0.5782766,1.304996,0.4225852,-1.24614,-0.05227599,56.8,12.7,-0.6713154,0.07072756,0.5269568,-0.394109,1.50496,0.4222335,0.7396612,1.442997,0.3645034,-0.27694,0.06307355,-0.0997587,-1.000243,0.1369705,0.02451919,0.8197994,1.459291,0.2187154,0.3319727,1.423581,0.278297,292.3221,87.26881,156.664,False
3,1.033335,-0.8612106,0.3514524,-0.1860691,-1.454087,-4.590433,-1.972745,0.5762552,1.307118,0.4220812,-1.245474,0.0608726,56.8,12.7,-0.6791816,0.03158191,0.4989754,-0.3905052,1.497335,0.4368902,0.7384716,1.443843,0.3640461,-0.2608777,0.06730369,-0.0924644,-1.000955,0.1379924,0.02617275,0.8190876,1.459364,0.2187879,0.3309445,1.428734,0.2784754,292.882,86.92156,157.0233,False
3,1.044446,-0.8441766,0.355724,-0.1807402,-1.456972,-4.593376,-1.963496,0.5742105,1.309134,0.4214559,-1.246214,-0.06857704,40.5,12.7,-0.6816391,0.01800382,0.4701167,-0.3868529,1.491661,0.4498622,0.7372741,1.444582,0.3635409,-0.2769186,0.08330405,-0.1029986,-1.002545,0.1396863,0.02893658,0.8184018,1.459584,0.2188416,0.329735,1.433624,0.2787134,293.3505,86.61768,157.3498,False
3,1.055557,-0.8303356,0.3600056,-0.1818304,-1.460072,-4.596916,-1.954262,0.5721391,1.311132,0.4209621,-1.24455,0.1524627,40.5,12.7,-0.6533588,0.03973567,0.4125088,-0.384064,1.491771,0.4561042,0.7357677,1.445256,0.363137,-0.2884616,0.1046618,-0.09121633,-1.003186,0.1419606,0.03128522,0.8176929,1.459668,0.2188103,0.3283919,1.43821,0.2791129,293.7931,86.26077,157.7785,False
3,1.066668,-0.7962506,0.3665113,-0.1648136,-1.463476,-4.599443,-1.946494,0.5701292,1.312988,0.4205031,-1.244058,0.04331028,40.5,12.7,-0.6110013,0.08898264,0.3677999,-0.3805657,1.495434,0.457958,0.7344666,1.446022,0.3626704,-0.2872979,0.10468,-0.08057394,-1.003654,0.1433166,0.03371083,0.8170702,1.459802,0.2189028,0.3268932,1.442577,0.2796458,294.1567,85.96357,158.2572,False
3,1.077779,-0.7461808,0.3720884,-0.1350517,-1.46728,-4.601631,-1.939742,0.5680192,1.314892,0.4203143,-1.243832,0.02029415,40.5,12.7,-0.5835677,0.1040961,0.3346477,-0.3774727,1.496243,0.4626851,0.7330618,1.446661,0.3623257,-0.2857236,0.125004,-0.03375937,-1.00248,0.1456559,0.03541019,0.8162169,1.459998,0.219018,0.3253076,1.446817,0.2802466,294.4706,85.71961,158.7468,False
3,1.08889,-0.689706,0.377712,-0.1042023,-1.47151,-4.603573,-1.933867,0.5659162,1.316744,0.4200003,-1.244886,-0.09669791,28.9,11,-0.5776958,0.08532789,0.2864749,-0.3760852,1.494891,0.469984,0.7317927,1.447482,0.3618042,-0.2833304,0.1356907,-0.009304896,-1.001812,0.1477136,0.03736042,0.8155308,1.460088,0.2191424,0.3237218,1.451005,0.2809176,294.7625,85.48844,159.1993,False
3,1.100002,-0.6460387,0.3885517,-0.08830997,-1.475671,-4.606017,-1.927911,0.5638046,1.318605,0.4196572,-1.24563,-0.06746455,28.9,11,-0.593898,0.05461648,0.2746394,-0.3738215,1.490731,0.4809112,0.7303401,1.448207,0.3613563,-0.2906567,0.1421232,0.002470305,-1.001347,0.1497904,0.03964355,0.8147756,1.460241,0.2192314,0.3222677,1.4551,0.2816647,295.0937,85.12587,159.7342,False
3,1.111113,-0.5885317,0.4026173,-0.06495544,-1.480319,-4.60763,-1.923503,0.5615878,1.320445,0.4192512,-1.246103,-0.04303016,28.9,11,-0.6075881,0.06200051,0.2876238,-0.3702023,1.488349,0.4901471,0.7288775,1.448899,0.3607857,-0.2972182,0.1548769,-0.01774024,-1.002345,0.1521807,0.04198074,0.8141155,1.460399,0.2192442,0.3208921,1.459113,0.282483,295.4763,84.65965,160.3251,False
3,1.122224,-0.5395607,0.423075,-0.0405729,-1.485544,-4.60934,-1.918865,0.5593587,1.322462,0.4188364,-1.245629,0.04329835,28.9,11,-0.6158142,0.08740318,0.3081742,-0.3656493,1.487556,0.4978316,0.727387,1.449434,0.3603265,-0.2846075,0.1462908,-0.03382782,-1.003263,0.1537601,0.04379302,0.8133571,1.460531,0.2192934,0.31951,1.463029,0.2833407,295.8984,84.14606,160.9892,False
3,1.133335,-0.445796,0.4114857,-0.04799433,-1.489115,-4.611521,-1.917364,0.5568585,1.324268,0.4183083,-1.246534,-0.08356203,28.9,11,-0.6128964,0.07375711,0.284583,-0.3633904,1.485224,0.5067218,0.7258512,1.450129,0.3598156,-0.2622244,0.1409065,-0.03083468,-1.003448,0.1552699,0.0451475,0.8124635,1.460678,0.2193086,0.3180189,1.46686,0.2842045,296.3009,83.67334,161.6384,False
3,1.144446,-0.4488922,0.3505911,-0.07858814,-1.489912,-4.613854,-1.911828,0.5544884,1.325907,0.4177859,-1.2459,0.05836088,20,9.5,-0.6013982,0.04613599,0.2714285,-0.3614325,1.48078,0.5170362,0.7241114,1.450839,0.3593128,-0.260087,0.1568746,-0.03408314,-1.003814,0.1579788,0.04658747,0.8114111,1.460852,0.2193286,0.3163652,1.470578,0.2850351,296.6655,83.11456,162.3681,False
3,1.155557,-0.4893319,0.3281746,-0.07314305,-1.492423,-4.615399,-1.904906,0.5521908,1.327589,0.4173245,-1.2484,-0.2295216,20,9.5,-0.5983797,0.03453296,0.2574432,-0.3594032,1.477336,0.5267615,0.7224196,1.451533,0.3588595,-0.2779666,0.1729332,-0.01477209,-1.003303,0.1607686,0.04869723,0.8104187,1.461085,0.2193851,0.3144783,1.474197,0.2857991,296.9823,82.602,163.0685,False
3,1.166668,-0.5244442,0.3036295,-0.06556302,-1.494616,-4.616532,-1.897603,0.5498912,1.329078,0.4168792,-1.244088,0.3957958,20,9.5,-0.5942734,0.06778756,0.2289265,-0.3572407,1.479671,0.5310277,0.7205882,1.452211,0.358479,-0.296953,0.1772763,0.00457917,-1.002473,0.163148,0.05146825,0.8093843,1.461327,0.2194095,0.3124048,1.477411,0.2864636,297.4357,82.34602,163.5713,False
3,1.17778,-0.6010908,0.2703595,-0.08456047,-1.495788,-4.618562,-1.888327,0.5477182,1.330358,0.416486,-1.241789,0.2063332,20,9.5,-0.5835074,0.1414081,0.2135063,-0.3536263,1.487566,0.5298199,0.7187754,1.452784,0.3580399,-0.2943894,0.1901339,0.04607783,-1.000473,0.1660147,0.05311915,0.8082349,1.461626,0.2195096,0.3101474,1.480178,0.2869266,297.6739,82.31406,163.8421,False
3,1.188891,-0.6681983,0.267055,-0.0834612,-1.498317,-4.620324,-1.878514,0.5455884,1.331797,0.4161034,-1.241141,0.05784947,20,9.5,-0.5693808,0.1977464,0.2213421,-0.3492011,1.493866,0.5296894,0.717056,1.453208,0.3577266,-0.2813666,0.20186,0.06830479,-0.9989054,0.1689587,0.05420944,0.8071206,1.461781,0.2195978,0.3078286,1.482774,0.2871778,297.6303,82.19552,164.1054,False
3,1.200002,-0.7129288,0.2595523,-0.0727592,-1.500699,-4.621433,-1.869034,0.5434646,1.333265,0.4157219,-1.239328,0.1656164,12.5,9.4,-0.5520929,0.2327386,0.23322,-0.3445598,1.499087,0.5302266,0.7154148,1.453622,0.3572402,-0.2630785,0.1997153,0.08730638,-0.9972494,0.1713305,0.05516099,0.8060573,1.461957,0.219605,0.3056889,1.485352,0.2872443,297.5561,82.12938,164.2778,False
3,1.211113,-0.6915906,0.2436748,-0.06416439,-1.502667,-4.62241,-1.862223,0.5412372,1.335096,0.4151273,-1.238854,0.04209035,12.5,9.4,-0.5483886,0.1808666,0.1954177,-0.3437496,1.498285,0.5369883,0.7139443,1.45407,0.3569767,-0.25249,0.1932903,0.08294948,-0.9964877,0.1735428,0.05652533,0.805005,1.462103,0.2196558,0.3038839,1.488123,0.2871831,297.5381,82.24266,164.2133,False
3,1.222224,-0.3196096,0.1411156,-0.04136769,-1.500926,-4.621605,-1.871658,0.5385869,1.336989,0.4146998,-1.23946,-0.05532204,12.5,9.4,-0.5392433,0.1224554,0.1724142,-0.3430082,1.495144,0.5458457,0.7124465,1.45472,0.3565376,-0.2441465,0.190034,0.06475903,-0.9963424,0.1758457,0.0577091,0.8039963,1.462289,0.219682,0.3024799,1.49139,0.2870976,297.6334,82.25793,164.1675,False
3,1.233335,-0.2610779,0.1676285,-0.08731864,-1.503035,-4.625018,-1.870436,0.5362653,1.338705,0.4142039,-1.24243,-0.2708902,12.5,9.4,-0.5146274,0.002466291,0.1188782,-0.3455015,1.485612,0.5596923,0.7110009,1.45533,0.3561645,-0.2379597,0.1835906,0.04553436,-0.9964452,0.1780328,0.0590516,0.802959,1.462491,0.2197194,0.301527,1.495264,0.2870373,297.9599,82.13179,164.2823,False
3,1.244446,-0.2131896,0.19867,-0.07469004,-1.505993,-4.626111,-1.868809,0.5341922,1.340283,0.4136631,-1.25841,-1.459069,7.1,9.9,-0.5142441,-0.1059139,0.0891111,-0.3478919,1.474668,0.5757986,0.7092154,1.456021,0.3557403,-0.248877,0.180373,0.01900989,-0.996941,0.1803951,0.06097733,0.8019177,1.4627,0.2197986,0.3009754,1.499587,0.2869526,298.658,81.99393,164.4886,False
3,1.255558,-0.1811523,0.152799,-0.09257669,-1.505799,-4.627497,-1.867763,0.5320134,1.341763,0.4133189,-1.248613,0.9071512,7.1,9.9,-0.4918104,-0.1327781,0.105695,-0.3475937,1.466372,0.5884023,0.7074636,1.456663,0.3552978,-0.2702831,0.1846672,0.007487945,-0.9971189,0.1830267,0.06330227,0.8008615,1.462881,0.2198329,0.3005869,1.503172,0.2867709,300.0668,81.92336,164.5328,False
3,1.266669,-0.1778489,0.09094726,-0.1061213,-1.504187,-4.628678,-1.865737,0.5298915,1.343063,0.4131229,-1.245701,0.2564169,7.1,9.9,-0.478704,-0.08288133,0.1198631,-0.3456602,1.465906,0.5935507,0.7055488,1.457357,0.3547554,-0.289661,0.195324,-0.01685543,-0.9980585,0.1860659,0.06546503,0.7997417,1.463126,0.2198043,0.2994333,1.505965,0.2865916,300.9718,81.78508,164.4752,False
3,1.27778,-0.2011328,0.008886993,-0.1025218,-1.501283,-4.628877,-1.862701,0.5278395,1.344413,0.413157,-1.245558,0.01140323,7.1,9.9,-0.4619851,0.04464191,0.1485666,-0.3407786,1.473923,0.5905772,0.7036574,1.457911,0.3540995,-0.3063715,0.2114023,0.01309637,-0.996883,0.1893296,0.06751566,0.7985041,1.463366,0.2197661,0.297506,1.508015,0.2865335,301.2167,81.63027,164.554,False
3,1.288891,-0.2191631,-0.03484679,-0.1076271,-1.499288,-4.629615,-1.859593,0.5257806,1.345745,0.4128439,-1.244167,0.1269485,7.1,9.9,-0.4577422,0.2253719,0.1885225,-0.3334177,1.489417,0.580861,0.7018108,1.458392,0.3533626,-0.293307,0.2135544,0.04279052,-0.9953298,0.1920674,0.06893992,0.7972751,1.463627,0.2197316,0.2949972,1.509306,0.286558,301.089,81.79359,164.5211,False
3,1.300002,-0.2328702,-0.1126927,-0.114698,-1.495034,-4.629829,-1.856428,0.5239054,1.346854,0.4129088,-1.242668,0.1357496,5.4,10.9,-0.4412652,0.3274747,0.201022,-0.3275752,1.502474,0.5729176,0.7002411,1.458788,0.3529501,-0.2610128,0.1954347,0.08300185,-0.9929974,0.1937145,0.06989626,0.7959862,1.463875,0.2197676,0.2921518,1.509964,0.2865812,300.7003,82.12346,164.3911,False
3,1.311113,-0.205116,-0.142489,-0.1188188,-1.492238,-4.630502,-1.855049,0.5219195,1.348282,0.4126532,-1.242359,0.0271235,5.4,10.9,-0.4103551,0.3626221,0.1893253,-0.3232023,1.513917,0.565556,0.698634,1.459351,0.3525312,-0.2565838,0.1784181,0.1053545,-0.9911055,0.1952295,0.07180921,0.7947803,1.464108,0.2197573,0.2891959,1.510333,0.2864954,300.1384,82.4582,164.2507,False
3,1.322224,-0.1059893,-0.180853,-0.1580688,-1.488089,-4.63257,-1.857028,0.5200769,1.349745,0.4121966,-1.2422,0.01446232,5.4,10.9,-0.3993817,0.2628018,0.1488856,-0.3235389,1.511187,0.5721762,0.6971731,1.459979,0.3521092,-0.2619837,0.1709564,0.1000924,-0.9901729,0.1971071,0.07403907,0.7936394,1.46432,0.2197814,0.2863635,1.510728,0.286238,299.5983,82.80866,164.0706,False
3,1.333336,-0.04850792,-0.1540086,-0.1369087,-1.487074,-4.633129,-1.858424,0.5183911,1.351148,0.4118781,-1.243918,-0.1573393,5.4,10.9,-0.3925404,0.1778364,0.1171489,-0.3239714,1.50802,0.5793574,0.6956636,1.460486,0.3516934,-0.2666077,0.1485357,0.06821866,-0.9904349,0.1982026,0.0766013,0.7925379,1.464484,0.2197065,0.2839344,1.511264,0.2857779,299.1982,83.27916,163.6904,False
3,1.344447,-0.03146143,-0.1604338,-0.1496638,-1.484637,-4.634496,-1.858146,0.5167147,1.352331,0.4115491,-1.247297,-0.3077185,14.3,10.2,-0.3664404,0.07882679,0.09892986,-0.3249983,1.500779,0.5893503,0.694064,1.46099,0.3512642,-0.2616256,0.1388629,0.03515764,-0.9911481,0.1996654,0.07860879,0.7914447,1.464659,0.2197015,0.2818434,1.512194,0.2851045,299.0304,83.746,163.2516,False
3,1.355558,-0.02609158,-0.1860792,-0.16765,-1.481053,-4.636062,-1.857875,0.5149581,1.353647,0.4113264,-1.246436,0.08082765,14.3,10.2,-0.3376077,0.06475732,0.111309,-0.3234718,1.498166,0.5945613,0.6925586,1.461387,0.3508716,-0.245599,0.1367047,0.04033529,-0.9903934,0.2014374,0.07983225,0.7902693,1.464852,0.2197084,0.2800885,1.513288,0.2842976,299.1378,84.23946,162.6988,False
3,1.366669,-0.006883562,-0.2074737,-0.1920502,-1.477234,-4.638034,-1.858285,0.5132706,1.35484,0.411001,-1.244187,0.2043032,14.3,10.2,-0.308563,0.1114131,0.1231724,-0.3202749,1.503216,0.5923259,0.691045,1.461608,0.3504896,-0.2272184,0.1462875,0.06677,-0.9886155,0.2034973,0.08076382,0.789095,1.46507,0.2196994,0.2785408,1.514421,0.2834904,299.3055,84.43811,162.3226,False
3,1.37778,0.004905304,-0.2458645,-0.2035816,-1.472569,-4.639369,-1.85853,0.5115558,1.356143,0.4109728,-1.243648,0.04734116,14.3,10.2,-0.3010303,0.1508719,0.1160078,-0.3176299,1.509698,0.5892715,0.6895816,1.462067,0.3501036,-0.2120627,0.1484268,0.09112227,-0.9866559,0.2054088,0.08155158,0.7879244,1.465313,0.2197344,0.2770562,1.515545,0.2827337,299.4918,84.77749,161.8676,False
3,1.388891,0.0358377,-0.2682446,-0.2173292,-1.468136,-4.641091,-1.859812,0.5098504,1.357414,0.4107502,-1.244098,-0.04148426,14.3,10.2,-0.293399,0.134646,0.1402753,-0.3152682,1.508172,0.5938396,0.6881219,1.462614,0.3496673,-0.2034785,0.1430923,0.09957199,-0.9851342,0.2069604,0.08276013,0.7867281,1.465487,0.2196686,0.2755277,1.516658,0.2820522,299.67,85.30708,161.2893,False
3,1.400002,0.05401171,-0.3065961,-0.2245977,-1.463012,-4.642302,-1.860708,0.5081052,1.358688,0.4106438,-1.243704,0.03621754,36.4,9.6,-0.285011,0.1294004,0.1284332,-0.3136437,1.509749,0.5952967,0.686662,1.463084,0.3493879,-0.2056826,0.1345669,0.09428557,-0.984193,0.208364,0.08439425,0.7855724,1.465706,0.2196531,0.2739365,1.517643,0.2814788,299.8314,85.86786,160.7096,False
3,1.411114,0.06795208,-0.3556041,-0.2307533,-1.45692,-4.643384,-1.861795,0.5065762,1.359887,0.4105446,-1.244482,-0.07171676,36.4,9.6,-0.2744393,0.118748,0.1239728,-0.3120905,1.510224,0.5975241,0.6853306,1.463643,0.3489945,-0.2133667,0.1132456,0.07628883,-0.983899,0.2090151,0.08664834,0.7845576,1.46591,0.2195437,0.2722243,1.518478,0.2810077,299.9175,86.40125,160.1741,False
3,1.422225,0.08081365,-0.3971575,-0.2369453,-1.450672,-4.644481,-1.862895,0.5050703,1.361207,0.410537,-1.243884,0.05521253,36.4,9.6,-0.2647673,0.09939858,0.1396836,-0.3100591,1.507794,0.6024622,0.684026,1.464036,0.348623,-0.218936,0.09297907,0.0561393,-0.9838963,0.2094306,0.08899299,0.7834222,1.466098,0.219486,0.2703521,1.519124,0.2806094,299.9657,86.91168,159.7173,False
3,1.433336,0.1065021,-0.4621379,-0.2462217,-1.442711,-4.645302,-1.864867,0.5037079,1.362372,0.4105394,-1.243738,0.01262345,36.4,9.6,-0.259534,0.09092101,0.1331716,-0.3085272,1.507441,0.6054734,0.6827013,1.464452,0.3481002,-0.2319131,0.08871409,0.03709519,-0.9841073,0.2104512,0.09147585,0.7824013,1.466281,0.2194209,0.2683444,1.519529,0.2802238,299.9274,87.44946,159.2752,False
3,1.444447,0.1236225,-0.5090472,-0.2598483,-1.434988,-4.646455,-1.866465,0.5025616,1.363474,0.4104345,-1.243537,0.01814192,53.4,10.8,-0.2411203,0.09802195,0.1628838,-0.3056489,1.505515,0.6095094,0.6811756,1.465037,0.3476188,-0.2243652,0.1025451,0.04339094,-0.983173,0.2122408,0.0927619,0.7813723,1.466511,0.2193241,0.2663111,1.519648,0.2797735,299.7911,88.10261,158.7321,False
3,1.455558,0.1290121,-0.542115,-0.2703418,-1.427234,-4.647642,-1.867882,0.5012451,1.364487,0.4106181,-1.244146,-0.05593557,53.4,10.8,-0.2130856,0.1253941,0.1873682,-0.301873,1.506326,0.6101422,0.6797288,1.46539,0.3472056,-0.2167652,0.1270444,0.05179482,-0.9820668,0.2148512,0.09345911,0.7802414,1.466657,0.2192502,0.2642991,1.519556,0.2792054,299.5928,88.87323,158.0438,False
3,1.466669,0.1258315,-0.5517161,-0.2713601,-1.420181,-4.648689,-1.868955,0.4998898,1.365425,0.4106503,-1.243659,0.04477716,53.4,10.8,-0.1619295,0.1914527,0.1651175,-0.2984573,1.51655,0.600509,0.6783767,1.465701,0.3467698,-0.2145323,0.1366406,0.06027157,-0.9810579,0.2169161,0.09469668,0.7791355,1.46677,0.2192516,0.2624425,1.519175,0.2784702,299.4151,89.76033,157.2232,False
3,1.47778,0.1290322,-0.5506161,-0.2649732,-1.413672,-4.649471,-1.870347,0.4986073,1.36634,0.4109817,-1.243222,0.03936163,53.4,10.8,-0.145478,0.2187451,0.203566,-0.2937168,1.519057,0.5992166,0.6770381,1.466118,0.3465471,-0.2122152,0.1377381,0.0794236,-0.9794233,0.2185552,0.09603386,0.7780563,1.466925,0.2191722,0.2607244,1.518596,0.2775509,299.2444,90.73132,156.2272,False
3,1.488891,0.1300956,-0.5398915,-0.2469103,-1.407546,-4.649688,-1.871837,0.4973547,1.367148,0.4112718,-1.242675,0.04966011,53.4,10.8,-0.1190198,0.2294745,0.1821061,-0.2910095,1.523641,0.5953481,0.6758072,1.466379,0.3461862,-0.1855417,0.1163812,0.08985998,-0.9780358,0.2189821,0.09697954,0.7770196,1.467128,0.2190874,0.2590427,1.517973,0.2765128,299.1162,91.72099,155.0854,False
3,1.500003,0.1268822,-0.5227798,-0.2278141,-1.4017,-4.649734,-1.873199,0.496042,1.367754,0.411103,-1.242797,-0.011688,52.2,10.3,-0.1218777,0.1809989,0.1252296,-0.2914132,1.525572,0.595066,0.6747039,1.466684,0.345813,-0.1718955,0.08649459,0.07700868,-0.9776022,0.2189089,0.09852551,0.7759994,1.467298,0.2188785,0.257351,1.517425,0.2754453,298.9906,92.64648,153.9454,False
3,1.511114,0.1225319,-0.4758843,-0.2216516,-1.397414,-4.65075,-1.874228,0.4949777,1.368273,0.411176,-1.242737,0.005618631,52.2,10.3,-0.1278496,0.0929043,0.0914556,-0.292847,1.519801,0.602226,0.6735846,1.467167,0.3455074,-0.1912752,0.05775413,0.06339953,-0.9773844,0.2185263,0.1014755,0.7750405,1.46748,0.2186842,0.2557203,1.516951,0.2744904,298.8739,93.49676,152.8551,False
3,1.522225,0.117114,-0.4343622,-0.2218543,-1.393249,-4.652069,-1.874958,0.4939461,1.368868,0.4110792,-1.242486,0.02282581,52.2,10.3,-0.1269532,0.05136213,0.08894475,-0.2923176,1.514921,0.608123,0.6722909,1.467715,0.345036,-0.1979696,0.03960645,0.0368633,-0.97781,0.218419,0.1040145,0.7741286,1.467704,0.2185009,0.2541837,1.516535,0.2736951,298.804,94.16521,152.0591,False
3,1.533336,0.1074151,-0.3757483,-0.2136174,-1.390632,-4.65343,-1.875547,0.4929919,1.369269,0.4111788,-1.242231,0.02299323,52.2,10.3,-0.1342933,0.08014094,0.09034385,-0.2904529,1.518205,0.6067104,0.6711336,1.468184,0.3446558,-0.1937745,0.04171187,0.02936171,-0.9776779,0.219045,0.1056527,0.7731345,1.467891,0.2183769,0.2527337,1.516153,0.2729984,298.7783,94.70978,151.498,False
3,1.544447,0.1009733,-0.3522996,-0.207333,-1.386778,-4.654341,-1.876203,0.4919986,1.369828,0.4111962,-1.241938,0.02676691,52.2,10.3,-0.1110399,0.1358599,0.1609502,-0.2851734,1.519027,0.606442,0.6700668,1.468634,0.3443744,-0.1947893,0.05024496,0.03254775,-0.9771031,0.2201249,0.1072708,0.7721165,1.468168,0.2183049,0.251386,1.515807,0.2724541,298.7379,95.25707,150.9148,False
3,1.555558,0.1051538,-0.3149207,-0.1894039,-1.384061,-4.655085,-1.877222,0.4911685,1.370235,0.4113276,-1.241781,0.01411395,37.8,10.9,-0.07748505,0.2207238,0.1848489,-0.2801443,1.527437,0.5982216,0.6689151,1.468996,0.3439784,-0.1721967,0.05981505,0.05362222,-0.9756773,0.2211035,0.1080114,0.7711452,1.468228,0.2182517,0.2501001,1.515574,0.2720929,298.6917,95.80074,150.3353,False
3,1.566669,0.1190017,-0.3127056,-0.1777001,-1.380325,-4.65563,-1.878872,0.4903145,1.370741,0.4115093,-1.241778,0.0001557951,37.8,10.9,-0.06044558,0.2334945,0.179475,-0.2768958,1.533179,0.5928404,0.6679271,1.469401,0.3436918,-0.1551323,0.04380712,0.05987898,-0.9748501,0.221034,0.1092362,0.7702374,1.468422,0.2181644,0.2488964,1.515462,0.2719792,298.66,96.21774,149.8998,False
3,1.577781,0.1296847,-0.3264839,-0.168048,-1.375907,-4.655932,-1.880605,0.489439,1.371353,0.411768,-1.24213,-0.03215412,37.8,10.9,-0.05317258,0.2047828,0.1716903,-0.2746944,1.533361,0.593213,0.6671149,1.469451,0.3433654,-0.1477461,0.03099671,0.05556972,-0.9744421,0.2208626,0.1107326,0.7693129,1.468604,0.2180538,0.2477681,1.515462,0.2720445,298.6591,96.57478,149.616,False
3,1.588892,0.1393536,-0.3680008,-0.1657156,-1.370173,-4.655943,-1.882476,0.4886793,1.371893,0.411926,-1.242741,-0.05562647,37.8,10.9,-0.03996256,0.1347877,0.1315029,-0.2750795,1.530591,0.5958669,0.6663393,1.469759,0.3430839,-0.1415698,0.007512197,0.03958132,-0.9746083,0.2200354,0.1126376,0.7684705,1.468632,0.2179766,0.2467729,1.515479,0.2722464,298.6833,96.83688,149.4564,False
3,1.600003,0.1575316,-0.4074619,-0.1815079,-1.36388,-4.656623,-1.884603,0.487958,1.372378,0.4119501,-1.242772,-0.002412846,27.5,11.2,-0.03732237,0.05192257,0.1062064,-0.2759466,1.524382,0.6023815,0.6654263,1.470013,0.3426402,-0.1395173,-0.004217625,0.03425336,-0.9744709,0.2195816,0.1143561,0.7676593,1.46871,0.2176995,0.2458484,1.515456,0.2724817,298.7553,97.12357,149.2914,False
3,1.611114,0.1682272,-0.4320319,-0.1995002,-1.357716,-4.657548,-1.886612,0.4872353,1.372844,0.4120386,-1.242757,0.001289641,27.5,11.2,-0.03905431,0.05689578,0.145688,-0.2732137,1.520705,0.6064364,0.6646255,1.470233,0.3423166,-0.1277089,0.007482976,0.04051012,-0.9737779,0.2200276,0.1151577,0.7668562,1.468804,0.2175207,0.244934,1.515331,0.2726378,298.8373,97.48096,149.0627,False
3,1.622225,0.1724485,-0.4161298,-0.2176882,-1.353038,-4.659132,-1.888245,0.4862372,1.373074,0.4122181,-1.243042,-0.02620287,27.5,11.2,-0.03050728,0.07287943,0.1425474,-0.2710954,1.522689,0.6046124,0.6635522,1.470316,0.3419912,-0.1180939,0.0095938,0.04360657,-0.9731952,0.2201527,0.1162006,0.7659245,1.468831,0.2174191,0.2440411,1.514984,0.2725875,298.9174,97.95863,148.7306,False
3,1.633336,0.1756015,-0.3948494,-0.2241856,-1.348687,-4.660552,-1.889986,0.4854722,1.373412,0.4122829,-1.242897,0.01347097,27.5,11.2,-0.03302606,0.08180878,0.09897238,-0.2707428,1.527445,0.6004757,0.6626437,1.470521,0.3417075,-0.1073681,0.005321212,0.05203283,-0.9723851,0.2198882,0.1171466,0.7651172,1.468981,0.2173762,0.2431142,1.514372,0.2722552,298.9886,98.6004,148.1655,False
3,1.644447,0.188246,-0.3287913,-0.2277041,-1.346553,-4.662518,-1.8919,0.4846333,1.373691,0.4124005,-1.242542,0.03223617,27.5,11.2,-0.02135635,0.09144044,0.09042472,-0.2693905,1.530012,0.5979127,0.661739,1.470856,0.3414819,-0.1052207,0.002122745,0.05415075,-0.9717241,0.2196565,0.1182968,0.7641841,1.469152,0.2172034,0.2420576,1.51354,0.2716813,299.0359,99.3423,147.3343,False
3,1.655559,0.2030549,-0.2733311,-0.2205242,-1.344796,-4.664266,-1.894247,0.4838392,1.374021,0.4124513,-1.242507,0.002912782,26.3,10.5,-0.014147,0.0873739,0.06688072,-0.2688259,1.532903,0.5951496,0.6607634,1.47119,0.3412178,-0.10422,0.005291685,0.04668425,-0.971388,0.2196589,0.1194201,0.7635715,1.469201,0.216996,0.2407698,1.512585,0.2710268,299.0131,100.0677,146.3958,False
3,1.66667,0.2348653,-0.1954631,-0.2123891,-1.34454,-4.666299,-1.897469,0.4832616,1.374231,0.4124324,-1.242732,-0.02068178,26.3,10.5,-0.01860153,0.08222859,0.04876481,-0.2684578,1.535275,0.5931957,0.6599233,1.47144,0.3409531,-0.09995149,0.00421764,0.04771082,-0.9708309,0.2195874,0.1204159,0.7628235,1.469286,0.21682,0.2393046,1.511588,0.2704484,298.8576,100.8139,145.4451,False
3,1.677781,0.2613728,-0.1335409,-0.1956586,-1.34441,-4.66804,-1.900669,0.4827013,1.374591,0.4125202,-1.243053,-0.02919035,26.3,10.5,-0.01758011,0.07906222,0.04552913,-0.267637,1.536993,0.5917525,0.6590814,1.471792,0.3407502,-0.08607871,-0.007533632,0.05292607,-0.970148,0.2187508,0.1213099,0.7622317,1.469421,0.2166352,0.2376921,1.510679,0.2701226,298.622,101.4743,144.6237,False
3,1.688892,0.2613246,-0.1079531,-0.1915233,-1.343423,-4.669866,-1.903236,0.4820477,1.374757,0.4126577,-1.243878,-0.07535571,26.3,10.5,-0.008806737,0.06063234,0.07724218,-0.2659241,1.533039,0.5952194,0.658425,1.4721,0.3403182,-0.09998806,-0.007510878,0.04666705,-0.9698359,0.2185379,0.122985,0.7615197,1.469543,0.2164557,0.2360494,1.509887,0.2701576,298.3497,102.0075,144.0572,False
3,1.700003,0.2485356,-0.1036899,-0.185149,-1.34163,-4.671311,-1.905224,0.4813989,1.374854,0.4127343,-1.243682,0.01846229,28.7,11.2,-0.01291542,0.05623017,0.09535284,-0.2641856,1.531484,0.5971159,0.6574953,1.472364,0.3400228,-0.1000113,-0.003254034,0.04345997,-0.9694796,0.2186801,0.124054,0.7607214,1.469563,0.2162209,0.2345018,1.509173,0.2706174,298.0777,102.3695,143.7797,False
3,1.711114,0.2197656,-0.1005655,-0.1883524,-1.339936,-4.673113,-1.906369,0.4808044,1.374969,0.4129708,-1.242848,0.07581437,28.7,11.2,-0.01158492,0.0752158,0.115756,-0.261655,1.531736,0.596963,0.6566786,1.472512,0.3396881,-0.09879758,0.02339189,0.05192002,-0.9684974,0.2199136,0.1244184,0.7599659,1.46965,0.2160771,0.2330415,1.508561,0.2714577,297.8564,102.6221,143.722,False
3,1.722225,0.2037759,-0.1016693,-0.1904667,-1.338179,-4.674778,-1.907634,0.4800925,1.375161,0.4132636,-1.24199,0.07784513,28.7,11.2,0.007714726,0.1284868,0.1085941,-0.2590659,1.541071,0.5872148,0.6558354,1.472771,0.3395011,-0.08909202,0.03616878,0.06032755,-0.9674119,0.2207316,0.1245592,0.7591617,1.469715,0.2160375,0.2316636,1.508002,0.272553,297.7314,102.8195,143.8351,False
3,1.733337,0.170777,-0.115608,-0.1957153,-1.335717,-4.676491,-1.907991,0.4795392,1.375288,0.4136505,-1.241142,0.07687424,28.7,11.2,0.03038787,0.1687396,0.1247246,-0.2556752,1.547549,0.5798389,0.6550318,1.472993,0.3393965,-0.08064996,0.02867788,0.05386906,-0.9670167,0.2207365,0.125172,0.7584342,1.469807,0.2159255,0.2303661,1.507467,0.2737124,297.6362,103.0246,143.9881,False
3,1.744448,0.1537571,-0.128441,-0.1977753,-1.333162,-4.677989,-1.90887,0.4789796,1.375554,0.4140983,-1.241225,-0.00811928,28.7,11.2,0.05796883,0.1623354,0.1158812,-0.2538855,1.550711,0.5753871,0.6542367,1.473207,0.3391564,-0.08068441,0.01163302,0.05496905,-0.9664249,0.2200378,0.1264994,0.7575929,1.469823,0.2157598,0.2291298,1.507009,0.2748044,297.5299,103.3063,144.001,False
3,1.755559,0.1484601,-0.1433547,-0.1955695,-1.330481,-4.679307,-1.910002,0.4784668,1.375846,0.4145083,-1.240473,0.06895857,34.5,14.2,0.06733328,0.1325809,0.1038001,-0.2530237,1.550626,0.5743954,0.6535547,1.47343,0.3389969,-0.07117492,0.0009456351,0.04957187,-0.9661053,0.2195353,0.1272344,0.756874,1.46989,0.21558,0.22796,1.506656,0.2757582,297.4522,103.6241,143.8996,False
3,1.76667,0.1538513,-0.1710332,-0.1933054,-1.327073,-4.680305,-1.911856,0.4779816,1.376216,0.4148135,-1.241009,-0.0494366,34.5,14.2,0.09171679,0.09411971,0.1064066,-0.2522003,1.547079,0.5761219,0.6529081,1.4737,0.3389482,-0.06163734,-0.01187044,0.04737409,-0.9657443,0.2187283,0.1279715,0.7562258,1.470005,0.2154343,0.2269447,1.506364,0.2765454,297.3962,104.0276,143.6502,False
3,1.777781,0.1656246,-0.1955076,-0.1921151,-1.323612,-4.68123,-1.913946,0.4775503,1.37653,0.4153173,-1.241421,-0.03717962,34.5,14.2,0.1076837,0.07696961,0.1114234,-0.2508943,1.544705,0.5766407,0.6523609,1.473947,0.3387866,-0.05634663,-0.03957444,0.0516373,-0.965218,0.2169378,0.1295724,0.7555695,1.470214,0.215173,0.2260928,1.506152,0.2771509,297.3827,104.4325,143.3325,False
3,1.788892,0.1678162,-0.2263757,-0.1877022,-1.319648,-4.68185,-1.915709,0.4772828,1.376881,0.4157431,-1.24217,-0.06815095,34.5,14.2,0.1269803,0.06823888,0.1271382,-0.2488575,1.542491,0.5767235,0.651898,1.474157,0.3385124,-0.04994797,-0.06514329,0.05908259,-0.9645383,0.2148758,0.131068,0.7548933,1.470328,0.2149787,0.2253958,1.505984,0.2775719,297.4173,104.7896,143.0338,False
3,1.800003,0.166755,-0.2369203,-0.1887907,-1.317364,-4.684391,-1.916958,0.4769073,1.377254,0.4164975,-1.242467,-0.02659233,34.5,14.2,0.1205742,0.06614897,0.1261159,-0.247291,1.542299,0.5758125,0.6513722,1.474502,0.3382533,-0.04890265,-0.07153353,0.05908744,-0.9639834,0.2137344,0.1322872,0.7542455,1.470445,0.2146878,0.2248289,1.505769,0.2778012,297.5175,105.1505,142.6915,False
3,1.811115,0.1560996,-0.2358806,-0.1898581,-1.314166,-4.685545,-1.91803,0.4768477,1.37749,0.4168458,-1.242058,0.03758905,39.8,19.6,0.1122514,0.07561138,0.1433285,-0.2448249,1.541341,0.5758119,0.6509463,1.474692,0.3380353,-0.04578462,-0.08220474,0.05375133,-0.9637303,0.2121238,0.1336222,0.753657,1.470552,0.2145114,0.2243661,1.505396,0.2778991,297.6324,105.5401,142.2421,False
3,1.822226,0.1560715,-0.2283859,-0.1909965,-1.311756,-4.68749,-1.919265,0.4765387,1.377613,0.4170022,-1.241958,0.008739823,39.8,19.6,0.1079728,0.1013104,0.1318799,-0.242834,1.546734,0.5694991,0.6504613,1.474666,0.3378913,-0.03830804,-0.08434638,0.05581116,-0.9632217,0.2109037,0.1344305,0.7530499,1.470608,0.214401,0.2241443,1.505079,0.2778217,297.7054,105.6948,141.8444,False
3,1.833337,0.1400414,-0.2028853,-0.1985722,-1.309665,-4.689376,-1.919781,0.4764489,1.377718,0.4172242,-1.241453,0.04618657,39.8,19.6,0.1057628,0.1131524,0.1192245,-0.2411849,1.550603,0.5646453,0.6500161,1.474732,0.337759,-0.02446036,-0.08864056,0.05675231,-0.9627189,0.2094448,0.1350524,0.7524611,1.470657,0.2142258,0.2241861,1.504979,0.2777249,297.8505,105.7978,141.3795,False
3,1.844448,0.1293774,-0.1975905,-0.2018019,-1.306958,-4.691069,-1.920445,0.4762259,1.377836,0.4171934,-1.241801,-0.03222065,39.8,19.6,0.1065659,0.1059199,0.09464592,-0.2405117,1.553422,0.5606984,0.6496305,1.474852,0.3375716,-0.01811756,-0.09078997,0.05243263,-0.9624521,0.2081951,0.1358191,0.7518901,1.470665,0.213994,0.2242754,1.504922,0.2776513,298.0212,105.8857,141.0965,False
3,1.855559,0.1123281,-0.1965986,-0.210324,-1.304072,-4.692875,-1.92062,0.476014,1.377972,0.4173913,-1.241176,0.05754547,37.3,24.7,0.09752252,0.05941018,0.05808538,-0.2415935,1.551499,0.5618186,0.6492238,1.474958,0.337503,-0.006451337,-0.09508905,0.04806794,-0.9622384,0.206663,0.136332,0.7513553,1.470744,0.2138386,0.2243427,1.504892,0.2775823,298.1709,106.0265,140.8665,False
3,1.86667,0.108088,-0.2083906,-0.2209113,-1.300355,-4.694448,-1.921292,0.4756776,1.378188,0.4175828,-1.24128,-0.009975945,37.3,24.7,0.0961455,0.02014506,0.04176071,-0.2422204,1.547377,0.5649776,0.6487921,1.475117,0.3373556,0.004197083,-0.08766396,0.04475519,-0.9619753,0.2057959,0.1363107,0.7508413,1.470803,0.2137063,0.2244449,1.504874,0.2775566,298.328,105.9202,140.857,False
3,1.877781,0.1060035,-0.2329014,-0.2218574,-1.296182,-4.695673,-1.922072,0.4753491,1.378486,0.4178131,-1.240948,0.03056172,37.3,24.7,0.09824891,0.01803238,0.03958938,-0.2416776,1.547541,0.5635997,0.6483417,1.475363,0.3371725,0.01510706,-0.07592685,0.06913418,-0.9603721,0.2049908,0.1362929,0.7503053,1.47093,0.2135932,0.2244878,1.504889,0.2775097,298.4866,105.948,140.778,False
3,1.888893,0.1124629,-0.264795,-0.2089069,-1.291604,-4.695815,-1.923579,0.4750076,1.378858,0.4179978,-1.241453,-0.0463912,37.3,24.7,0.0919551,0.03613548,0.04301105,-0.2406182,1.549914,0.5604705,0.6479657,1.47546,0.3370547,0.01612994,-0.08871511,0.06808358,-0.9598246,0.2031563,0.1371312,0.7498739,1.470985,0.2134445,0.2243645,1.504944,0.2775202,298.3918,106.1134,140.6912,False
3,1.900004,0.1199326,-0.2647144,-0.1907884,-1.288096,-4.696094,-1.925113,0.4747628,1.379268,0.4182625,-1.241614,-0.01422921,37.3,24.7,0.08259451,0.04985902,0.06133853,-0.2389692,1.550663,0.5590806,0.6476216,1.475481,0.3369522,0.01597678,-0.09194078,0.05317054,-0.9599929,0.2017298,0.1377914,0.7494332,1.470995,0.2131004,0.2243031,1.505,0.2775939,298.2673,105.9469,140.8214,False
3,1.911115,0.1177644,-0.2411684,-0.1674653,-1.285882,-4.6965,-1.926248,0.4745,1.379506,0.4184802,-1.2421,-0.04436468,35,28.4,0.08810182,0.07104759,0.07213272,-0.2371683,1.55341,0.5552469,0.6472781,1.475508,0.3368752,0.01912064,-0.08024698,0.04459532,-0.9598554,0.2011101,0.1378279,0.7489902,1.471012,0.2129803,0.224326,1.50503,0.2775929,298.2976,105.8176,140.8826,False
3,1.922226,0.1092153,-0.2208726,-0.1526438,-1.283758,-4.697021,-1.927114,0.4743879,1.379606,0.4186935,-1.242218,-0.01042396,35,28.4,0.09028412,0.06993039,0.07743141,-0.2358703,1.554109,0.5534134,0.6470469,1.475596,0.3369374,0.02442678,-0.06748375,0.03919197,-0.9596584,0.2007581,0.1376045,0.748579,1.470986,0.2129498,0.2244148,1.50502,0.2775156,298.4687,105.8457,140.8037,False
3,1.933337,0.09530371,-0.1845758,-0.1315098,-1.282766,-4.697433,-1.927558,0.4741633,1.379731,0.4189119,-1.241852,0.03347661,35,28.4,0.1007828,0.04224401,0.07175127,-0.2355704,1.550965,0.5550126,0.6468129,1.475549,0.3369699,0.03191519,-0.0589783,0.04016947,-0.9592365,0.200264,0.1373019,0.7481885,1.470997,0.2128625,0.2244737,1.505011,0.2773961,298.6112,106.0102,140.5797,False
3,1.944448,0.07822121,-0.1579417,-0.1231,-1.281441,-4.698046,-1.927814,0.4738589,1.379845,0.4192212,-1.241589,0.02381223,35,28.4,0.1099655,0.0126669,0.04050036,-0.2364839,1.549332,0.5550547,0.6465322,1.475412,0.3371158,0.03934368,-0.06219516,0.03797033,-0.9590378,0.199246,0.1372154,0.7476937,1.470997,0.2128665,0.2244914,1.505087,0.2773072,298.8344,105.925,140.5592,False
3,1.955559,0.05472125,-0.12277,-0.1104807,-1.281103,-4.698773,-1.927372,0.4736727,1.379842,0.4194632,-1.241167,0.03841427,34.2,29.8,0.1098528,-0.001123041,0.0339834,-0.236616,1.547189,0.5559157,0.6462775,1.475388,0.3371778,0.04036066,-0.0792414,0.03692544,-0.9589021,0.1974972,0.1376833,0.7473243,1.470954,0.2126796,0.2245438,1.505129,0.2772723,299.078,105.7586,140.5518,False
3,1.966671,0.03124046,-0.09937476,-0.1084506,-1.28026,-4.699661,-1.926672,0.4733537,1.379897,0.4196811,-1.241086,0.007190535,34.2,29.8,0.1172057,-0.01280585,0.02740759,-0.2367667,1.545447,0.5560462,0.6459014,1.475354,0.3372049,0.03924151,-0.08882777,0.03482984,-0.9586757,0.1958838,0.138343,0.7468899,1.471085,0.2125001,0.2245852,1.505144,0.2772168,299.1415,105.7148,140.4428,False
3,1.977782,0.01418473,-0.09086071,-0.1020917,-1.279125,-4.700212,-1.926173,0.473178,1.379956,0.4199686,-1.240544,0.04965914,34.2,29.8,0.1181709,-0.02448186,0.02196463,-0.2371002,1.542903,0.557227,0.645622,1.475501,0.3371766,0.03717924,-0.09093473,0.04231559,-0.9580078,0.1945325,0.1387305,0.7464738,1.471138,0.2122979,0.2245788,1.505219,0.2771936,299.2806,105.5439,140.404,False
3,1.988893,0.009910386,-0.0844256,-0.09146838,-1.278202,-4.700591,-1.925974,0.4731273,1.38007,0.4202275,-1.240439,0.009312086,34.2,29.8,0.1076846,-0.01284228,0.03495621,-0.2362815,1.541759,0.5574848,0.6453655,1.47554,0.3371558,0.0394432,-0.08239535,0.05399644,-0.9570618,0.1936229,0.1387331,0.7460698,1.471175,0.2122076,0.224529,1.505284,0.2771511,299.2966,105.5525,140.2471,False
3,2.000004,0.005633452,-0.07373668,-0.08086344,-1.277455,-4.700912,-1.92586,0.4730794,1.380129,0.4203947,-1.240719,-0.02560801,34.2,29.8,0.09620424,0.03615082,0.0408387,-0.2346714,1.547679,0.5509622,0.6452636,1.475572,0.337142,0.03624617,-0.07706134,0.0529454,-0.9567294,0.1927705,0.1390096,0.7457812,1.471121,0.2121511,0.2244558,1.505384,0.2771214,299.3492,105.4744,140.1735,False
3,2.011115,0.002446999,-0.07688148,-0.06912879,-1.276418,-4.700952,-1.925766,0.4730226,1.380253,0.4205885,-1.241157,-0.03962327,28.5,25.7,0.08240181,0.04577833,0.04212449,-0.2338005,1.549684,0.5485414,0.6451505,1.475643,0.337126,0.04685253,-0.07922727,0.04858691,-0.9564636,0.1916151,0.1387704,0.7455359,1.471126,0.2120893,0.2243298,1.505489,0.2770487,299.3553,105.605,139.9622,False
3,2.022226,0.002446165,-0.07475074,-0.06806402,-1.27539,-4.701245,-1.925747,0.472984,1.38034,0.4208181,-1.241384,-0.02037198,28.5,25.7,0.07180413,0.03187309,0.05274865,-0.2331869,1.546919,0.5506951,0.6450788,1.475584,0.3372269,0.04564931,-0.09097202,0.03690601,-0.9565808,0.1897386,0.1393496,0.7453386,1.471175,0.2120728,0.2242607,1.50557,0.2770158,299.4277,105.6445,139.842,False
3,2.033337,-0.003971454,-0.06090387,-0.06599921,-1.274961,-4.701809,-1.925314,0.4730061,1.38037,0.4209352,-1.241427,-0.003735346,28.5,25.7,0.07062379,0.006330453,0.0503965,-0.2331922,1.542717,0.5540336,0.6450394,1.475573,0.3372304,0.03905641,-0.09419037,0.01673355,-0.9572578,0.1884024,0.1399166,0.7451562,1.471201,0.2119942,0.2242651,1.505567,0.2769859,299.4377,105.6895,139.7394,False
3,2.044448,-0.01464678,-0.04812036,-0.06179326,-1.274712,-4.702271,-1.924668,0.4730207,1.380444,0.4211328,-1.241643,-0.01969988,28.5,25.7,0.07255399,-0.01272241,0.03635478,-0.2336136,1.540277,0.5554312,0.6449107,1.47555,0.3372755,0.04117713,-0.08781267,0.01349385,-0.9574565,0.1874961,0.1398317,0.7448287,1.471105,0.2119274,0.2242578,1.50556,0.2769605,299.4369,105.7744,139.6249,False
3,2.055559,-0.03168076,-0.05346171,-0.05856233,-1.273821,-4.702474,-1.923704,0.4729784,1.380344,0.421324,-1.241392,0.02313717,29.3,17.2,0.06708632,-0.01897532,0.02356842,-0.2338959,1.539334,0.5557064,0.6447591,1.475509,0.3372765,0.03263844,-0.07076105,0.007155322,-0.9575188,0.1871985,0.1398815,0.7445899,1.471108,0.2118182,0.2242558,1.505556,0.2769516,299.4321,105.802,139.5474,False
3,2.06667,-0.04974368,-0.07799254,-0.05737208,-1.272053,-4.702451,-1.922572,0.4729761,1.38032,0.4215674,-1.241192,0.0181622,29.3,17.2,0.07214641,-0.03157483,0.001028751,-0.2349196,1.538305,0.5557772,0.64463,1.47548,0.3373137,0.03254958,-0.06545347,-0.003511786,-0.958029,0.1866253,0.1398468,0.7443342,1.471048,0.2118225,0.2242494,1.505556,0.2769533,299.4093,105.7936,139.4803,False
3,2.077781,-0.06568711,-0.09510122,-0.06473788,-1.270284,-4.702809,-1.921334,0.4728688,1.380314,0.4217992,-1.240883,0.02811501,29.3,17.2,0.07010607,-0.02736944,0.008549797,-0.2345531,1.536963,0.5563365,0.644496,1.475425,0.3373411,0.02823617,-0.05587564,-0.01201255,-0.9584855,0.1862114,0.1398463,0.7440845,1.471059,0.2116878,0.2242426,1.505558,0.2769607,299.3798,105.7652,139.4258,False
3,2.088892,-0.07949504,-0.1175298,-0.07101624,-1.268016,-4.703074,-1.919911,0.4727942,1.380348,0.4220159,-1.240749,0.0121844,29.3,17.2,0.07438672,-0.008161865,0.003356731,-0.2343172,1.539372,0.5530336,0.6443828,1.475296,0.337352,0.04339399,-0.03563448,0.008045739,-0.9577345,0.186462,0.1387685,0.7439178,1.471064,0.2116373,0.2242587,1.505545,0.2769543,299.4063,105.7842,139.3735,False
3,2.100003,-0.08161653,-0.1239661,-0.07844546,-1.266142,-4.703646,-1.918816,0.4728077,1.380282,0.4221413,-1.240891,-0.01300609,29.3,17.2,0.06897454,-0.0005770884,-0.008241301,-0.2345947,1.541556,0.5503508,0.6442624,1.47525,0.3373268,0.04240737,-0.03348842,0.01550957,-0.9573483,0.1859446,0.1385901,0.7436979,1.471083,0.2116385,0.224289,1.505526,0.2769305,299.4677,105.8385,139.3079,False
3,2.111114,-0.07204127,-0.1197595,-0.09338305,-1.264503,-4.704788,-1.918041,0.4727431,1.380349,0.4222178,-1.24084,0.004942616,40.7,8.8,0.05411997,-0.001648836,-0.001714726,-0.2344849,1.540962,0.5508115,0.6441834,1.47523,0.3374112,0.03398374,-0.03877077,0.02731886,-0.9567385,0.1850773,0.1390005,0.7435638,1.471063,0.2115822,0.2243178,1.505513,0.2768968,299.5267,105.8924,139.2226,False
3,2.122225,-0.05826181,-0.08353909,-0.09782533,-1.264423,-4.706125,-1.917501,0.4727277,1.380423,0.4222574,-1.241378,-0.04917428,40.7,8.8,0.04881851,-0.01020331,0.004648679,-0.234429,1.539251,0.5521705,0.6441115,1.475171,0.3374536,0.03821248,-0.04625035,0.02622062,-0.9567587,0.1839391,0.1391475,0.7434267,1.471001,0.2115555,0.2242968,1.505505,0.2768213,299.5375,106.1143,139.0178,False
3,2.133336,-0.03488494,-0.05261158,-0.1001137,-1.264474,-4.707472,-1.917534,0.4726259,1.380556,0.4223108,-1.242007,-0.05695545,40.7,8.8,0.03491098,-0.02399449,0.003594363,-0.2347859,1.536465,0.5549197,0.6440835,1.475139,0.3374648,0.04139598,-0.04306668,0.02405348,-0.9566,0.1834787,0.1388221,0.743363,1.470993,0.2115376,0.2243462,1.505477,0.2768077,299.6222,106.1474,138.9624,False
3,2.144447,-0.009391693,-0.01206321,-0.09605547,-1.265201,-4.708703,-1.917871,0.4725085,1.380666,0.4222538,-1.242374,-0.03320127,40.7,8.8,0.02524586,-0.04206582,0.00352229,-0.2353015,1.532853,0.558646,0.6440528,1.475137,0.3374913,0.03277889,-0.04093541,0.01347701,-0.9569084,0.1830729,0.1389899,0.7432469,1.470955,0.2115159,0.2242985,1.505491,0.2767507,299.575,106.3012,138.7854,False
3,2.155558,0.0001736246,0.001803767,-0.0950572,-1.265118,-4.709754,-1.917827,0.4724318,1.380812,0.4223454,-1.242932,-0.05082285,46.9,7.8,0.01885462,-0.04418244,0.004632952,-0.2354304,1.5307,0.5607166,0.6439849,1.475113,0.337466,0.02193102,-0.03669388,-0.007730594,-0.957702,0.1827839,0.1393342,0.7431991,1.470939,0.2114439,0.2242359,1.505575,0.2767777,299.6479,106.251,138.701,False
