loc,t,aDotUA,bDotUA,gDotUA,aUA,bUA,gUA,xUA,yUA,zUA,qE,qDotE,emgA,emgB,aDotSH,bDotSH,gDotSH,aSH,bSH,gSH,xSH,ySH,zSH,aDotUB,bDotUB,gDotUB,aUB,bUB,gUB,xUB,yUB,zUB,xHand,yHand,zHand,aHand,bHand,gHand,enable
3,0,0.09490492,-0.08166821,-0.03597601,-1.460156,-4.181368,-3.075595,0.6361914,1.17667,0.5144906,-1.503256,-0.002092749,0,0,0.01502459,0.07128893,-0.02104953,-0.7319214,-4.197453,0.1063944,0.6906936,1.457752,0.4342742,0.01824486,0.01404438,0.06186546,-0.8282745,0.2855702,0.05439214,0.8353055,1.526111,0.2463665,0.4193466,1.060159,0.2923949,294.6585,237.6581,348.634,False
3,0.01111111,0.09492089,-0.0763262,-0.03175246,-1.459743,-4.180634,-3.076965,0.6361327,1.176756,0.5145137,-1.502983,0.02495735,0,0,0.02265006,0.09784273,-0.005015317,-0.7311874,-4.194772,0.1038806,0.6906061,1.457739,0.4342813,0.01716112,0.01404521,0.05867788,-0.8276972,0.2857962,0.05412848,0.8351424,1.526199,0.2464688,0.419718,1.059848,0.2924196,294.7529,237.6534,348.4435,False
3,0.02222222,0.09384672,-0.06567287,-0.03181088,-1.459277,-4.180286,-3.078007,0.6362312,1.176767,0.5147812,-1.502881,0.009069819,0,0,0.0333842,0.09885427,0.004487257,-0.7306973,-4.193154,0.1019458,0.6904842,1.457698,0.4342809,0.009665139,0.01615697,0.05020541,-0.8273147,0.2859184,0.0541173,0.8348299,1.526085,0.2464876,0.4201079,1.059412,0.2923674,294.8626,237.5663,348.3654,False
3,0.03333334,0.08639747,-0.06780557,-0.02965579,-1.459045,-4.179383,-3.078863,0.636255,1.17677,0.5150568,-1.50334,-0.04190031,0,0,0.03991774,0.08811111,0.02356755,-0.7297301,-4.192511,0.1008789,0.6903871,1.4577,0.4342904,0.0118174,0.01190163,0.05551924,-0.8265387,0.2858835,0.0540414,0.8347561,1.526217,0.2463882,0.4204516,1.058899,0.2922707,295.0056,237.4179,348.3698,False
3,0.04444445,0.08851853,-0.04862034,-0.02764075,-1.458606,-4.179467,-3.080005,0.6364002,1.176661,0.515245,-1.503087,0.02340387,0,0,0.03147094,0.07635207,0.03424323,-0.7289429,-4.192101,0.100492,0.6903325,1.457641,0.434252,0.02144926,0.003390373,0.06293005,-0.8255986,0.2855412,0.05366456,0.8346158,1.526207,0.2462592,0.4207711,1.058362,0.2921836,295.1517,237.261,348.4139,False
3,0.05555556,0.08211025,-0.03585755,-0.02769412,-1.458364,-4.179297,-3.080657,0.6364723,1.176654,0.5155349,-1.502796,0.0264155,0,0,0.02715499,0.069993,0.02892695,-0.7287671,-4.191147,0.09967626,0.6902132,1.457582,0.4343123,0.02678563,-0.006200392,0.06396954,-0.8249589,0.2848845,0.05364512,0.8344902,1.526133,0.2462156,0.4211394,1.057845,0.2922277,295.2765,237.1219,348.4364,False
3,0.06666667,0.07890648,-0.02626472,-0.02773832,-1.458095,-4.179415,-3.081438,0.636536,1.176732,0.5158067,-1.503166,-0.03406681,0,0,0.03455345,0.05828328,0.02349087,-0.7286776,-4.190859,0.09879582,0.69019,1.457555,0.4343264,0.03316612,-0.006196858,0.06180655,-0.8243405,0.2848251,0.05312261,0.8343631,1.526179,0.2461753,0.4214929,1.057369,0.2923835,295.3807,237.0345,348.4448,False
3,0.07777778,0.08315879,-0.01666552,-0.02566033,-1.457941,-4.179514,-3.082464,0.6367185,1.176806,0.5160251,-1.5027,0.04295191,0,0,0.05685934,0.04976539,0.0168746,-0.7286813,-4.190334,0.09700485,0.6900983,1.457513,0.4343021,0.02998249,-0.006198844,0.06501956,-0.8235213,0.284683,0.05307387,0.8342593,1.526211,0.2461085,0.4217833,1.056926,0.2926573,295.4484,236.9729,348.4649,False
3,0.08888889,0.07889,-0.01026914,-0.02782539,-1.457498,-4.179927,-3.083138,0.6368543,1.176843,0.516155,-1.50282,-0.01140096,0,0,0.07490991,0.03377936,0.01240014,-0.7286105,-4.190584,0.09583731,0.6900822,1.45749,0.4343057,0.02676256,-0.009394877,0.05971093,-0.8230595,0.2844462,0.05300649,0.8341451,1.526224,0.2460163,0.4219699,1.056542,0.2930344,295.548,236.9568,348.4708,False
3,0.1,0.08207148,0.003565541,-0.02896161,-1.457203,-4.180271,-3.084107,0.6369894,1.177,0.5163305,-1.503101,-0.025558,0,0,0.07487847,0.02313547,0.01022483,-0.7285892,-4.190722,0.09511799,0.6900682,1.457512,0.4343343,0.02352334,-0.01259962,0.05120586,-0.8228278,0.2840217,0.05314897,0.8340887,1.526267,0.2459261,0.4220553,1.056253,0.2934988,295.6523,236.971,348.5026,False
3,0.1111111,0.07994001,0.009950863,-0.03005988,-1.456833,-4.180619,-3.084975,0.6370907,1.177034,0.5164452,-1.50282,0.02598381,0,0,0.07379356,0.01462217,0.009126201,-0.7286132,-4.190784,0.09443329,0.6899245,1.457517,0.4343746,0.02458633,-0.0211166,0.04907242,-0.8224092,0.2833705,0.05321741,0.8339728,1.526294,0.2458742,0.4220957,1.056059,0.2940232,295.7069,237.0159,348.5704,False
3,0.1222222,0.0788665,0.01954285,-0.02904284,-1.456565,-4.181175,-3.085752,0.6372148,1.177092,0.5166442,-1.503078,-0.02384365,0,0,0.0705034,-0.003447786,0.0005547721,-0.7289647,-4.191752,0.09449002,0.6898844,1.457535,0.4343827,0.02352156,-0.02537924,0.05013992,-0.8218893,0.2827112,0.05352315,0.8338951,1.526368,0.2457697,0.4220659,1.055936,0.2945383,295.7368,237.055,348.6583,False
3,0.1333333,0.08205739,0.02274099,-0.03012535,-1.456262,-4.181592,-3.08671,0.6372821,1.177231,0.5168598,-1.50301,0.006374814,0,0,0.05980822,-0.004485887,-0.003621088,-0.7291341,-4.191882,0.09435473,0.6897694,1.457635,0.4343157,0.01713911,-0.02857888,0.05124697,-0.8212006,0.2820772,0.05392768,0.8336797,1.526402,0.2456586,0.4220209,1.055873,0.2950318,295.744,237.0891,348.7385,False
3,0.1444445,0.08099624,0.01956335,-0.027982,-1.455955,-4.181828,-3.087512,0.6373802,1.177306,0.5170252,-1.502931,0.007204626,0,0,0.05237352,0.006165534,-0.002451049,-0.7291101,-4.191358,0.0936418,0.689671,1.457676,0.4343035,0.01717324,-0.02963397,0.05764131,-0.8203239,0.2816539,0.0540129,0.833575,1.526447,0.2455935,0.4219696,1.055823,0.2954739,295.722,237.1136,348.8023,False
3,0.1555556,0.08312716,0.01846582,-0.03224067,-1.455458,-4.181855,-3.088546,0.6374223,1.177443,0.5171309,-1.50309,-0.01460131,0,0,0.05244008,0.02105844,0.004004071,-0.728757,-4.190167,0.09223486,0.6895769,1.457729,0.4342659,0.01184279,-0.0243033,0.05872058,-0.8198115,0.2815996,0.05418601,0.8334808,1.52651,0.245487,0.4219487,1.055766,0.2958888,295.7149,237.1353,348.8277,False
3,0.1666667,0.08100353,0.006741193,-0.03430999,-1.454978,-4.18163,-3.08935,0.6374806,1.177554,0.5173106,-1.50293,0.01469884,0,0,0.04827389,0.03913144,0.01263745,-0.7282467,-4.188767,0.09079329,0.6895003,1.457789,0.4342425,0.009702271,-0.02536477,0.05660304,-0.8192432,0.281263,0.05435964,0.8333884,1.526546,0.2454278,0.4219644,1.05569,0.2962833,295.7266,237.1396,348.8565,False
3,0.1777778,0.07995524,-0.007114037,-0.03422794,-1.454732,-4.181029,-3.090299,0.6374514,1.177685,0.5174677,-1.503116,-0.01712106,0,0,0.04511837,0.04338146,0.01694479,-0.7278371,-4.187871,0.08972509,0.6894565,1.457887,0.4341657,0.01074298,-0.02963059,0.05234024,-0.8188187,0.2805226,0.05475912,0.833194,1.526557,0.245358,0.4220093,1.055575,0.2966328,295.754,237.1356,348.9063,False
3,0.1888889,0.07783203,-0.01778357,-0.03629864,-1.454266,-4.180489,-3.091156,0.6374592,1.177769,0.5175228,-1.502879,0.02179968,0,0,0.0429826,0.04018863,0.01694545,-0.7276992,-4.187455,0.08901802,0.6893938,1.457944,0.4341788,0.01498271,-0.03282438,0.0480601,-0.8184549,0.2798978,0.05490186,0.8331206,1.526542,0.2452106,0.4220897,1.055414,0.2969204,295.7943,237.0881,348.989,False
3,0.2,0.07783499,-0.02205019,-0.03734191,-1.453818,-4.180107,-3.092068,0.6374788,1.177867,0.517689,-1.502957,-0.007313258,0,0,0.04190435,0.03699858,0.01587568,-0.7275138,-4.187011,0.08829284,0.6893624,1.457968,0.4341309,0.01384237,-0.03497312,0.03315689,-0.8185375,0.2791214,0.0552795,0.8329599,1.526502,0.245048,0.4222253,1.055215,0.2971505,295.8553,237.0283,349.0527,False
3,0.2111111,0.07465136,-0.02523479,-0.03519085,-1.453494,-4.179832,-3.092909,0.6375266,1.177989,0.5177417,-1.502894,0.005919791,0,0,0.0429596,0.03700064,0.01480476,-0.7273055,-4.186429,0.0873405,0.6893325,1.458015,0.434093,0.01492366,-0.03815778,0.03635894,-0.8178983,0.278525,0.05551519,0.832804,1.526565,0.244947,0.4223922,1.054985,0.2972938,295.9266,236.9807,349.0917,False
3,0.2222222,0.07038927,-0.02310285,-0.03413193,-1.453146,-4.179687,-3.09357,0.6375661,1.178092,0.5179052,-1.502967,-0.006770779,0,0,0.04398378,0.03275612,0.01051694,-0.7273205,-4.186094,0.08656365,0.6893148,1.458062,0.4340804,0.01384314,-0.0402954,0.03316286,-0.8177385,0.2777091,0.05594476,0.8326731,1.526584,0.244853,0.4225885,1.054731,0.2973508,295.9969,236.8958,349.1432,False
3,0.2333333,0.06824295,-0.01350434,-0.03097731,-1.453009,-4.179792,-3.094132,0.6376892,1.178132,0.5180097,-1.502925,0.003915996,0,0,0.0428967,0.02424077,0.009427721,-0.7272081,-4.186093,0.08614741,0.6893493,1.458133,0.4341559,0.01493123,-0.0381701,0.03847744,-0.8172362,0.276998,0.05630828,0.8326324,1.526625,0.2447388,0.4228251,1.054474,0.2973776,296.0721,236.7975,349.1708,False
3,0.2444444,0.06717777,-0.01243459,-0.02991639,-1.452717,-4.179711,-3.094851,0.6377355,1.178221,0.518153,-1.502767,0.01438144,0,0,0.04499987,0.01679011,0.007248001,-0.7272033,-4.186175,0.08563607,0.6893449,1.458182,0.4341474,0.01280622,-0.03817036,0.03955382,-0.816784,0.2763773,0.05666994,0.8325491,1.526645,0.2446601,0.42307,1.05423,0.2973951,296.1527,236.7165,349.1765,False
3,0.2555556,0.0629085,-0.0007092173,-0.02783148,-1.452668,-4.180117,-3.095362,0.6377091,1.178201,0.5181794,-1.502708,0.005347679,0,0,0.04284528,0.008289453,0.004028798,-0.7273546,-4.18632,0.08514152,0.6892966,1.458252,0.4340911,0.009571875,-0.04029941,0.03105876,-0.81662,0.2757867,0.05700976,0.8323973,1.526531,0.2445917,0.423306,1.054017,0.2974484,296.2219,236.6433,349.1726,False
3,0.2666667,0.05863405,0.01525925,-0.02898287,-1.45224,-4.180832,-3.095835,0.6377674,1.178214,0.5182068,-1.502866,-0.01446563,0,0,0.04174419,-0.006619375,0.001845395,-0.7274403,-4.187267,0.08540997,0.689297,1.458356,0.4341373,0.01272279,-0.03923266,0.02252148,-0.8166557,0.2753533,0.05707207,0.8323288,1.526579,0.2445755,0.4235076,1.053842,0.2975531,296.2744,236.6113,349.1606,False
3,0.2777778,0.0522358,0.02698669,-0.02370639,-1.452227,-4.181316,-3.09613,0.637832,1.178471,0.518198,-1.502759,0.009856084,0,0,0.04175389,-0.01407699,0.00393947,-0.7274105,-4.187664,0.08523261,0.6892625,1.458469,0.4341424,0.01158342,-0.04031786,0.008669863,-0.8171782,0.2744908,0.05760018,0.8324189,1.526649,0.2444506,0.4236258,1.053697,0.2976959,296.3087,236.5783,349.1707,False
3,0.2888889,0.05009951,0.04084356,-0.02165959,-1.451875,-4.182218,-3.096617,0.6378912,1.178478,0.5180888,-1.502769,-0.0009461864,0,0,0.03750002,-0.02260697,0.006071611,-0.7273104,-4.188537,0.08559906,0.6892748,1.458565,0.434104,0.006207258,-0.03925448,-0.00195994,-0.8176165,0.2741144,0.05787315,0.8324121,1.526621,0.2442994,0.4235895,1.053558,0.2978498,296.325,236.5849,349.1743,False
3,0.3,0.04371016,0.04190361,-0.02058549,-1.451805,-4.182613,-3.096884,0.6379307,1.178592,0.5182002,-1.502602,0.01527152,0,0,0.0364596,-0.02368602,0.009269536,-0.7271772,-4.18898,0.08554952,0.6893339,1.458686,0.4341013,-0.001277454,-0.04459795,-0.008309595,-0.8179234,0.2730159,0.0588223,0.8325068,1.526666,0.2441602,0.4234689,1.053446,0.2980628,296.3648,236.6122,349.1959,False
3,0.3111111,0.03305385,0.04083084,-0.02162791,-1.451621,-4.183162,-3.096804,0.63781,1.17883,0.5183387,-1.502859,-0.02355672,0,0,0.03016667,-0.01732164,0.0189353,-0.7266605,-4.188887,0.08522382,0.6893006,1.458875,0.4340682,0.001906671,-0.04353281,-0.01045766,-0.8181311,0.2723932,0.05912111,0.8325325,1.526659,0.2440462,0.4233052,1.053406,0.2983158,296.4303,236.6744,349.2348,False
3,0.3222222,0.02452846,0.04508922,-0.02057546,-1.451468,-4.183817,-3.096722,0.6377424,1.178975,0.5184033,-1.502645,0.01979898,0,0,0.02280984,-0.008834962,0.02968603,-0.7259383,-4.188667,0.08503127,0.6893482,1.459028,0.4340611,0.002906624,-0.05313296,-0.02430568,-0.8189263,0.271103,0.05991101,0.8325177,1.526561,0.2439213,0.4231138,1.053412,0.2985858,296.4337,236.7086,349.3062,False
3,0.3333333,0.01176906,0.03335458,-0.01838415,-1.451125,-4.183581,-3.096616,0.6376656,1.179089,0.5181634,-1.502334,0.02824344,0,0,0.01758498,-0.005683128,0.0414638,-0.7251137,-4.188774,0.08508214,0.6894062,1.459161,0.4339361,0.01029309,-0.05633844,-0.03818924,-0.8197897,0.2701263,0.06021913,0.8326353,1.526626,0.2438378,0.4229562,1.053471,0.2988901,296.4441,236.7447,349.3271,False
3,0.3444445,0.006446623,0.02801748,-0.01941596,-1.450874,-4.183734,-3.096499,0.6375751,1.179243,0.5181699,-1.502383,-0.00468794,0,0,0.01009947,-0.0141872,0.03935992,-0.7247745,-4.189483,0.08574979,0.6894861,1.459298,0.4339092,0.009212017,-0.05847127,-0.04137834,-0.8203953,0.2691926,0.06078479,0.8327078,1.526578,0.2437525,0.4227447,1.053593,0.2991836,296.4777,236.7616,349.338,False
3,0.3555556,-0.007388984,0.02269137,-0.01724432,-1.450727,-4.183856,-3.096032,0.6374542,1.179436,0.5182505,-1.502342,0.003873274,0,0,0.008014102,-0.02806419,0.04677764,-0.724081,-4.190725,0.08664461,0.6895827,1.459478,0.433892,0.01020833,-0.05315457,-0.0541867,-0.8216726,0.2686851,0.06097281,0.8328236,1.526738,0.2436666,0.422462,1.053775,0.2994251,296.4746,236.8088,349.388,False
3,0.3666667,-0.0191047,0.01413011,-0.02251375,-1.450272,-4.183725,-3.095404,0.637335,1.179619,0.5182562,-1.50245,-0.009829884,0,0,0.01122392,-0.04406666,0.05094261,-0.7235202,-4.192309,0.08760548,0.6897374,1.459607,0.433881,0.005870208,-0.05528961,-0.06907506,-0.8229381,0.2679843,0.06152541,0.8329661,1.526733,0.2435858,0.4221603,1.053994,0.2995258,296.4411,236.8342,349.502,False
3,0.3777778,-0.03828438,0.01409927,-0.02463071,-1.449817,-4.183918,-3.094253,0.6372305,1.179807,0.5182087,-1.502188,0.02409279,0,0,0.005908035,-0.05685696,0.05412924,-0.7229263,-4.193973,0.08897541,0.6899034,1.459772,0.4338589,0.006842718,-0.06168652,-0.08823448,-0.8243693,0.2669238,0.06209053,0.8327936,1.526479,0.2435489,0.4219405,1.054257,0.2995417,296.4017,236.8071,349.5627,False
3,0.3888889,-0.05321087,0.01725741,-0.03102656,-1.449208,-4.184406,-3.093063,0.6370628,1.180022,0.5181968,-1.502063,0.01134276,0,0,0.006969098,-0.05685075,0.05304835,-0.7225295,-4.194886,0.08946304,0.6900175,1.460017,0.4338892,0.00362023,-0.06594542,-0.0935333,-0.8254633,0.2659775,0.06280852,0.832863,1.52636,0.2434676,0.4217907,1.054568,0.2995024,296.3717,236.7626,349.5705,False
3,0.4,-0.07880026,0.0310529,-0.03639697,-1.448668,-4.185236,-3.091237,0.6368864,1.180281,0.5181093,-1.501693,0.03386828,0,0,-0.001530856,-0.05365494,0.05526534,-0.7218477,-4.19574,0.09039488,0.6902006,1.460195,0.4338706,0.003627546,-0.07020601,-0.09246561,-0.8265232,0.264812,0.0635622,0.8330233,1.526284,0.2433839,0.4216631,1.05492,0.2994031,296.3382,236.6715,349.612,False
3,0.4111111,-0.09160478,0.04489528,-0.03646483,-1.448171,-4.18628,-3.089615,0.6366979,1.180526,0.5179653,-1.501795,-0.00955312,0,0,-0.00671386,-0.05051481,0.07130019,-0.720604,-4.196448,0.09107691,0.6903951,1.460452,0.4338641,0.005694069,-0.07233617,-0.1052573,-0.8281105,0.2639038,0.06401786,0.8332636,1.526263,0.2433257,0.4214847,1.055329,0.2992459,296.3137,236.5597,349.6618,False
3,0.4222222,-0.1161338,0.07042734,-0.03870117,-1.447765,-4.187935,-3.087281,0.6365711,1.18075,0.51794,-1.501384,0.03784122,0,0,-0.001219466,-0.06552961,0.09356324,-0.7189198,-4.198529,0.09246122,0.6906632,1.460685,0.4338813,0.006714553,-0.07127523,-0.1137857,-0.8297105,0.263022,0.06450256,0.8334626,1.52619,0.2432501,0.4211986,1.055817,0.2990713,296.2827,236.4377,349.7103,False
3,0.4333333,-0.1481391,0.114065,-0.04101264,-1.447523,-4.190669,-3.084311,0.6363652,1.181051,0.5180933,-1.501742,-0.032947,0,0,-0.002175011,-0.0922339,0.1105085,-0.7173059,-4.201716,0.09490201,0.6909544,1.460777,0.4337633,0.002394393,-0.07341172,-0.1254666,-0.8313457,0.2620365,0.065281,0.8337139,1.525983,0.2431216,0.4207484,1.056419,0.2989018,296.2494,236.3593,349.7508,False
3,0.4444444,-0.1886833,0.1811689,-0.03705741,-1.447437,-4.194938,-3.080393,0.6362735,1.181251,0.5181835,-1.501333,0.03783237,0,0,0.001087531,-0.1167905,0.1220964,-0.7158305,-4.205098,0.09734839,0.6912675,1.460953,0.433789,0.002297029,-0.06596489,-0.1435806,-0.8336227,0.2616228,0.06552282,0.8339908,1.525857,0.2430575,0.4201657,1.057156,0.2987923,296.1618,236.3032,349.8054,False
3,0.4555556,-0.2110924,0.2248278,-0.03619756,-1.44726,-4.198807,-3.076973,0.6362228,1.181456,0.5182536,-1.500983,0.0317584,0,0,0.003271088,-0.1306792,0.1316102,-0.7142411,-4.208078,0.09963205,0.6915255,1.461124,0.4338202,0.001155183,-0.06703903,-0.1584833,-0.8358315,0.2607738,0.06612123,0.8343363,1.525801,0.2429533,0.4194683,1.058043,0.2988257,296.0458,236.2714,349.821,False
3,0.4666667,-0.2548194,0.2994292,-0.02163404,-1.447746,-4.204638,-3.07206,0.6361398,1.181551,0.5183523,-1.500448,0.04893327,0,0,0.004376099,-0.1296402,0.1358736,-0.7126656,-4.210592,0.1014001,0.6918386,1.461259,0.4337792,0.001056731,-0.06811024,-0.1776566,-0.8384622,0.2600338,0.0665761,0.8346455,1.52567,0.2428832,0.4185606,1.059108,0.2990779,295.9124,236.2893,349.7831,False
3,0.4777778,-0.2814981,0.3505531,-0.01654662,-1.448081,-4.21006,-3.067358,0.6359767,1.181796,0.5184667,-1.501117,-0.06145414,0,0,0.003286511,-0.1296286,0.133758,-0.7113463,-4.212921,0.1032614,0.692222,1.46141,0.433744,0.002071217,-0.07131246,-0.1861802,-0.8408324,0.2590253,0.06730367,0.8349538,1.525556,0.2427571,0.4173583,1.060377,0.299597,295.7368,236.4259,349.7501,False
3,0.4888889,-0.3273556,0.420872,-0.006223604,-1.448699,-4.217247,-3.06129,0.6358479,1.181864,0.5185823,-1.500231,0.08180381,0,0,-0.006214976,-0.1179398,0.142408,-0.7095956,-4.214719,0.105025,0.6925441,1.461609,0.4337168,-9.770691E-05,-0.07770428,-0.1946886,-0.843347,0.2578811,0.06809676,0.8352697,1.525446,0.2426808,0.4159219,1.061837,0.3003946,295.473,236.6267,349.7895,False
3,0.5,-0.3593609,0.4709026,-0.006448954,-1.449169,-4.224156,-3.055358,0.6356876,1.182062,0.5187066,-1.500585,-0.03288413,0,0,-0.02419184,-0.1073239,0.1575221,-0.7073457,-4.216304,0.107205,0.69306,1.461747,0.4337342,0.008395106,-0.08302983,-0.200047,-0.8456815,0.2566127,0.06860809,0.8357166,1.525294,0.2425673,0.4141607,1.06347,0.3014199,295.1942,236.9942,349.7558,False
3,0.5111111,-0.4063035,0.5411551,-0.009965584,-1.449618,-4.232956,-3.048011,0.6355971,1.182274,0.5188704,-1.49982,0.07051305,0,0,-0.03036396,-0.09889387,0.1821153,-0.7045872,-4.218003,0.1089582,0.6935673,1.461933,0.4337389,0.01476203,-0.07982638,-0.2054045,-0.848098,0.2559648,0.06860116,0.8361039,1.525152,0.2424431,0.4121405,1.065281,0.3026383,294.8788,237.3883,349.7714,False
3,0.5222223,-0.4724588,0.6432971,-0.02107143,-1.450085,-4.243558,-3.039265,0.6354446,1.182576,0.5190375,-1.500185,-0.03377162,0,0,-0.03223893,-0.1011519,0.2130164,-0.7013381,-4.220367,0.111192,0.6941231,1.462173,0.4337611,0.02325739,-0.08195646,-0.2107741,-0.8506829,0.2548659,0.06876256,0.8364912,1.525002,0.2423394,0.4098516,1.067268,0.3040153,294.5376,237.8529,349.7669,False
3,0.5333334,-0.5097941,0.6911718,-0.02554566,-1.450565,-4.252674,-3.03136,0.6353536,1.182886,0.5191908,-1.499433,0.0694359,0,0,-0.03639884,-0.1257148,0.2289257,-0.6986473,-4.22437,0.1147908,0.6946474,1.462447,0.4337957,0.03390789,-0.09793021,-0.2129485,-0.8531895,0.2529927,0.06926829,0.8368994,1.524876,0.2422273,0.4074063,1.069449,0.3055434,294.1654,238.313,349.7997,False
3,0.5444446,-0.5631209,0.743264,-0.03641105,-1.450957,-4.262958,-3.021896,0.6351087,1.183181,0.5192654,-1.498602,0.0756707,0,0,-0.0418019,-0.1928257,0.2297536,-0.6965902,-4.231839,0.1211632,0.6953049,1.462717,0.4339263,0.04344699,-0.1043227,-0.2225816,-0.8560465,0.2514423,0.06950904,0.8373493,1.524723,0.2421083,0.4047527,1.071851,0.3072267,293.7974,238.7774,349.8014,False
3,0.5555557,-0.5908937,0.7749842,-0.07703355,-1.449785,-4.272763,-3.013307,0.6346875,1.183625,0.5193365,-1.49966,-0.09698685,0,0,-0.04730354,-0.2630848,0.2199188,-0.6951602,-4.240335,0.1284685,0.6959347,1.463023,0.4340067,0.04553965,-0.1096526,-0.2300392,-0.8588263,0.249912,0.0699719,0.8378273,1.524604,0.2419775,0.4018177,1.07456,0.3090906,293.425,239.3076,349.789,False
3,0.5666668,-0.6068919,0.7865706,-0.09946632,-1.449017,-4.282082,-3.005146,0.6341777,1.183967,0.5192571,-1.498844,0.07590947,0,0,-0.04000401,-0.302458,0.2069071,-0.6939159,-4.247964,0.1345,0.6966274,1.463257,0.4341028,0.04442953,-0.1149858,-0.2396087,-0.8617478,0.2482836,0.07057084,0.8382459,1.5244,0.2418053,0.3987883,1.077588,0.3111226,292.9294,239.8583,349.8731,False
3,0.577778,-0.6420331,0.7844617,-0.08876425,-1.4496,-4.29088,-2.995746,0.6334673,1.18441,0.5192273,-1.500011,-0.1071898,0,0,-0.0443424,-0.3130664,0.1994428,-0.692424,-4.254,0.1397864,0.6972521,1.463536,0.4341741,0.04970993,-0.1245767,-0.2492186,-0.8649526,0.24633,0.07111812,0.8387318,1.524218,0.2416503,0.3955697,1.080899,0.3131935,292.3678,240.3643,350.0357,False
3,0.5888891,-0.6760855,0.7898725,-0.06534928,-1.450723,-4.299668,-2.986195,0.6328323,1.18477,0.5191834,-1.500909,-0.08095664,0,0,-0.05812216,-0.3077546,0.2070376,-0.6903494,-4.259533,0.1451798,0.6978951,1.463765,0.4341719,0.05288094,-0.1362929,-0.2545463,-0.8679284,0.2442151,0.07184596,0.8391109,1.524045,0.2415373,0.3922367,1.084425,0.3152666,291.7047,240.6342,350.4243,False
3,0.6000003,-0.7857723,0.7664136,-0.04807085,-1.452215,-4.307285,-2.97294,0.6320845,1.185258,0.5190158,-1.500016,0.08252326,0,0,-0.0835014,-0.300348,0.227518,-0.6876431,-4.264918,0.1510231,0.6985699,1.464103,0.4341903,0.05390027,-0.1458856,-0.264134,-0.8712925,0.2419773,0.07266888,0.8395821,1.52386,0.2413864,0.3888842,1.088037,0.317285,290.9788,240.9963,350.7124,False
3,0.6111114,-0.8273019,0.7428598,-0.06070623,-1.452153,-4.314755,-2.961807,0.6312239,1.185714,0.5189853,-1.500089,-0.007158559,0,0,-0.103677,-0.2918275,0.2341146,-0.6852937,-4.270175,0.1569779,0.699217,1.464415,0.4341884,0.0581325,-0.1426897,-0.2684155,-0.8744223,0.2404201,0.07296662,0.8400271,1.523674,0.2413132,0.38555,1.091681,0.3191423,290.3164,241.6487,350.6962,False
3,0.6222225,-0.8560568,0.7000598,-0.09134719,-1.451309,-4.321396,-2.950456,0.630028,1.186376,0.5186753,-1.496725,0.3080625,0,0,-0.1321242,-0.2557017,0.2664667,-0.681521,-4.273519,0.1619668,0.6999409,1.464762,0.4341683,0.05919313,-0.1448204,-0.2694851,-0.877583,0.2385344,0.07348194,0.8405409,1.523499,0.2411656,0.382357,1.095341,0.3207746,289.6924,242.4028,350.5614,False
3,0.6333337,-0.8719926,0.6370901,-0.110193,-1.450458,-4.326675,-2.939879,0.6289088,1.187229,0.5183821,-1.499037,-0.2136011,0,0,-0.143709,-0.2642765,0.2835802,-0.678355,-4.279521,0.1685283,0.7007749,1.465187,0.4341443,0.07309231,-0.1565332,-0.2631572,-0.8803921,0.2359211,0.07371736,0.8411602,1.523348,0.2410161,0.3792108,1.099153,0.3219935,289.2154,243.0073,350.503,False
3,0.6444448,-0.8996322,0.5709265,-0.1258227,-1.449344,-4.331123,-2.928584,0.6275391,1.188002,0.5179152,-1.499573,-0.04657499,0,0,-0.1490144,-0.2824074,0.2888724,-0.6757377,-4.286435,0.1757231,0.7015394,1.465556,0.4341598,0.07840022,-0.1661183,-0.2674397,-0.883615,0.2335029,0.07420206,0.8416899,1.523118,0.2408504,0.3761857,1.103193,0.3228378,288.6459,243.0507,350.8156,False
3,0.655556,-0.9177206,0.5281948,-0.1447656,-1.448152,-4.336066,-2.917224,0.6263362,1.188717,0.5176034,-1.50063,-0.09619598,0,0,-0.1607934,-0.3058122,0.2856734,-0.6735464,-4.293822,0.1837171,0.7023754,1.465748,0.434206,0.07622361,-0.1671847,-0.2780651,-0.8869717,0.2314947,0.07462843,0.8422221,1.522766,0.2407184,0.373218,1.107461,0.3233237,288.0196,242.8461,351.2525,False
3,0.6666671,-0.9442965,0.4556139,-0.1667512,-1.446156,-4.339184,-2.905523,0.624734,1.189695,0.5171752,-1.500274,0.03363906,0,0,-0.1715256,-0.3398718,0.2813582,-0.6715544,-4.302437,0.1927308,0.7032224,1.466056,0.4341712,0.0729427,-0.1693195,-0.2940181,-0.8907651,0.2295044,0.07524335,0.8427993,1.522428,0.240567,0.3704482,1.111919,0.3235269,287.308,242.5883,351.6914,False
3,0.6777782,-0.9591649,0.3948004,-0.1813357,-1.44437,-4.342175,-2.894034,0.6232728,1.190525,0.5167985,-1.500541,-0.02454191,0,0,-0.1853648,-0.3665065,0.2866918,-0.669189,-4.311186,0.2020767,0.7039672,1.466487,0.4341152,0.07612324,-0.1725159,-0.2972287,-0.8942969,0.2272449,0.07570542,0.843358,1.522169,0.2404058,0.3678021,1.116478,0.3234337,286.5355,242.2183,352.1766,False
3,0.6888894,-0.9793554,0.3532038,-0.1896069,-1.442966,-4.345485,-2.882298,0.6216043,1.191452,0.5163386,-1.502192,-0.1478731,0,0,-0.1906117,-0.3857282,0.2994339,-0.6665477,-4.320246,0.2115066,0.7047381,1.466843,0.4340706,0.06970242,-0.1735868,-0.3035897,-0.8980461,0.2250832,0.07642793,0.8440027,1.522094,0.2402868,0.3653038,1.121158,0.3231537,285.8183,241.6916,352.7389,True
3,0.7000005,-0.9985118,0.3308032,-0.1916012,-1.441607,-4.348973,-2.869979,0.619867,1.19244,0.5159142,-1.506232,-0.364213,0,0,-0.2021702,-0.3911164,0.3186824,-0.6633955,-4.328806,0.2208434,0.7054499,1.46725,0.4339852,0.06008354,-0.1650715,-0.3088709,-0.9017953,0.2234334,0.07710277,0.8445531,1.521851,0.2401433,0.3628388,1.126096,0.3226604,285.1942,240.8998,353.5396,True
3,0.7111117,-1.016608,0.3340193,-0.1830979,-1.44081,-4.353297,-2.857562,0.6182497,1.193399,0.5154071,-1.511407,-0.4653051,0,0,-0.207359,-0.3719994,0.3326554,-0.6601497,-4.335972,0.2289738,0.7061856,1.467695,0.4338593,0.04728431,-0.1618798,-0.3119894,-0.9053166,0.2216293,0.07804846,0.8452369,1.52161,0.2399061,0.3604734,1.131441,0.3220307,284.5462,239.9674,354.4438,True
3,0.7222228,-1.020871,0.3447071,-0.1756919,-1.440353,-4.357893,-2.845328,0.6164914,1.194403,0.5149915,-1.517312,-0.5308281,0,0,-0.2286256,-0.3261639,0.3308869,-0.6572378,-4.340837,0.2361087,0.7067809,1.468141,0.4337466,0.04624406,-0.1554855,-0.306661,-0.9087004,0.2200266,0.07856325,0.8457619,1.521364,0.2397463,0.3580877,1.137342,0.3213017,283.8174,238.9723,355.376,True
3,0.7333339,-1.027263,0.362841,-0.1661885,-1.440271,-4.362682,-2.833138,0.6146606,1.195454,0.5145152,-1.524593,-0.6556821,0,0,-0.2455695,-0.2835567,0.3376021,-0.6537943,-4.345317,0.2430209,0.7074641,1.468642,0.4335647,0.03994533,-0.1480145,-0.2874531,-0.9113002,0.2185792,0.07924102,0.8464235,1.521224,0.2396665,0.3556784,1.143905,0.3205743,282.9557,237.8077,356.4716,True
3,0.7444451,-1.024076,0.3788399,-0.1620205,-1.440089,-4.367725,-2.82112,0.6128113,1.196609,0.5139728,-1.532708,-0.7306612,0,0,-0.258096,-0.2484989,0.3634164,-0.6495338,-4.350129,0.2501534,0.7079948,1.469141,0.4333577,0.02936107,-0.150143,-0.2746137,-0.914088,0.2166158,0.08044238,0.8470515,1.520863,0.2394741,0.3533012,1.151157,0.3199792,281.9066,236.4394,357.7955,True
3,0.7555562,-1.0326,0.3894843,-0.165253,-1.439807,-4.37293,-2.808703,0.6109949,1.197724,0.5134771,-1.541005,-0.7466735,0,0,-0.2707621,-0.2272179,0.3742734,-0.6455311,-4.355114,0.2575527,0.7086712,1.469606,0.4331453,0.0101175,-0.1522873,-0.2883502,-0.9177466,0.2147745,0.08205492,0.8475547,1.520547,0.2393394,0.3509468,1.159023,0.3196088,280.6662,234.7622,359.4684,True
3,0.7666674,-1.051803,0.4106964,-0.1781442,-1.439212,-4.378663,-2.795691,0.6092045,1.198994,0.5130284,-1.549657,-0.7788888,0,0,-0.2875497,-0.1804226,0.3980493,-0.6406553,-4.358046,0.263645,0.7091962,1.470072,0.4328833,0.002597272,-0.1427081,-0.2979013,-0.9214244,0.2135613,0.08305414,0.8481519,1.520249,0.2391763,0.3486058,1.167362,0.3194939,279.2874,232.665,1.653686,True
3,0.7777785,-1.079551,0.4457537,-0.1900146,-1.438944,-4.385283,-2.781893,0.6074022,1.200352,0.5124867,-1.557833,-0.7351624,0,0,-0.2958631,-0.1336089,0.4153668,-0.6356444,-4.360205,0.2688706,0.7098303,1.470531,0.432739,0.007894993,-0.1405782,-0.3032567,-0.9250682,0.2120963,0.08369436,0.84867,1.519968,0.2390187,0.3463214,1.175974,0.3196381,277.8335,229.6355,4.864272,True
3,0.7888896,-1.100892,0.4808443,-0.1976428,-1.438954,-4.392194,-2.768148,0.605486,1.201643,0.5119908,-1.565771,-0.7139401,0,0,-0.3021331,-0.1208751,0.4282501,-0.6310035,-4.364108,0.2755826,0.7103889,1.471082,0.4326317,0.007887632,-0.1427107,-0.3053868,-0.9286352,0.2103423,0.08461502,0.8492686,1.519785,0.2388842,0.3441417,1.184656,0.3200302,276.4019,225.0509,9.679368,True
3,0.8000008,-1.122211,0.4989555,-0.1934546,-1.439342,-4.398647,-2.754276,0.6035323,1.20297,0.5115428,-1.573428,-0.6885412,0,0,-0.3105727,-0.1230392,0.4389665,-0.6264223,-4.369056,0.2833257,0.7109405,1.471525,0.4324684,0.006783962,-0.1437807,-0.3128377,-0.932435,0.2086937,0.08555778,0.849767,1.519536,0.2387416,0.342021,1.193287,0.3206334,275.1177,218.0911,16.88938,True
3,0.8111119,-1.140324,0.518148,-0.1871329,-1.440121,-4.405192,-2.740317,0.6015957,1.204279,0.5110645,-1.581583,-0.7345072,0,0,-0.3062356,-0.1326801,0.4484801,-0.621895,-4.374773,0.2911274,0.711555,1.471968,0.4323065,0.003601342,-0.1395193,-0.3096265,-0.9358726,0.2073307,0.08646592,0.8502952,1.519263,0.2386308,0.339853,1.201833,0.3214037,274.0334,207.6242,27.63161,True
3,0.8222231,-1.182939,0.5330725,-0.1765181,-1.441141,-4.411804,-2.724851,0.59947,1.205675,0.5105832,-1.589156,-0.6812578,0,0,-0.2902879,-0.1422825,0.446173,-0.6177916,-4.380363,0.2983465,0.7121648,1.472375,0.4321265,0.001497179,-0.1363213,-0.3042909,-0.9392106,0.2059365,0.08732639,0.8508021,1.519018,0.2384729,0.3376393,1.210241,0.3223303,273.1829,191.3579,44.20482,True
3,0.8333342,-1.201043,0.5458643,-0.1755016,-1.442044,-4.418569,-2.710332,0.5974506,1.207121,0.5101707,-1.596316,-0.6443433,0,0,-0.2849735,-0.1572033,0.446072,-0.6137137,-4.386645,0.3063764,0.7127779,1.472902,0.431875,0.005834073,-0.1331141,-0.288338,-0.9419851,0.2045289,0.08798205,0.8511828,1.518842,0.2382989,0.3354551,1.218454,0.3233734,272.7111,168.178,67.7365,True
3,0.8444453,-1.234081,0.5692995,-0.169212,-1.443475,-4.425781,-2.694618,0.5953575,1.208577,0.5097451,-1.60117,-0.4347765,0,0,-0.2945767,-0.1550506,0.4440306,-0.6095864,-4.391991,0.3143726,0.7133659,1.473262,0.4316745,0.008036524,-0.1267157,-0.272373,-0.9445844,0.2032889,0.0884497,0.8517858,1.518497,0.2382493,0.3333155,1.226424,0.3244636,272.7702,142.263,94.01864,True
3,0.8555565,-1.25114,0.5756494,-0.1724375,-1.444466,-4.43254,-2.67947,0.5934154,1.210019,0.5093603,-1.607509,-0.5728802,0,0,-0.3095524,-0.1656589,0.4377214,-0.6059251,-4.398088,0.323258,0.7139276,1.473656,0.4315,0.01548484,-0.1224554,-0.2766742,-0.9478638,0.2020997,0.08874691,0.8523208,1.518246,0.2381198,0.3311317,1.234206,0.3255161,273.2675,123.0198,113.604,True
3,0.8666676,-1.277785,0.5841412,-0.1724411,-1.445843,-4.4395,-2.663414,0.5911974,1.211572,0.5088527,-1.61128,-0.3371519,0,0,-0.3170007,-0.1912456,0.4408668,-0.6022206,-4.40611,0.333469,0.7144713,1.47399,0.4313772,0.01760334,-0.1213867,-0.2798869,-0.9512822,0.2008882,0.08912721,0.8527519,1.517976,0.2380512,0.3290231,1.241778,0.3265717,274.0258,110.7233,126.1937,True
3,0.8777788,-1.291635,0.572392,-0.1723568,-1.446942,-4.445532,-2.647936,0.5891258,1.213251,0.5084178,-1.615811,-0.4091761,0,0,-0.3138631,-0.20188,0.435469,-0.5987308,-4.413152,0.3426242,0.7149992,1.474386,0.431236,0.0133422,-0.1213885,-0.2798646,-0.9544652,0.19962,0.08984546,0.8531973,1.517688,0.2379594,0.3269568,1.249184,0.3276474,274.8597,102.9644,134.2246,True
3,0.8888899,-1.309708,0.5382916,-0.1700374,-1.447652,-4.450532,-2.632301,0.5868855,1.214933,0.5078857,-1.618583,-0.2479961,0,0,-0.3139881,-0.2220629,0.420476,-0.5959366,-4.420912,0.3522363,0.7155296,1.474791,0.4310672,0.002634883,-0.1171481,-0.2893985,-0.9580834,0.1984449,0.09091926,0.8536631,1.517402,0.2377603,0.3250008,1.256428,0.3287567,275.7567,97.74461,139.7312,True
3,0.900001,-1.320312,0.4850065,-0.1718794,-1.447687,-4.454426,-2.61693,0.5844989,1.21679,0.507359,-1.622069,-0.3148589,0,0,-0.3289179,-0.2348281,0.4205475,-0.5926961,-4.428935,0.362999,0.7159836,1.47524,0.4309092,-0.01015458,-0.1160888,-0.2903977,-0.9614182,0.1972891,0.09217334,0.8540931,1.517109,0.2376733,0.323008,1.263621,0.329832,276.6329,94.0622,143.7138,True
3,0.9111122,-1.330938,0.4380738,-0.1769632,-1.447533,-4.45838,-2.601049,0.5822447,1.218673,0.5069845,-1.624534,-0.2211696,0,0,-0.3319345,-0.2253116,0.4355373,-0.588402,-4.436162,0.372463,0.7164431,1.475749,0.4307303,-0.01869467,-0.1054422,-0.2924873,-0.9647525,0.1966731,0.09301329,0.8545117,1.516777,0.23772,0.3211288,1.27076,0.3308541,277.5171,91.27947,146.83,True
3,0.9222233,-1.33624,0.412501,-0.1768244,-1.447789,-4.462559,-2.585527,0.5798195,1.220638,0.506458,-1.62695,-0.2178148,0,0,-0.3328166,-0.2019539,0.4527038,-0.5836094,-4.442626,0.3815045,0.716854,1.476255,0.4305081,-0.03683487,-0.08627693,-0.2966649,-0.9681944,0.1966831,0.09403648,0.8549361,1.516503,0.237736,0.3193588,1.277867,0.3316937,278.4331,89.09753,149.3536,True
3,0.9333345,-1.333031,0.3986422,-0.1788908,-1.448272,-4.467154,-2.570174,0.5773945,1.222694,0.5061114,-1.628472,-0.1361984,0,0,-0.3380388,-0.1764192,0.4624422,-0.5789435,-4.448288,0.3902764,0.7172489,1.476843,0.4301994,-0.05284625,-0.06817532,-0.2997933,-0.9717252,0.1969296,0.09510974,0.8553212,1.516355,0.2377851,0.3177508,1.284928,0.3322568,279.3752,87.59924,151.112,True
3,0.9444456,-1.330889,0.3912096,-0.1745927,-1.449025,-4.471624,-2.554761,0.5749077,1.224749,0.5056236,-1.630546,-0.1875263,0,0,-0.3635388,-0.1497683,0.4659768,-0.5742025,-4.453418,0.3995192,0.7175502,1.477414,0.4298987,-0.06672665,-0.04581238,-0.303995,-0.9752299,0.1977367,0.09594917,0.855734,1.516077,0.2378716,0.3163382,1.291948,0.3325603,280.3123,86.6858,152.1426,True
3,0.9555568,-1.32767,0.3827179,-0.1713418,-1.449848,-4.475899,-2.539819,0.5723783,1.226796,0.5050845,-1.632295,-0.1574833,0,0,-0.3985816,-0.1199472,0.470664,-0.5695905,-4.458378,0.4089521,0.7179605,1.477946,0.4297132,-0.06997365,-0.03622711,-0.3114422,-0.9789354,0.1980364,0.09669591,0.8561773,1.515655,0.2378492,0.3149976,1.298989,0.3326593,281.2607,86.04579,152.773,True
3,0.9666679,-1.323368,0.3582736,-0.1626907,-1.450539,-4.479353,-2.524837,0.5699026,1.229187,0.50474,-1.633494,-0.1075647,0,0,-0.4294462,-0.09433901,0.4741748,-0.5651473,-4.462218,0.4180811,0.7182251,1.478444,0.4291558,-0.07426777,-0.02984052,-0.3178169,-0.9827384,0.1982972,0.09750605,0.8565921,1.51528,0.2378347,0.3136874,1.306042,0.3327115,282.2226,85.54449,153.1932,True
3,0.977779,-1.321225,0.3444209,-0.1636862,-1.451016,-4.48322,-2.509607,0.5673598,1.231484,0.5041976,-1.634979,-0.1343847,0,1.24,-0.4623033,-0.04748057,0.4874338,-0.5594119,-4.465171,0.4268872,0.7184627,1.479078,0.4288588,-0.07957765,-0.04262507,-0.3156513,-0.9862783,0.197634,0.09895774,0.8569841,1.514971,0.2378199,0.312348,1.313097,0.3328117,283.196,84.98258,153.7217,True
3,0.9888902,-1.322279,0.3369443,-0.1679224,-1.451465,-4.487307,-2.494395,0.5650796,1.233834,0.5037861,-1.635764,-0.07018343,0,4.73,-0.4598909,-0.06255341,0.5246413,-0.553423,-4.473158,0.4387579,0.7188375,1.479854,0.4285376,-0.08810908,-0.04476676,-0.3177384,-0.9899806,0.19731,0.1003863,0.8575562,1.5147,0.2378755,0.3110002,1.320099,0.3330202,284.1402,84.4063,154.3305,True
3,1.000001,-1.312704,0.3486656,-0.1690581,-1.452507,-4.491918,-2.479519,0.5626118,1.236236,0.503197,-1.636294,-0.04752331,0,8,-0.4533085,-0.06052536,0.5469668,-0.5474426,-4.480006,0.4494367,0.7190616,1.480465,0.4281995,-0.09336068,-0.03730337,-0.3028009,-0.9928621,0.1974972,0.1015043,0.8578695,1.514424,0.2378867,0.3096621,1.327056,0.3333406,285.0129,83.92489,154.904,True
3,1.011112,-1.305249,0.3561187,-0.1690858,-1.453718,-4.496326,-2.464775,0.5601931,1.238526,0.5026541,-1.636971,-0.06102897,0,11.05,-0.4415911,-0.03815508,0.5427061,-0.5420998,-4.484429,0.4576927,0.7193409,1.481125,0.4279382,-0.09654908,-0.02984598,-0.2995961,-0.9961533,0.1978002,0.1025679,0.8581728,1.514182,0.2379279,0.3083496,1.333965,0.3337561,285.8736,83.58577,155.3926,True
3,1.022224,-1.288209,0.3636076,-0.1659457,-1.455111,-4.50084,-2.450455,0.5576937,1.240993,0.5020578,-1.637929,-0.08679453,0,13.91,-0.4394581,-0.01470774,0.5395915,-0.5365146,-4.488426,0.465968,0.7195553,1.481715,0.4276338,-0.1146208,-0.001085043,-0.2899302,-0.9989608,0.199297,0.1036758,0.8584208,1.513906,0.238013,0.3071303,1.340825,0.3342923,286.7144,83.34782,155.7911,True
3,1.033335,-1.274338,0.3519282,-0.1616126,-1.45615,-4.504457,-2.436585,0.5553057,1.243333,0.5014858,-1.638528,-0.0537795,0,16.59,-0.4439172,-0.07216567,0.5255364,-0.5330301,-4.498387,0.4796337,0.7197095,1.482349,0.4272399,-0.1219626,0.01916503,-0.265399,-1.000939,0.2006227,0.104553,0.8586211,1.513716,0.2381444,0.3058936,1.3477,0.3349281,287.5864,83.04377,156.272,True
3,1.044446,-1.272212,0.3540481,-0.1637561,-1.457333,-4.508773,-2.421989,0.5528646,1.245767,0.5009162,-1.639316,-0.07146393,0,18.73,-0.4889246,-0.07517603,0.4950038,-0.5296857,-4.504208,0.4917173,0.7198581,1.482942,0.4268785,-0.1186794,0.02343732,-0.2483736,-1.003044,0.2013994,0.1053419,0.8588995,1.513437,0.2382426,0.3046581,1.35455,0.3356578,288.4709,82.65714,156.86,True
3,1.055557,-1.261547,0.3551405,-0.1605373,-1.458833,-4.512807,-2.407955,0.5505369,1.248329,0.5003421,-1.639956,-0.05774299,0,20.74,-0.4993413,-0.07421651,0.5227966,-0.5239769,-4.511961,0.5044067,0.7199894,1.483563,0.4265544,-0.1219641,0.02662111,-0.2643387,-1.006546,0.2021725,0.1063944,0.8591298,1.513193,0.2383533,0.3034131,1.361355,0.3364367,289.3464,82.26225,157.497,True
3,1.066668,-1.253022,0.3604664,-0.1605478,-1.460375,-4.516985,-2.394049,0.5482295,1.250813,0.4997857,-1.639533,0.03918692,0,22.61,-0.4768116,-0.05939098,0.5397183,-0.5182464,-4.518578,0.5146253,0.720103,1.484155,0.4262075,-0.1316367,0.03086908,-0.2792104,-1.010169,0.2031859,0.1077092,0.8595649,1.512824,0.2384305,0.3022616,1.367996,0.3372093,290.2151,81.90938,158.1111,True
3,1.077779,-1.239167,0.3658607,-0.1499368,-1.462333,-4.520984,-2.380425,0.5458092,1.253242,0.4992764,-1.640151,-0.05677014,0,24.36,-0.4704576,-0.04658829,0.533327,-0.5133376,-4.524382,0.5246105,0.7200764,1.484759,0.4258261,-0.1423369,0.0372515,-0.2876805,-1.013547,0.2043772,0.1090157,0.859843,1.512488,0.2385252,0.3011246,1.374552,0.3379193,291.006,81.68826,158.5557,True
3,1.08889,-1.226372,0.3669774,-0.1425108,-1.464143,-4.524862,-2.366929,0.5436403,1.25568,0.4987373,-1.640481,-0.02953322,0,28.81,-0.4790733,-0.04546571,0.5227507,-0.5089461,-4.530901,0.5359945,0.720131,1.485342,0.4253626,-0.1498578,0.03830554,-0.2993607,-1.017172,0.2053366,0.1104067,0.8601588,1.512166,0.2385762,0.3000532,1.381051,0.3385746,291.7429,81.52306,158.9124,True
3,1.100002,-1.208241,0.3574677,-0.1307615,-1.466033,-4.528234,-2.353823,0.5412154,1.258165,0.4982624,-1.640829,-0.03165304,0,32.98,-0.5004578,-0.04433346,0.5133473,-0.5045982,-4.537401,0.5479816,0.7199752,1.485931,0.4249454,-0.1584097,0.04256013,-0.3046448,-1.020705,0.2065271,0.111792,0.8603766,1.511869,0.238631,0.299066,1.387488,0.3391988,292.4998,81.38954,159.2011,True
3,1.111113,-1.19864,0.3489528,-0.1253988,-1.467669,-4.531504,-2.340495,0.5388464,1.260715,0.4977524,-1.641,-0.01528458,0,36.88,-0.5175744,-0.05068085,0.5070725,-0.5003787,-4.544907,0.5609629,0.7198111,1.48661,0.424536,-0.1636577,0.05854972,-0.2865116,-1.023072,0.2082347,0.1129782,0.8606257,1.511557,0.238693,0.2981583,1.393853,0.3398223,293.2775,81.20552,159.5185,True
3,1.122224,-1.189026,0.3244737,-0.1231517,-1.468782,-4.534358,-2.327305,0.5363666,1.263226,0.4972908,-1.64134,-0.03100603,0,40.52,-0.5217625,-0.04964638,0.5156348,-0.49556,-4.55264,0.5737213,0.719575,1.487252,0.4241235,-0.1753212,0.06174688,-0.2757991,-1.025676,0.209515,0.1146528,0.8608496,1.511273,0.2387857,0.2973615,1.400121,0.3404527,294.0448,81.02905,159.8397,True
3,1.133335,-1.174086,0.3063816,-0.1209139,-1.470078,-4.537138,-2.314522,0.5340282,1.26569,0.4968441,-1.641114,0.02086631,0,43.93,-0.5258551,-0.02202924,0.5338858,-0.4896339,-4.559147,0.5855527,0.7192584,1.487867,0.4236243,-0.1880866,0.06920534,-0.2714778,-1.028486,0.2110864,0.1163905,0.860955,1.511034,0.2389417,0.2965715,1.406352,0.3410558,294.8208,80.8488,160.1569,True
3,1.144446,-1.153825,0.2936132,-0.1208602,-1.471347,-4.540037,-2.30214,0.5315833,1.268315,0.496326,-1.641152,-0.003681954,0,48.51,-0.5246798,0.03760061,0.5394477,-0.4832125,-4.562063,0.5939917,0.7188576,1.488661,0.42313,-0.2019508,0.07985137,-0.2735418,-1.031424,0.2129782,0.1181565,0.8611033,1.510737,0.2390854,0.2957749,1.412554,0.3416054,295.5849,80.71014,160.4411,True
3,1.155557,-1.12185,0.2873018,-0.1112734,-1.472974,-4.542737,-2.290437,0.5291402,1.270889,0.4957767,-1.641527,-0.03422277,0,52.8,-0.5215087,0.08131415,0.5300186,-0.4772534,-4.564431,0.6017852,0.7184323,1.489328,0.4226587,-0.2168509,0.100085,-0.2681514,-1.034079,0.2154435,0.119892,0.8611695,1.510539,0.2392642,0.295011,1.418682,0.3420871,296.3459,80.62133,160.662,True
3,1.166668,-1.105855,0.2787914,-0.1080619,-1.47437,-4.545356,-2.278419,0.5268146,1.273374,0.495307,-1.641911,-0.03492489,0,56.81,-0.5247401,0.09412479,0.5247743,-0.4718077,-4.569189,0.612045,0.7180161,1.489958,0.4221265,-0.2136473,0.1235256,-0.263921,-1.036631,0.218335,0.1206668,0.8612009,1.51024,0.239449,0.294318,1.424702,0.3425102,297.0829,80.54474,160.8458,True
3,1.17778,-1.098397,0.2734484,-0.1133702,-1.475621,-4.548313,-2.266186,0.5244149,1.275943,0.4946952,-1.641993,-0.008025053,0,60.56,-0.5396708,0.08775595,0.5238068,-0.4666215,-4.575259,0.6239443,0.7175736,1.490619,0.421633,-0.2211289,0.1288465,-0.2681459,-1.039547,0.2206595,0.1221933,0.8612753,1.509967,0.239625,0.2935967,1.430656,0.3428643,297.8228,80.48177,160.9962,True
3,1.188891,-1.080284,0.2541588,-0.1324862,-1.475836,-4.551246,-2.254453,0.5220511,1.278643,0.494231,-1.640594,0.1268658,0,66.58,-0.5514441,0.07926014,0.5196059,-0.461724,-4.581876,0.6364737,0.7172035,1.491343,0.4211223,-0.2402939,0.1299012,-0.2648481,-1.042188,0.2226598,0.1245955,0.861437,1.509677,0.2397823,0.2928398,1.436436,0.3431827,298.5749,80.38778,161.1599,True
3,1.200002,-1.055777,0.2509938,-0.1314304,-1.477016,-4.554035,-2.243379,0.5196398,1.281272,0.4936085,-1.638686,0.1718298,0,72.22,-0.5566117,0.09197775,0.5367486,-0.4556381,-4.588111,0.6484158,0.7167322,1.492033,0.420635,-0.2392094,0.1373612,-0.2605968,-1.044705,0.2250677,0.1260021,0.8614804,1.509416,0.2399135,0.2920143,1.441969,0.3434793,299.2903,80.31623,161.3079,True
3,1.211113,-1.020625,0.2574725,-0.1208168,-1.479002,-4.556617,-2.233104,0.5175883,1.283935,0.4929109,-1.637014,0.1495415,0,77.5,-0.5480012,0.1164372,0.545295,-0.4493056,-4.592877,0.6585199,0.7163193,1.492675,0.4200575,-0.2296198,0.1448149,-0.2585253,-1.047316,0.2274823,0.1270059,0.8616995,1.5091,0.2399752,0.2910087,1.447321,0.3437298,299.9311,80.33601,161.3922,True
3,1.222224,-1.001469,0.27346,-0.1230417,-1.480981,-4.559957,-2.222368,0.5153564,1.286582,0.4921668,-1.634998,0.1808787,0,82.44,-0.5405303,0.1505312,0.5421779,-0.4429987,-4.596128,0.6671911,0.7158756,1.493343,0.419512,-0.2220891,0.1426956,-0.2447146,-1.049322,0.2295501,0.1281774,0.8617145,1.508853,0.2400551,0.2898179,1.452474,0.3439418,300.4981,80.44868,161.3841,True
3,1.233335,-0.9833733,0.2958267,-0.1295646,-1.483173,-4.563712,-2.211878,0.5131879,1.289205,0.4913516,-1.632581,0.2169566,0,87.06,-0.5457532,0.1206415,0.5602046,-0.4374434,-4.605426,0.6819251,0.7154375,1.494029,0.4189959,-0.2273542,0.1320437,-0.2340262,-1.051404,0.231085,0.1300749,0.8616762,1.508663,0.2403092,0.2884505,1.457401,0.3441426,300.9694,80.44444,161.491,True
3,1.244446,-0.9759313,0.3203608,-0.123349,-1.485806,-4.567222,-2.200992,0.5110414,1.291767,0.4906638,-1.62842,0.3755732,0,90.44,-0.559482,0.1173993,0.5752217,-0.4314209,-4.613719,0.6960635,0.7149995,1.494629,0.4184012,-0.2273075,0.1277874,-0.2255015,-1.05342,0.23286,0.131697,0.86167,1.508428,0.2404497,0.2869583,1.462054,0.3443582,301.3566,80.36265,161.7082,True
3,1.255558,-0.9759472,0.3470419,-0.114967,-1.489022,-4.570826,-2.189957,0.5088387,1.294352,0.4898937,-1.6242,0.3790659,0,93.6,-0.5742508,0.13439,0.5913897,-0.4247273,-4.620765,0.7093852,0.7145569,1.495259,0.4178381,-0.2261613,0.1448373,-0.2084683,-1.054821,0.2355482,0.1328406,0.8616446,1.508226,0.2406995,0.2852277,1.466523,0.3445854,301.7122,80.35806,161.8757,True
3,1.266669,-0.9759478,0.3566024,-0.1139631,-1.491697,-4.574081,-2.179106,0.5064988,1.297146,0.4892609,-1.618862,0.4812521,0,96.55,-0.5709622,0.1535209,0.5999638,-0.4180252,-4.627627,0.7218288,0.7141439,1.495889,0.4172904,-0.2282831,0.154423,-0.2074006,-1.056861,0.2381544,0.134071,0.8615831,1.508074,0.2408531,0.2832686,1.470811,0.3448729,302.0194,80.39952,161.9968,True
3,1.27778,-0.9684876,0.3576971,-0.1097149,-1.494392,-4.577242,-2.168414,0.5043186,1.299852,0.4884062,-1.613185,0.5107781,0,99.32,-0.5518672,0.159921,0.5912967,-0.4121231,-4.634136,0.7333081,0.7136805,1.496596,0.416739,-0.2293305,0.165078,-0.2031401,-1.058644,0.2409978,0.1352377,0.8615125,1.507877,0.2410691,0.2811013,1.474956,0.3452746,302.2469,80.38392,162.1681,True
3,1.288891,-0.9695396,0.3502653,-0.1032929,-1.496784,-4.579991,-2.157561,0.5023264,1.302522,0.4876313,-1.607239,0.5348311,0,100,-0.5412941,0.1364999,0.5868436,-0.4069678,-4.643424,0.7475834,0.713391,1.497304,0.4162428,-0.2229363,0.1586907,-0.203173,-1.060682,0.2430547,0.1364543,0.8614436,1.507667,0.2412353,0.2787029,1.479077,0.3457999,302.4168,80.31178,162.437,True
3,1.300002,-0.9556715,0.3364634,-0.09577546,-1.49908,-4.582465,-2.147278,0.5002234,1.305281,0.4868078,-1.600767,0.5824203,0,100,-0.5381778,0.108821,0.5813736,-0.4021895,-4.653818,0.7629831,0.7130432,1.49799,0.4157634,-0.2240355,0.1459023,-0.2106168,-1.063071,0.2448007,0.1381145,0.8613496,1.507453,0.24143,0.2761137,1.483216,0.3464188,302.5592,80.22028,162.7974,True
3,1.311113,-0.9460523,0.3141659,-0.08921938,-1.501255,-4.584315,-2.136925,0.4983485,1.308061,0.4862988,-1.593343,0.6685533,0,100,-0.5467707,0.07685417,0.5802383,-0.3976973,-4.666009,0.7807488,0.7127116,1.498793,0.4152591,-0.2261849,0.1352459,-0.2148605,-1.065405,0.2465756,0.1398679,0.8612541,1.507263,0.2416933,0.273504,1.487247,0.3470732,302.688,80.08909,163.2763,True
3,1.322224,-0.9311048,0.281175,-0.07840574,-1.502641,-4.585836,-2.126935,0.4963693,1.310898,0.4853597,-1.585959,0.6636631,0,100,-0.5424576,0.04909804,0.5907363,-0.393041,-4.679513,0.7991174,0.7124791,1.499512,0.4147801,-0.2251295,0.1320492,-0.2169948,-1.067693,0.2485311,0.1414056,0.861159,1.507055,0.2418902,0.2709782,1.491117,0.3476771,302.8008,79.94637,163.7721,True
3,1.333336,-0.9182662,0.2417751,-0.07606862,-1.503412,-4.587183,-2.117233,0.4943095,1.313974,0.4843812,-1.577392,0.7715331,0,100,-0.53816,0.03629616,0.5980949,-0.3881909,-4.692243,0.8168226,0.7122647,1.500291,0.414335,-0.2069944,0.1405769,-0.2128351,-1.069646,0.2509117,0.141906,0.8610103,1.506901,0.2421088,0.2685158,1.494848,0.3481454,302.9156,79.8131,164.1827,True
3,1.344447,-0.9160752,0.198171,-0.06520075,-1.50389,-4.587892,-2.107049,0.4924176,1.316936,0.4835172,-1.568561,0.7942238,0,100,-0.5189253,0.02770996,0.6085371,-0.3833716,-4.705695,0.8345473,0.7121178,1.500873,0.4138982,-0.1899747,0.145908,-0.2171891,-1.071935,0.2533726,0.1422453,0.860859,1.506683,0.242327,0.266126,1.498429,0.3484396,303.0073,79.66663,164.5438,True
3,1.355558,-0.9128324,0.1652159,-0.05011296,-1.504551,-4.588337,-2.09693,0.4906096,1.319922,0.4826684,-1.559147,0.8471085,0,100,-0.4974849,0.0372076,0.6233155,-0.3778663,1.563865,0.8520232,0.7120275,1.501688,0.4134521,-0.2049393,0.1150027,-0.2288181,-1.075014,0.2541243,0.1447324,0.8607105,1.506471,0.2425954,0.2636702,1.501955,0.3484123,303.1221,79.5409,164.9115,True
3,1.366669,-0.9064171,0.1524567,-0.04362206,-1.505753,-4.589161,-2.087004,0.4890867,1.322817,0.4818776,-1.54832,0.9753773,0,100,-0.4856383,0.0499194,0.6371117,-0.3722284,1.550277,0.8697439,0.7119794,1.502412,0.412926,-0.2091149,0.1192707,-0.2117593,-1.076613,0.2561066,0.146341,0.8605096,1.506284,0.2427077,0.261082,1.505414,0.347982,303.213,79.49449,165.1324,True
3,1.37778,-0.9063761,0.1280278,-0.02857939,-1.506397,-4.589273,-2.076854,0.4874033,1.325832,0.4811165,-1.537475,0.9756548,0,100,-0.5004459,0.04348719,0.6510556,-0.3670741,1.534307,0.8907377,0.7119665,1.503243,0.4124589,-0.1951799,0.1139596,-0.1958498,-1.078048,0.2576401,0.1473069,0.8603185,1.50608,0.2428479,0.2584529,1.508675,0.3471746,303.2037,79.48441,165.1813,True
3,1.388891,-0.9073958,0.1025288,-0.01565494,-1.506843,-4.589193,-2.066724,0.4858878,1.328781,0.4804037,-1.526304,1.00505,0,100,-0.5013152,0.02314895,0.677613,-0.3621329,1.515067,0.9143661,0.7119988,1.504036,0.4119577,-0.1791952,0.08413452,-0.1969797,-1.080287,0.257939,0.1486411,0.8601129,1.505929,0.2429836,0.2558368,1.511707,0.3460843,303.0888,79.50774,165.0699,True
3,1.400002,-0.9222673,0.07488059,-0.002711423,-1.506973,-4.588793,-2.055902,0.4843116,1.331751,0.4797182,-1.514152,1.094253,0,100,-0.4861235,0.006997019,0.7136406,-0.3569472,1.493125,0.9398299,0.7120293,1.504883,0.4114971,-0.1717072,0.06389967,-0.1927458,-1.082268,0.2583098,0.1501575,0.8599138,1.505724,0.2430973,0.2532633,1.514508,0.3448734,302.9127,79.57113,164.8471,True
3,1.411114,-0.9297096,0.06744927,0.003726423,-1.507533,-4.588784,-2.045311,0.4827356,1.334668,0.4790332,-1.50167,1.123203,0,100,-0.4646043,0.01218641,0.7337912,-0.3512656,1.471827,0.964188,0.7119725,1.505995,0.411124,-0.1653108,0.06603535,-0.1917144,-1.0842,0.2596978,0.1511466,0.8597608,1.50552,0.243331,0.2506449,1.517197,0.3436268,302.7174,79.62186,164.6368,True
3,1.422225,-0.9328803,0.05471852,0.01444852,-1.507927,-4.588377,-2.034844,0.4812685,1.337548,0.4783959,-1.48803,1.228583,0,100,-0.4399164,0.02059422,0.7464764,-0.3457081,1.449998,0.9885369,0.711993,1.50691,0.4107294,-0.1652973,0.0607101,-0.1895806,-1.086132,0.2606016,0.1525568,0.8595647,1.505276,0.2434342,0.2479985,1.519777,0.3424161,302.5169,79.65487,164.478,True
3,1.433336,-0.9317911,0.05159094,0.0251419,-1.508784,-4.588129,-2.024714,0.4800391,1.340534,0.4778173,-1.474884,1.182273,0,100,-0.4239219,0.02591254,0.7495524,-0.3407136,1.430125,1.011607,0.7120618,1.50764,0.4102116,-0.1632105,0.05644254,-0.1970428,-1.088431,0.2615597,0.1539563,0.8593392,1.505095,0.2435763,0.2452743,1.52234,0.3412691,302.303,79.67477,164.3628,True
3,1.444447,-0.928592,0.05163483,0.03473584,-1.509617,-4.587724,-2.014441,0.4786693,1.343318,0.4772565,-1.461325,1.220351,0,100,-0.4058345,0.03443952,0.7409547,-0.3358166,1.409993,1.034356,0.7120751,1.508347,0.4097016,-0.1621245,0.04259959,-0.1927724,-1.09035,0.2619866,0.1556048,0.8591573,1.504862,0.2436757,0.2424868,1.524891,0.340248,302.0934,79.67545,164.2898,True
3,1.455558,-0.9285933,0.06126272,0.04214228,-1.510836,-4.587492,-2.004107,0.4771837,1.346066,0.4767392,-1.447647,1.230569,0,100,-0.4100997,0.02166587,0.7451831,-0.3317734,1.387812,1.06022,0.7120875,1.508991,0.4092901,-0.1503452,0.03089026,-0.1821743,-1.091993,0.2621761,0.1568322,0.8589249,1.504578,0.243741,0.2397061,1.52738,0.3393877,301.8459,79.61646,164.3087,True
3,1.466669,-0.9285917,0.06449847,0.04956885,-1.511836,-4.587202,-1.993772,0.4757887,1.348772,0.4762416,-1.433193,1.301345,0,100,-0.4186192,0.02060327,0.7441967,-0.3276785,1.365487,1.086193,0.712163,1.509469,0.4087117,-0.1471706,0.02662043,-0.1864433,-1.094084,0.2626509,0.1581627,0.8587053,1.504441,0.2437568,0.2369665,1.529795,0.3387081,301.5881,79.52628,164.3969,True
3,1.47778,-0.931782,0.06130995,0.05171949,-1.512624,-4.586837,-1.983306,0.4743251,1.351528,0.4757221,-1.418545,1.318279,0,100,-0.4133653,0.02702914,0.7345918,-0.3236369,1.344377,1.110657,0.7121291,1.510063,0.4082778,-0.1471303,0.02449435,-0.178985,-1.095778,0.2631742,0.1595726,0.8584906,1.504181,0.2438178,0.2342121,1.53214,0.3381866,301.3954,79.4011,164.5485,True
3,1.488891,-0.9360417,0.05275029,0.04219462,-1.512976,-4.586853,-1.97277,0.4730086,1.354373,0.4751866,-1.403636,1.341808,0,100,-0.3804969,0.02494222,0.714074,-0.3202616,1.323614,1.133437,0.7122242,1.510571,0.4079351,-0.1385629,0.02982669,-0.1705086,-1.097232,0.2640265,0.1603921,0.8582085,1.503853,0.2439854,0.231358,1.534434,0.3377956,301.2327,79.23049,164.7618,True
3,1.500003,-0.9189816,0.02929389,0.03483795,-1.512603,-4.586541,-1.963102,0.4716527,1.357244,0.4746094,-1.388313,1.379197,0,100,-0.3519785,0.01756319,0.683988,-0.3174653,1.303714,1.155348,0.7122081,1.511317,0.4075851,-0.154566,0.04153566,-0.1746945,-1.099206,0.2653217,0.1620288,0.8579072,1.503651,0.2441094,0.2283961,1.53664,0.3374866,301.0428,79.04257,165.0349,True
3,1.511114,-0.9019431,0.03035014,0.03056422,-1.513052,-4.586423,-1.953626,0.4704528,1.360179,0.4740441,-1.372817,1.394643,0,100,-0.3383551,0.009130299,0.6582589,-0.3150924,1.284382,1.177061,0.7121481,1.511981,0.4071338,-0.1588568,0.05111712,-0.1789379,-1.101181,0.2666929,0.163358,0.8576442,1.503424,0.2442088,0.2253023,1.538775,0.3371786,300.7884,78.87186,165.3332,True
3,1.522225,-0.8763647,0.01437457,0.02635561,-1.512737,-4.586128,-1.944855,0.4692628,1.363115,0.4734328,-1.35799,1.333227,0,100,-0.3299193,0.0294205,0.643372,-0.311641,1.265233,1.198659,0.7121837,1.512695,0.4068112,-0.1630648,0.0372714,-0.1703901,-1.102823,0.2668712,0.1651927,0.8573694,1.503332,0.244199,0.2221336,1.540831,0.3368029,300.4625,78.77674,165.5875,True
3,1.533336,-0.8582494,0.00264642,0.02535878,-1.512512,-4.585577,-1.935909,0.4682452,1.36604,0.4727914,-1.342371,1.406006,0,100,-0.3299091,0.03473182,0.6465687,-0.3085869,1.244134,1.222525,0.7121773,1.513365,0.406354,-0.1480256,0.02131218,-0.1480882,-1.103765,0.2666832,0.166422,0.8570706,1.503148,0.2442386,0.218947,1.542756,0.3362897,300.114,78.72052,165.779,True
3,1.544447,-0.8475931,-0.01549367,0.01585012,-1.511763,-4.585486,-1.926941,0.4672825,1.368912,0.4722226,-1.326942,1.387771,0,100,-0.3319561,0.03788288,0.6561885,-0.3056648,1.221137,1.248133,0.7123517,1.513989,0.4058318,-0.1213359,0.01174925,-0.1375707,-1.104909,0.2668408,0.166805,0.8567754,1.502934,0.2442861,0.2157686,1.544545,0.3356318,299.722,78.63873,165.9347,True
3,1.555558,-0.8433172,-0.04003018,0.008507475,-1.510536,-4.585188,-1.917753,0.4663082,1.371911,0.4716451,-1.310503,1.480189,0,100,-0.3445865,0.04740714,0.6744452,-0.3024642,1.196278,1.276155,0.7127374,1.514809,0.4052553,-0.1128531,-0.002102785,-0.1461289,-1.106864,0.2666515,0.1678907,0.8565096,1.502778,0.2443261,0.2126273,1.546143,0.3348075,299.3227,78.5807,166.0436,True
3,1.566669,-0.8326479,-0.06242661,0.001164258,-1.509238,-4.584907,-1.908897,0.4654832,1.375024,0.4709601,-1.29404,1.481614,0,100,-0.3400825,0.07498583,0.7000946,-0.2984274,1.170094,1.304831,0.7130158,1.515503,0.4048803,-0.1096649,-0.005304605,-0.1472079,-1.108548,0.266731,0.1690609,0.8563068,1.502501,0.2444184,0.2095507,1.547536,0.3338102,298.8764,78.55953,166.0795,True
3,1.577781,-0.8262482,-0.07629593,-0.004098834,-1.507956,-4.584675,-1.899997,0.4646079,1.378122,0.4703352,-1.27729,1.507826,0,100,-0.31958,0.09188315,0.7287589,-0.2946468,1.141551,1.335042,0.7134205,1.516165,0.4044435,-0.08621036,-0.008488137,-0.1441343,-1.110056,0.2667955,0.1691848,0.856023,1.502283,0.2444916,0.2065149,1.548775,0.3326671,298.3962,78.66233,165.9458,True
3,1.588892,-0.8230239,-0.110439,-0.0113918,-1.505635,-4.584181,-1.890913,0.4638853,1.381356,0.4698017,-1.261017,1.46391,0.86,100,-0.303427,0.09068826,0.7499277,-0.2918793,1.111669,1.366517,0.7137326,1.516811,0.4040265,-0.07564437,-0.0202146,-0.1612236,-1.112415,0.2665474,0.1698335,0.855698,1.502123,0.2444878,0.2034742,1.549986,0.331399,297.8532,78.81419,165.7427,True
3,1.600003,-0.8219224,-0.1562937,-0.02074636,-1.502373,-4.583633,-1.881734,0.4631447,1.38455,0.4692106,-1.244363,1.49909,1.98,100,-0.2851448,0.05646783,0.775196,-0.2905887,1.078474,1.400861,0.7142264,1.517426,0.403646,-0.07148452,-0.04472532,-0.1825365,-1.115319,0.2656704,0.1709299,0.8554274,1.501907,0.2444727,0.2004606,1.551231,0.3300418,297.2882,78.98933,165.5123,True
3,1.611114,-0.8272238,-0.1808336,-0.02487239,-1.499613,-4.583106,-1.872415,0.4623995,1.38755,0.4685915,-1.227456,1.521932,3.03,100,-0.2670172,0.009530157,0.7844301,-0.2906766,1.046855,1.433599,0.7146752,1.518027,0.4033449,-0.06729019,-0.05325653,-0.1953288,-1.117877,0.2651719,0.1717928,0.8550779,1.501659,0.2444425,0.1975053,1.552523,0.3286524,296.739,79.18929,165.2417,True
3,1.622225,-0.8367933,-0.2032352,-0.02900823,-1.496541,-4.582664,-1.862792,0.4617532,1.390606,0.4680791,-1.210603,1.516842,4.01,100,-0.2553908,-0.01388806,0.7767746,-0.290626,1.017362,1.46428,0.7151499,1.518617,0.4029791,-0.05770622,-0.05858317,-0.1964444,-1.120193,0.264678,0.1723409,0.8547716,1.501441,0.2444258,0.1960257,1.553858,0.3280282,296.6047,79.65256,165.013,True
3,1.633336,-0.8378517,-0.2170856,-0.03000436,-1.493778,-4.582253,-1.853401,0.4611507,1.393602,0.4675198,-1.193703,1.521013,4.93,100,-0.2371382,-0.02676764,0.7946757,-0.290373,0.984806,1.497467,0.7156666,1.519203,0.402554,-0.04593678,-0.05963729,-0.1869183,-1.122023,0.2642446,0.1726226,0.8544736,1.501213,0.2443945,0.1956449,1.554856,0.3276085,296.393,79.90839,164.7721,True
3,1.644447,-0.8271954,-0.217047,-0.02255473,-1.491534,-4.581505,-1.844518,0.4606874,1.396626,0.4672561,-1.176629,1.53697,5.79,100,-0.2199081,-0.02475128,0.8147886,-0.2900198,0.9503956,1.532284,0.7163404,1.519773,0.4022794,-0.01801252,-0.07238366,-0.1465759,-1.122444,0.2629101,0.1723598,0.8541619,1.50099,0.2444189,0.1953964,1.555565,0.3272308,296.1415,80.59075,164.2234,True
3,1.655559,-0.8229274,-0.2138038,-0.01405334,-1.48942,-4.580773,-1.835598,0.4600943,1.399632,0.4668226,-1.160059,1.490829,6.64,100,-0.2081888,-0.01623836,0.8136612,-0.2896832,0.9190078,1.564244,0.716853,1.520387,0.4019816,-0.01582544,-0.07237603,-0.1359344,-1.12371,0.2622416,0.1727374,0.8538299,1.500774,0.2443941,0.1950559,1.556321,0.326833,295.8946,81.04655,163.8375,True
3,1.66667,-0.8197312,-0.2052271,-0.003422916,-1.487574,-4.579894,-1.826615,0.4597086,1.402635,0.4663093,-1.143747,1.467557,7.43,100,-0.1881607,-0.02043611,0.7889773,-0.2902217,0.8913586,1.592143,0.71743,1.521013,0.4016616,-0.01788215,-0.07663053,-0.1220737,-1.12485,0.2613765,0.1734666,0.8535872,1.500596,0.2443507,0.1941131,1.556924,0.3258412,295.211,81.02428,163.3838,True
3,1.677781,-0.8143983,-0.2030516,0.004015952,-1.485556,-4.579048,-1.817809,0.4593322,1.405619,0.46593,-1.127004,1.507184,8.17,99.81,-0.174549,-0.01606765,0.7601173,-0.2905051,0.8655165,1.618348,0.718047,1.521642,0.4013844,-0.007214442,-0.0968657,-0.1210524,-1.126442,0.2596918,0.1739207,0.8533028,1.500383,0.2442636,0.1934921,1.557376,0.325565,294.88,80.93529,163.6615,True
3,1.688892,-0.8154741,-0.2019864,0.005083762,-1.483356,-4.578439,-1.808563,0.45919,1.408472,0.4653006,-1.11025,1.508027,8.86,99.09,-0.1628684,-0.020327,0.7568104,-0.2913498,0.8362389,1.647919,0.7188216,1.522234,0.4009845,0.01300327,-0.1117761,-0.1275496,-1.128483,0.2581013,0.1737273,0.8531044,1.50017,0.244149,0.1932648,1.557847,0.3255538,294.5046,80.45132,164.1211,True
3,1.700003,-0.8176262,-0.1817475,0.004982308,-1.482043,-4.578091,-1.799389,0.4589767,1.411331,0.4648983,-1.093837,1.47685,9.43,97.1,-0.1435661,-0.03320649,0.7736383,-0.2930047,0.8046184,1.679155,0.7195375,1.522784,0.4006712,0.02470978,-0.123491,-0.1308004,-1.130334,0.2564569,0.173743,0.8528452,1.499938,0.2440276,0.1931666,1.558326,0.3255158,294.1163,80.13854,164.4495,True
3,1.711114,-0.8229675,-0.1626025,0.007056713,-1.480879,-4.57738,-1.790039,0.45889,1.414272,0.4645419,-1.07694,1.521443,9.96,95.25,-0.1307456,-0.03860039,0.7798945,-0.2948316,0.7743272,1.709163,0.7202221,1.523374,0.4002764,0.0214456,-0.1458727,-0.1446149,-1.132768,0.2543067,0.1746536,0.8525933,1.499696,0.2439005,0.1931099,1.558812,0.3254311,293.7194,80.00719,164.6507,True
3,1.722225,-0.8208779,-0.1210371,0.01003702,-1.481008,-4.577222,-1.780931,0.4587453,1.41705,0.4641361,-1.060578,1.472167,10.45,93.52,-0.131682,-0.04292917,0.7958639,-0.2969542,0.7424975,1.741085,0.7209709,1.523973,0.3999424,0.01925513,-0.1650553,-0.1584417,-1.135419,0.2520655,0.1754275,0.8523409,1.499472,0.2438207,0.1928189,1.558372,0.3247445,293.0737,77.81991,166.3134,True
3,1.733337,-0.8166638,-0.07736557,0.0098329,-1.481565,-4.577142,-1.772059,0.4586756,1.419814,0.463587,-1.044048,1.487989,10.92,91.89,-0.1294867,-0.01314887,0.8002371,-0.2978346,0.7118409,1.77185,0.7217276,1.524378,0.3996513,0.02672167,-0.1693151,-0.1563454,-1.137376,0.2501751,0.175759,0.8521028,1.499235,0.2436624,0.1923931,1.558459,0.3240741,292.5023,76.87881,166.8849,True
3,1.744448,-0.8071166,-0.04757997,0.003278438,-1.481811,-4.577283,-1.763438,0.4587511,1.422691,0.4632618,-1.028036,1.440532,11.35,90.37,-0.1176909,0.002787232,0.805542,-0.2992115,0.6809863,1.802139,0.7225198,1.524969,0.3993461,0.04706614,-0.1756808,-0.1383387,-1.13859,0.2481229,0.1753103,0.8518318,1.499083,0.2436371,0.1920024,1.559338,0.3237701,291.9745,79.0966,164.9128,True
3,1.755559,-0.7996743,-0.03158234,0.005318239,-1.482021,-4.577218,-1.754905,0.4587862,1.425489,0.4628317,-1.012053,1.438311,11.59,88.91,-0.105905,-0.003659546,0.8149964,-0.3017516,0.6510584,1.831468,0.7234309,1.525447,0.3991137,0.04717351,-0.1916486,-0.1191479,-1.139616,0.2453445,0.1759143,0.8515905,1.498929,0.2434986,0.191908,1.560063,0.3237494,291.3727,78.99564,165.0389,True
3,1.76667,-0.7954229,-0.03160076,-2.381951E-05,-1.481554,-4.57736,-1.746237,0.458827,1.428357,0.4624467,-0.9960952,1.436026,11.82,87.54,-0.1048775,-0.01327097,0.8160037,-0.3047338,0.6227902,1.859729,0.7241938,1.525951,0.3987055,0.04183874,-0.1959176,-0.1201873,-1.141499,0.2431088,0.1767087,0.8513959,1.498743,0.243377,0.1918789,1.560768,0.3238299,290.7978,78.35634,165.5913,True
3,1.777781,-0.7890466,-0.03593718,-0.01598889,-1.480895,-4.578008,-1.737722,0.4589887,1.431129,0.4620538,-0.980064,1.442883,12.04,86.26,-0.08674884,-0.02715915,0.820053,-0.3082103,0.594584,1.886926,0.7250475,1.526421,0.3984818,0.04725294,-0.2012313,-0.1042331,-1.142508,0.2406348,0.1770523,0.8512073,1.498476,0.2432201,0.1918495,1.561443,0.3239341,290.245,77.82813,166.0226,True
3,1.788892,-0.7826574,-0.04451098,-0.02445619,-1.480054,-4.578227,-1.729244,0.4592259,1.433877,0.4618418,-0.9639636,1.449241,12.24,85.06,-0.07396996,-0.04956806,0.8230503,-0.3124591,0.567236,1.913368,0.7260147,1.526863,0.3982089,0.05256644,-0.2076258,-0.1063855,-1.144181,0.2381241,0.1773692,0.8509903,1.498257,0.243053,0.1918107,1.562091,0.3240074,289.7197,77.33628,166.4445,True
3,1.800003,-0.781601,-0.04882482,-0.035089,-1.479279,-4.578874,-1.720602,0.4594082,1.436569,0.4614842,-0.9482931,1.410006,12.18,83.68,-0.06870502,-0.06127614,0.8144416,-0.3166168,0.5418171,1.937998,0.7268564,1.527311,0.3979936,0.05563805,-0.221489,-0.1308951,-1.146994,0.2353874,0.1777655,0.8508546,1.497972,0.2428827,0.191874,1.562853,0.3237821,289.443,79.61312,164.2124,True
3,1.811115,-0.7762783,-0.05419787,-0.04359828,-1.47842,-4.579515,-1.71214,0.4596038,1.439366,0.4613371,-0.9325708,1.415119,12.12,82.4,-0.06668484,-0.06550419,0.8058705,-0.3204811,0.5177535,1.961677,0.7275765,1.527876,0.397691,0.05336522,-0.2321628,-0.1596271,-1.150075,0.2327415,0.1782768,0.8506448,1.497718,0.2427256,0.1911222,1.56278,0.3228353,288.933,75.7762,167.4364,True
3,1.822226,-0.7688164,-0.06701033,-0.051,-1.477134,-4.580146,-1.703843,0.4597674,1.44207,0.4609747,-0.9169285,1.40802,12.08,81.2,-0.04882264,-0.0739224,0.7758656,-0.3244689,0.4967142,1.981484,0.728377,1.528143,0.3972685,0.0574884,-0.2236546,-0.1852235,-1.153318,0.2309717,0.1781894,0.850476,1.497452,0.2425482,0.1905299,1.562979,0.3221059,288.4005,74.34669,168.4255,True
3,1.833337,-0.7560256,-0.07878535,-0.06053975,-1.475684,-4.580806,-1.695899,0.4599686,1.444912,0.4608028,-0.9017879,1.362296,12.04,80.08,-0.05018538,-0.09616849,0.7448792,-0.3291635,0.4789092,1.998963,0.7291744,1.528467,0.3969769,0.06498232,-0.2183222,-0.1778088,-1.155342,0.2288828,0.1780382,0.8502825,1.497193,0.2423723,0.1900662,1.563349,0.3215109,287.8439,73.77676,168.7241,True
3,1.844448,-0.733651,-0.09372639,-0.07114626,-1.47393,-4.581762,-1.68846,0.4601117,1.447679,0.4604974,-0.8868417,1.345021,12,79.02,-0.06188363,-0.09086519,0.7460623,-0.3335737,0.4566987,2.021029,0.7298054,1.5289,0.3966894,0.05658375,-0.2321609,-0.1553822,-1.156717,0.2257038,0.1789991,0.850047,1.497004,0.2422099,0.190051,1.564022,0.3214697,287.337,73.28416,169.1024,True
3,1.855559,-0.7144549,-0.1214515,-0.08061947,-1.471565,-4.582675,-1.681112,0.4602442,1.45055,0.4604826,-0.8722172,1.315825,11.8,77.96,-0.06073838,-0.05999678,0.7515161,-0.3370917,0.4329722,2.04413,0.7304721,1.529312,0.3963418,0.03867152,-0.1991244,-0.1158912,-1.156968,0.2244095,0.1797698,0.8497998,1.496857,0.2419305,0.1905845,1.564941,0.3214273,286.8676,82.80484,159.7126,True
3,1.86667,-0.7005889,-0.1513548,-0.09325273,-1.468684,-4.58361,-1.673622,0.4605769,1.453347,0.4604168,-0.8580055,1.27856,11.61,76.97,-0.05428886,-0.03660417,0.7537116,-0.3409485,0.4096397,2.066407,0.7312829,1.529787,0.3959985,0.04194437,-0.1873969,-0.1009964,-1.157905,0.2226729,0.1798014,0.8496155,1.496643,0.2417576,0.189866,1.56583,0.3206946,286.17,75.29346,166.6469,True
3,1.877781,-0.6931003,-0.1843967,-0.09842013,-1.465379,-4.584542,-1.666074,0.460806,1.456075,0.4601805,-0.8435653,1.299849,11.43,76.04,-0.05101794,-0.009999216,0.7591293,-0.3444053,0.3858265,2.089293,0.7319355,1.530282,0.395648,0.04208533,-0.1969679,-0.0754234,-1.158326,0.2199768,0.1803975,0.8493969,1.496508,0.2415152,0.1897093,1.566449,0.3206663,285.7584,73.68382,168.0225,True
3,1.888893,-0.6845646,-0.207866,-0.1057651,-1.462218,-4.585598,-1.658502,0.4612748,1.458753,0.4599936,-0.8290389,1.307633,11.27,75.17,-0.04908448,-0.006715268,0.7356981,-0.3483409,0.3670639,2.107505,0.7326163,1.530626,0.3953953,0.03893104,-0.1926962,-0.06793533,-1.159025,0.2179632,0.1808324,0.8492161,1.496326,0.2414305,0.1896719,1.567057,0.3207268,285.3535,73.55316,168.0282,True
3,1.900004,-0.6749793,-0.2153535,-0.1142631,-1.459442,-4.586924,-1.651137,0.4616334,1.461387,0.4597623,-0.8147691,1.284257,11.11,74.36,-0.03966254,-0.001319855,0.7111576,-0.3521817,0.3486512,2.124698,0.7332838,1.531114,0.3949931,0.03247875,-0.1969683,-0.07961647,-1.160729,0.2156762,0.1816265,0.849016,1.49619,0.2411678,0.1891288,1.567527,0.3201598,284.8017,72.64922,168.5512,True
3,1.911115,-0.6622138,-0.2089353,-0.1132415,-1.457336,-4.587974,-1.643879,0.4621043,1.463926,0.4594047,-0.8008572,1.252044,10.72,72.14,-0.03333688,0.01682371,0.702655,-0.3555043,0.3291567,2.143244,0.7340375,1.531529,0.3946691,0.03562638,-0.1937692,-0.08921151,-1.162261,0.213836,0.1817661,0.8488364,1.496028,0.2409837,0.189812,1.568437,0.3200633,284.5179,86.39551,154.9481,True
3,1.922226,-0.6451722,-0.2025839,-0.1153795,-1.455275,-4.589161,-1.63711,0.462575,1.466496,0.4591784,-0.7874648,1.204989,10.36,70.06,-0.01315761,0.05413008,0.6866919,-0.3580812,0.3084938,2.161832,0.7347921,1.531934,0.3941951,0.05376642,-0.1926939,-0.08505372,-1.163485,0.2117015,0.1812875,0.8486671,1.495899,0.2406561,0.1891746,1.569291,0.3192785,283.7343,77.91158,163.0059,True
3,1.933337,-0.632416,-0.194045,-0.121863,-1.453169,-4.590685,-1.630226,0.4631504,1.468934,0.4586008,-0.7741511,1.198268,10.02,68.11,0.009155452,0.05303872,0.6822271,-0.3618064,0.2905748,2.177775,0.7354884,1.532298,0.3937116,0.06977277,-0.200135,-0.080878,-1.164711,0.2092548,0.1809511,0.8485351,1.495915,0.2402978,0.1890575,1.569946,0.3192301,283.2851,76.15109,164.6208,True
3,1.944448,-0.6271051,-0.1844655,-0.1251167,-1.451368,-4.5921,-1.6233,0.4636735,1.471417,0.4584277,-0.7614153,1.14553,9.7,66.3,0.01028717,0.05190989,0.6896752,-0.3661191,0.2717177,2.19519,0.7363542,1.532709,0.3931668,0.08041741,-0.2054609,-0.08306335,-1.166174,0.206757,0.1806939,0.8484029,1.495838,0.2399523,0.1886343,1.570485,0.318649,282.754,75.32005,165.2052,True
3,1.955559,-0.6292377,-0.1812986,-0.1293901,-1.449385,-4.593506,-1.616205,0.4642809,1.473624,0.4584975,-0.7482892,1.181798,8.99,65.22,0.02959895,0.03049654,0.7085922,-0.3714162,0.2532585,2.211439,0.7372445,1.533031,0.3927484,0.09638786,-0.2171604,-0.08632341,-1.167516,0.204147,0.1800997,0.8482276,1.495706,0.2394485,0.1886353,1.571119,0.3185392,282.28,75.27554,165.2344,True
3,1.966671,-0.6313785,-0.1663711,-0.1262768,-1.447948,-4.594765,-1.609059,0.4648919,1.475986,0.4585247,-0.7353808,1.161799,8.34,64.2,0.03808308,0.01766968,0.7063411,-0.3764485,0.2371316,2.225712,0.7379942,1.533353,0.3923469,0.104945,-0.2256589,-0.08209994,-1.168634,0.2016203,0.1795999,0.8481168,1.495619,0.2391107,0.1887016,1.571759,0.3185252,281.8135,75.37428,165.1596,True
3,1.977782,-0.6420421,-0.1503711,-0.1199537,-1.446767,-4.59586,-1.601437,0.4655013,1.478222,0.4584675,-0.7226248,1.148227,7.73,63.25,0.0624848,0.01663285,0.6944133,-0.3808022,0.221251,2.238919,0.7388957,1.533671,0.3919621,0.1166264,-0.2437688,-0.09067309,-1.170483,0.1983076,0.1792001,0.8480138,1.495518,0.2386272,0.1896167,1.572759,0.3185246,281.8563,93.708,146.7981,True
3,1.988893,-0.6484581,-0.1322583,-0.1168341,-1.445829,-4.597014,-1.593828,0.4662358,1.480544,0.4583421,-0.7101964,1.118533,7.16,62.36,0.07915741,0.01680315,0.6495396,-0.3842728,0.2088968,2.248956,0.7398789,1.533863,0.3915358,0.1239995,-0.2490828,-0.107754,-1.172695,0.1958387,0.1785096,0.8480096,1.49545,0.2381546,0.1889616,1.573682,0.3180569,280.8671,83.6838,156.386,True
3,2.000004,-0.6537858,-0.1311984,-0.1168335,-1.444405,-4.598303,-1.586253,0.4670596,1.482744,0.4583588,-0.6975703,1.136959,6.62,61.53,0.09821445,0.005110979,0.6365587,-0.3889504,0.1952479,2.259913,0.7409685,1.534012,0.3910146,0.1677138,-0.2618423,-0.1026539,-1.174212,0.1925017,0.1764328,0.8479657,1.495316,0.2376709,0.1887525,1.574374,0.3182525,280.3321,81.41257,158.3775,True
3,2.011115,-0.6623139,-0.1333516,-0.117865,-1.442775,-4.599556,-1.578396,0.4679406,1.485036,0.458487,-0.6856084,1.076194,5.67,60.72,0.1165178,-0.005674005,0.6608585,-0.3944339,0.1796233,2.272465,0.7420962,1.534159,0.3906102,0.1836521,-0.2767338,-0.1102009,-1.176359,0.1892959,0.1752429,0.8480467,1.495266,0.2370739,0.1883457,1.575024,0.3179294,279.7469,80.66939,158.8282,True
3,2.022226,-0.6804289,-0.1291124,-0.1178624,-1.441469,-4.600852,-1.570064,0.4688411,1.487068,0.4585474,-0.6740136,1.0435,4.78,59.96,0.1304045,-0.02275932,0.667062,-0.4000526,0.165679,2.283433,0.7432319,1.534237,0.3901393,0.2038123,-0.2969761,-0.1273412,-1.179022,0.1854085,0.173795,0.8481032,1.495158,0.2365406,0.1883354,1.57583,0.3179297,279.1636,81.22581,158.2376,True
3,2.033337,-0.7091966,-0.1248932,-0.117846,-1.440205,-4.602126,-1.561038,0.469856,1.489076,0.4588432,-0.6623255,1.052373,3.95,59.25,0.1537594,-0.06433064,0.6645334,-0.4063366,0.1554648,2.290395,0.7444082,1.534201,0.3898337,0.2133633,-0.2990842,-0.1338049,-1.181455,0.1825014,0.1722692,0.8481841,1.495061,0.2359154,0.1883954,1.576687,0.318033,278.5744,82.37317,157.0965,True
3,2.044448,-0.7518265,-0.1185925,-0.121005,-1.43886,-4.603487,-1.551069,0.4710408,1.490689,0.45802,-0.6506464,1.051547,3.17,58.58,0.1622313,-0.09203714,0.6611397,-0.4126248,0.1449007,2.298011,0.7454872,1.534265,0.3895535,0.2186731,-0.3065415,-0.1380912,-1.183729,0.1789192,0.1709944,0.8482298,1.494891,0.2353246,0.1894521,1.578028,0.3180846,278.921,105.0662,134.1861,True
3,2.055559,-0.8008491,-0.1369182,-0.151741,-1.436796,-4.606209,-1.540179,0.4720984,1.492535,0.4581428,-0.6389541,1.052968,2.11,57.95,0.1642616,-0.119697,0.6524712,-0.4189829,0.135777,2.304447,0.7466509,1.534127,0.3892365,0.2367251,-0.3427258,-0.1509794,-1.186873,0.1745039,0.169523,0.8483204,1.494688,0.234653,0.1889602,1.579188,0.3177685,277.634,96.45092,142.6076,True
3,2.06667,-0.8242323,-0.1646319,-0.1441129,-1.434001,-4.607533,-1.530407,0.4731729,1.494411,0.4581869,-0.6272336,1.05568,1.12,57.36,0.1717384,-0.1293336,0.6566415,-0.4253974,0.1248365,2.312331,0.7477373,1.534079,0.3888776,0.2474145,-0.3565232,-0.1446689,-1.189143,0.1708273,0.167904,0.8484069,1.494553,0.234041,0.1888571,1.580124,0.3179102,276.9198,95.18652,143.79,True
3,2.077781,-0.8423297,-0.1935028,-0.1609874,-1.431004,-4.610116,-1.520035,0.4741999,1.4964,0.4583225,-0.615905,1.019993,0.2,56.81,0.1907829,-0.1260821,0.6405174,-0.4308079,0.1152089,2.318296,0.7488495,1.533944,0.388628,0.2464249,-0.3597118,-0.1308127,-1.190803,0.1666221,0.166728,0.8484211,1.494379,0.2334507,0.1889801,1.581007,0.3177676,276.3964,97.86262,141.301,True
3,2.088892,-0.830548,-0.234978,-0.1458741,-1.427053,-4.611236,-1.510926,0.4752568,1.498493,0.4584873,-0.6076476,0.7413222,0,56.3,0.2085088,-0.1365423,0.5976993,-0.4354774,0.1090678,2.321078,0.7498224,1.533747,0.3882539,0.2443766,-0.3511822,-0.1148236,-1.192183,0.1629626,0.1654534,0.8481708,1.494125,0.2328377,0.1889753,1.582015,0.3175195,275.7759,102.2078,137.0306,False
3,2.100003,-0.8017183,-0.2550274,-0.1149088,-1.423756,-4.61178,-1.502823,0.476303,1.500521,0.4587839,-0.599484,0.7359121,0,55.82,0.2188825,-0.1406623,0.562437,-0.4403825,0.1029701,2.323694,0.7509487,1.53369,0.3880968,0.2476851,-0.349038,-0.09353623,-1.193138,0.1589361,0.1640449,0.8481654,1.493933,0.2322612,0.1658956,1.583728,0.3101614,277.5203,149.5672,92.94546,False
3,2.111114,-0.7889352,-0.2635543,-0.1202009,-1.42068,-4.613542,-1.494111,0.4773873,1.502384,0.4588013,-0.5937294,0.5161824,0,54.68,0.2316296,-0.1502373,0.5601439,-0.4458728,0.09564304,2.32739,0.7520151,1.533575,0.3878541,0.2446578,-0.353289,-0.06369181,-1.193599,0.1543864,0.16297,0.848115,1.493656,0.2317836,0.1661147,1.59206,0.31114,276.3704,148.2682,93.6722,False
3,2.122225,-0.7601705,-0.2742156,-0.1287079,-1.417454,-4.615696,-1.48637,0.4783758,1.504235,0.4589944,-0.5888707,0.4366435,0,53.62,0.2368766,-0.1587394,0.5525877,-0.4512918,0.08945678,2.330254,0.753051,1.533432,0.3876188,0.2415469,-0.3500854,-0.04769803,-1.194243,0.1504311,0.1618757,0.8481925,1.493448,0.2312341,0.1659925,1.598266,0.3106889,278.4059,146.0035,95.75255,False
3,2.133336,-0.7378098,-0.2656732,-0.127702,-1.414897,-4.617167,-1.478707,0.4794579,1.505973,0.4592178,-0.5833867,0.4947771,0,52.62,0.216529,-0.1597246,0.5399684,-0.4564504,0.08310008,2.334238,0.7540351,1.533509,0.3872728,0.2223068,-0.3501035,-0.05930009,-1.195751,0.1464539,0.1615458,0.848127,1.49325,0.2306869,0.1658324,1.593328,0.3100682,275.3478,173.5285,67.49985,False
3,2.144447,-0.7260678,-0.2677049,-0.1117361,-1.412006,-4.618185,-1.470917,0.4803472,1.507838,0.4594092,-0.5798863,0.3133654,0,51.68,0.2080901,-0.148033,0.5486258,-0.4617719,0.07448955,2.339947,0.7550632,1.533492,0.3868437,0.2008584,-0.3416096,-0.08475872,-1.198127,0.143043,0.1613271,0.848222,1.493023,0.2301247,0.1597618,1.586941,0.3070218,279.2288,188.2319,54.40599,False
3,2.155558,-0.7015577,-0.2591006,-0.09901633,-1.409509,-4.618925,-1.463983,0.4811618,1.509603,0.4595814,-0.5760705,0.3441089,0,50.7,0.1922858,-0.09908417,0.5639023,-0.4661166,0.06301745,2.34864,0.7559158,1.533605,0.3864298,0.1654874,-0.3235495,-0.1239919,-1.201218,0.1402666,0.1616419,0.8482686,1.492934,0.229615,0.1597299,1.593838,0.3078641,277.631,178.587,63.78909,False
3,2.166669,-0.6823795,-0.2473894,-0.09805135,-1.407142,-4.62018,-1.456962,0.4819931,1.51156,0.4598799,-0.5724779,0.3236078,0,49.78,0.1784306,-0.05217546,0.5589032,-0.4695824,0.05248851,2.356606,0.7568048,1.533667,0.3861001,0.1483663,-0.3182474,-0.1366875,-1.203568,0.1368895,0.1617412,0.8484845,1.492762,0.2291484,0.1546742,1.589775,0.3064912,279.137,199.7875,42.85614,False
3,2.17778,-0.6462002,-0.2314195,-0.1066897,-1.405261,-4.621802,-1.450656,0.483025,1.513336,0.4599857,-0.5703325,0.1917799,0,48.92,0.1741313,-0.02017257,0.5505663,-0.4730733,0.04203334,2.364161,0.7575924,1.533757,0.3856952,0.1366553,-0.3097293,-0.1344994,-1.205511,0.1338099,0.1617183,0.848561,1.49266,0.2286491,0.1551613,1.585271,0.3072954,282.1452,203.9722,38.68784,False
3,2.188891,-0.6280845,-0.240042,-0.1226507,-1.402268,-4.6239,-1.443906,0.4840757,1.514986,0.4600096,-0.5678563,0.223413,0,48.11,0.1560081,-0.02549008,0.5507029,-0.4780124,0.03362827,2.370493,0.7583656,1.53363,0.3852282,0.1304055,-0.3065321,-0.1078285,-1.206306,0.1301387,0.1616893,0.8486346,1.492612,0.2281942,0.1471525,1.591273,0.306566,279.4401,202.479,41.86442,False
3,2.200002,-0.6089706,-0.2327599,-0.1621322,-1.400269,-4.627238,-1.437213,0.4850436,1.516703,0.4600215,-0.5663718,0.1325166,0,47.36,0.1388887,-0.06060517,0.5442996,-0.4836806,0.02751791,2.374774,0.7591456,1.533713,0.3848202,0.1230591,-0.3001313,-0.08648691,-1.207049,0.1269016,0.1617247,0.8486835,1.492525,0.2277055,0.1479118,1.587563,0.3076811,282.9952,213.8678,29.71457,False
3,2.211113,-0.6025774,-0.2284972,-0.1589729,-1.397995,-4.629128,-1.430451,0.4860333,1.518441,0.4600959,-0.5641076,0.2048293,0,45.78,0.1271319,-0.07441747,0.5432568,-0.4885505,0.0208427,2.379835,0.7598665,1.533783,0.3844814,0.1019065,-0.280966,-0.05551741,-1.207397,0.1240755,0.1623191,0.8489861,1.492621,0.2272117,0.1482726,1.586884,0.3073311,281.9638,228.7741,13.30547,False
3,2.222224,-0.5940691,-0.2242575,-0.1653972,-1.395975,-4.631514,-1.42375,0.4868534,1.520139,0.4601252,-0.5626056,0.1345555,0,44.3,0.1068057,-0.07005528,0.5317292,-0.4928403,0.01329104,2.386011,0.7605591,1.534031,0.3841469,0.08694428,-0.2532825,-0.06184754,-1.208637,0.12218,0.1625154,0.8490728,1.49247,0.2266879,0.146104,1.594105,0.3065061,280.0328,224.324,18.58704,False
3,2.233335,-0.5642453,-0.236101,-0.1888075,-1.39094,-4.63694,-1.411039,0.4885064,1.523623,0.4601936,-0.5608431,0.1592491,0,42.92,0.0807597,-0.0729382,0.474411,-0.5003754,0.002721884,2.394185,0.761606,1.534395,0.3832562,0.06867459,-0.2309603,-0.08948082,-1.212414,0.1176582,0.1629799,0.849482,1.492244,0.2258103,0.145883,1.597579,0.306566,278.3044,223.992,18.84792,False
3,2.244446,-0.5322708,-0.2466905,-0.1845366,-1.38819,-4.639326,-1.405629,0.489251,1.525268,0.4602318,-0.5538645,0.6360894,0,41.62,0.07103485,-0.07711557,0.4584924,-0.5044405,-0.002253434,2.398082,0.7619985,1.534675,0.3828661,0.03870729,-0.2054388,-0.1117389,-1.215089,0.1162217,0.1640595,0.8496722,1.492234,0.2254057,0.1452704,1.592408,0.3068655,284.4421,227.2603,15.52332,False
3,2.255557,-0.5152175,-0.2498629,-0.180266,-1.385553,-4.641466,-1.399931,0.4899516,1.526987,0.460218,-0.5590242,-0.4775071,0,40.34,0.05911994,-0.06845799,0.4330682,-0.5077215,-0.007339139,2.402166,0.7623744,1.534785,0.3823366,0.03123505,-0.1926594,-0.1127715,-1.216586,0.114605,0.1645221,0.8498069,1.492147,0.2249143,0.1463478,1.591644,0.3068635,285.7853,247.1209,354.0972,False
3,2.266668,-0.4928132,-0.2721968,-0.1791141,-1.382183,-4.644074,-1.394741,0.4904865,1.528552,0.4602702,-0.5597262,-0.0599817,0,39.14,0.02990699,-0.04046452,0.3759133,-0.5090569,-0.01116024,2.406141,0.7625375,1.534931,0.3818948,0.03454378,-0.177731,-0.09042613,-1.217107,0.1130761,0.1645719,0.8499233,1.492074,0.2244582,0.146053,1.591886,0.3068694,285.7068,249.5009,350.6177,False
3,2.277779,-0.4672164,-0.2849333,-0.1737593,-1.378836,-4.646435,-1.389813,0.4910383,1.530049,0.4602461,-0.5585101,0.1105538,0,38.02,0.009353995,-0.009346217,0.3346815,-0.5101131,-0.01606126,2.411028,0.7628443,1.535045,0.3814425,0.02611192,-0.1788155,-0.07333922,-1.217794,0.110555,0.1653722,0.8496859,1.492,0.2240434,0.1470481,1.598774,0.3054839,284.5417,237.3811,4.160954,False
3,2.28889,-0.430991,-0.284858,-0.1695484,-1.376071,-4.648821,-1.385636,0.4916266,1.531416,0.4601588,-0.5581341,0.03279961,0,36.96,-0.001424521,0.02377713,0.3157488,-0.5111852,-0.02212847,2.416769,0.7631629,1.535205,0.3809581,0.02279811,-0.1703069,-0.09463264,-1.219786,0.1091873,0.1657203,0.8497058,1.49192,0.2235141,0.1469033,1.597734,0.3044065,288.7841,235.5262,6.872545,False
3,2.300001,-0.40012,-0.2730652,-0.1643144,-1.373834,-4.650948,-1.381622,0.4923525,1.532753,0.4600482,-0.5575754,0.05034788,0,35.28,0.0189687,0.0321885,0.3347911,-0.5141706,-0.02903125,2.421926,0.7635181,1.535162,0.3803434,0.0375732,-0.1575515,-0.1192263,-1.22237,0.1079243,0.1652175,0.8496178,1.491949,0.2229602,0.1473197,1.595986,0.3044096,288.8069,247.7547,353.4565,False
3,2.311112,-0.3660619,-0.254929,-0.1687126,-1.372009,-4.653422,-1.378244,0.4930032,1.533901,0.4599257,-0.5575653,7.636385E-06,0,33.71,0.05669188,0.004195631,0.3907996,-0.5193015,-0.0358094,2.425975,0.7638518,1.535067,0.3798697,0.05696437,-0.1596493,-0.07991325,-1.222267,0.1059128,0.1645647,0.8495391,1.491933,0.2224183,0.1468748,1.595247,0.3047908,288.2952,249.489,350.0817,False
3,2.322223,-0.3660619,-0.254929,-0.1687126,-1.372009,-4.653422,-1.378244,0.4930032,1.533901,0.4599257,-0.5570156,0.04984709,0,32.24,0.05669188,0.004195631,0.3907996,-0.5193015,-0.0358094,2.425975,0.7638518,1.535067,0.3798697,0.05696437,-0.1596493,-0.07991325,-1.222267,0.1059128,0.1645647,0.8495391,1.491933,0.2224183,0.1468577,1.595606,0.3048566,288.5137,249.662,349.7021,False
3,2.333334,-0.3490306,-0.2219652,-0.1731399,-1.368412,-4.657647,-1.370034,0.4941326,1.536327,0.4602666,-0.5598199,-0.2573883,0,30.86,0.04913843,-0.05756062,0.3863098,-0.5277762,-0.04259992,2.430767,0.7646155,1.535018,0.3787525,0.09023048,-0.1468507,-0.03536311,-1.222227,0.102343,0.1626632,0.8495135,1.491893,0.2214408,0.1468721,1.596111,0.304838,288.835,249.2116,350.1617,False
3,2.344445,-0.3565735,-0.1633774,-0.1713019,-1.368875,-4.659467,-1.365449,0.4946122,1.537015,0.4603183,-0.5529692,0.6281689,0,29.58,0.04362935,-0.05425534,0.3639988,-0.5306455,-0.04614006,2.433537,0.764913,1.535028,0.3782582,0.09447614,-0.1543175,-0.03751684,-1.223229,0.1002358,0.1623309,0.8495111,1.491724,0.2208774,0.14688,1.596418,0.3048499,289.057,249.0778,350.2516,False
3,2.355556,-0.365148,-0.1325067,-0.1703757,-1.368493,-4.661339,-1.360722,0.4951936,1.537796,0.4600055,-0.5545362,-0.1492334,0,27.97,0.04976413,-0.0413484,0.3330971,-0.5326018,-0.04922933,2.435501,0.7651919,1.535,0.3776977,0.09978682,-0.1564475,-0.04074049,-1.224111,0.09842324,0.161672,0.8494981,1.49166,0.2202754,0.1469218,1.597226,0.3048909,289.6574,249.3325,349.8393,False
3,2.366668,-0.3726584,-0.08880892,-0.1620703,-1.36908,-4.662724,-1.356107,0.4958197,1.538494,0.4599817,-0.5540744,0.04394163,0,26.47,0.07924521,0.0003966391,0.2851228,-0.5330216,-0.05361569,2.437339,0.7655911,1.535044,0.3773131,0.1082057,-0.1543315,-0.05889994,-1.225671,0.09682202,0.1607764,0.8494753,1.49154,0.2196062,0.1469448,1.597926,0.3049244,290.2148,249.5825,349.417,False
3,2.377779,-0.3673464,-0.06964891,-0.1579196,-1.368835,-4.664256,-1.351854,0.4965473,1.539245,0.4601159,-0.5536067,0.04207242,0,25.06,0.1120649,0.017528,0.2604054,-0.5338738,-0.05709098,2.438191,0.7659994,1.534965,0.3769543,0.1134549,-0.1447648,-0.07382621,-1.226934,0.09544676,0.1597497,0.8492435,1.491567,0.2190588,0.1469619,1.598411,0.3049196,290.6297,249.7959,349.1045,False
3,2.38889,-0.355671,-0.01844935,-0.1401103,-1.370052,-4.66486,-1.348248,0.497468,1.539889,0.4603114,-0.5533655,0.02156722,0,23.74,0.1555271,-0.01010729,0.2375436,-0.5359319,-0.05785398,2.435528,0.7666858,1.534817,0.3766439,0.1411863,-0.1575332,-0.06864075,-1.227862,0.09324513,0.1579438,0.8492508,1.491453,0.2184546,0.1469214,1.604782,0.3045649,288.8517,244.7491,356.1756,False
3,2.400001,-0.3567443,-0.005643234,-0.1316548,-1.37041,-4.665918,-1.344052,0.4982559,1.540597,0.4604106,-0.5535519,-0.01730494,0,22.25,0.1736181,-0.07942931,0.2455718,-0.540341,-0.05600228,2.431691,0.7675076,1.53475,0.3762681,0.1581754,-0.1927118,-0.08043746,-1.229784,0.0896392,0.1568852,0.8493124,1.491558,0.2178636,0.1473269,1.602951,0.304239,292.5193,243.9393,357.3323,False
3,2.411112,-0.371658,0.0061244,-0.1157268,-1.370877,-4.666623,-1.339275,0.499145,1.541146,0.4605846,-0.5538395,-0.02630924,0,20.86,0.1907986,-0.127489,0.2675757,-0.5452705,-0.0560903,2.429005,0.7683002,1.534573,0.3759277,0.159182,-0.2161557,-0.09321231,-1.231762,0.08647937,0.1561382,0.849349,1.491432,0.2172658,0.1485207,1.608188,0.3047898,290.1625,242.7523,357.7989,False
3,2.422223,-0.388709,0.01356909,-0.1125427,-1.371501,-4.667632,-1.334243,0.4998908,1.541844,0.460736,-0.5531721,0.06111182,0,19.56,0.2305827,-0.1735911,0.3192119,-0.5514714,-0.05738926,2.426404,0.7692288,1.534461,0.375603,0.1910185,-0.2023125,-0.1125928,-1.234234,0.08490717,0.1536721,0.8495734,1.491177,0.216713,0.1485716,1.611899,0.304188,288.9102,241.0572,359.0371,False
3,2.433334,-0.3908276,0.007155426,-0.1135736,-1.371517,-4.668976,-1.329535,0.5007588,1.542502,0.4608636,-0.5523023,0.07887419,0,18.34,0.2572958,-0.1672803,0.3286068,-0.5554422,-0.05996333,2.424892,0.7699943,1.534027,0.375036,0.1972785,-0.1863434,-0.1360732,-1.236721,0.08371274,0.1515919,0.8496468,1.490987,0.2161386,0.1464669,1.606342,0.3033845,293.2684,241.4912,357.7269,False
3,2.444445,-0.3854842,-0.005658522,-0.1199065,-1.371327,-4.670647,-1.325144,0.5017436,1.543253,0.4610014,-0.5519614,0.03047935,0,17.2,0.285881,-0.1160426,0.300916,-0.5570118,-0.0636654,2.423845,0.7709552,1.533664,0.3747065,0.2024842,-0.1884906,-0.1574237,-1.23977,0.08182416,0.1498675,0.8498388,1.490738,0.2155228,0.1467206,1.603596,0.3031521,294.8041,254.9697,342.5768,False
3,2.455556,-0.3854842,-0.005658522,-0.1199065,-1.371327,-4.670647,-1.325144,0.5017436,1.543253,0.4610014,-0.552305,-0.03162493,0,16.14,0.285881,-0.1160426,0.300916,-0.5570118,-0.0636654,2.423845,0.7709552,1.533664,0.3747065,0.2024842,-0.1884906,-0.1574237,-1.23977,0.08182416,0.1498675,0.8498388,1.490738,0.2155228,0.1467501,1.602907,0.3020214,295.1453,258.7831,339.2256,False
3,2.466667,-0.3662639,-0.0387091,-0.1304123,-1.370228,-4.67282,-1.321314,0.5029114,1.543933,0.461123,-0.5566236,-0.3946134,0,15.07,0.2911097,-0.1159987,0.2902473,-0.560311,-0.06570125,2.422369,0.7718791,1.533395,0.3743758,0.2227688,-0.2140453,-0.1479509,-1.241428,0.07847217,0.1477303,0.8499445,1.490535,0.2149072,0.1467625,1.603554,0.3012616,294.9467,253.4864,345.9606,False
3,2.477778,-0.3480905,-0.08348517,-0.1419156,-1.368289,-4.675335,-1.317561,0.5041564,1.544615,0.4611914,-0.5527396,0.3582341,0,14.07,0.2877835,-0.1330486,0.2794995,-0.5636762,-0.06453571,2.418465,0.7730013,1.533059,0.3740647,0.2441173,-0.242814,-0.1448194,-1.243405,0.07469901,0.1456677,0.8501086,1.490244,0.2142246,0.1467481,1.60395,0.3014629,295.238,252.9778,346.3121,False
3,2.488889,-0.3374032,-0.1112058,-0.1502968,-1.366781,-4.677683,-1.313648,0.5053127,1.545179,0.4613037,-0.5526932,0.0006210541,0,13.13,0.2814009,-0.1416733,0.2869444,-0.5677135,-0.06462893,2.416017,0.7742302,1.532624,0.3735819,0.2494823,-0.2609521,-0.1416691,-1.245801,0.0709016,0.1437793,0.8506143,1.48995,0.2135181,0.1467337,1.604251,0.3016405,295.5584,253.6211,345.3526,False
3,2.5,-0.3351654,-0.1547728,-0.1276949,-1.362651,-4.681014,-1.305736,0.5079629,1.545946,0.4617319,-0.5527955,-0.009115255,0,12.25,0.276174,-0.1417873,0.3008099,-0.5751213,-0.06778876,2.412794,0.7760812,1.531549,0.372968,0.2792889,-0.2971693,-0.1481821,-1.249995,0.06339549,0.1392844,0.8506589,1.489161,0.2123308,0.1466277,1.604361,0.3041616,298.0041,265.558,329.0319,False
3,2.511111,-0.3532802,-0.1483988,-0.1245136,-1.361635,-4.682627,-1.300892,0.5092006,1.546235,0.4619472,-0.5492924,0.3203992,0,11.64,0.2856508,-0.1438507,0.2858276,-0.5783864,-0.06917241,2.410321,0.7772084,1.530984,0.372752,0.288756,-0.297179,-0.1706047,-1.253085,0.060368,0.136712,0.8509015,1.488779,0.211787,0.1490739,1.61045,0.3006961,295.6496,257.7306,338.495,False
3,2.522222,-0.3650036,-0.1484137,-0.1234232,-1.360422,-4.684335,-1.295958,0.5104926,1.546512,0.4621518,-0.5519204,-0.2429817,0,11.07,0.2971592,-0.1565132,0.2611416,-0.5810895,-0.06858891,2.40611,0.7780559,1.530332,0.3726645,0.2748236,-0.2886736,-0.1854362,-1.255926,0.05770418,0.1349972,0.8509891,1.488327,0.2113724,0.1487446,1.606333,0.2990778,297.147,258.6614,337.8337,False
3,2.533333,-0.3767303,-0.1324047,-0.1117872,-1.359595,-4.685548,-1.291078,0.5118776,1.546483,0.4623048,-0.551742,0.0187816,0,10.54,0.3012061,-0.1659653,0.2344534,-0.5840882,-0.0682977,2.40222,0.7792147,1.529834,0.3724482,0.2599268,-0.2737633,-0.1811041,-1.258099,0.0553028,0.1333541,0.8513129,1.488047,0.2110209,0.1502933,1.61103,0.2967852,293.667,249.0303,349.069,False
3,2.544444,-0.3735483,-0.1217258,-0.1086421,-1.358979,-4.686856,-1.286769,0.5131904,1.546654,0.4624159,-0.5516472,0.00827838,0,10.05,0.3125259,-0.1871237,0.1926712,-0.5864621,-0.06406487,2.395133,0.7806292,1.529441,0.3722696,0.2472861,-0.2865415,-0.1554526,-1.259354,0.05151712,0.1321751,0.851647,1.487684,0.2104621,0.1517386,1.615735,0.2983031,291.7921,249.8252,347.1448,False
3,2.555555,-0.3735483,-0.1217258,-0.1086421,-1.358979,-4.686856,-1.286769,0.5131904,1.546654,0.4624159,-0.5516354,0.001074654,0,9.58,0.3125259,-0.1871237,0.1926712,-0.5864621,-0.06406487,2.395133,0.7806292,1.529441,0.3722696,0.2472861,-0.2865415,-0.1554526,-1.259354,0.05151712,0.1321751,0.851647,1.487684,0.2104621,0.1522527,1.616217,0.2961578,292.0828,245.6446,352.8736,False
3,2.566666,-0.3448595,-0.07691413,-0.1046554,-1.359877,-4.687776,-1.283657,0.5145892,1.546655,0.4625978,-0.5561596,-0.4137196,0,9.48,0.3124217,-0.1913279,0.1830893,-0.5894545,-0.06359962,2.391593,0.7817866,1.5289,0.3721554,0.230396,-0.3195823,-0.1265902,-1.260678,0.04627082,0.1318571,0.8523226,1.487575,0.2098022,0.1489785,1.612092,0.2980796,296.105,250.8431,345.5165,False
3,2.577777,-0.3108804,-0.009708427,-0.09865466,-1.36223,-4.688031,-1.28129,0.5158255,1.546687,0.4627652,-0.5523897,0.3480709,0,9.38,0.2965676,-0.1626081,0.1950804,-0.5919589,-0.06567635,2.390504,0.782921,1.528536,0.3718839,0.2123089,-0.3185213,-0.122232,-1.26232,0.04274094,0.1311623,0.8527539,1.487235,0.2092001,0.1494673,1.609895,0.2946554,297.8721,242.5044,356.0243,False
3,2.588888,-0.2885926,0.03613384,-0.098916,-1.364331,-4.688515,-1.278687,0.5171703,1.54676,0.4629877,-0.5528376,-0.04448505,0,9.29,0.2667942,-0.1232191,0.1986942,-0.5937853,-0.06751406,2.390171,0.7841382,1.528258,0.3716025,0.2047927,-0.3121616,-0.1296699,-1.264773,0.03944967,0.1302597,0.8532869,1.486963,0.2085848,0.1495195,1.607305,0.2951608,297.2371,249.5199,347.7581,False
3,2.599999,-0.2492978,0.1086672,-0.09401602,-1.367976,-4.688287,-1.277315,0.5182863,1.546898,0.4631946,-0.5534347,-0.05395302,0,9.21,0.2487937,-0.1019486,0.2096007,-0.5959899,-0.0702498,2.390336,0.785224,1.527876,0.3713086,0.1940971,-0.3057784,-0.1370732,-1.266924,0.03644323,0.129428,0.8537434,1.486591,0.2081201,0.1493992,1.606997,0.2950071,298.2269,256.3865,339.7099,False
3,2.61111,-0.2227197,0.134224,-0.1037658,-1.372029,-4.689658,-1.272889,0.5206054,1.54729,0.4634933,-0.5531545,0.02591853,0,9.35,0.2149243,-0.09561859,0.2344353,-0.6017503,-0.07595935,2.391225,0.7872348,1.527197,0.3708062,0.1758168,-0.2759879,-0.1646997,-1.271965,0.03143103,0.1276831,0.8547409,1.485861,0.2073128,0.151064,1.612209,0.2944465,295.6556,252.3255,344.0962,False
3,2.622221,-0.2077687,0.1011246,-0.1227815,-1.372589,-4.691545,-1.270696,0.5218713,1.54749,0.463572,-0.5520142,0.1039105,0,9.48,0.2199612,-0.1050584,0.2012932,-0.6033466,-0.07473855,2.38772,0.7883797,1.526854,0.3706338,0.1778834,-0.2749303,-0.1753655,-1.274618,0.0286166,0.1265188,0.8551177,1.48542,0.2069037,0.1525584,1.6164,0.2923713,293.8772,249.2474,347.4663,False
3,2.633332,-0.2077687,0.1011246,-0.1227815,-1.372589,-4.691545,-1.270696,0.5218713,1.54749,0.463572,-0.553219,-0.1110685,0,9.6,0.2199612,-0.1050584,0.2012932,-0.6033466,-0.07473855,2.38772,0.7883797,1.526854,0.3706338,0.1778834,-0.2749303,-0.1753655,-1.274618,0.0286166,0.1265188,0.8551177,1.48542,0.2069037,0.1542805,1.620329,0.2936818,291.8105,249.3241,346.6806,False
3,2.644443,-0.1992098,0.0701528,-0.1396774,-1.372859,-4.69373,-1.26834,0.523151,1.547682,0.4636099,-0.5552712,-0.1867161,0,9.72,0.2251507,-0.1060299,0.1852878,-0.6052838,-0.07560288,2.385851,0.789469,1.526442,0.3703887,0.1693708,-0.2813388,-0.1731928,-1.27693,0.02520908,0.1259337,0.8556271,1.485076,0.2065558,0.1540077,1.620127,0.2914703,298.1957,237.1948,1.086274,False
3,2.655554,-0.1885125,0.03276461,-0.1618602,-1.372664,-4.696389,-1.266133,0.524516,1.54777,0.4636669,-0.5533867,0.1735648,0,9.82,0.2260306,-0.126189,0.1659758,-0.6073834,-0.07376703,2.381905,0.7906156,1.52615,0.3703053,0.1512776,-0.2792124,-0.1699001,-1.279065,0.02233167,0.1256996,0.8561169,1.4847,0.2060983,0.1574841,1.625535,0.2927452,289.7074,237.8791,0.9464856,False
3,2.666665,-0.1660494,-0.02800414,-0.1786112,-1.371924,-4.701329,-1.262168,0.5270613,1.548213,0.4641211,-0.5528307,0.04904512,0,10.14,0.1930213,-0.1218943,0.1673152,-0.6117521,-0.07463815,2.379195,0.7926143,1.52531,0.3697901,0.1493945,-0.2727966,-0.1230212,-1.281387,0.01638084,0.1242586,0.8570311,1.483895,0.2051954,0.1639967,1.63857,0.2974032,290.4272,219.3529,22.65941,False
3,2.677776,-0.1596239,-0.04500732,-0.1721334,-1.371449,-4.703201,-1.260143,0.528352,1.54845,0.4643624,-0.5515795,0.1140775,0,10.44,0.1837006,-0.09858897,0.1962605,-0.6141052,-0.07789493,2.380008,0.7935553,1.524859,0.369503,0.1558766,-0.2674581,-0.106022,-1.282473,0.01354777,0.1230546,0.8574634,1.483451,0.2047827,0.1618592,1.634382,0.297921,292.9073,221.9891,18.80591,False
3,2.688887,-0.1606199,-0.08013551,-0.166621,-1.369918,-4.705484,-1.257847,0.5295367,1.548819,0.4647112,-0.5528536,-0.1174535,0,10.72,0.1902438,-0.09442559,0.2143393,-0.6169181,-0.08034837,2.379663,0.7945586,1.524493,0.3693051,0.149537,-0.2674542,-0.09639984,-1.2836,0.01053653,0.1224482,0.8579507,1.483011,0.2044475,0.1603293,1.634228,0.2998044,292.8148,227.7008,12.0312,False
3,2.699998,-0.1658735,-0.1227793,-0.1706518,-1.367917,-4.708353,-1.255239,0.5306849,1.549145,0.4650249,-0.5529079,-0.003924238,0,10.98,0.1966852,-0.09124355,0.2185638,-0.6193229,-0.08235466,2.378679,0.7954171,1.524068,0.3691244,0.1463664,-0.2653207,-0.09212244,-1.284894,0.007657786,0.1217168,0.8583645,1.482598,0.2042015,0.1599057,1.633435,0.3003942,292.7529,225.2216,13.67064,False
3,2.711109,-0.1647693,-0.1526705,-0.1822144,-1.366076,-4.711592,-1.252757,0.5318066,1.549441,0.4652531,-0.5526081,0.027272,0,11.3,0.1859068,-0.101809,0.2026307,-0.6217368,-0.08267597,2.377018,0.7962712,1.523824,0.3691235,0.1185758,-0.2461646,-0.1079632,-1.286927,0.005766942,0.1219227,0.8588961,1.482144,0.2039278,0.1575433,1.630218,0.3027464,290.5138,243.5301,353.987,False
3,2.72222,-0.1679637,-0.1612375,-0.1896288,-1.364873,1.568555,-1.250059,0.5329521,1.549681,0.4655759,-0.5523093,0.0270048,0,11.6,0.1793229,-0.1176642,0.1802133,-0.6237395,-0.08177289,2.374428,0.7970269,1.523606,0.3691258,0.08433126,-0.2184997,-0.1344132,-1.289384,0.004420581,0.1225494,0.8593678,1.481677,0.2037423,0.1579275,1.632033,0.3011346,291.2152,235.4347,2.701563,False
3,2.733331,-0.1679637,-0.1612375,-0.1896288,-1.364873,1.568555,-1.250059,0.5329521,1.549681,0.4655759,-0.5524328,-0.01152259,0,11.88,0.1793229,-0.1176642,0.1802133,-0.6237395,-0.08177289,2.374428,0.7970269,1.523606,0.3691258,0.08433126,-0.2184997,-0.1344132,-1.289384,0.004420581,0.1225494,0.8593678,1.481677,0.2037423,0.1579395,1.632867,0.3005439,291.743,232.9688,5.331763,False
3,2.744442,-0.1626503,-0.1516095,-0.1832912,-1.364174,1.566375,-1.247902,0.5339725,1.549913,0.4659202,-0.5541708,-0.1588541,0,12.14,0.1575486,-0.1152019,0.1218169,-0.6242226,-0.08015756,2.371967,0.7976695,1.523371,0.3689613,0.08104634,-0.2099871,-0.1493257,-1.291907,0.002511228,0.1222308,0.8600115,1.481375,0.2034893,0.1579842,1.633388,0.3000469,292.3426,230.3692,8.048442,False
3,2.755553,-0.1605361,-0.1398651,-0.1790939,-1.363667,1.56421,-1.245747,0.5348802,1.550212,0.4662762,-0.5521399,0.1869194,0,12.38,0.117809,-0.1021701,0.08065759,-0.6244324,-0.07873715,2.370752,0.7982663,1.523299,0.3689034,0.04479638,-0.2057413,-0.154458,-1.294073,0.0005261074,0.1234341,0.8605783,1.481039,0.2033305,0.1582,1.633462,0.2993297,292.7936,227.5081,11.28123,False
3,2.766664,-0.1488514,-0.1131445,-0.1664638,-1.363808,1.562746,-1.244168,0.535737,1.550535,0.4666111,-0.5521718,-0.004717441,0,12.57,0.09436485,-0.09039509,0.07665352,-0.6254631,-0.07933517,2.370716,0.7989814,1.523125,0.3687081,0.02982153,-0.1833765,-0.1650347,-1.296206,-0.0005539375,0.1237875,0.8610232,1.480802,0.2031608,0.158705,1.633652,0.2978678,294.0518,220.3533,18.98525,False
3,2.777775,-0.128635,-0.08851126,-0.1485056,-1.364029,1.561716,-1.243222,0.5364811,1.550976,0.4669151,-0.552182,-0.000757503,0,12.75,0.08177901,-0.07558162,0.09920304,-0.6270269,-0.08107474,2.371664,0.7995988,1.523087,0.3685691,0.006269291,-0.1482417,-0.1841047,-1.29893,-0.0006957508,0.1245393,0.8615533,1.480587,0.2029829,0.1582947,1.634254,0.2978,293.9723,223.6727,15.74228,False
3,2.788886,-0.1201106,-0.0841676,-0.136824,-1.36369,1.560275,-1.241778,0.537347,1.551391,0.4672792,-0.5525766,-0.03609484,0,12.91,0.0799156,-0.06614392,0.1312234,-0.6291106,-0.08372592,2.372926,0.8003479,1.522849,0.3683436,0.006317288,-0.1258626,-0.1734707,-1.3006,-0.00118231,0.1245286,0.8621128,1.480398,0.2028461,0.1585132,1.634125,0.2973917,294.2893,221.4422,18.18183,False
3,2.799997,-0.10522,-0.0691981,-0.1315911,-1.36358,1.557286,-1.23932,0.5386936,1.552473,0.4675951,-0.5530901,-0.04667185,0,13.07,0.04650861,-0.09209394,0.216582,-0.6361504,-0.08897235,2.376903,0.8014709,1.522924,0.368154,-0.0009229034,-0.09602383,-0.1297878,-1.302502,-0.002563958,0.1251137,0.863139,1.480125,0.2026753,0.1586886,1.633798,0.2984022,294.4859,217.4106,21.021,False
