loc,t,aDotUA,bDotUA,gDotUA,aUA,bUA,gUA,xUA,yUA,zUA,qE,qDotE,emgA,emgB,aDotSH,bDotSH,gDotSH,aSH,bSH,gSH,xSH,ySH,zSH,aDotUB,bDotUB,gDotUB,aUB,bUB,gUB,xUB,yUB,zUB,xHand,yHand,zHand,aHand,bHand,gHand,enable
3,0,-0.1146691,-1.64704,0.04312189,-1.540827,-4.306792,-3.04923,0.6528037,1.244269,0.4658415,-1.341899,0.07030898,2.4,0.1,-0.3058103,0.08395576,0.2687609,-0.6846268,-4.152473,-0.5013247,0.6651627,1.503913,0.3886883,-0.1961306,0.09976026,-0.2191542,-0.9392031,0.2252338,-0.09132618,0.746072,1.587363,0.2081661,0.4280999,1.088371,0.2857484,303.533,256.4965,340.8236,True
3,0.01111111,-0.1669012,-1.648399,0.01226845,-1.538146,-4.288637,-3.0463,0.6499292,1.244997,0.4656074,-1.341549,0.03150037,2.4,0.1,-0.3323401,0.09033787,0.2807238,-0.6821468,-4.147953,-0.5001776,0.664714,1.504668,0.388746,-0.1981625,0.09341833,-0.2052819,-0.9410855,0.2263252,-0.08984627,0.7463521,1.587198,0.2081714,0.4278739,1.089091,0.2828358,303.4107,255.6674,340.7505,True
3,0.02222222,-0.1924919,-1.64213,0.001568988,-1.536008,-4.27072,-3.044091,0.6470898,1.245786,0.4655638,-1.341842,-0.02675756,2.4,0.1,-0.3503413,0.09669098,0.2926294,-0.6796334,-4.143338,-0.4993528,0.6643201,1.505321,0.3887877,-0.2002922,0.09981813,-0.2095307,-0.9436544,0.2277075,-0.0883533,0.7466596,1.586939,0.2084095,0.4281017,1.090039,0.27864,303.3254,254.3952,340.8052,True
3,0.03333334,-0.2372969,-1.622061,-0.01127704,-1.533686,-4.253533,-3.040572,0.6441551,1.246652,0.4654307,-1.340907,0.08595333,2.4,0.1,-0.3693386,0.08905384,0.3204007,-0.6760179,-4.138804,-0.498107,0.6640091,1.505983,0.3887775,-0.2123102,0.09135707,-0.2360521,-0.9474766,0.2285312,-0.08601478,0.7469361,1.586929,0.2085285,0.4287247,1.091193,0.2734968,303.1806,252.8951,340.769,True
3,0.04444445,-0.2693229,-1.612572,-0.01664148,-1.531421,-4.236277,-3.037135,0.6413009,1.247474,0.4651849,-1.341811,-0.08316553,2.3,0,-0.3693078,0.06976613,0.3330136,-0.6725345,-4.13568,-0.4966185,0.6637066,1.506599,0.3887503,-0.2103689,0.07854584,-0.2477719,-0.9506297,0.2287077,-0.08387014,0.7473364,1.586717,0.2087023,0.4295931,1.092555,0.2677791,303.0288,251.2768,340.634,True
3,0.05555556,-0.3450582,-1.577711,-0.03911987,-1.528365,-4.220191,-3.031396,0.6385217,1.248396,0.464896,-1.340926,0.08190849,2.3,0,-0.356685,0.01002339,0.3377236,-0.6681035,-4.135423,-0.4933077,0.6636085,1.507256,0.3887613,-0.2034269,0.04973201,-0.2851018,-0.9552886,0.2283527,-0.08179047,0.7476736,1.586711,0.2086294,0.4306602,1.094144,0.2619764,302.8261,249.6681,340.3824,True
3,0.06666667,-0.3867253,-1.539505,-0.04782813,-1.525672,-4.204575,-3.02652,0.6358222,1.24928,0.4646118,-1.341201,-0.02570459,2.3,0,-0.3461668,-0.0144473,0.331034,-0.6648342,-4.133996,-0.4909167,0.6634203,1.50779,0.3887641,-0.20147,0.03484128,-0.2957373,-0.9586464,0.2287217,-0.08014011,0.748279,1.585747,0.2086217,0.4316427,1.095915,0.2564155,302.6136,248.1312,340.147,True
3,0.07777778,-0.4422969,-1.473703,-0.07049419,-1.522367,-4.19089,-3.020405,0.6332261,1.250175,0.4642234,-1.339359,0.1690744,2.3,0,-0.3368341,-0.0462586,0.3104447,-0.6616831,-4.134301,-0.4873039,0.6633688,1.508385,0.3888023,-0.1919663,0.02625425,-0.2990099,-0.9620265,0.2283706,-0.07817204,0.7487237,1.585479,0.2087326,0.4324138,1.097837,0.2513452,302.3329,246.6806,340.0568,True
3,0.08888889,-0.4979155,-1.401523,-0.09534504,-1.518666,-4.177579,-3.013712,0.6307133,1.251005,0.4637377,-1.340469,-0.102545,1.7,0.1,-0.3348399,-0.0707,0.3038164,-0.6582759,-4.133946,-0.4837504,0.6633682,1.509012,0.3887103,-0.1908878,0.02205472,-0.2947579,-0.9652973,0.2292697,-0.07657201,0.7493451,1.585158,0.2089419,0.4327647,1.09992,0.2468775,302.0772,245.3096,340.138,True
3,0.1,-0.530008,-1.350559,-0.1136936,-1.514953,-4.164519,-3.007371,0.6281588,1.251915,0.4633255,-1.33991,0.05235606,1.6,0.1,-0.3348076,-0.07501702,0.3101706,-0.6545315,-4.132587,-0.4810614,0.6633651,1.509618,0.3886862,-0.1866893,0.01989044,-0.3001205,-0.9688527,0.2291205,-0.07453016,0.7498256,1.584867,0.2090509,0.4326912,1.102192,0.2430951,301.7411,244.0963,340.345,True
3,0.1111111,-0.5835009,-1.265575,-0.1364885,-1.510974,-4.153554,-2.999768,0.6256825,1.252921,0.4628928,-1.339723,0.01694663,1.6,0.1,-0.3284245,-0.09963533,0.3205603,-0.6501058,-4.13225,-0.4777794,0.6635433,1.510372,0.3886673,-0.1814483,0.0134975,-0.3076299,-0.9727499,0.2292891,-0.07306995,0.7499734,1.585428,0.209693,0.4321065,1.104617,0.2399444,301.3499,243.0453,340.6736,True
3,0.1222222,-0.6242316,-1.170931,-0.1497375,-1.507357,-4.143726,-2.992072,0.6230783,1.253761,0.4623945,-1.340527,-0.07315589,1.6,0.1,-0.317816,-0.1124326,0.3171843,-0.6462075,-4.132137,-0.4749324,0.6636755,1.510933,0.3885512,-0.1719765,-0.005676717,-0.3098181,-0.9761918,0.2290484,-0.07171839,0.7505318,1.584935,0.2098064,0.4310655,1.107188,0.2373029,300.9122,242.0909,341.158,True
3,0.1333333,-0.6575031,-1.062369,-0.1545397,-1.50415,-4.136004,-2.984091,0.6208146,1.254699,0.4618087,-1.339903,0.05798513,1.9,0.1,-0.2806581,-0.1316546,0.3082212,-0.6424253,-4.132887,-0.4725268,0.6639354,1.511539,0.3885481,-0.1658054,-0.02490549,-0.3205048,-0.9800614,0.227631,-0.0692635,0.7510855,1.584663,0.2098989,0.4297269,1.109904,0.2350448,300.4412,241.2076,341.7096,True
3,0.1444445,-0.6929405,-0.9441751,-0.1529946,-1.501409,-4.129738,-2.975633,0.6186353,1.255717,0.461236,-1.340239,-0.03089291,1.9,0.1,-0.2724748,-0.175128,0.2800877,-0.638854,-4.136276,-0.4671264,0.6643593,1.512171,0.3887203,-0.1627355,-0.03235269,-0.3300995,-0.9838462,0.2272828,-0.06751326,0.7514879,1.584471,0.2098069,0.4280625,1.112746,0.2329954,299.9883,240.3964,342.239,True
3,0.1555556,-0.7283807,-0.8281053,-0.1493056,-1.498888,-4.124553,-2.966603,0.6166585,1.256595,0.4606919,-1.34057,-0.0296666,2,0.1,-0.2588211,-0.2123729,0.2700725,-0.6349077,-4.139695,-0.4619634,0.6646931,1.512823,0.3887291,-0.1554926,-0.05052296,-0.3407976,-0.9878783,0.2255692,-0.06508899,0.7520568,1.584192,0.2098682,0.4260855,1.115712,0.2310279,299.5086,239.7041,342.7,True
3,0.1666667,-0.7283807,-0.8281053,-0.1493056,-1.498888,-4.124553,-2.966603,0.6166585,1.256595,0.4606919,-1.340639,-0.005662314,2,0.1,-0.2588211,-0.2123729,0.2700725,-0.6349077,-4.139695,-0.4619634,0.6646931,1.512823,0.3887291,-0.1554926,-0.05052296,-0.3407976,-0.9878783,0.2255692,-0.06508899,0.7520568,1.584192,0.2098682,0.4239699,1.118846,0.2291442,299.0227,239.1612,343.0717,True
3,0.1777778,-0.7714538,-0.6471176,-0.1619094,-1.493243,-4.115973,-2.948635,0.612656,1.258639,0.4595051,-1.349654,-0.8242106,2,0.1,-0.262213,-0.2655924,0.2664367,-0.6264,-4.146348,-0.450809,0.665415,1.514352,0.3888292,-0.1546619,-0.06330485,-0.3589116,-0.9963636,0.2232282,-0.06060316,0.753279,1.583786,0.2104661,0.422039,1.122208,0.2275165,298.4285,238.8141,343.2818,True
3,0.1888889,-0.7940438,-0.553423,-0.1655969,-1.490482,-4.113154,-2.939276,0.610935,1.259501,0.4585805,-1.332301,1.593769,2.5,0.1,-0.2547525,-0.2805722,0.2715707,-0.6221091,-4.14948,-0.4458166,0.6656812,1.515042,0.3887069,-0.1504774,-0.06649383,-0.3674647,-1.000638,0.2225196,-0.05900393,0.7539549,1.583206,0.2104547,0.4207737,1.125406,0.2265282,297.4807,238.8119,343.228,True
3,0.2,-0.8145198,-0.4502035,-0.1767879,-1.487638,-4.111617,-2.929541,0.6090158,1.260221,0.4577672,-1.339916,-0.7102549,2.6,0.2,-0.2493697,-0.2688808,0.271655,-0.6179588,-4.151219,-0.4419849,0.6659615,1.515477,0.3884509,-0.1505483,-0.06970517,-0.3738467,-1.004897,0.2210722,-0.05660842,0.7544986,1.583004,0.2106948,0.4183296,1.128376,0.2245594,297.4922,237.99,343.8783,True
3,0.2111111,-0.8339275,-0.3383573,-0.1709726,-1.485835,-4.111792,-2.919638,0.6072996,1.261133,0.4569812,-1.3416,-0.1458258,2.6,0.2,-0.268489,-0.2517742,0.2719445,-0.6142901,-4.15247,-0.4372828,0.6661882,1.516062,0.3884342,-0.1441244,-0.05801723,-0.3771207,-1.009285,0.220671,-0.05482197,0.7549685,1.582822,0.2106936,0.4156314,1.131751,0.2223282,297.251,237.1194,344.5358,True
3,0.2222222,-0.8457884,-0.2669825,-0.1638917,-1.483995,-4.111088,-2.910018,0.6055553,1.26199,0.4562423,-1.341745,-0.01237423,2.6,0.2,-0.2822056,-0.2369064,0.2828149,-0.6103715,-4.153404,-0.4329229,0.6664773,1.51679,0.3885014,-0.1589352,-0.04829625,-0.3748596,-1.013267,0.2205946,-0.05281901,0.7556196,1.58227,0.2106733,0.4130207,1.13552,0.2201453,296.6454,236.6463,344.8417,True
3,0.2333333,-0.86628,-0.1509098,-0.1644878,-1.48262,-4.113696,-2.899467,0.6039327,1.262925,0.4554527,-1.342001,-0.02326231,2.9,0.1,-0.2830185,-0.2200927,0.3096027,-0.6056726,-4.15308,-0.4300739,0.6667927,1.517434,0.3884292,-0.1643467,-0.05998104,-0.3758621,-1.017401,0.2191535,-0.0500376,0.756188,1.581958,0.2107439,0.4104794,1.139542,0.2181178,295.8513,236.2919,344.9776,True
3,0.2444444,-0.8792003,-0.0976799,-0.1690394,-1.48045,-4.114443,-2.889186,0.6024576,1.263849,0.4547195,-1.342479,-0.04331446,2.9,0.1,-0.2883515,-0.2296863,0.3127368,-0.6015127,-4.155304,-0.4249518,0.6672406,1.518239,0.3884404,-0.1559489,-0.07170991,-0.3812526,-1.02175,0.2181567,-0.04818058,0.7566876,1.58158,0.2104967,0.4079912,1.143729,0.2163629,295.0573,236.0655,345.0228,True
3,0.2555556,-0.8931766,-0.04128199,-0.1757155,-1.478706,-4.116388,-2.878666,0.6008246,1.264804,0.4539211,-1.342102,0.03490759,2.9,0.2,-0.2735326,-0.2510121,0.3092449,-0.5970194,-4.158495,-0.4197643,0.6676605,1.518856,0.3883893,-0.1507302,-0.0898529,-0.3802146,-1.025836,0.2160115,-0.04552434,0.7571857,1.581269,0.210511,0.4054902,1.147959,0.2148621,294.2935,235.8466,345.1283,True
3,0.2666667,-0.9135209,-0.003050577,-0.1897531,-1.476337,-4.117852,-2.867545,0.5991147,1.265797,0.4532042,-1.342381,-0.02561975,2.9,0.2,-0.2598996,-0.2860824,0.2949855,-0.5927755,-4.163341,-0.4133415,0.6680425,1.519507,0.3883359,-0.1432632,-0.07921672,-0.3866861,-1.030364,0.2156774,-0.04401965,0.7576724,1.581081,0.2102411,0.4027951,1.15218,0.2136106,293.6017,235.6857,345.2646,True
3,0.2777778,-0.9221066,0.02353003,-0.1962765,-1.474314,-4.119638,-2.856757,0.5974581,1.266773,0.4524086,-1.342492,-0.009798997,2.9,0.2,-0.2387189,-0.2999072,0.2840551,-0.5886577,-4.167611,-0.4078189,0.668428,1.520127,0.3883097,-0.1346955,-0.07820211,-0.3825041,-1.034469,0.2144854,-0.04218341,0.7581551,1.580807,0.2102125,0.3999971,1.15636,0.2126051,292.9258,235.4626,345.59,True
3,0.2888889,-0.9349966,0.0649898,-0.2060671,-1.472376,-4.122168,-2.845629,0.5960165,1.267794,0.4516768,-1.342067,0.03911583,2.6,0.1,-0.2250428,-0.3072314,0.2647138,-0.585187,-4.171731,-0.4022734,0.668811,1.520694,0.3881729,-0.1314953,-0.09522634,-0.3686653,-1.037984,0.2127424,-0.03981053,0.7587966,1.580455,0.2102416,0.3970059,1.160475,0.2117319,292.2866,235.2622,345.943,True
3,0.3,-0.9404187,0.1075881,-0.2073542,-1.470813,-4.125354,-2.83448,0.5944324,1.26886,0.4509258,-1.342592,-0.04825612,2.8,0.1,-0.2251072,-0.315712,0.2603824,-0.5810815,-4.176015,-0.3960097,0.6691874,1.521329,0.3881156,-0.1366509,-0.1025987,-0.3472961,-1.041038,0.2113775,-0.03770583,0.7593415,1.579998,0.2103958,0.3938659,1.164551,0.2109362,291.6919,235.0309,346.3651,True
3,0.3111111,-0.9458262,0.1373321,-0.2181582,-1.468816,-4.128335,-2.823248,0.592899,1.270085,0.4502876,-1.342586,0.001184404,2.8,0.1,-0.2314643,-0.3264276,0.2699232,-0.5764412,-4.18048,-0.389442,0.6695986,1.521971,0.3879883,-0.1301887,-0.1036964,-0.3388311,-1.044541,0.209821,-0.03565706,0.7598535,1.579728,0.2103846,0.3907054,1.168631,0.2102098,291.1062,234.8529,346.7728,True
3,0.3222222,-0.9458262,0.1373321,-0.2181582,-1.468816,-4.128335,-2.823248,0.592899,1.270085,0.4502876,-1.342796,-0.01910965,2.8,0.1,-0.2314643,-0.3264276,0.2699232,-0.5764412,-4.18048,-0.389442,0.6695986,1.521971,0.3879883,-0.1301887,-0.1036964,-0.3388311,-1.044541,0.209821,-0.03565706,0.7598535,1.579728,0.2103846,0.3876165,1.17276,0.2095576,290.5419,234.7188,347.1296,True
3,0.3333333,-0.9534097,0.1872782,-0.2375949,-1.464919,-4.135315,-2.801157,0.5898458,1.272317,0.4488754,-1.353466,-0.9755368,2.6,0.2,-0.2342232,-0.2980534,0.3170614,-0.5667505,-4.184936,-0.3804038,0.6704922,1.523403,0.3876982,-0.1155451,-0.1091249,-0.3634618,-1.05315,0.2067937,-0.03188949,0.7607725,1.579053,0.2100301,0.3848901,1.176967,0.2091176,289.8731,234.7178,347.41,True
3,0.3444445,-0.9534444,0.1978914,-0.2429846,-1.462961,-4.138564,-2.790099,0.5883045,1.273453,0.4480772,-1.333038,1.875967,2.6,0.2,-0.2350691,-0.2865236,0.3406008,-0.5616905,-4.186528,-0.3765113,0.6709634,1.52399,0.3875396,-0.1134314,-0.1112419,-0.3634816,-1.057181,0.2055051,-0.03000797,0.7611995,1.578964,0.2099383,0.3831547,1.180712,0.2091336,288.8192,234.7679,347.5683,True
3,0.3555556,-0.9534444,0.1978914,-0.2429846,-1.462961,-4.138564,-2.790099,0.5883045,1.273453,0.4480772,-1.341646,-0.8037225,2.6,0.2,-0.2350691,-0.2865236,0.3406008,-0.5616905,-4.186528,-0.3765113,0.6709634,1.52399,0.3875396,-0.1134314,-0.1112419,-0.3634816,-1.057181,0.2055051,-0.03000797,0.7611995,1.578964,0.2099383,0.3797693,1.184391,0.2080803,288.9185,234.1946,348.052,True
3,0.3666667,-0.9555962,0.2053089,-0.253677,-1.46086,-4.142042,-2.779117,0.5867556,1.274675,0.4473829,-1.353891,-1.110758,2.6,0.1,-0.2371705,-0.3058032,0.3532316,-0.5561879,-4.190561,-0.3704111,0.6715178,1.524626,0.3873439,-0.1015984,-0.1144985,-0.3486715,-1.060461,0.2038365,-0.02846626,0.7616868,1.578675,0.2098644,0.3764407,1.188575,0.2072173,288.6341,233.6078,348.7619,True
3,0.3777778,-0.9609536,0.208416,-0.26649,-1.458334,-4.145394,-2.767745,0.5854449,1.275957,0.4467063,-1.34393,0.919211,2.6,0.1,-0.2361715,-0.3239229,0.3530631,-0.5510411,-4.195709,-0.363387,0.6722429,1.525354,0.3871567,-0.1005961,-0.1283233,-0.3454598,-1.064027,0.201954,-0.02650085,0.7621673,1.578508,0.2098439,0.374623,1.192606,0.2072376,287.4709,233.7383,348.9787,True
3,0.3888889,-0.9587965,0.1956296,-0.2706885,-1.456021,-4.148225,-2.756701,0.5839307,1.277237,0.446013,-1.342502,0.1214176,2.6,0.1,-0.2342041,-0.3654467,0.3494886,-0.5455123,-4.203187,-0.3544364,0.672905,1.526037,0.387001,-0.09536308,-0.133691,-0.3518941,-1.068178,0.1998983,-0.02459882,0.7626803,1.578225,0.2097406,0.3726853,1.196217,0.2069799,286.7591,233.7471,349.1459,True
3,0.4,-0.9630738,0.1891152,-0.288762,-1.453194,-4.151315,-2.745334,0.5825759,1.27851,0.4454911,-1.342226,0.02508601,2.7,0.1,-0.2046314,-0.4165646,0.3360453,-0.5401945,-4.212348,-0.3454029,0.6736553,1.52654,0.386771,-0.0880619,-0.1454808,-0.3615374,-1.07251,0.1973635,-0.02271703,0.7631937,1.578005,0.2098265,0.3703307,1.199673,0.2063761,286.4501,233.1523,349.7561,True
3,0.4111111,-0.9620132,0.1837268,-0.3057846,-1.450261,-4.154662,-2.7342,0.5811359,1.279805,0.444874,-1.342675,-0.04104006,3,0,-0.1907938,-0.416605,0.3348779,-0.5351515,-4.218469,-0.3384409,0.6741908,1.527175,0.3865697,-0.07447517,-0.1573103,-0.3818907,-1.077443,0.1947599,-0.02115429,0.7636663,1.577727,0.2097058,0.3676835,1.203251,0.2056141,286.2829,232.391,350.5294,True
3,0.4222222,-0.9620321,0.1879283,-0.3154058,-1.447516,-4.158322,-2.723029,0.5798098,1.28112,0.4443958,-1.342623,0.005310271,3,0,-0.1917774,-0.4124208,0.3445022,-0.529829,-4.223861,-0.3315476,0.6747704,1.527771,0.3863337,-0.06088701,-0.1520963,-0.4129249,-1.083268,0.1930235,-0.02003949,0.7640542,1.577635,0.2093995,0.3649099,1.207128,0.2048399,286.0034,231.6661,351.3146,True
3,0.4333333,-0.9588529,0.1878657,-0.3303271,-1.444526,-4.161885,-2.712059,0.5784708,1.28248,0.4438608,-1.343039,-0.03802876,3,0,-0.178809,-0.387023,0.358479,-0.5244973,-4.227382,-0.3269374,0.675382,1.528305,0.3860126,-0.06505892,-0.1435107,-0.4075994,-1.087865,0.1918071,-0.01837075,0.764755,1.577245,0.2089028,0.3622089,1.211372,0.2042101,285.5418,230.8719,352.2031,True
3,0.4444444,-0.9492842,0.1910722,-0.3346251,-1.439497,-4.16899,-2.690482,0.5759361,1.285074,0.4429889,-1.343225,-0.01652903,3.7,0.1,-0.1942719,-0.3372963,0.4048451,-0.5129189,-4.231551,-0.3186595,0.6766419,1.529497,0.3852863,-0.05509689,-0.140265,-0.3672488,-1.095134,0.189122,-0.01611239,0.7658002,1.576602,0.2082777,0.3595876,1.215969,0.2037556,284.918,229.9939,353.1913,True
3,0.4555556,-0.9492842,0.1910722,-0.3346251,-1.439497,-4.16899,-2.690482,0.5759361,1.285074,0.4429889,-1.333581,0.8820919,3.7,0.1,-0.1942719,-0.3372963,0.4048451,-0.5129189,-4.231551,-0.3186595,0.6766419,1.529497,0.3852863,-0.05509689,-0.140265,-0.3672488,-1.095134,0.189122,-0.01611239,0.7658002,1.576602,0.2082777,0.3567551,1.220894,0.2033638,284.2904,228.8466,354.3846,True
3,0.4666667,-0.932228,0.1803631,-0.3484544,-1.433748,-4.175801,-2.669751,0.5737385,1.288054,0.4418771,-1.353621,-1.839617,4.2,0.1,-0.1473647,-0.3567198,0.4075592,-0.5008703,-4.243094,-0.307451,0.6785178,1.530544,0.3843329,-0.03628463,-0.1392285,-0.2907209,-1.099173,0.1859496,-0.01431609,0.7666278,1.576203,0.2076657,0.3531653,1.226633,0.2028314,283.9523,227.5459,355.8158,True
3,0.4777778,-0.9226388,0.1793088,-0.3516543,-1.431083,-4.17942,-2.659327,0.5725037,1.28965,0.4413435,-1.335778,1.648041,4.2,0.1,-0.1294178,-0.3555213,0.3850612,-0.4963962,-4.248771,-0.3016592,0.6791918,1.531276,0.3839781,-0.03841048,-0.1296331,-0.2971026,-1.102661,0.1846439,-0.01325908,0.7670621,1.576006,0.2073731,0.3509111,1.232417,0.203223,282.5834,226.4694,357.2823,True
3,0.4888889,-0.9098268,0.1708106,-0.3484192,-1.428562,-4.182523,-2.64929,0.5712858,1.291161,0.4409041,-1.343995,-0.7670262,5,0.1,-0.1251141,-0.3652102,0.3955821,-0.4907449,-4.254649,-0.2951448,0.6799477,1.532183,0.3838499,-0.05657354,-0.1263586,-0.3054329,-1.106066,0.1827994,-0.01117888,0.7672244,1.575542,0.2073278,0.3478731,1.238461,0.2031902,281.9439,225.2821,358.7646,True
3,0.5,-0.8949136,0.1729359,-0.3548317,-1.425911,-4.186253,-2.639368,0.5701008,1.292901,0.4403372,-1.345408,-0.1209483,5,0.1,-0.089553,-0.3679407,0.4506905,-0.4829648,-4.258896,-0.2916622,0.6807679,1.533005,0.3834016,-0.05871719,-0.1391439,-0.3000479,-1.108848,0.1802747,-0.009583651,0.7674251,1.575417,0.2070186,0.3451521,1.244685,0.2032908,281.0695,223.3534,1.05903,True
3,0.5111111,-0.8863846,0.1740157,-0.3505899,-1.4235,-4.189731,-2.629244,0.5690424,1.294535,0.439672,-1.345638,-0.02080644,5.1,0.1,-0.1118117,-0.3893942,0.4751578,-0.4757594,-4.265805,-0.2836165,0.6815418,1.53391,0.3830647,-0.04608911,-0.162654,-0.2990873,-1.112292,0.1774535,-0.00815673,0.7682407,1.575453,0.2066402,0.3428712,1.250741,0.2034878,280.046,221.4498,3.286481,True
3,0.5222223,-0.8800157,0.1868434,-0.3453359,-1.421573,-4.193786,-2.619123,0.5681632,1.296083,0.4391043,-1.345671,-0.003094236,5.1,0.1,-0.1287504,-0.3969382,0.4922604,-0.4688245,-4.271971,-0.2761482,0.6823948,1.534702,0.3827181,-0.04088321,-0.1818787,-0.300171,-1.115507,0.1742834,-0.006620086,0.7686958,1.575296,0.2063339,0.3409372,1.256376,0.2036371,279.0842,219.2757,5.707506,True
3,0.5333334,-0.8789927,0.2060114,-0.3454432,-1.419659,-4.198249,-2.608767,0.567364,1.29766,0.4385266,-1.345251,0.0382925,5.1,0.1,-0.1128105,-0.4076457,0.4909753,-0.4624531,-4.27931,-0.2689473,0.6834565,1.535367,0.3823273,-0.04529226,-0.1935387,-0.3075871,-1.119237,0.1719706,-0.004941495,0.7695261,1.575087,0.2058439,0.3391499,1.261489,0.2036084,278.3583,216.7652,8.392739,True
3,0.5444446,-0.8854084,0.2219988,-0.3423211,-1.418095,-4.202784,-2.598184,0.5664309,1.299188,0.4379826,-1.345133,0.01030193,4.8,0.1,-0.1034021,-0.4117411,0.4684972,-0.4570394,-4.286905,-0.2613504,0.6843687,1.536066,0.3819606,-0.04967287,-0.1999107,-0.3160637,-1.123007,0.1692544,-0.003059173,0.7701023,1.574865,0.2055159,0.3374518,1.26608,0.2033846,277.8638,214.2741,11.00798,True
3,0.5555557,-0.8918369,0.240087,-0.3381273,-1.416898,-4.207236,-2.58766,0.5656542,1.300776,0.4376009,-1.344826,0.02797638,4.8,0.1,-0.09164679,-0.4043158,0.4695387,-0.4512396,-4.292714,-0.2556272,0.68527,1.536714,0.3815632,-0.0435228,-0.2095446,-0.3342181,-1.127251,0.1665536,-0.001517203,0.7708154,1.57459,0.2050667,0.3358483,1.270232,0.2030548,277.548,212.0127,13.33453,True
3,0.5666668,-0.9014339,0.2485872,-0.333891,-1.415498,-4.211502,-2.576931,0.5650098,1.302324,0.4370637,-1.344481,0.03123846,4.8,0.1,-0.09561121,-0.3789757,0.4964221,-0.4441412,-4.296196,-0.2513987,0.6863437,1.537399,0.3810432,-0.02562761,-0.2160613,-0.352482,-1.131665,0.1638403,-0.0006713829,0.7715428,1.574396,0.2047148,0.3342569,1.274106,0.202683,277.3618,209.8856,15.48427,True
3,0.577778,-0.9174563,0.2645391,-0.3371576,-1.414106,-4.21682,-2.565191,0.5643803,1.303874,0.4364958,-1.344428,0.004499597,4.8,0.1,-0.09442246,-0.3791198,0.5123901,-0.4370386,-4.302214,-0.2449536,0.6874739,1.538001,0.3806143,-0.01719579,-0.2161332,-0.3632135,-1.136109,0.1610792,0.0003257046,0.7721587,1.574132,0.2044191,0.3326082,1.277894,0.2023508,277.2351,207.9602,17.41398,True
3,0.5888891,-0.9217685,0.2879576,-0.3372774,-1.413069,-4.222204,-2.55405,0.5637178,1.305387,0.4359868,-1.344152,0.02522989,4.3,0.1,-0.07331541,-0.392853,0.4907964,-0.4314592,-4.31085,-0.2371172,0.6885074,1.538631,0.3802068,-0.01089239,-0.220407,-0.3696557,-1.140269,0.1586853,0.001270061,0.7729222,1.57386,0.2038763,0.3309926,1.281763,0.202186,277.0939,206.1883,19.26035,True
3,0.6000003,-0.9271398,0.3124611,-0.3352675,-1.412417,-4.227785,-2.542885,0.5630169,1.306996,0.4354074,-1.343279,0.07955304,4.3,0.1,-0.06623721,-0.3977783,0.4416913,-0.4272887,-4.319674,-0.2286524,0.6896169,1.539295,0.3798599,-0.01518208,-0.2331616,-0.3642738,-1.144052,0.1553622,0.002890861,0.773349,1.573761,0.2035811,0.3294126,1.285846,0.2021682,276.8898,204.0501,21.57965,True
3,0.6111114,-0.9293464,0.3327784,-0.3310367,-1.412565,-4.233698,-2.531144,0.5624118,1.308928,0.4352865,-1.343842,-0.0521003,4.2,0.1,-0.06645268,-0.4199614,0.4170248,-0.4218788,-4.330872,-0.2179683,0.6907932,1.539663,0.3792651,-0.02777216,-0.2340998,-0.3417969,-1.147199,0.1527628,0.004711665,0.7741328,1.573663,0.2031639,0.3277821,1.290279,0.2022645,276.6338,201.2904,24.54375,True
3,0.6222225,-0.933633,0.3444802,-0.3321581,-1.411949,-4.239264,-2.519891,0.5618037,1.310571,0.4347587,-1.343963,-0.01050608,4.2,0.1,-0.05804831,-0.440177,0.4103914,-0.4164396,-4.342031,-0.2074139,0.6917516,1.540365,0.378845,-0.02967474,-0.2255524,-0.323673,-1.150117,0.1503137,0.006036054,0.7746998,1.573561,0.2028561,0.3261104,1.295104,0.2025067,276.2726,197.7197,28.33013,True
3,0.6333337,-0.931536,0.3605324,-0.3268718,-1.412195,-4.245118,-2.508732,0.5610921,1.312198,0.4343204,-1.34347,0.04513816,4.2,0.1,-0.06328556,-0.4306404,0.4147881,-0.4105934,-4.350884,-0.1986431,0.6929394,1.540961,0.3782411,-0.02202642,-0.2202674,-0.3056287,-1.152809,0.1478086,0.00712369,0.7750773,1.573186,0.2023749,0.3244221,1.300308,0.2029219,275.8637,193.561,32.69891,True
3,0.6444448,-0.9315473,0.363712,-0.3279485,-1.411733,-4.250639,-2.497643,0.5605409,1.313847,0.4337807,-1.343884,-0.03826367,3.6,0.2,-0.0737198,-0.4244495,0.4415544,-0.4040362,-4.359077,-0.1899332,0.6940221,1.541632,0.3777323,-0.0102278,-0.2203393,-0.2972153,-1.155867,0.1451424,0.007856858,0.7757568,1.572976,0.2020307,0.3227831,1.305882,0.2035816,275.4359,188.6016,37.90834,True
3,0.655556,-0.9368947,0.3711809,-0.3301035,-1.41151,-4.256538,-2.486053,0.5600291,1.315603,0.4331238,-1.344098,-0.01916582,3.2,0.2,-0.0948205,-0.4267603,0.4704427,-0.3972302,-4.368078,-0.1798007,0.6952651,1.542666,0.3774509,-0.001710653,-0.2299912,-0.2908824,-1.158814,0.1418666,0.008897088,0.7763399,1.572632,0.201736,0.3211729,1.311706,0.2043721,274.9643,181.1023,45.77217,True
3,0.6666671,-0.9390303,0.3711579,-0.3364669,-1.411125,-4.262319,-2.474511,0.5593706,1.317307,0.4325285,-1.344131,-0.002838049,3.2,0.2,-0.1034924,-0.4436677,0.4586285,-0.3918479,-4.380269,-0.1670987,0.696353,1.543601,0.37713,0.002316564,-0.2470759,-0.3047604,-1.162864,0.1382318,0.01019858,0.7770683,1.572471,0.2011971,0.3196017,1.317618,0.2052267,274.5317,171.3696,55.9012,True
3,0.6777782,-0.940105,0.3679234,-0.3428412,-1.410465,-4.26811,-2.463043,0.5588425,1.319076,0.4319942,-1.343689,0.04037929,3.2,0.2,-0.0970816,-0.434098,0.4575984,-0.3861403,-4.389982,-0.157229,0.697407,1.544351,0.3766685,-0.008506566,-0.2459655,-0.3249026,-1.167192,0.1352867,0.01176638,0.777775,1.572207,0.2008395,0.3181365,1.323452,0.2060573,274.2736,160.2646,67.43439,True
3,0.6888894,-0.9368977,0.3550746,-0.3502299,-1.409464,-4.273368,-2.452026,0.5581855,1.320918,0.4314408,-1.343696,-0.0009148106,2.7,0.3,-0.1067674,-0.4446426,0.4501144,-0.3807793,-4.401541,-0.1449705,0.6984743,1.545141,0.3761566,-0.02364066,-0.235258,-0.3556662,-1.17212,0.1327983,0.01363991,0.7784438,1.571934,0.2002971,0.316724,1.329156,0.2067525,274.2281,149.6224,78.46072,True
3,0.7000005,-0.9305068,0.3518336,-0.3651393,-1.408394,-4.279372,-2.440793,0.5575024,1.32283,0.4309421,-1.343814,-0.01074259,2.7,0.3,-0.1100748,-0.4669617,0.4446122,-0.3751542,-4.416053,-0.1301543,0.6996185,1.545854,0.3756404,-0.01200673,-0.240676,-0.362157,-1.176452,0.1296306,0.01454432,0.7792072,1.571704,0.1998863,0.3153649,1.334692,0.2072976,274.3587,140.2224,88.15655,True
3,0.7111117,-0.9251736,0.3400468,-0.376796,-1.407197,-4.28493,-2.429811,0.5567644,1.324737,0.4305258,-1.344212,-0.03630073,2.5,0.5,-0.1229045,-0.476484,0.4424804,-0.3698167,-4.429509,-0.11588,0.7006612,1.546645,0.3750389,-0.003557116,-0.2481865,-0.3643635,-1.180584,0.1264332,0.01549347,0.7799257,1.571714,0.1994202,0.3141141,1.340045,0.2077367,274.6115,132.6802,95.93179,True
3,0.7222228,-0.9208976,0.3304496,-0.384211,-1.406028,-4.290709,-2.418588,0.5560062,1.326705,0.4300652,-1.344153,0.005708988,2.5,0.5,-0.1344844,-0.4702012,0.4586014,-0.363555,-4.441982,-0.1022803,0.701787,1.54733,0.3744197,-0.01422071,-0.2396021,-0.3717331,-1.185067,0.1238913,0.01695848,0.7805895,1.571517,0.1989877,0.3129235,1.34524,0.2080673,274.9506,126.7247,102.0644,True
3,0.7333339,-0.9176845,0.312266,-0.3979642,-1.404295,-4.296146,-2.407375,0.5552061,1.328719,0.4296768,-1.344302,-0.01376201,2.5,0.5,-0.141906,-0.4712789,0.4629015,-0.3577462,-4.45543,-0.08798711,0.7027391,1.548126,0.3736496,-0.02481109,-0.2256851,-0.3748478,-1.189464,0.1217738,0.01846902,0.7812112,1.571315,0.1983473,0.3117276,1.35033,0.2083532,275.3445,122.1951,106.7107,True
3,0.7444451,-0.9134052,0.3004881,-0.4075074,-1.402602,-4.301692,-2.396327,0.5543939,1.330767,0.4292402,-1.344095,0.01897739,2.6,0.6,-0.1568976,-0.4561732,0.4439855,-0.352708,-4.468495,-0.07362841,0.7038124,1.548639,0.3727276,-0.02799982,-0.2309903,-0.3716155,-1.193532,0.1187766,0.01984108,0.7819076,1.571024,0.1978848,0.3105114,1.355355,0.2086718,275.7583,118.4901,110.5262,True
3,0.7555562,-0.9080812,0.2908038,-0.4255701,-1.400701,-4.307491,-2.385298,0.5535402,1.332865,0.4288702,-1.344016,0.007044994,2.5,0.6,-0.1728873,-0.4443317,0.4367548,-0.347754,-4.480826,-0.0596066,0.7047334,1.549357,0.3721778,-0.04396808,-0.2276916,-0.3725381,-1.197814,0.1161872,0.02179877,0.7825286,1.5709,0.1974072,0.3092394,1.360382,0.209056,276.1795,115.446,113.7221,True
3,0.7666674,-0.9027733,0.2918013,-0.4373011,-1.399136,-4.313497,-2.374312,0.5527598,1.335115,0.428544,-1.344191,-0.01605988,2.5,0.6,-0.1771005,-0.4400981,0.4421389,-0.3425251,-4.494081,-0.04496668,0.705669,1.550257,0.3718007,-0.06287771,-0.2126445,-0.3542687,-1.201273,0.1141427,0.02382251,0.7831382,1.570765,0.196939,0.3079414,1.365454,0.2095298,276.6285,112.8874,116.4818,True
3,0.7777785,-0.8984431,0.3024988,-0.4375227,-1.398068,-4.319703,-2.363169,0.5519104,1.337308,0.4281533,-1.344262,-0.006376669,2.5,0.6,-0.1822393,-0.424277,0.4614942,-0.3365048,-4.506179,-0.03130253,0.7065139,1.551058,0.371177,-0.07199442,-0.1944384,-0.3158512,-1.20366,0.1124533,0.02548858,0.7837314,1.570581,0.1965375,0.3066303,1.370605,0.210095,277.107,110.5453,119.0555,True
3,0.7888896,-0.8953786,0.3183976,-0.4449012,-1.397399,-4.326234,-2.352308,0.5510381,1.339506,0.4278605,-1.344326,-0.005785787,2.5,0.6,-0.1970617,-0.4296699,0.4743282,-0.3308152,-4.520992,-0.01478081,0.7073035,1.552018,0.3705556,-0.06972548,-0.1869895,-0.3062879,-1.206818,0.1104823,0.02683454,0.7843006,1.570332,0.1960676,0.3053183,1.375854,0.2107712,277.6054,108.4831,121.3505,True
3,0.8000008,-0.8954037,0.3290171,-0.4513457,-1.396604,-4.332859,-2.341285,0.5501499,1.341718,0.4274876,-1.344183,0.01313334,2.7,0.5,-0.2279769,-0.445589,0.4776055,-0.3253994,-4.538227,0.005061338,0.7080631,1.552832,0.3698971,-0.06327993,-0.1785193,-0.3074161,-1.210302,0.1086251,0.02791126,0.7848232,1.570157,0.1956725,0.304011,1.381231,0.2115759,278.1022,106.5541,123.5269,True
3,0.8111119,-0.8954037,0.3290171,-0.4513457,-1.396604,-4.332859,-2.341285,0.5501499,1.341718,0.4274876,-1.344472,-0.02661229,2.7,0.5,-0.2279769,-0.445589,0.4776055,-0.3253994,-4.538227,0.005061338,0.7080631,1.552832,0.3698971,-0.06327993,-0.1785193,-0.3074161,-1.210302,0.1086251,0.02791126,0.7848232,1.570157,0.1956725,0.3026736,1.386753,0.2124938,278.6167,104.5183,125.8342,True
3,0.8222231,-0.8986795,0.3609307,-0.4557624,-1.396613,-4.340083,-2.329893,0.5492634,1.343925,0.4272869,-1.35389,-0.8610628,2.7,0.4,-0.2514658,-0.4486579,0.4724152,-0.3205626,-4.554372,0.0239277,0.7086444,1.553716,0.3693111,-0.06548142,-0.1721227,-0.321256,-1.214505,0.1069567,0.02913764,0.7855166,1.570048,0.1953554,0.3017122,1.392144,0.2136826,279.2381,101.4714,129.2681,True
3,0.8333342,-0.9008544,0.3822255,-0.4580002,-1.396716,-4.347388,-2.318577,0.5483785,1.346056,0.4269156,-1.344458,0.8693579,2.7,0.4,-0.263018,-0.4231471,0.4833803,-0.3149763,-4.567139,0.03933329,0.7092594,1.554572,0.3686733,-0.08160228,-0.1699153,-0.3392165,-1.21891,0.1050608,0.03119547,0.7860259,1.569871,0.1950159,0.301818,1.396337,0.2151773,280.1819,96.43777,134.7513,True
3,0.8444453,-0.9083842,0.4238259,-0.442206,-1.398398,-4.35473,-2.307076,0.5474448,1.348402,0.4265854,-1.342706,0.1516782,2.7,0.4,-0.2798509,-0.3944812,0.5007871,-0.3091126,-4.578876,0.05417296,0.7098111,1.555514,0.3679812,-0.09339517,-0.1624102,-0.3529625,-1.223325,0.1033372,0.03323945,0.7864794,1.569629,0.1946533,0.3011521,1.400163,0.2160807,280.6343,95.35116,136.0129,True
3,0.8555565,-0.916718,0.4602941,-0.4309877,-1.399742,-4.362267,-2.295303,0.5465449,1.35055,0.426182,-1.342822,-0.01103084,2.5,0.6,-0.3073929,-0.3838937,0.5128055,-0.3033415,-4.593251,0.07187765,0.7103342,1.556411,0.3673298,-0.099668,-0.150693,-0.3678684,-1.227677,0.101764,0.03492496,0.786957,1.569442,0.1943221,0.2996064,1.404141,0.216619,280.7538,96.57528,134.8045,True
3,0.8666676,-0.95121,0.5228741,-0.4245552,-1.404073,-4.378211,-2.270476,0.5445493,1.354877,0.4252205,-1.342809,0.001540256,2.2,0.7,-0.343422,-0.3732995,0.5312901,-0.2915895,-4.626352,0.1120197,0.711617,1.557751,0.3655789,-0.1186157,-0.1058154,-0.3517185,-1.2354,0.100911,0.03898442,0.7879187,1.569178,0.1932986,0.2975118,1.408532,0.2171409,280.769,97.86352,133.6008,True
3,0.8777788,-0.9661379,0.5388603,-0.4203606,-1.406232,-4.385983,-2.25815,0.543537,1.35706,0.4247785,-1.332178,0.9723204,2.2,0.7,-0.3444563,-0.37012,0.533454,-0.286179,-4.642763,0.1315367,0.7120868,1.558565,0.3648622,-0.110793,-0.09944284,-0.3166406,-1.237696,0.09998452,0.04018737,0.7882788,1.569026,0.1929545,0.2948272,1.413758,0.2177893,280.758,98.81493,132.7657,True
3,0.8888899,-0.984266,0.5505681,-0.4107941,-1.408688,-4.393245,-2.245566,0.5424476,1.359409,0.4245086,-1.341862,-0.8933156,2.2,0.7,-0.3464071,-0.3532155,0.5453306,-0.2803259,-4.658865,0.1505394,0.7125977,1.559179,0.3641086,-0.1075082,-0.1016081,-0.3028125,-1.240656,0.09850234,0.04200764,0.788648,1.568798,0.1925325,0.2911054,1.420954,0.2186911,280.6172,100.4909,131.3689,True
3,0.900001,-1.001286,0.5430979,-0.4075439,-1.410485,-4.400396,-2.23272,0.5413369,1.361692,0.4240649,-1.343837,-0.1715676,1.6,0.7,-0.3570927,-0.3606262,0.5442787,-0.2750566,-4.677604,0.172878,0.7130376,1.55992,0.3633828,-0.1171174,-0.09197012,-0.3123246,-1.244539,0.09790486,0.04382871,0.7890732,1.568571,0.1921701,0.2884735,1.429058,0.2206434,281.2175,98.27734,134.3012,True
3,0.9111122,-1.021508,0.5345222,-0.4064152,-1.41218,-4.407416,-2.219648,0.5402136,1.363997,0.4236379,-1.343663,0.01665305,1.4,0.6,-0.3159462,-0.3688504,0.4959356,-0.2722507,-4.696352,0.1932086,0.7134296,1.560922,0.3630369,-0.1204543,-0.08666642,-0.3304077,-1.248905,0.09703547,0.04569345,0.7895185,1.568342,0.1918778,0.2872268,1.43734,0.2233995,282.3467,93.89587,139.5452,True
3,0.9222233,-1.034288,0.5323594,-0.406387,-1.414149,-4.414525,-2.206746,0.539175,1.366227,0.4231503,-1.343382,0.02544457,1.4,0.6,-0.2925707,-0.3495961,0.4788862,-0.2683172,-4.711383,0.2100496,0.7138347,1.561671,0.3624437,-0.1320754,-0.08339779,-0.3228391,-1.252118,0.09621016,0.04771612,0.7898616,1.568162,0.1915667,0.2868522,1.445541,0.2264069,283.7352,89.88494,144.3583,True
3,0.9333345,-1.051313,0.5238019,-0.4063252,-1.41597,-4.42148,-2.193363,0.5380445,1.368551,0.4225798,-1.343168,0.01937611,1.4,0.6,-0.2981402,-0.3642778,0.4553289,-0.2653941,1.551962,0.2328394,0.7141837,1.562581,0.3619349,-0.1458112,-0.07693556,-0.3141918,-1.255261,0.09537539,0.05018061,0.790224,1.568089,0.191134,0.2867752,1.453511,0.229171,285.1611,87.10279,147.8273,True
3,0.9444456,-1.072612,0.5205562,-0.407352,-1.417985,-4.428586,-2.17959,0.536925,1.370885,0.422071,-1.343408,-0.02201013,0.9,0.4,-0.3076074,-0.376157,0.4755281,-0.2608183,1.529056,0.2587703,0.7145965,1.563313,0.3613107,-0.1309735,-0.08769716,-0.3153794,-1.25888,0.09401385,0.05150633,0.7905453,1.567912,0.1907878,0.2866291,1.461134,0.2314198,286.436,85.37579,150.0751,True
3,0.9555568,-1.086461,0.5194856,-0.4020022,-1.420374,-4.435593,-2.165865,0.5359247,1.37313,0.4216099,-1.343014,0.03635524,0.9,0.4,-0.3160063,-0.3794937,0.4947252,-0.2560475,1.506112,0.2847185,0.7149932,1.564167,0.3604622,-0.1129045,-0.09529661,-0.3144666,-1.262469,0.09251156,0.05264404,0.7908716,1.567692,0.1904759,0.2862728,1.468292,0.2330848,287.5011,84.32158,151.5043,True
3,0.9666679,-1.10564,0.5184109,-0.389172,-1.423055,-4.442037,-2.152161,0.5349336,1.375538,0.4211075,-1.342704,0.02798549,0.8,0.2,-0.3286551,-0.3870898,0.5128706,-0.2512623,1.481069,0.3127928,0.7155197,1.564568,0.3594811,-0.1096916,-0.08999767,-0.3155661,-1.266012,0.0918017,0.05410851,0.7910856,1.567509,0.1901059,0.2856442,1.474978,0.2341927,288.3293,83.79655,152.2776,True
3,0.977779,-1.113075,0.5195364,-0.3763823,-1.42594,-4.44843,-2.138902,0.5338502,1.377789,0.420634,-1.34284,-0.01252805,0.8,0.2,-0.3276097,-0.3902727,0.511772,-0.2473544,1.457123,0.3395956,0.715916,1.565266,0.3587863,-0.108652,-0.07936649,-0.3262417,-1.270019,0.09145015,0.05536446,0.7914102,1.567316,0.1897802,0.2848593,1.481216,0.2349285,288.943,83.64757,152.5578,True
3,0.9888902,-1.120467,0.5164949,-0.354012,-1.429004,-4.454143,-2.125447,0.5327634,1.380111,0.4200344,-1.342924,-0.00738326,0.8,0.2,-0.3169239,-0.3839512,0.5117189,-0.2437197,1.433073,0.3658121,0.7164254,1.565977,0.3579283,-0.1150931,-0.06976686,-0.3368485,-1.274222,0.09104775,0.05715357,0.7916913,1.567158,0.1894956,0.2840774,1.487094,0.2355187,289.3931,83.63899,152.6426,True
3,1.000001,-1.125773,0.5176765,-0.3273752,-1.432555,-4.459527,-2.112056,0.5317309,1.38244,0.4193881,-1.343471,-0.04982933,0.4,0.4,-0.3115666,-0.3872112,0.5169756,-0.239889,1.406908,0.3944626,0.7168239,1.566717,0.3572543,-0.1203959,-0.0622832,-0.3400037,-1.278098,0.09077158,0.05869607,0.7918782,1.56705,0.1892064,0.2833443,1.492827,0.2360992,289.7679,83.62672,152.7412,True
3,1.011112,-1.131083,0.5188037,-0.3156643,-1.435914,-4.465335,-2.098556,0.530855,1.384678,0.4187882,-1.343307,0.01540958,0.4,0.4,-0.3148166,-0.4031793,0.5147192,-0.236755,1.377436,0.4265982,0.7172667,1.567362,0.3566854,-0.1161047,-0.06551321,-0.3336455,-1.281599,0.08993814,0.06019596,0.7921136,1.566851,0.1887841,0.2826943,1.498559,0.2367839,290.2012,83.49485,152.9993,True
3,1.022224,-1.135352,0.5252116,-0.3093017,-1.439491,-4.471204,-2.085104,0.5299549,1.386942,0.4182191,-1.343362,-0.005140337,0.4,0.4,-0.3212451,-0.40739,0.511533,-0.2337472,1.349256,0.4577633,0.7176756,1.567993,0.3560188,-0.1171598,-0.07403036,-0.3272343,-1.285071,0.08889166,0.06177282,0.7924579,1.566644,0.1884532,0.282131,1.504444,0.2375898,290.6742,83.16476,153.5304,True
3,1.033335,-1.142831,0.5412364,-0.2976584,-1.44382,-4.476974,-2.071476,0.529034,1.389129,0.4175446,-1.343383,-0.00171926,0.4,0.4,-0.3168717,-0.3883109,0.5180444,-0.230307,1.323178,0.486437,0.7183014,1.56853,0.3552783,-0.1033242,-0.08264951,-0.3220218,-1.288498,0.08771694,0.06284048,0.7929114,1.566481,0.1880195,0.281737,1.510542,0.2385326,291.2181,82.71082,154.2453,True
3,1.044446,-1.146048,0.5572656,-0.2849635,-1.448375,-4.482596,-2.058014,0.5282095,1.391323,0.4169996,-1.343492,-0.009941061,0.4,0.4,-0.3095105,-0.3914325,0.5072958,-0.2279352,1.295509,0.516556,0.7187946,1.569335,0.3548574,-0.0906066,-0.09125621,-0.3231938,-1.2922,0.08657844,0.06371213,0.793165,1.566276,0.1876762,0.2815947,1.516828,0.2396452,291.8721,82.29654,154.9373,True
3,1.055557,-1.136457,0.5680326,-0.2647871,-1.453125,-4.487671,-2.045235,0.5273498,1.393573,0.4161711,-1.343363,0.01184656,0.3,0.4,-0.3192534,-0.4179577,0.4986005,-0.2263335,1.262366,0.5527604,0.7193437,1.569978,0.3542879,-0.08010286,-0.1019972,-0.3307287,-1.296198,0.0852093,0.06470283,0.7934651,1.566155,0.187494,0.2816567,1.523317,0.2409324,292.6357,81.83852,155.6645,True
3,1.066668,-1.12364,0.5617595,-0.2477248,-1.457522,-4.492399,-2.032636,0.526463,1.395843,0.4154813,-1.34354,-0.01616115,0.1,0.3,-0.3077759,-0.4626173,0.4863877,-0.2258238,1.22551,0.5917799,0.7197762,1.570814,0.3539028,-0.08877444,-0.1073006,-0.3423328,-1.300118,0.08388066,0.06642989,0.7938244,1.565913,0.1871865,0.2818742,1.529983,0.2423842,293.4694,81.24776,156.5363,True
3,1.077779,-1.114022,0.5522407,-0.2380974,-1.461724,-4.49706,-2.020089,0.5255733,1.398088,0.4148014,-1.344194,-0.05965335,0.1,0.3,-0.2993734,-0.4742543,0.4745005,-0.2250984,1.192296,0.6270943,0.7201822,1.571417,0.3533533,-0.09632173,-0.09981543,-0.3571741,-1.30445,0.08330768,0.06790528,0.7942042,1.565685,0.1868906,0.2822383,1.536751,0.2439753,294.3397,80.58872,157.526,True
3,1.08889,-1.100093,0.5235647,-0.2273067,-1.465164,-4.501114,-2.0079,0.5247157,1.400267,0.4141707,-1.344375,-0.01606759,0.1,0.3,-0.2907878,-0.4326689,0.4620049,-0.2234813,1.166463,0.65496,0.720606,1.57186,0.3523748,-0.1039238,-0.09340489,-0.3773186,-1.308919,0.08275427,0.06948107,0.794434,1.565457,0.1864984,0.2826945,1.543543,0.2455854,295.2552,79.90214,158.6107,True
3,1.100002,-1.080862,0.5023488,-0.2176293,-1.468759,-4.50511,-1.996028,0.5238341,1.402521,0.4135048,-1.344371,0.0004973104,0.2,0.3,-0.2980347,-0.3986753,0.4762189,-0.2209268,1.138717,0.6856508,0.7209811,1.572505,0.351721,-0.1037436,-0.08060524,-0.3655908,-1.312308,0.08258729,0.07075833,0.7947459,1.565205,0.1861911,0.2832243,1.55022,0.2471229,296.1852,79.324,159.5675,True
3,1.111113,-1.059474,0.4683352,-0.2110887,-1.471689,-4.508806,-1.984457,0.5229924,1.40477,0.412915,-1.344592,-0.02027972,0.2,0.3,-0.3182194,-0.4061768,0.4848092,-0.2198562,1.104072,0.7235295,0.7214316,1.573023,0.3509986,-0.09814176,-0.08167734,-0.3347328,-1.314835,0.08168754,0.07188404,0.7948887,1.564961,0.1858487,0.2838071,1.556671,0.2485264,297.0876,78.88067,160.3398,True
3,1.122224,-1.043457,0.4491926,-0.2110027,-1.474806,-4.51276,-1.972856,0.5221652,1.407072,0.412287,-1.344839,-0.0224513,0.3,0.3,-0.3331062,-0.4082977,0.4891628,-0.2189012,1.070841,0.7601871,0.721864,1.573548,0.3503399,-0.08949569,-0.08917508,-0.3177813,-1.318123,0.08041362,0.07272907,0.7947348,1.565031,0.1855483,0.2844362,1.56281,0.2497428,297.9256,78.55001,160.9454,True
3,1.133335,-1.015698,0.4183643,-0.2119256,-1.477445,-4.516377,-1.962084,0.5212917,1.409438,0.4122047,-1.34502,-0.01649328,0.3,0.3,-0.3256263,-0.3901834,0.4871332,-0.2177587,1.041705,0.7921724,0.7223068,1.574391,0.3499086,-0.1001062,-0.0859329,-0.3155982,-1.322337,0.07949256,0.07450513,0.7948456,1.564632,0.1853235,0.2850392,1.568663,0.2507391,298.6698,78.30801,161.4017,True
3,1.144446,-0.9921788,0.3864284,-0.2064691,-1.479545,-4.51928,-1.951629,0.5206953,1.411678,0.4119227,-1.344905,0.01058469,0.3,0.3,-0.3033253,-0.3784084,0.4742798,-0.217143,1.01384,0.822039,0.722631,1.575197,0.3493688,-0.1127547,-0.06988174,-0.3112555,-1.325938,0.0793341,0.07633552,0.7952327,1.564492,0.1850212,0.2856029,1.574244,0.2515258,299.3239,78.17849,161.6926,True
3,1.155557,-0.9751092,0.3779459,-0.204309,-1.482423,-4.522748,-1.941025,0.5199758,1.413927,0.4114041,-1.345539,-0.05815152,0.2,0.2,-0.2981182,-0.3772011,0.4572075,-0.2172207,0.9853746,0.8529849,0.7230735,1.575752,0.3488057,-0.1221918,-0.04746073,-0.3112033,-1.329519,0.07967445,0.07789693,0.7959021,1.564441,0.1847239,0.2860985,1.579639,0.2521734,299.8806,78.17453,161.7612,True
3,1.166668,-0.9495692,0.3769595,-0.2020873,-1.486065,-4.525984,-1.93086,0.5192615,1.416154,0.4109139,-1.34568,-0.01254654,0.2,0.2,-0.2919863,-0.3790576,0.4230525,-0.2182759,0.9592222,0.8815598,0.7236159,1.576104,0.3478913,-0.112483,-0.03898486,-0.3027761,-1.332563,0.07984064,0.07890334,0.7962217,1.564207,0.1843545,0.2866118,1.584819,0.2528497,300.3838,78.22215,161.7096,True
3,1.17778,-0.9239873,0.3749037,-0.1989099,-1.489209,-4.52941,-1.921204,0.5185564,1.418383,0.4104702,-1.345387,0.02670171,0.2,0.2,-0.2963201,-0.3853603,0.4155715,-0.2190706,0.9307277,0.9128087,0.7239789,1.576702,0.3472624,-0.09872082,-0.05824594,-0.2986176,-1.335826,0.078655,0.07976833,0.7965988,1.564039,0.1840968,0.2872026,1.58979,0.2535858,300.8723,78.19447,161.8272,True
3,1.188891,-0.9101308,0.3728185,-0.1957138,-1.492346,-4.532707,-1.911369,0.5179076,1.420677,0.4100084,-1.345574,-0.01746392,0.2,0.2,-0.3154925,-0.3885314,0.4188813,-0.2197646,0.900368,0.9467708,0.7244588,1.577072,0.3466058,-0.1148967,-0.0666668,-0.3133739,-1.33994,0.07811318,0.08181604,0.7969021,1.563846,0.1836252,0.2877482,1.594744,0.2543576,301.3655,78.10681,162.062,True
3,1.200002,-0.8866165,0.3420537,-0.1827398,-1.494634,-4.534901,-1.902185,0.5172389,1.422942,0.4094903,-1.345913,-0.03091195,0.1,0.2,-0.3165369,-0.3767875,0.4168664,-0.2202551,0.8736565,0.9764523,0.7248746,1.577615,0.3459904,-0.1222275,-0.06448255,-0.301586,-1.342822,0.07762915,0.08350342,0.7972702,1.563643,0.1833215,0.2882546,1.59973,0.2552023,301.8708,77.96683,162.3573,True
3,1.211113,-0.8716201,0.2984596,-0.1771185,-1.496297,-4.536941,-1.892691,0.5165266,1.425373,0.4089694,-1.345532,0.03485731,0.1,0.2,-0.3028004,-0.3841956,0.4049657,-0.2219127,0.8466225,1.005632,0.7253717,1.578045,0.345371,-0.117889,-0.06020658,-0.3005772,-1.346224,0.07781664,0.08411727,0.7975014,1.563804,0.183172,0.2887504,1.604711,0.2561408,302.402,77.86111,162.6406,True
3,1.222224,-0.8672999,0.2750348,-0.1748713,-1.497802,-4.539327,-1.883247,0.5159177,1.427531,0.4085054,-1.345829,-0.02768506,0,0.2,-0.3028952,-0.388377,0.3963916,-0.2236038,0.8211079,1.033943,0.7256196,1.578582,0.3447404,-0.1124942,-0.05704702,-0.2963589,-1.349229,0.0774639,0.08511622,0.7977076,1.563553,0.1828938,0.2892657,1.609683,0.2571528,302.921,77.73618,162.9888,True
3,1.233335,-0.8608801,0.2452059,-0.1841937,-1.499357,-4.541753,-1.873681,0.5153159,1.429867,0.4081488,-1.345341,0.04477948,0,0.2,-0.312602,-0.3817825,0.3773417,-0.2253114,0.7986022,1.059687,0.7259992,1.579229,0.3441114,-0.09972632,-0.06562582,-0.2943384,-1.352482,0.076933,0.08565632,0.7980236,1.563327,0.1824276,0.2898604,1.61459,0.2581264,303.4603,77.56477,163.4418,True
3,1.244446,-0.8576778,0.2409237,-0.1905473,-1.501164,-4.544678,-1.864171,0.5148858,1.431507,0.4074032,-1.345176,0.01456692,0,0.2,-0.3030609,-0.3582264,0.3615021,-0.2264512,0.778703,1.082139,0.7262075,1.579752,0.3436735,-0.08802819,-0.07312439,-0.2955058,-1.355823,0.0764716,0.08588934,0.7983094,1.563042,0.1819279,0.2905395,1.619437,0.2589338,304.0029,77.45473,163.8241,True
3,1.255558,-0.8566281,0.247312,-0.1916458,-1.503391,-4.547606,-1.854507,0.5142877,1.433493,0.4069209,-1.344898,0.02524034,0.2,0.1,-0.3041376,-0.3421656,0.3531315,-0.2276401,0.7576367,1.106052,0.7264116,1.580165,0.3430729,-0.09116277,-0.06457974,-0.2944216,-1.359094,0.07636468,0.08705847,0.7984997,1.562794,0.1816356,0.2913661,1.624138,0.2595633,304.5474,77.45353,163.9995,True
3,1.266669,-0.8481634,0.2772516,-0.178929,-1.507409,-4.549928,-1.845391,0.5136132,1.435539,0.406599,-1.344836,0.005334577,0.3,0.2,-0.2903296,-0.3154056,0.3351574,-0.2285072,0.7412434,1.124626,0.7265477,1.580772,0.3426454,-0.09745127,-0.06446153,-0.2879856,-1.362131,0.07663299,0.08775862,0.7987119,1.562592,0.1811192,0.2923257,1.628708,0.2600514,305.101,77.49422,164.0654,True
3,1.27778,-0.8460805,0.2985902,-0.1715843,-1.510764,-4.55262,-1.83577,0.5131192,1.437402,0.4061844,-1.344575,0.02378036,0.3,0.2,-0.2669217,-0.3047424,0.3265557,-0.2298297,0.7225229,1.144987,0.7266858,1.581162,0.3421512,-0.09622809,-0.05809753,-0.2752159,-1.364743,0.07603418,0.08890138,0.7988993,1.562413,0.1808369,0.2934486,1.633023,0.2604481,305.705,77.5443,164.1012,True
3,1.288891,-0.8365377,0.314684,-0.1577004,-1.515019,-4.55447,-1.826536,0.512493,1.439444,0.4060242,-1.344953,-0.03481415,0.3,0.2,-0.2541088,-0.2588281,0.3108935,-0.2298148,0.7088055,1.160718,0.726856,1.581602,0.3416793,-0.1077762,-0.05158049,-0.2612809,-1.367362,0.07634244,0.09033629,0.7989898,1.562429,0.1807983,0.2945107,1.63736,0.2608197,306.2395,77.5901,164.0138,True
3,1.300002,-0.8226823,0.3190275,-0.1417525,-1.518151,-4.556211,-1.817803,0.5120097,1.441325,0.4056754,-1.344422,0.04886664,0.3,1.8,-0.25748,-0.2660886,0.2906121,-0.2317142,0.6930455,1.179068,0.7272497,1.581931,0.3411884,-0.1224785,-0.04509747,-0.2419808,-1.369496,0.07595921,0.09233952,0.7992561,1.56225,0.180532,0.2954636,1.641793,0.2613313,306.7333,77.52072,164.0048,True
3,1.311113,-0.8120025,0.2998784,-0.1426715,-1.520634,-4.55815,-1.809039,0.5114136,1.443441,0.4053304,-1.344606,-0.01739508,0.3,1.8,-0.2533372,-0.2799171,0.2829832,-0.2343193,0.6748687,1.199511,0.7275328,1.582336,0.3402238,-0.1126941,-0.05471193,-0.2132941,-1.371032,0.07526786,0.09336883,0.7994916,1.562016,0.1805952,0.2963755,1.646258,0.2620758,307.2014,77.44748,164.0897,True
3,1.322224,-0.7980686,0.259384,-0.1478135,-1.521649,-4.560122,-1.800636,0.5108938,1.445453,0.405019,-1.345041,-0.03961893,0.4,6.5,-0.2543835,-0.2874295,0.2893099,-0.2363214,0.6560301,1.220707,0.7278433,1.582596,0.3397119,-0.1019396,-0.05691579,-0.2006015,-1.372881,0.07450659,0.09426392,0.7997156,1.561844,0.1803355,0.2972773,1.65078,0.2631016,307.6759,77.28894,164.3446,True
3,1.333336,-0.7873649,0.2284643,-0.1551165,-1.522703,-4.562232,-1.792068,0.5103751,1.447353,0.4045985,-1.344948,0.008752329,0.4,6.5,-0.2479369,-0.284323,0.2935466,-0.2383486,0.637399,1.2412,0.7280931,1.582922,0.3392913,-0.09788026,-0.0708297,-0.2102058,-1.375719,0.0732047,0.09575502,0.7998449,1.56185,0.1803119,0.2982508,1.655228,0.2643162,308.2174,77.11545,164.7745,True
3,1.344447,-0.7659721,0.1869099,-0.163461,-1.522892,-4.564261,-1.784339,0.5099446,1.449399,0.4043226,-1.345162,-0.01980625,0.4,6.5,-0.241573,-0.261845,0.2798495,-0.2395609,0.6246194,1.256063,0.7282526,1.583496,0.3390374,-0.1044851,-0.07722963,-0.2282541,-1.3791,0.07210908,0.09754866,0.8000367,1.561859,0.1797569,0.2992435,1.659635,0.2655594,308.7976,77.01227,165.2101,True
3,1.355558,-0.7467489,0.1581279,-0.1750677,-1.523251,-4.566655,-1.776573,0.5093038,1.451479,0.404063,-1.3449,0.02403807,0.3,9.3,-0.2373675,-0.2446781,0.2650602,-0.2408334,0.6122711,1.270527,0.7284309,1.583879,0.3385785,-0.1065947,-0.08147073,-0.2229033,-1.381473,0.07127072,0.09895987,0.8002293,1.561709,0.1795177,0.3003069,1.663854,0.2666867,309.4071,76.99557,165.5626,True
3,1.366669,-0.7232724,0.1432731,-0.1707688,-1.523954,-4.56847,-1.769253,0.5088053,1.453447,0.4038334,-1.345559,-0.06060302,0.1,18.1,-0.2383981,-0.2211919,0.2556891,-0.2420068,0.5995635,1.285176,0.7286522,1.583898,0.3380651,-0.1139983,-0.07186067,-0.2239119,-1.383963,0.07077511,0.1006257,0.8005213,1.561283,0.1790257,0.3014106,1.667881,0.2675866,309.9725,77.01561,165.8075,True
3,1.37778,-0.7072776,0.1390921,-0.1622531,-1.525078,-4.570276,-1.761726,0.5084191,1.455395,0.4035597,-1.345449,0.01049019,0.1,18.1,-0.2204013,-0.2339378,0.2458489,-0.2442385,0.5867639,1.299387,0.728789,1.584239,0.3376076,-0.1118029,-0.06549576,-0.2218114,-1.386467,0.07033102,0.1018481,0.800734,1.561215,0.1788239,0.3025006,1.671749,0.2682013,310.4963,77.1231,165.8602,True
3,1.388891,-0.6891591,0.1423893,-0.1505785,-1.52654,-4.571845,-1.754585,0.5079981,1.457052,0.4034479,-1.345656,-0.01912463,0.1,18.1,-0.2311544,-0.2508892,0.2372555,-0.2470082,0.5732045,1.315279,0.7290329,1.584511,0.3371482,-0.1096329,-0.058024,-0.2229205,-1.389165,0.07052384,0.1029701,0.8008561,1.561264,0.1783786,0.3034777,1.675533,0.2685583,310.9748,77.27398,165.7501,True
3,1.400002,-0.6710591,0.1520506,-0.1421355,-1.528216,-4.573494,-1.747611,0.5076472,1.458808,0.403213,-1.345285,0.03393499,0.1,22.9,-0.2363929,-0.2509877,0.2500767,-0.2489044,0.557679,1.333236,0.7292773,1.58489,0.3366947,-0.1020533,-0.04956519,-0.2155438,-1.391398,0.07019839,0.1039584,0.8011343,1.561078,0.178118,0.3043938,1.679159,0.2687518,311.3748,77.37762,165.619,True
3,1.411114,-0.6572238,0.1595444,-0.1400704,-1.529938,-4.575312,-1.740624,0.5072468,1.460439,0.4031775,-1.345436,-0.01427794,0.1,22.9,-0.2405626,-0.2403916,0.2544639,-0.2507313,0.5432586,1.349693,0.7294611,1.585117,0.3361702,-0.08817911,-0.05493971,-0.2135381,-1.39374,0.07008708,0.1039639,0.8014537,1.560551,0.1777565,0.305292,1.68262,0.2688805,311.7069,77.46891,165.478,True
3,1.422225,-0.6508384,0.1670136,-0.1358461,-1.531672,-4.576826,-1.733578,0.5068457,1.462083,0.4029355,-1.345452,-0.001414684,0.1,25.3,-0.2363591,-0.2392623,0.2469795,-0.2526962,0.5316322,1.363501,0.7294425,1.585321,0.3357701,-0.08704293,-0.05067175,-0.2114268,-1.396119,0.07000465,0.1046316,0.8015003,1.560637,0.1776686,0.3062173,1.685879,0.2690628,312.0334,77.54379,165.345,True
3,1.433336,-0.6348715,0.1712798,-0.1380063,-1.533259,-4.578578,-1.727014,0.5064476,1.463475,0.4022512,-1.345269,0.01663712,0.1,25.3,-0.233318,-0.2241031,0.2172669,-0.2545066,0.5242103,1.372929,0.7295103,1.585547,0.3353095,-0.08786176,-0.03041042,-0.1986579,-1.397854,0.07051531,0.1055746,0.8015932,1.560481,0.1775544,0.307128,1.68905,0.2693625,312.3574,77.61574,165.2458,True
3,1.444447,-0.6231824,0.1883571,-0.1327846,-1.535541,-4.580182,-1.720384,0.5060787,1.465238,0.401974,-1.345018,0.02262095,0.1,25.3,-0.2270501,-0.218595,0.1959651,-0.2563697,0.5168809,1.382169,0.7297212,1.585824,0.3350523,-0.08975209,-0.007994395,-0.1922778,-1.399696,0.0716626,0.1059922,0.8018392,1.560298,0.1772878,0.3080079,1.692179,0.2698494,312.6986,77.67691,165.1964,True
3,1.455558,-0.6103728,0.1841596,-0.1242579,-1.537239,-4.581468,-1.713981,0.5056989,1.466604,0.4017992,-1.345335,-0.02922729,0.2,29,-0.2111798,-0.2024651,0.1746891,-0.2577567,0.5108022,1.389903,0.7297726,1.58601,0.3347101,-0.08210884,0.01006766,-0.184903,-1.401381,0.072424,0.1064897,0.8019289,1.560221,0.1772075,0.3088544,1.695318,0.2704863,313.0749,77.65273,165.3731,True
3,1.466669,-0.5986444,0.182069,-0.118943,-1.538907,-4.582868,-1.707551,0.5052664,1.46809,0.4017003,-1.345149,0.01717361,0.3,37,-0.1835636,-0.2035215,0.162754,-0.2599682,0.5032406,1.398284,0.7299527,1.586255,0.3343897,-0.08309716,0.02288983,-0.1859807,-1.403492,0.07374106,0.1072026,0.8021045,1.559791,0.1768117,0.309684,1.698424,0.2711635,313.4775,77.60331,165.6594,True
3,1.47778,-0.5922328,0.1756971,-0.1167793,-1.540479,-4.584222,-1.701117,0.504949,1.469472,0.4015403,-1.345188,-0.003808815,0.3,37,-0.1631687,-0.1855948,0.1766127,-0.2609876,0.4930608,1.409405,0.7300081,1.586379,0.3340242,-0.07345596,0.03240111,-0.1871408,-1.405512,0.07448369,0.1075701,0.8021468,1.559693,0.1766334,0.3104866,1.701567,0.2718736,313.83,77.57014,165.8439,True
3,1.488891,-0.5687973,0.176839,-0.1136164,-1.542362,-4.585651,-1.695369,0.5047611,1.470433,0.4011347,-1.345027,0.0146045,0.3,37,-0.1472428,-0.1823585,0.1680048,-0.2624822,0.4856455,1.417779,0.730143,1.58668,0.3337967,-0.06409265,0.01427455,-0.2031899,-1.408356,0.07511047,0.1073978,0.8021647,1.559614,0.1764934,0.3113522,1.704564,0.2726272,314.2078,77.55353,165.9665,True
3,1.500003,-0.5560105,0.17582,-0.1093688,-1.54413,-4.586923,-1.689513,0.5045308,1.471723,0.4009361,-1.344872,0.01397246,0.3,37,-0.1462801,-0.1982642,0.1603954,-0.2648791,0.4783629,1.426417,0.7303109,1.586835,0.3334904,-0.05240613,-0.0007375479,-0.1958179,-1.410292,0.07444414,0.107759,0.8022039,1.559457,0.1763656,0.3122395,1.707477,0.2734074,314.5851,77.54626,166.0742,True
3,1.511114,-0.5336184,0.1673405,-0.1104249,-1.545521,-4.588334,-1.684313,0.5042984,1.473113,0.4006822,-1.345413,-0.04966669,0.8,59.7,-0.1314973,-0.2184636,0.1515802,-0.2677153,0.4715677,1.434036,0.7304344,1.587202,0.333272,-0.05774195,-0.006025517,-0.1925631,-1.412245,0.07449914,0.1085201,0.8023132,1.559309,0.1767883,0.3132028,1.710221,0.2741902,314.9607,77.52132,166.2515,True
3,1.522225,-0.5133625,0.158846,-0.1136082,-1.546851,-4.589809,-1.679219,0.504148,1.474237,0.4005406,-1.344715,0.06345949,1.2,55.4,-0.1260968,-0.2132216,0.1601139,-0.2693947,0.4626918,1.443925,0.730515,1.587384,0.3329549,-0.06626637,-0.001731522,-0.1956785,-1.414384,0.07466545,0.1095792,0.8023059,1.559231,0.176724,0.3142449,1.71269,0.2749252,315.3701,77.48229,166.4632,True
3,1.533336,-0.4994938,0.1525019,-0.1104029,-1.548203,-4.591073,-1.67411,0.5039595,1.475439,0.4003854,-1.34419,0.04626043,1.2,55.4,-0.1079866,-0.2036544,0.1568614,-0.2710134,0.4562927,1.450762,0.7306246,1.587453,0.3326452,-0.05666739,0.001361739,-0.1936331,-1.416458,0.07458276,0.110225,0.8023447,1.559271,0.1771891,0.3151851,1.715123,0.2755578,315.7361,77.45811,166.6106,True
3,1.544447,-0.4802765,0.132243,-0.1102982,-1.548482,-4.591753,-1.669411,0.5038972,1.476471,0.399893,-1.34275,0.1298735,1.2,55.4,-0.107986,-0.2025832,0.1547346,-0.2731695,0.4492356,1.45857,0.730889,1.587412,0.3320746,-0.04073198,-0.003020493,-0.1958906,-1.418553,0.07442896,0.1100634,0.8022685,1.559138,0.1772096,0.3159584,1.717503,0.2760712,316.0833,77.48208,166.6804,True
3,1.555558,-0.4685327,0.1205468,-0.1113247,-1.549275,-4.593103,-1.664607,0.5037564,1.477609,0.3997538,-1.340624,0.191504,1.5,63.2,-0.1047708,-0.2090336,0.1599783,-0.2754976,0.4410308,1.467503,0.7310555,1.58751,0.3317523,-0.03433459,-0.003095636,-0.191683,-1.420508,0.07412576,0.1106762,0.8022373,1.559073,0.1771827,0.3165588,1.719676,0.2765028,316.3922,77.52495,166.6877,True
3,1.566669,-0.4493027,0.09937286,-0.111288,-1.550062,-4.595184,-1.660174,0.503669,1.478602,0.3996525,-1.338469,0.1933253,1.5,63.2,-0.1047065,-0.1909289,0.1622655,-0.276597,0.4343469,1.475212,0.7311459,1.5876,0.3317044,-0.04393104,-0.0009504035,-0.1905285,-1.422548,0.07380671,0.1121361,0.8024123,1.558731,0.1767738,0.3169428,1.721645,0.2768487,316.6278,77.51802,166.7801,True
3,1.577781,-0.4343517,0.08128177,-0.1133579,-1.550163,-4.596532,-1.655796,0.5035395,1.479622,0.3995438,-1.335381,0.2783504,1.5,58.5,-0.09847322,-0.1939628,0.1430102,-0.2787142,0.4306301,1.479744,0.7312222,1.5877,0.3314743,-0.03097856,-0.01059985,-0.1650647,-1.423524,0.07335424,0.1120815,0.8024691,1.558634,0.1766796,0.3171401,1.723322,0.2770139,316.7946,77.51126,166.9239,True
3,1.588892,-0.4343517,0.08128177,-0.1133579,-1.550163,-4.596532,-1.655796,0.5035395,1.479622,0.3995438,-1.332272,0.2791692,1.5,58.5,-0.09847322,-0.1939628,0.1430102,-0.2787142,0.4306301,1.479744,0.7312222,1.5877,0.3314743,-0.03097856,-0.01059985,-0.1650647,-1.423524,0.07335424,0.1120815,0.8024691,1.558634,0.1766796,0.3170863,1.724809,0.2770391,316.8682,77.60816,166.8668,True
3,1.600003,-0.4140636,0.06429078,-0.1047574,-1.550765,-4.598212,-1.647091,0.503364,1.481515,0.3992584,-1.332577,-0.03338773,1.5,58.5,-0.07391985,-0.1812782,0.1461353,-0.2821651,0.4181087,1.492891,0.7315988,1.587931,0.330924,-0.01091558,-0.02461596,-0.1737477,-1.427579,0.07233172,0.1119651,0.8026216,1.558217,0.1761162,0.3168842,1.725882,0.2770616,316.899,77.7451,166.7068,True
3,1.611114,-0.4140636,0.06429078,-0.1047574,-1.550765,-4.598212,-1.647091,0.503364,1.481515,0.3992584,-1.320071,1.140347,1.5,58.5,-0.07391985,-0.1812782,0.1461353,-0.2821651,0.4181087,1.492891,0.7315988,1.587931,0.330924,-0.01091558,-0.02461596,-0.1737477,-1.427579,0.07233172,0.1119651,0.8026216,1.558217,0.1761162,0.316473,1.726249,0.2770846,317.0201,77.75854,166.6804,True
3,1.622225,-0.3884837,0.05688523,-0.1068931,-1.551726,-4.600816,-1.639153,0.5033264,1.483243,0.3990352,-1.322703,-0.2542485,2,53.8,-0.05471826,-0.1685396,0.1418619,-0.2856357,0.4053467,1.50567,0.7322156,1.587809,0.3301082,-0.01632693,-0.01716739,-0.1864917,-1.432109,0.07235356,0.1128078,0.8029346,1.557924,0.175544,0.315484,1.727109,0.2769985,316.6898,77.80074,166.6966,True
3,1.633336,-0.3756874,0.05588062,-0.100517,-1.552248,-4.601755,-1.635414,0.5033109,1.484055,0.398911,-1.31009,1.152329,2,53.8,-0.03250585,-0.181244,0.1256002,-0.2880038,0.4017695,1.508668,0.7325068,1.587861,0.3298304,-0.01315479,-0.02677996,-0.1801191,-1.434001,0.07176993,0.1132251,0.8029851,1.557762,0.1751523,0.3143967,1.72759,0.276928,316.5189,77.87773,166.6753,True
3,1.644447,-0.3586438,0.05592376,-0.09841586,-1.55279,-4.602787,-1.631941,0.5033928,1.484811,0.3988602,-1.307871,0.1884349,2,53.8,-0.02513778,-0.1950626,0.1200894,-0.2905573,0.3974137,1.512949,0.732736,1.587959,0.329504,-0.008898407,-0.03852395,-0.1726788,-1.435605,0.07099149,0.1132363,0.803043,1.557659,0.1749606,0.3128939,1.728821,0.2768749,316.0229,77.98053,166.636,True
3,1.655559,-0.3415952,0.05061695,-0.1016163,-1.553039,-4.604048,-1.628648,0.503593,1.48558,0.3987243,-1.302924,0.4472738,2.5,51.5,-0.02393,-0.1984405,0.1402938,-0.2926463,0.3890218,1.521225,0.7330089,1.588214,0.3292496,-0.005720958,-0.04921472,-0.1663051,-1.437427,0.06998055,0.1134744,0.803262,1.557522,0.1747456,0.3116225,1.729981,0.2769706,315.7002,78.07371,166.6706,True
3,1.66667,-0.3320026,0.04743233,-0.103748,-1.553397,-4.605282,-1.625296,0.5036876,1.486392,0.3986564,-1.296947,0.5379624,2.5,51.5,-0.01637276,-0.1953769,0.1509164,-0.2946681,0.3815926,1.5281,0.7333007,1.588249,0.3287714,-0.005717739,-0.05453537,-0.1620382,-1.439155,0.06940743,0.1136501,0.8033859,1.557328,0.1744277,0.3106561,1.730845,0.2771957,315.5665,78.06833,166.7935,True
3,1.677781,-0.311756,0.03891855,-0.1111951,-1.553444,-4.606749,-1.622526,0.5038562,1.48703,0.398566,-1.290422,0.5871424,2.6,53.2,-0.01725331,-0.1784874,0.1691879,-0.2958197,0.3730131,1.536579,0.7335089,1.588376,0.328413,-0.01858036,-0.06405519,-0.1640529,-1.441345,0.06846308,0.1144129,0.8035386,1.557224,0.1741943,0.3099016,1.731418,0.2774971,315.5273,78.04151,166.941,True
3,1.688892,-0.2861851,0.03469008,-0.1165439,-1.553622,-4.608219,-1.620251,0.5040011,1.48783,0.3985372,-1.283293,0.6417872,2.6,53.2,-0.008657455,-0.1550671,0.1693332,-0.2965291,0.3669628,1.542189,0.7337357,1.58855,0.328279,-0.02915098,-0.05547573,-0.1597037,-1.442952,0.06818026,0.1152811,0.8036413,1.557106,0.1741385,0.3091877,1.731826,0.2777999,315.5035,78.05148,167.0625,True
3,1.700003,-0.2627373,0.03370829,-0.1101907,-1.553886,-4.609277,-1.618093,0.5041183,1.488513,0.3984482,-1.276487,0.6117228,2.6,53.2,-0.009929329,-0.1526778,0.1416627,-0.2981473,0.3649081,1.544397,0.7339629,1.58865,0.3280134,-0.02053414,-0.05338885,-0.1512661,-1.444404,0.06783125,0.1151463,0.8036777,1.556991,0.1739526,0.3083509,1.732184,0.2780651,315.454,78.08183,167.1434,True
3,1.711114,-0.2424875,0.0348587,-0.1027722,-1.554313,-4.610202,-1.616026,0.504238,1.489138,0.3984494,-1.269379,0.6393945,2.6,49.2,-0.01002505,-0.1600415,0.1298825,-0.3003481,0.3608224,1.548243,0.7343196,1.588612,0.3276963,-0.02689315,-0.0554858,-0.1458784,-1.445904,0.06709675,0.1157703,0.8037928,1.556854,0.1739154,0.3073241,1.732428,0.2782738,315.3602,78.1358,167.1907,True
3,1.722225,-0.2307728,0.03917598,-0.09642227,-1.554827,-4.611091,-1.613749,0.5043616,1.489727,0.3983438,-1.261624,0.6982113,2.2,46.9,-0.0005365908,-0.1642153,0.118055,-0.3021633,0.3575179,1.551044,0.7346743,1.588681,0.3274169,-0.02695061,-0.05869035,-0.1501494,-1.448021,0.06653855,0.1161463,0.8039323,1.556822,0.1737225,0.3060147,1.732579,0.2784259,315.1913,78.18117,167.2258,True
3,1.733337,-0.2179859,0.04243048,-0.09006852,-1.555331,-4.611909,-1.611729,0.5045223,1.49023,0.3982038,-1.253608,0.7213096,2.2,46.9,0.01229639,-0.1643025,0.1232889,-0.3039476,0.3521352,1.555481,0.7349626,1.588956,0.3272555,-0.02809896,-0.06404413,-0.1544173,-1.450331,0.06551163,0.1167679,0.8041461,1.556811,0.1735971,0.3044255,1.732548,0.2785227,314.934,78.18217,167.2973,True
3,1.744448,-0.1988297,0.04993403,-0.09013788,-1.556148,-4.613002,-1.610051,0.5048223,1.490644,0.3981135,-1.245157,0.7610342,2.2,46.9,0.005029142,-0.155959,0.14579,-0.3053213,0.3440078,1.563478,0.7352763,1.589095,0.3269453,-0.02917613,-0.07042481,-0.1512034,-1.452029,0.06468365,0.1172355,0.804302,1.556686,0.1733875,0.3025869,1.732302,0.278576,314.5766,78.16199,167.3905,True
3,1.755559,-0.1839303,0.06065316,-0.08382279,-1.557175,-4.613756,-1.608508,0.5050292,1.491085,0.3979919,-1.237031,0.7307562,2.2,46.9,-0.009856626,-0.1334755,0.1397157,-0.3059168,0.3394186,1.568514,0.7353983,1.589172,0.3268154,-0.02064019,-0.07369485,-0.1459816,-1.454054,0.06361107,0.117521,0.8044773,1.556635,0.1730888,0.3005567,1.731866,0.2785833,314.1216,78.13348,167.5189,True
3,1.76667,-0.1732811,0.06388734,-0.08065709,-1.557945,-4.614526,-1.606887,0.5052801,1.491452,0.39803,-1.228938,0.7280815,1.5,39.5,-0.006664932,-0.1120867,0.1281854,-0.3066417,0.33515,1.572312,0.7357676,1.589055,0.3263693,-0.0227879,-0.07582191,-0.1448967,-1.455791,0.06275006,0.118149,0.8046412,1.55657,0.1728663,0.2984423,1.73123,0.2785529,313.5995,78.11359,167.643,True
3,1.777781,-0.1668772,0.06286917,-0.07427779,-1.558555,-4.615256,-1.605179,0.505499,1.491841,0.3979805,-1.22065,0.745997,1.2,48.7,0.009240389,-0.1131246,0.1195259,-0.3079509,0.332066,1.574665,0.7360797,1.589055,0.3261569,-0.01207036,-0.07268029,-0.1407281,-1.457171,0.06228761,0.1179059,0.8045188,1.556339,0.1727197,0.2963271,1.730429,0.2785274,313.0455,78.10339,167.7324,True
3,1.788892,-0.1658053,0.06289275,-0.07001834,-1.559234,-4.615926,-1.603363,0.5057164,1.492142,0.3979466,-1.212168,0.7636122,1.2,48.7,0.01868904,-0.1290098,0.1065274,-0.3099147,0.3296669,1.576366,0.7364089,1.589115,0.3261485,-0.01519005,-0.06415159,-0.1375141,-1.458673,0.06183101,0.1183176,0.8046333,1.556273,0.1726332,0.2942298,1.729572,0.2785358,312.5045,78.06603,167.8257,True
3,1.800003,-0.1551363,0.05760372,-0.06788071,-1.559714,-4.616695,-1.601944,0.5059237,1.492514,0.3979428,-1.203707,0.7615513,1.2,48.7,0.0293379,-0.1322538,0.1085391,-0.3114482,0.3258778,1.579426,0.7366561,1.58901,0.3259957,-0.009773567,-0.0684472,-0.1237544,-1.460398,0.06089118,0.1184963,0.8049626,1.55629,0.1724315,0.2921987,1.7287,0.2786025,311.9908,78.02638,167.9256,True
3,1.811115,-0.1476681,0.05229238,-0.06786443,-1.560088,-4.617446,-1.600467,0.5061325,1.492826,0.3979781,-1.195288,0.7577872,1,43.1,0.03018637,-0.1351928,0.08080995,-0.3129395,0.3258547,1.579129,0.7369453,1.588958,0.3258679,0.004117109,-0.07491483,-0.1164165,-1.4616,0.05998557,0.1178534,0.8051627,1.556141,0.1723118,0.2902516,1.727876,0.2787134,311.5223,77.98039,168.0636,True
3,1.822226,-0.1433747,0.03630712,-0.07098781,-1.559964,-4.618338,-1.598969,0.5063617,1.49314,0.3979838,-1.187415,0.7079415,0.8,42.8,0.02901742,-0.132922,0.06592429,-0.3143611,0.3251234,1.579542,0.7372442,1.588906,0.3257043,0.01465173,-0.0888439,-0.1186717,-1.463858,0.05861085,0.1175969,0.805428,1.55617,0.1721053,0.2884178,1.727111,0.2788568,311.099,77.92672,168.2173,True
3,1.833337,-0.1391076,0.03205644,-0.07203989,-1.560249,-4.619212,-1.597503,0.5066022,1.493365,0.3980105,-1.179164,0.7429659,0.8,42.8,0.03533938,-0.1200152,0.04896056,-0.3154141,0.3243714,1.579401,0.7375998,1.588692,0.3252099,0.01247285,-0.08991911,-0.1228945,-1.465291,0.0575304,0.117736,0.8053617,1.555945,0.1718776,0.2866921,1.726396,0.2790189,310.7346,77.89138,168.3471,True
3,1.844448,-0.131658,0.03311986,-0.07525405,-1.560581,-4.620178,-1.596246,0.5068741,1.493588,0.3978539,-1.170918,0.7421042,0.8,42.8,0.03012933,-0.1062315,0.05764514,-0.3162062,0.3215424,1.581802,0.7378424,1.588785,0.3251016,0.009274796,-0.08138448,-0.1303369,-1.467127,0.05713199,0.1176779,0.8055967,1.555738,0.1715324,0.2850633,1.725681,0.2791874,310.4147,77.86609,168.4631,True
3,1.855559,-0.122089,0.0373828,-0.07848471,-1.561062,-4.621141,-1.595122,0.5072145,1.493806,0.3977911,-1.162757,0.7343543,0.8,42.8,0.03757691,-0.1051716,0.05652487,-0.3172464,0.3200502,1.582605,0.7381201,1.588792,0.3249063,0.01256492,-0.07501084,-0.1250446,-1.468338,0.05659311,0.1174126,0.8057005,1.555594,0.1713784,0.2835057,1.724931,0.2793345,310.1158,77.86554,168.5561,True
3,1.86667,-0.122089,0.0373828,-0.07848471,-1.561062,-4.621141,-1.595122,0.5072145,1.493806,0.3977911,-1.154802,0.7157544,0.8,42.8,0.03757691,-0.1051716,0.05652487,-0.3172464,0.3200502,1.582605,0.7381201,1.588792,0.3249063,0.01256492,-0.07501084,-0.1250446,-1.468338,0.05659311,0.1174126,0.8057005,1.555594,0.1713784,0.2819873,1.724125,0.2794593,309.8177,77.84413,168.6608,True
3,1.877781,-0.1050471,0.04813196,-0.06684962,-1.562422,-4.622398,-1.593277,0.5077318,1.494213,0.3977764,-1.147872,0.6219915,0.6,47.7,0.02806725,-0.1041566,0.0672563,-0.3193396,0.3145442,1.587622,0.7387874,1.588944,0.3246186,0.004278995,-0.06957376,-0.1047345,-1.470174,0.05576393,0.117398,0.8059421,1.555452,0.170764,0.2804667,1.723234,0.2795378,309.5426,77.80595,168.7876,True
3,1.888893,-0.09970308,0.04390354,-0.06257653,-1.562719,-4.622987,-1.592335,0.5079827,1.494488,0.3977323,-1.137916,0.8997703,0.6,47.7,0.03243497,-0.09467634,0.07583654,-0.3203154,0.3107764,1.59044,0.7391498,1.588836,0.3243403,-0.005169392,-0.05775771,-0.1035978,-1.471227,0.05612878,0.1169658,0.8062253,1.555016,0.1705792,0.2788839,1.722168,0.2795477,309.2592,77.72369,168.9132,True
3,1.900004,-0.09435749,0.03645733,-0.06254745,-1.562839,-4.623665,-1.5915,0.5082559,1.494675,0.3977001,-1.13089,0.6295443,0.6,47.7,0.03251499,-0.08301211,0.0823285,-0.3207687,0.3075402,1.593208,0.7394424,1.58886,0.3241308,-0.003079593,-0.06416158,-0.103602,-1.472373,0.05534661,0.1169889,0.80639,1.554882,0.1703756,0.2771972,1.721163,0.2795572,308.7466,77.69396,168.9679,True
3,1.911115,-0.08904006,0.03859243,-0.06363253,-1.5633,-4.624427,-1.590625,0.508634,1.494817,0.3976367,-1.123252,0.6880866,0.7,37.9,0.03779221,-0.06693752,0.06858691,-0.3211911,0.3069048,1.593134,0.7398002,1.58886,0.3239145,-0.004095681,-0.08220641,-0.08864721,-1.472814,0.05437988,0.1166686,0.8064945,1.554893,0.1700904,0.2755021,1.720168,0.2796079,308.2773,77.67324,169.0385,True
3,1.922226,-0.084798,0.04605404,-0.06474157,-1.564031,-4.625186,-1.589842,0.5089519,1.495009,0.3975542,-1.115677,0.6816637,0.7,37.9,0.03239754,-0.07111363,0.0611307,-0.3221072,0.3056216,1.594153,0.7401317,1.588866,0.3237422,-0.006241649,-0.0843054,-0.08649781,-1.473835,0.05373647,0.1171551,0.8066471,1.554892,0.1697948,0.273824,1.719172,0.2796731,307.8624,77.6211,169.1763,True
3,1.933337,-0.07419606,0.06415313,-0.06494344,-1.564438,-4.627173,-1.589071,0.5092187,1.495367,0.3977473,-1.10805,0.6865155,0.6,36.2,0.02918504,-0.07643539,0.06003313,-0.3233632,0.3040048,1.595342,0.7405416,1.588799,0.32357,-0.01042929,-0.08533679,-0.07793042,-1.474456,0.05278412,0.1174646,0.8068446,1.554758,0.1695919,0.2722118,1.718108,0.2797341,307.4765,77.57137,169.3202,True
3,1.944448,-0.06998347,0.09187142,-0.05980325,-1.565967,-4.62824,-1.588522,0.5095252,1.495382,0.3977349,-1.100617,0.6687797,0.6,36.2,0.02918858,-0.08285671,0.06316963,-0.3245126,0.3015858,1.597308,0.7408702,1.58877,0.3233905,-0.00496839,-0.0821448,-0.06412716,-1.474688,0.05224004,0.1174896,0.807073,1.554474,0.1694067,0.270674,1.71699,0.2797949,307.0797,77.51144,169.4552,True
3,1.955559,-0.07320019,0.1004038,-0.05664862,-1.567349,-4.628817,-1.587518,0.5097306,1.495479,0.3977547,-1.093193,0.6682057,0.6,36.2,0.0377661,-0.07760687,0.06741145,-0.3253515,0.2989546,1.598987,0.7411968,1.588584,0.3232958,0.003428295,-0.08010249,-0.08017798,-1.476096,0.05133629,0.117223,0.807294,1.554388,0.1692367,0.2691406,1.715922,0.2798791,306.6824,77.49551,169.5087,True
3,1.966671,-0.08064944,0.1014463,-0.05140364,-1.567736,-4.630349,-1.58631,0.5099148,1.495726,0.3978586,-1.086009,0.646244,0.6,43.4,0.04312401,-0.06909865,0.06638379,-0.3259507,0.2969395,1.600104,0.7415323,1.588579,0.3232052,0.006498098,-0.08012435,-0.09299032,-1.477661,0.05080912,0.1172718,0.807493,1.554229,0.1689503,0.2675727,1.714933,0.2800885,306.299,77.56849,169.4353,True
3,1.977782,-0.08381142,0.08653136,-0.0502567,-1.568218,-4.63085,-1.585243,0.5100918,1.49592,0.3979008,-1.07823,0.7009488,0.8,44.1,0.04301427,-0.07431445,0.05460991,-0.3269217,0.2966759,1.599999,0.7417804,1.5886,0.3230348,0.01292098,-0.0759144,-0.09303731,-1.47857,0.05006397,0.1169442,0.8076344,1.554168,0.1687269,0.2660368,1.713901,0.280482,305.9631,77.46584,169.5708,True
3,1.988893,-0.07842761,0.05343048,-0.06611402,-1.567353,-4.632654,-1.584455,0.5103306,1.496276,0.3980887,-1.070706,0.6771624,0.8,44.1,0.0440386,-0.06571512,0.04615778,-0.3273755,0.2961164,1.60007,0.7420086,1.588738,0.323004,0.004560955,-0.07368748,-0.07591493,-1.478792,0.04965757,0.1172371,0.8077725,1.554182,0.168659,0.2644726,1.712895,0.2810011,305.6317,77.28142,169.8813,True
3,2.000004,-0.07412976,0.03529532,-0.07348527,-1.567193,-4.633735,-1.583786,0.5106274,1.496689,0.3981159,-1.063617,0.6376686,0.8,44.1,0.04081159,-0.06567049,0.04297631,-0.3280242,0.2952724,1.600602,0.7422545,1.588827,0.3228655,0.002503209,-0.0779321,-0.06523146,-1.479202,0.04851254,0.1173474,0.8079747,1.554146,0.1684537,0.2628698,1.711949,0.2815748,305.2811,77.20635,170.1519,True
3,2.011115,-0.07408348,0.01819791,-0.07453358,-1.565923,-4.635454,-1.582878,0.5108637,1.496975,0.3976972,-1.056735,0.618968,0.7,43.9,0.02900825,-0.08370024,0.03863496,-0.3294927,0.2945963,1.601246,0.7425982,1.58899,0.3225813,0.01119799,-0.07368843,-0.04826603,-1.479178,0.04804169,0.1170379,0.8081897,1.554153,0.1683545,0.2612966,1.711019,0.2821231,304.9266,77.13522,170.4305,True
3,2.022226,-0.0772268,-0.002091311,-0.07977036,-1.564966,-4.636709,-1.582003,0.5112048,1.497431,0.3975601,-1.049706,0.6326767,0.7,43.9,0.01739541,-0.07524115,0.04945232,-0.3300903,0.2918971,1.603978,0.7428786,1.589111,0.3224039,0.001687288,-0.05445461,-0.04817765,-1.479352,0.0481136,0.1180108,0.8084036,1.554285,0.1680858,0.2597609,1.710093,0.282594,304.5643,77.19109,170.5629,True
3,2.033337,-0.07399607,-0.01486095,-0.07863637,-1.564419,-4.637413,-1.581349,0.5113585,1.49787,0.3975079,-1.042315,0.6655915,0.6,39.4,0.01433246,-0.05187121,0.05927686,-0.3296791,0.2887231,1.60705,0.7430906,1.589185,0.3222833,-0.02510238,-0.04899504,-0.07030456,-1.480777,0.04774928,0.1191083,0.8085706,1.554149,0.1679397,0.2582735,1.709166,0.2829339,304.2268,77.18495,170.7769,True
3,2.044448,-0.0729432,-0.006304376,-0.07124615,-1.564482,-4.638259,-1.580507,0.5116017,1.498299,0.3974323,-1.035182,0.6418315,0.6,39.4,0.005743355,-0.04534619,0.04768127,-0.3299523,0.2883438,1.607631,0.7433393,1.589332,0.3221176,-0.0348188,-0.04787078,-0.08192523,-1.481948,0.04756952,0.1202186,0.8087906,1.554259,0.1678212,0.2568284,1.708201,0.2830271,303.9082,77.22703,170.9685,True
3,2.055559,-0.07725462,0.01498682,-0.07241214,-1.5654,-4.639069,-1.579548,0.5117518,1.498756,0.3973408,-1.028284,0.6204614,0.6,39.4,-0.02215967,-0.05247976,0.02331611,-0.3306453,0.2906165,1.606731,0.7435022,1.589544,0.3219068,-0.04230002,-0.04996757,-0.08396485,-1.482685,0.04686191,0.1208516,0.8089076,1.554118,0.1676745,0.2554224,1.707237,0.2828722,303.5357,77.29588,170.9873,True
3,2.06667,-0.09223061,0.0405124,-0.07253654,-1.566645,-4.640022,-1.577986,0.5119384,1.499262,0.3971806,-1.021014,0.6547695,0.6,37,-0.02491399,-0.03910903,0.07780206,-0.3306069,0.2820065,1.615328,0.7438046,1.589708,0.3214531,-0.05507869,-0.05093666,-0.07745725,-1.483412,0.04644952,0.1225917,0.8091637,1.553776,0.1673517,0.2540219,1.706302,0.2825332,303.1584,77.32584,170.9065,True
3,2.077781,-0.09755927,0.04159103,-0.06720616,-1.567117,-4.640514,-1.576653,0.5121551,1.4999,0.3970766,-1.013785,0.650619,0.6,30.9,-0.01951204,-0.04028861,0.08947524,-0.3310064,0.2778524,1.619367,0.744125,1.589851,0.3211775,-0.06156932,-0.05411135,-0.0795072,-1.484235,0.045633,0.1243427,0.8093069,1.553691,0.1670723,0.2526175,1.705412,0.282125,302.7642,77.33002,170.7838,True
3,2.088892,-0.1007265,0.03095439,-0.06289443,-1.567097,-4.641185,-1.575411,0.5124013,1.500674,0.3969884,-1.006126,0.690112,0.6,30.9,-0.01642147,-0.07866814,0.09123024,-0.3332126,0.2749366,1.62222,0.7446041,1.590044,0.3209393,-0.05838152,-0.05841371,-0.078449,-1.48499,0.04464257,0.1248455,0.8095111,1.553586,0.1668496,0.2511716,1.704628,0.2817789,302.3672,77.2877,170.7017,True
3,2.100003,-0.1070814,0.01388629,-0.06492775,-1.566733,-4.641941,-1.574005,0.5126667,1.50154,0.3968289,-0.9992862,0.6148143,0.6,30.9,-0.01220712,-0.1010762,0.09418356,-0.3350949,0.2719498,1.625043,0.7449126,1.590217,0.3207176,-0.05089055,-0.06058662,-0.07318301,-1.485621,0.04397212,0.1251843,0.8097801,1.553563,0.1666222,0.2497152,1.703986,0.2815859,301.9462,77.20192,170.7312,True
3,2.111114,-0.1976661,0.02215721,-0.07232871,-1.567358,-4.643051,-1.568973,0.5131272,1.502176,0.3968415,-0.9924201,0.6180015,0.6,30.9,-0.01101582,-0.09481804,0.1059566,-0.3362848,0.2670061,1.629504,0.7453083,1.590347,0.3203166,-0.06603394,-0.07221919,-0.08474041,-1.487029,0.04300299,0.1271827,0.8100201,1.553506,0.1665037,0.2483274,1.703471,0.2815459,301.5431,77.12244,170.8563,True
3,2.122225,-0.2573748,0.04331681,-0.07236966,-1.568547,-4.643866,-1.564094,0.5134679,1.50295,0.3967414,-0.9852759,0.6432908,0.4,22.8,-0.02668759,-0.0694907,0.1361437,-0.3364483,0.259086,1.637704,0.7457118,1.590748,0.3199058,-0.08409765,-0.0657019,-0.08031062,-1.487695,0.0426448,0.1292499,0.8104468,1.553629,0.1663804,0.2470372,1.703075,0.2816109,301.1868,77.07841,171.0216,True
3,2.133336,-0.2456218,0.03265388,-0.07231275,-1.568143,-4.644255,-1.562031,0.5137216,1.503926,0.3966682,-0.9748799,0.9406072,0.6,19,-0.03496759,-0.05694759,0.1650905,-0.3369117,0.2504869,1.646638,0.7460473,1.591263,0.3195353,-0.1019046,-0.03683259,-0.06844009,-1.487647,0.04281018,0.130794,0.8107387,1.553706,0.1662028,0.2458802,1.702759,0.2817384,300.8764,77.06325,171.1573,True
3,2.144447,-0.1730697,-0.01730042,-0.08491962,-1.566314,-4.645576,-1.562624,0.5138934,1.505074,0.3966975,-0.9682156,0.5971463,0.6,19,-0.011334,-0.04549474,0.1873963,-0.3371317,0.2421969,1.653835,0.7463516,1.591994,0.3192289,-0.1187891,-0.02285651,-0.05978528,-1.488052,0.04315373,0.1327338,0.8110638,1.553633,0.1661193,0.2449144,1.702698,0.2819716,300.456,76.97044,171.3087,True
3,2.155558,-0.13039,-0.04812369,-0.09226407,-1.564828,-4.646835,-1.562513,0.5141035,1.506169,0.396663,-0.9647759,0.3055977,0.6,19,-0.007024109,-0.04664257,0.1948139,-0.3379551,0.2351606,1.660469,0.7466886,1.592734,0.3187778,-0.1634225,-0.01938903,-0.05083773,-1.488054,0.04262003,0.1360239,0.8113744,1.553799,0.1659472,0.2441886,1.703105,0.2823115,300.1001,76.83817,171.5423,True
3,2.166669,-0.08451752,-0.08628285,-0.09855018,-1.564119,-4.649024,-1.562938,0.5144054,1.507587,0.3971038,-0.9612856,0.3123077,1,13.8,-0.03124119,-0.01910695,0.2218831,-0.3374811,0.2246474,1.671621,0.7468767,1.593598,0.3183484,-0.2142541,0.004411612,-0.03228065,-1.487556,0.04356252,0.1403017,0.8116827,1.554006,0.1660156,0.2437431,1.703802,0.2826541,300.0457,76.86948,171.693,True
3,2.17778,-0.07486071,-0.1204148,-0.1111644,-1.561795,-4.650589,-1.562279,0.5147235,1.508908,0.3971829,-0.9541978,0.6407573,1,13.8,-0.04471317,0.03820271,0.2502052,-0.3354678,0.2128577,1.68379,0.7471309,1.594449,0.3177769,-0.2418369,0.01523507,-0.02882339,-1.487378,0.0439078,0.1435793,0.811702,1.553934,0.165822,0.2434111,1.704435,0.2829062,300.2801,77.11875,171.5987,True
3,2.188891,-0.08868662,-0.1406889,-0.1206488,-1.560269,-4.652634,-1.560755,0.5150886,1.510176,0.3973372,-0.948064,0.5508249,0.9,12.9,-0.06043932,0.03580353,0.2854584,-0.3356265,0.1996211,1.697471,0.7474395,1.595529,0.3171546,-0.2525534,0.0004161596,-0.02231143,-1.487445,0.04364761,0.1471117,0.8119633,1.554068,0.1654198,0.242926,1.704849,0.283058,300.4288,77.34348,171.3765,True
3,2.200002,-0.1398135,-0.1547675,-0.141821,-1.55818,-4.654864,-1.557441,0.5154799,1.511629,0.3974819,-0.9406679,0.667548,0.9,12.9,-0.06878114,0.0238411,0.3163052,-0.3362731,0.186076,1.711423,0.7476747,1.596516,0.3164415,-0.2673373,0.004770122,-0.01257923,-1.487036,0.04354947,0.1503837,0.8122374,1.554224,0.1651635,0.242106,1.705028,0.2832469,300.3467,77.57848,171.062,True
3,2.211113,-0.1440567,-0.1750731,-0.1587629,-1.556117,-4.657351,-1.555724,0.5157568,1.513168,0.3974495,-0.9335839,0.6380209,0.9,12.9,-0.07905343,0.03944074,0.3612703,-0.3361783,0.1686018,1.729183,0.7478484,1.597798,0.3157477,-0.3174188,0.01787968,-0.02171215,-1.487337,0.0445174,0.155747,0.8125453,1.554384,0.1649721,0.2409744,1.704935,0.2834564,300.0366,77.80061,170.8981,True
3,2.222224,-0.07152059,-0.2250858,-0.1788286,-1.551958,-4.659914,-1.557121,0.5160462,1.514807,0.3974478,-0.9260392,0.6809639,1.4,11.6,-0.09174888,0.09069664,0.3511855,-0.3342054,0.1570852,1.741266,0.7480139,1.599077,0.3146839,-0.3668063,0.01705319,-0.06064137,-1.488835,0.0446957,0.1616347,0.8131886,1.554599,0.1644299,0.2396134,1.704707,0.2836981,299.5173,78.01585,170.8032,True
3,2.233335,-0.01925357,-0.2644729,-0.1957278,-1.54774,-4.66255,-1.558447,0.5163329,1.516602,0.3973989,-0.9221328,0.3480731,1.2,11.9,-0.1097705,0.1002596,0.3599258,-0.3336302,0.1434617,1.755988,0.7481483,1.600419,0.313875,-0.3721758,0.001072176,-0.05416883,-1.489207,0.04365267,0.1659607,0.8136127,1.555124,0.1640542,0.2381439,1.704642,0.2839642,298.8353,78.26223,170.733,True
3,2.244446,0.01273807,-0.2889923,-0.2148084,-1.543847,-4.665496,-1.559492,0.516616,1.518451,0.397445,-0.9202068,0.1700013,1.2,11.9,-0.1224627,0.1140897,0.3644063,-0.3329841,0.1301587,1.770132,0.7482753,1.601748,0.3130746,-0.3920653,-0.006174613,-0.008163996,-1.487934,0.04334135,0.1713323,0.8139594,1.55539,0.163739,0.2367705,1.704819,0.2842339,298.2766,78.61316,170.6156,True
3,2.255557,0.02552531,-0.2964571,-0.2222407,-1.540406,-4.668171,-1.559952,0.516856,1.520171,0.3975008,-0.9151815,0.454453,1.2,11.9,-0.1201088,0.1277182,0.3890112,-0.3320632,0.1137796,1.78684,0.7482598,1.603184,0.3121879,-0.406761,-0.01350707,0.01863787,-1.486578,0.04264413,0.1760802,0.813926,1.555615,0.1633658,0.235623,1.704991,0.2844314,298.0091,79.13723,170.3411,True
3,2.266668,0.03616195,-0.2890718,-0.2350486,-1.537088,-4.670769,-1.560674,0.5171175,1.522018,0.3974776,-0.9097539,0.4888986,0.8,10.6,-0.1143325,0.1635057,0.4329771,-0.330624,0.09294326,1.807453,0.748323,1.60476,0.3112237,-0.5006456,-0.01075728,0.004584199,-1.486964,0.04302989,0.184977,0.8141174,1.555843,0.1627936,0.2345603,1.705109,0.2844987,297.8223,79.67153,169.971,True
3,2.277779,0.04042704,-0.294409,-0.2392858,-1.533682,-4.673566,-1.561108,0.5174052,1.523728,0.3975458,-0.9046583,0.4592528,0.8,10.6,-0.1142587,0.1698186,0.4415509,-0.3298996,0.07645775,1.824441,0.7483589,1.606387,0.3102982,-0.5239248,0.002188213,0.01222809,-1.486652,0.04344721,0.1913891,0.814275,1.55596,0.1623609,0.23348,1.705205,0.2844747,297.5709,80.2077,169.4922,True
3,2.28889,0.06392193,-0.3253989,-0.264701,-1.528684,-4.677045,-1.562593,0.5176964,1.525689,0.3975537,-0.9010428,0.324587,0.8,9.3,-0.1269499,0.1912555,0.4365151,-0.3284248,0.06025109,1.841629,0.7483563,1.608081,0.3091302,-0.5138342,0.01818445,0.05259887,-1.484367,0.04415495,0.1961935,0.8145661,1.556072,0.1621468,0.2323779,1.705345,0.2844234,297.2156,80.69118,169.0341,True
3,2.300001,0.08415109,-0.3318421,-0.283866,-1.524821,-4.680795,-1.563944,0.518087,1.527478,0.3975837,-0.8975471,0.3151692,0.8,9.3,-0.1141307,0.212438,0.4398235,-0.3269462,0.04270113,1.858936,0.7484037,1.610009,0.3080478,-0.5330068,-0.007241879,0.07090966,-1.483323,0.04274001,0.2027728,0.8148464,1.556422,0.1616473,0.2313122,1.70559,0.2843862,296.826,81.19572,168.5853,True
3,2.311112,0.1012149,-0.3403838,-0.2944835,-1.520708,-4.684236,-1.565536,0.5184423,1.529337,0.3977456,-0.8957899,0.1564341,0.8,9.3,-0.1063018,0.2205017,0.4856535,-0.3265547,0.01929766,1.881823,0.7483515,1.611928,0.306953,-0.5764729,-0.02284829,0.1032765,-1.481316,0.04206436,0.2104962,0.8150945,1.556757,0.1610682,0.2303653,1.705952,0.2844024,296.4663,81.80753,168.0699,True
3,2.322223,0.1321209,-0.354263,-0.3146872,-1.516324,-4.688396,-1.567862,0.5188704,1.531279,0.3977852,-0.8933313,0.2221374,0.6,6.4,-0.08683158,0.2414849,0.5165861,-0.3253328,-0.00370499,1.904009,0.7482557,1.613879,0.3058922,-0.6157274,-0.03640784,0.1281494,-1.479531,0.04082333,0.2183627,0.8154712,1.557101,0.1609313,0.2295549,1.706421,0.2844812,296.2097,82.62167,167.3864,True
3,2.333334,0.155592,-0.3691931,-0.3274018,-1.511548,-4.692245,-1.570208,0.5192576,1.533245,0.3980515,-0.8913893,0.1744373,0.4,5.1,-0.07383653,0.2593579,0.5379626,-0.324291,-0.02732736,1.926745,0.7482393,1.615612,0.3046858,-0.6520327,-0.04363611,0.1242315,-1.478493,0.03980094,0.2270097,0.8156726,1.557446,0.1603782,0.2288981,1.706946,0.2846962,296.013,83.37485,166.7166,True
3,2.344445,0.1929173,-0.3915443,-0.340099,-1.506349,-4.696195,-1.573292,0.5196009,1.53504,0.398051,-0.8902884,0.09810757,0.4,5.1,-0.07810351,0.2476076,0.5442848,-0.3242798,-0.04916501,1.948683,0.7480576,1.617268,0.3033378,-0.6517332,-0.02864238,0.1444124,-1.476385,0.04025155,0.2338223,0.8157755,1.558016,0.1593213,0.2283321,1.707551,0.2850753,295.8499,84.05721,166.1408,True
3,2.355556,0.1992854,-0.3840872,-0.3433354,-1.502364,-4.700054,-1.575398,0.5198648,1.536671,0.3980403,-0.8886958,0.1438665,0.4,5.1,-0.08987774,0.2370272,0.5410736,-0.3243171,-0.06874604,1.968663,0.7480619,1.618922,0.3020756,-0.6366595,-0.02340014,0.1581009,-1.474447,0.03959748,0.2404118,0.8160554,1.558385,0.1586807,0.2278023,1.708193,0.285616,295.7316,84.81329,165.5517,True
3,2.366668,0.1597974,-0.352221,-0.3423711,-1.499535,-4.703601,-1.575528,0.5202218,1.538107,0.398072,-0.8879299,0.06784554,0.3,3.2,-0.1109713,0.2079536,0.5825194,-0.3262458,-0.09380239,1.994468,0.7480661,1.620565,0.3006318,-0.6044148,-0.01820602,0.1844126,-1.471704,0.03934847,0.2459038,0.8160373,1.559205,0.158071,0.2272637,1.708811,0.2862948,295.6442,85.57499,165.0107,True
3,2.377779,0.128795,-0.3075285,-0.3372384,-1.497685,-4.707133,-1.575495,0.5204495,1.539643,0.3979406,-0.8857072,0.201923,0.3,3.2,-0.1141774,0.1620094,0.5991639,-0.3289686,-0.1143037,2.015178,0.7480546,1.622234,0.2994149,-0.5959539,-0.03104712,0.1864449,-1.470257,0.03803647,0.252228,0.816696,1.559344,0.1573939,0.2266768,1.709281,0.2870252,295.6137,86.28095,164.5926,True
3,2.38889,0.2129253,-0.2945891,-0.341656,-1.494505,-4.710929,-1.580292,0.5204033,1.541382,0.3977027,-0.8825508,0.2862498,0.1,2.6,-0.0834828,0.1290079,0.580515,-0.331375,-0.1297081,2.02918,0.7479331,1.623775,0.2977536,-0.6024266,-0.01927527,0.1641115,-1.469098,0.03840105,0.2583834,0.8169951,1.559396,0.1569028,0.225982,1.709599,0.287764,295.499,86.82757,164.2943,True
3,2.400001,0.2831818,-0.2763177,-0.3439578,-1.491987,1.568519,-1.585558,0.5205135,1.542952,0.3975654,-0.8814301,0.09973844,0.1,2.6,-0.05613101,0.1411046,0.5303516,-0.3313404,-0.1435544,2.042004,0.7476382,1.625347,0.2964752,-0.6141341,0.007436454,0.1460215,-1.468238,0.03946645,0.2652721,0.8170177,1.560283,0.1561203,0.2252057,1.70993,0.2884955,295.1879,87.242,164.094,True
3,2.411112,0.2992215,-0.2900628,-0.3289756,-1.488061,1.56564,-1.589074,0.520492,1.544665,0.397454,-0.8856001,-0.3822377,0.1,2.6,-0.113471,0.2255505,0.5177015,-0.328894,-0.1651967,2.065529,0.7473079,1.626577,0.2952347,-0.6001981,0.03289601,0.1373174,-1.466932,0.040261,0.271326,0.8169929,1.560554,0.1555147,0.2243493,1.710533,0.2891847,294.8201,87.67338,163.9171,True
3,2.422223,0.2949241,-0.2654447,-0.3045944,-1.485898,1.563235,-1.591827,0.5204552,1.546165,0.3972027,-0.8857428,-0.01031389,0.1,2.1,-0.1685942,0.2499713,0.5460243,-0.3291752,-0.1897746,2.092713,0.7470732,1.627677,0.2940192,-0.5340637,0.02082241,0.1516486,-1.464687,0.04016699,0.2745293,0.8170708,1.560728,0.1546733,0.223498,1.711163,0.2898083,294.7562,88.26337,163.5899,True
3,2.433334,0.2864,-0.2601289,-0.3014064,-1.48309,1.560114,-1.594383,0.520346,1.547862,0.3972096,-0.8830307,0.2470866,0.1,2.1,-0.1761587,0.1752736,0.5624346,-0.3331588,-0.206696,2.110814,0.7470099,1.62898,0.2928269,-0.4839579,0.00882725,0.1618208,-1.463055,0.03971266,0.2779853,0.8170694,1.561058,0.1541271,0.2226444,1.711494,0.2903904,294.8053,88.75851,163.2823,True
3,2.444445,0.2758116,-0.2900341,-0.3086794,-1.478595,1.556742,-1.596696,0.5201548,1.549369,0.397027,-0.8812741,0.15796,0,2.3,-0.150968,0.1157793,0.5329496,-0.3365346,-0.2186532,2.122672,0.7468088,1.629966,0.2916183,-0.4856947,0.06957453,0.1564329,-1.460874,0.04213467,0.2826533,0.8170981,1.56139,0.1541317,0.221618,1.71157,0.2908502,294.6889,89.20348,163.0251,True
3,2.455556,0.2769176,-0.3124422,-0.3160185,-1.474329,1.553146,-1.599382,0.5200299,1.550849,0.3969166,-0.8805385,0.06581222,0,2.3,-0.1343121,0.09698085,0.4879005,-0.3379429,-0.229422,2.133765,0.7465255,1.631335,0.2904844,-0.4813492,0.0855165,0.1542341,-1.459027,0.0430247,0.2878126,0.8171163,1.561645,0.1535952,0.220415,1.711523,0.2911597,294.3597,89.6242,162.7549,True
3,2.466667,0.2748751,-0.3444111,-0.3147696,-1.469186,1.549994,-1.602029,0.5197517,1.552454,0.3967795,-0.8799441,0.05366467,0,2.3,-0.1291153,0.1206535,0.4582517,-0.3385245,-0.2426087,2.147228,0.7460811,1.632424,0.2894111,-0.4571315,0.0703996,0.129536,-1.458317,0.04294241,0.291427,0.8171122,1.561906,0.1532335,0.2190772,1.711484,0.29137,293.9677,90.33239,162.1673,True
3,2.477778,0.2674629,-0.3603656,-0.3061516,-1.46463,1.547118,-1.604337,0.5194843,1.55397,0.3965878,-0.8800261,-0.008120641,0,2.8,-0.1290118,0.1526055,0.4606777,-0.3389128,-0.2609349,2.166125,0.7455763,1.633811,0.2882869,-0.4681481,0.05657218,0.09980133,-1.458497,0.04293535,0.2970583,0.817111,1.562284,0.1527371,0.217746,1.711437,0.2915043,293.6413,91.29819,161.3401,True
3,2.488889,0.2983909,-0.3687739,-0.2976161,-1.459996,1.544194,-1.60841,0.5191253,1.555617,0.3963518,-0.879738,0.0263506,0,2.7,-0.1652923,0.1560125,0.4524415,-0.3399786,-0.2758055,2.183403,0.7449359,1.635225,0.2874348,-0.4553544,0.06498761,0.09328077,-1.457421,0.04354402,0.3014866,0.8171148,1.562257,0.1520588,0.2164971,1.711396,0.2916176,293.3859,92.27834,160.4694,True
3,2.5,0.3005542,-0.3783163,-0.2901098,-1.455345,1.541331,-1.611571,0.5187021,1.557049,0.3961005,-0.8791441,0.05385751,0,2.7,-0.1759641,0.1582116,0.4504064,-0.3412862,-0.2914617,2.200614,0.7444279,1.636374,0.2863488,-0.4371448,0.07339638,0.09842303,-1.455853,0.04426693,0.3056904,0.8169862,1.56261,0.1516247,0.2152912,1.711416,0.2917006,293.1792,93.18343,159.6872,True
3,2.511111,0.3016507,-0.3878919,-0.2868599,-1.45047,1.538442,-1.61459,0.5183966,1.558522,0.3958311,-0.880653,-0.1385278,0,2.7,-0.1625549,0.1373421,0.3989709,-0.3421192,-0.2992049,2.209186,0.7438748,1.637519,0.2853713,-0.431729,0.07650404,0.1068961,-1.454195,0.04404629,0.3104489,0.8165234,1.563416,0.1509254,0.2141292,1.711541,0.2917378,292.9774,93.98648,159.0176,True
3,2.522222,0.3016899,-0.4027843,-0.2825142,-1.445342,1.535721,-1.617569,0.5180357,1.559721,0.3954785,-0.8796778,0.09023494,0,2.5,-0.1553233,0.131172,0.374352,-0.3429565,-0.3097326,2.220809,0.7432191,1.638512,0.2841604,-0.4297177,0.0679362,0.1015574,-1.453171,0.0439375,0.3153449,0.8163065,1.563713,0.1500089,0.2129901,1.711694,0.291733,292.8984,94.7802,158.3526,True
3,2.533333,0.2920638,-0.3835818,-0.2708755,-1.441513,1.533324,-1.620095,0.5176532,1.560878,0.3949912,-0.8791979,0.0428139,0,2.5,-0.1618218,0.1569982,0.3501328,-0.34267,-0.3223553,2.234842,0.7426394,1.639416,0.283185,-0.4063888,0.06776273,0.08962007,-1.452468,0.04447679,0.3191,0.8161122,1.564052,0.1494818,0.2118485,1.711778,0.2916977,292.8386,95.56163,157.6823,True
3,2.544444,0.2941664,-0.3675418,-0.2603084,-1.437822,1.530934,-1.623166,0.5172827,1.562022,0.3945682,-0.8789534,0.02195227,0,2.4,-0.1596923,0.1559209,0.3522436,-0.3438019,-0.3354598,2.249065,0.7421068,1.64023,0.2820623,-0.3873849,0.04951763,0.0852093,-1.451701,0.04411433,0.3231131,0.8158797,1.564184,0.1485872,0.2107271,1.711746,0.2916353,292.7532,96.40719,156.9594,True
3,2.555555,0.3004869,-0.3268971,-0.2317598,-1.435399,1.529426,-1.626506,0.5167736,1.562804,0.3940167,-0.8783404,0.05581725,0,2.4,-0.1353732,0.1453972,0.3317244,-0.3446429,-0.3453203,2.259092,0.7416276,1.641042,0.2811244,-0.3766662,0.04623087,0.09577253,-1.450326,0.04370793,0.3271558,0.8161643,1.564795,0.1480455,0.209627,1.711552,0.2915286,292.6551,97.22027,156.2836,True
3,2.566666,0.2929842,-0.2937628,-0.2063523,-1.43289,1.528016,-1.629356,0.5162656,1.563682,0.3936169,-0.8787531,-0.03823184,0,2.4,-0.1102545,0.1234194,0.2812613,-0.3449731,-0.3503364,2.264365,0.741021,1.642091,0.2800882,-0.3956037,0.05702785,0.1151094,-1.448067,0.04406719,0.3322078,0.8159963,1.565039,0.1475725,0.2084915,1.711288,0.291363,292.4724,97.90897,155.7127,True
3,2.577777,0.2876175,-0.269175,-0.187294,-1.430578,1.526719,-1.632166,0.5157883,1.564532,0.3930323,-0.8788804,-0.01130086,0,2.8,-0.1242988,0.1065949,0.2641617,-0.3458674,-0.3577299,2.273468,0.7403908,1.642883,0.279053,-0.4095612,0.03790545,0.1163772,-1.446484,0.04295852,0.3373306,0.8158933,1.565184,0.1470397,0.2073442,1.710958,0.2911551,292.2976,98.53888,155.1753,True
3,2.588888,0.3024619,-0.2296102,-0.165139,-1.42921,1.525744,-1.635894,0.5152203,1.565342,0.3924141,-0.878302,0.052875,0,2.9,-0.1626995,0.1206761,0.2517887,-0.3460447,-0.3664767,2.284764,0.7396828,1.643709,0.277977,-0.3947645,0.02396275,0.1141309,-1.445437,0.04242162,0.3414519,0.8157208,1.565345,0.1464283,0.2061858,1.710524,0.2909055,292.151,98.95993,154.8233,True
3,2.599999,0.33333,-0.2134696,-0.1482053,-1.427096,1.524776,-1.640384,0.5145912,1.566123,0.3916185,-0.8781326,0.01497301,0,2.9,-0.2072791,0.1644648,0.2567786,-0.3455025,-0.3800706,2.301291,0.7388632,1.644318,0.277035,-0.3745728,0.02804463,0.1054415,-1.444306,0.04214932,0.3448647,0.8152949,1.565502,0.1459048,0.2049765,1.710039,0.2906094,291.9548,99.39684,154.4469,True
3,2.61111,0.3407487,-0.1834502,-0.1153451,-1.42599,1.524644,-1.644333,0.5138733,1.566653,0.3908114,-0.878947,-0.07459361,0,2.9,-0.2255939,0.1850841,0.2219444,-0.3444767,-0.3884866,2.312345,0.7382802,1.644903,0.2761774,-0.3234791,0.04899471,0.08577802,-1.44363,0.04325826,0.3465356,0.8149837,1.565656,0.1454403,0.2037366,1.70956,0.2902512,291.7142,99.8634,154.0558,True
3,2.622221,0.3364348,-0.1546152,-0.09844846,-1.425066,1.524095,-1.647785,0.5131447,1.567291,0.3900361,-0.879689,-0.06722537,0.1,3.5,-0.2257783,0.1842392,0.1984967,-0.3439877,-0.3957139,2.321735,0.7375902,1.645421,0.2754879,-0.3016048,0.04129917,0.03982666,-1.444088,0.04326145,0.3496366,0.8144233,1.565644,0.1448741,0.2024785,1.709084,0.2898336,291.5108,100.2182,153.7816,True
3,2.633332,0.320399,-0.1247372,-0.08154064,-1.424633,1.523776,-1.650755,0.5122733,1.567831,0.3891633,-0.8789406,0.06877002,0.1,3.5,-0.1995221,0.1557418,0.1607521,-0.34374,-0.3985863,2.325917,0.7368352,1.645995,0.2746506,-0.3156568,0.04665717,0.01335237,-1.444201,0.04379475,0.3536137,0.8140035,1.5658,0.144434,0.2012052,1.708503,0.2893263,291.3947,100.5057,153.5925,True
3,2.644443,0.3182424,-0.1076169,-0.06671754,-1.423974,1.523489,-1.654194,0.5114239,1.568406,0.38832,-0.8782924,0.05852295,0,3.8,-0.1966087,0.09834809,0.1431669,-0.345176,-0.3988636,2.327978,0.736245,1.646227,0.2735391,-0.3058666,0.05088063,0.03350503,-1.442828,0.04405934,0.3567277,0.8136394,1.566079,0.1440852,0.1998748,1.70778,0.2887035,291.2435,100.6596,153.4927,True
3,2.655554,0.314022,-0.112829,-0.04217694,-1.422477,1.52397,-1.657637,0.5106599,1.568926,0.3874364,-0.8776746,0.05603614,0,3.8,-0.226487,0.09209394,0.1390658,-0.3454972,-0.4039567,2.336308,0.7354593,1.646821,0.27268,-0.2895297,0.07423325,0.05676496,-1.440926,0.04485656,0.3593433,0.8131006,1.566323,0.1436713,0.1984187,1.707007,0.2879793,291.0095,100.9022,153.2554,True
3,2.666665,0.3118936,-0.1085119,-0.03047873,-1.421428,1.524126,-1.661036,0.5098479,1.569451,0.3866103,-0.8780836,-0.03787043,0,3.8,-0.2455652,0.1145081,0.1394191,-0.3452293,-0.4112541,2.346131,0.7346884,1.647305,0.2716165,-0.2638166,0.07941678,0.06824039,-1.439597,0.04556216,0.3613721,0.8126554,1.566493,0.1432958,0.1968495,1.706268,0.2871822,290.7159,101.1985,152.9467,True
3,2.677776,0.3098068,-0.1190809,-0.01337492,-1.419812,1.524686,-1.664435,0.5090009,1.569813,0.3857543,-0.8780336,0.005026506,0,4.2,-0.2692068,0.1255277,0.1077312,-0.3440469,-0.4153354,2.353752,0.7338026,1.647879,0.2708049,-0.2511549,0.06227672,0.06496374,-1.438915,0.04528905,0.3636174,0.8122177,1.566831,0.1428981,0.1953035,1.705536,0.2863388,290.4381,101.5375,152.6101,True
3,2.688887,0.2970565,-0.1318772,-0.009033535,-1.417919,1.524878,-1.667265,0.5080582,1.570179,0.3848073,-0.8780186,0.001246036,0,4.3,-0.2694903,0.1130611,0.07139048,-0.3432101,-0.4153295,2.356384,0.7329373,1.648367,0.2700872,-0.2524085,0.06012861,0.04580175,-1.438839,0.04589039,0.3663857,0.8117586,1.567047,0.1424704,0.1938882,1.704762,0.2854156,290.1946,101.8846,152.2871,True
3,2.699998,0.2874859,-0.1361398,-0.004736405,-1.416264,1.525148,-1.670242,0.5071102,1.570478,0.3838813,-0.8779574,0.005568622,0,4.3,-0.2834231,0.1025141,0.06500851,-0.3430748,-0.4184694,2.363036,0.7319981,1.649073,0.2691927,-0.2470537,0.06114869,0.04790257,-1.437826,0.04618267,0.3689599,0.8113009,1.567238,0.1420484,0.1925731,1.703975,0.2844188,290.0049,102.2135,151.9488,True
3,2.711109,0.2671922,-0.1127331,-0.001638267,-1.415797,1.525318,-1.672662,0.5059605,1.570579,0.3829141,-0.8774562,0.04581844,0,4.3,-0.2931055,0.1048011,0.05125329,-0.3423153,-0.4216194,2.369681,0.7309154,1.649719,0.2686248,-0.2439038,0.07389644,0.03293993,-1.437456,0.047451,0.371255,0.8107741,1.567335,0.141742,0.1913237,1.703158,0.2833393,289.884,102.5205,151.6284,True
3,2.72222,0.2606797,-0.064813,-0.001879949,-1.416503,1.525231,-1.675394,0.5049329,1.570604,0.3819768,-0.877583,-0.01192181,0,3,-0.287827,0.142256,0.03237003,-0.3399504,-0.4275463,2.378585,0.7296311,1.650286,0.2679958,-0.266514,0.0973998,-0.008435078,-1.438303,0.04953027,0.3748751,0.8102601,1.567487,0.1413131,0.190035,1.70236,0.2821718,289.7743,102.8962,151.2256,True
3,2.733331,0.2574003,-0.02856233,0.005392224,-1.417325,1.525477,-1.678207,0.5038767,1.570688,0.381175,-0.8771297,0.041598,0,3,-0.3069237,0.1539807,0.03900895,-0.338957,-0.433691,2.388498,0.7285019,1.650754,0.2671967,-0.2729641,0.1006157,-0.01690605,-1.438321,0.05071178,0.377975,0.8096296,1.567667,0.1409411,0.1886883,1.701581,0.2809563,289.6789,103.2324,150.8185,True
3,2.744442,0.2498667,0.01094912,0.02756905,-1.418733,1.526487,-1.680886,0.5027952,1.570599,0.3803935,-0.87751,-0.0350455,0,2.6,-0.3027575,0.149822,0.02721612,-0.3377399,-0.4369792,2.394844,0.7273177,1.651248,0.2664602,-0.2480994,0.1015755,0.02228379,-1.43629,0.05114295,0.3797753,0.8090392,1.56792,0.1405387,0.1872435,1.700847,0.2797676,289.555,103.3887,150.5441,True
3,2.755553,0.244459,0.04183435,0.02847943,-1.420231,1.526641,-1.683364,0.5016519,1.570567,0.3796949,-0.8776575,-0.01313066,0,2.6,-0.2750314,0.1603812,0.02817176,-0.3365554,-0.4424075,2.402165,0.7261779,1.651665,0.2657833,-0.2477999,0.1186349,0.04355916,-1.434596,0.05234763,0.3823391,0.8084486,1.568202,0.1402185,0.1857881,1.700124,0.278717,289.3963,103.4297,150.3648,True
3,2.766664,0.2284326,0.06634623,0.03902149,-1.421781,1.527276,-1.685484,0.5004377,1.570496,0.3788898,-0.8774722,0.01707627,0,2.6,-0.2475701,0.1477597,0.001223668,-0.3350427,-0.4433796,2.404872,0.7249727,1.652004,0.2651076,-0.2485899,0.1580582,0.04671329,-1.43295,0.05501984,0.384871,0.8077672,1.568389,0.1398461,0.1843552,1.6994,0.2778666,289.2243,103.3781,150.3189,True
3,2.777775,0.2134946,0.07915364,0.05069247,-1.423172,1.528158,-1.687388,0.4993466,1.570351,0.3781533,-0.8774408,0.00272966,0,1.9,-0.2572685,0.1447079,-0.01151213,-0.3337117,-0.4456789,2.410397,0.7238681,1.652365,0.2644427,-0.2282289,0.1760307,0.04755604,-1.431674,0.05711442,0.3863429,0.8072537,1.568618,0.1395359,0.1829508,1.698669,0.2772024,289.0508,103.1694,150.5017,True
3,2.788886,0.2028416,0.08236474,0.05814616,-1.424293,1.52895,-1.68937,0.4982075,1.570238,0.3774159,-0.8770887,0.03227222,0,1.8,-0.2700676,0.1650961,-0.02187594,-0.3315252,-0.4508676,2.418764,0.7227069,1.652546,0.2637343,-0.2038666,0.1684037,0.03775777,-1.431057,0.0584725,0.3875368,0.8066257,1.568737,0.1390629,0.181496,1.697989,0.2767151,288.8909,102.9687,150.7281,True
3,2.799997,0.1890067,0.07593005,0.05713124,-1.424894,1.529467,-1.691039,0.4971641,1.569974,0.3766987,-0.8769054,0.01656105,0,1.8,-0.2799267,0.1301891,-0.04662813,-0.3304408,-0.4486594,2.419829,0.7216038,1.652559,0.2628436,-0.1817514,0.1426709,0.02798845,-1.431002,0.0589789,0.3888436,0.8059963,1.568961,0.1387227,0.1800135,1.697361,0.2763427,288.7171,102.696,151.0921,True
3,2.811108,0.1826441,0.05772671,0.04232217,-1.424886,1.529453,-1.692829,0.4961097,1.569673,0.376018,-0.8771057,-0.01836577,0,1.8,-0.2716627,0.1101675,-0.07350644,-0.3288051,-0.4463655,2.420389,0.7204434,1.65284,0.262197,-0.1700949,0.1468429,0.01827474,-1.430625,0.06068479,0.3901022,0.8053654,1.569055,0.1383865,0.1785993,1.696753,0.2759975,288.5389,102.4079,151.5068,True
3,2.822219,0.1826219,0.05655777,0.02209047,-1.425468,1.529004,-1.694749,0.4950717,1.56934,0.3753963,-0.8769784,0.01189418,0,1.8,-0.2588834,0.1090519,-0.07255812,-0.3272934,-0.4475827,2.424063,0.7192113,1.653317,0.2617841,-0.1646492,0.1787585,0.009661607,-1.429636,0.06362864,0.3914272,0.8046737,1.569286,0.1380708,0.1772706,1.696152,0.2755977,288.4099,102.1844,151.8527,True
3,2.83333,0.1847341,0.06615655,0.0231049,-1.426571,1.529217,-1.696957,0.4939075,1.56906,0.3748136,-0.8772735,-0.02701534,0,1.9,-0.2416554,0.1355052,-0.05859315,-0.3255938,-0.4530201,2.431283,0.7180022,1.65358,0.2611983,-0.1611163,0.2170953,0.02022441,-1.427863,0.06678516,0.3926626,0.8038622,1.569448,0.13784,0.1760645,1.695503,0.2751035,288.3457,102.1001,152.0166,True
3,2.844441,0.1847384,0.06510853,0.02631011,-1.427302,1.529574,-1.699025,0.4928539,1.568817,0.3742912,-0.8775915,-0.02875061,0,1.8,-0.228679,0.1641054,-0.04351198,-0.3235837,-0.4607608,2.440772,0.716737,1.65388,0.2606885,-0.1568765,0.2096096,0.02339069,-1.42679,0.06842074,0.3940504,0.8031262,1.569592,0.1376262,0.1749211,1.694797,0.2745319,288.3337,102.1667,151.9482,True
3,2.855552,0.1879211,0.07151419,0.02734024,-1.428317,1.529829,-1.701252,0.4917333,1.568475,0.3737874,-0.8778679,-0.0250119,0,1.8,-0.2255007,0.15129,-0.04045711,-0.3224886,-0.4629731,2.44533,0.7155732,1.654097,0.2601449,-0.1506253,0.1967747,0.01694863,-1.426326,0.07003608,0.3953156,0.8023827,1.569769,0.1373782,0.1737488,1.694059,0.2739645,288.3077,102.1798,151.8522,True
3,2.866663,0.186867,0.06831512,0.02842421,-1.428928,1.530105,-1.703343,0.4907081,1.568189,0.3732049,-0.877764,0.009692335,0,1.8,-0.2160396,0.1236214,-0.04824402,-0.321688,-0.4615638,2.445869,0.714552,1.653862,0.2593527,-0.1390734,0.17433,0.01474204,-1.425755,0.07115367,0.3963662,0.8016359,1.569857,0.1369903,0.1724791,1.693308,0.2734448,288.2314,102.0273,151.9278,True
3,2.877774,0.1868684,0.0650854,0.0220504,-1.429538,1.530048,-1.705404,0.4896511,1.567756,0.3727419,-0.8779441,-0.01650576,0,1.4,-0.2085518,0.1342607,-0.04820272,-0.3199804,-0.4654016,2.451589,0.7132802,1.653983,0.2589309,-0.1253922,0.1678298,0.0007606708,-1.42575,0.07287168,0.3971154,0.801,1.569897,0.1367097,0.1711555,1.692509,0.2729756,288.1161,101.9075,152.0227,True
3,2.888885,0.1804731,0.06181606,0.01035215,-1.430119,1.529625,-1.707179,0.4886019,1.567347,0.3723574,-0.8778439,0.009285121,0,1.4,-0.1811056,0.1088165,-0.07100596,-0.3185391,-0.4635884,2.451141,0.7120376,1.654245,0.2588511,-0.1095068,0.1666493,-0.008968726,-1.425421,0.07477105,0.397541,0.8002535,1.569984,0.1364276,0.1697984,1.69164,0.2725578,287.9922,101.8061,152.1358,True
3,2.899997,0.1751305,0.06496654,0.003952798,-1.430921,1.529424,-1.708925,0.4874961,1.566934,0.37201,-0.877862,-0.001727862,0,1,-0.1610717,0.09512237,-0.093649,-0.3167196,-0.4620132,2.450788,0.7106612,1.654483,0.2586124,-0.1042176,0.1761891,-0.01968654,-1.425135,0.07714485,0.398182,0.7994208,1.570209,0.1362336,0.1684496,1.690688,0.2721733,287.8561,101.7849,152.1898,True
3,2.911108,0.1686852,0.08410972,0.0006639026,-1.432462,1.529117,-1.710529,0.4863851,1.566545,0.3716733,-0.8776549,0.01898233,0,1,-0.1663066,0.1123054,-0.09773985,-0.3144735,-0.4622976,2.452946,0.7093751,1.65466,0.2581947,-0.1070397,0.1943398,-0.002656989,-1.423953,0.07905847,0.3986507,0.7986061,1.570323,0.1357956,0.1671094,1.689651,0.2718469,287.7368,101.8451,152.1252,True
3,2.922219,0.16545,0.1000794,0.0005870666,-1.434055,1.528965,-1.712274,0.4852283,1.566182,0.3712492,-0.8776096,0.004027229,0,1,-0.1671935,0.1407826,-0.07507019,-0.3129992,-0.4703653,2.462759,0.7081995,1.654756,0.2577922,-0.09288776,0.2017114,0.03237946,-1.421384,0.08068433,0.3988859,0.7978023,1.570533,0.1358347,0.1657368,1.688591,0.2716249,287.5972,101.9416,151.9967,True
3,2.93333,0.1654171,0.1171754,0.01008377,-1.435984,1.529131,-1.714156,0.4840536,1.565972,0.3709385,-0.8775286,0.007420914,0,0.7,-0.1468484,0.1363192,-0.05927747,-0.3120516,-0.47388,2.467028,0.7068924,1.654878,0.2574666,-0.07887747,0.1984526,0.05249002,-1.419511,0.08218462,0.3990683,0.7968643,1.570711,0.135694,0.1643069,1.687574,0.2715304,287.425,101.9398,151.9828,True
3,2.944441,0.1675258,0.1257001,0.008969581,-1.437665,1.528926,-1.716084,0.4829363,1.565715,0.3706777,-0.8776889,-0.0146943,0,0.7,-0.1179689,0.1296733,-0.04036404,-0.3114727,-0.4775619,2.470956,0.7057008,1.654991,0.2570989,-0.07786568,0.193117,0.05035705,-1.418371,0.08384749,0.3997202,0.7960122,1.570829,0.1355915,0.1628214,1.686666,0.271566,287.2235,101.7783,152.1805,True
3,2.955552,0.1718039,0.1193362,0.01219782,-1.438769,1.529042,-1.71812,0.4819652,1.565479,0.3704057,-0.8778413,-0.01378523,0,0.7,-0.09360927,0.107333,-0.0524672,-0.3104276,-0.4767849,2.470304,0.7045281,1.65513,0.2567947,-0.06842991,0.1813275,0.04176051,-1.417638,0.08526164,0.3999415,0.7950946,1.571041,0.1354501,0.1613078,1.685894,0.2716867,287.0248,101.5115,152.5403,True
3,2.966663,0.1675976,0.09694309,0.01019091,-1.439043,1.529082,-1.719837,0.4809302,1.56536,0.370199,-0.8779739,-0.01198208,0,0.7,-0.09682234,0.1073638,-0.05457288,-0.3091376,-0.4784543,2.47313,0.7033445,1.655191,0.2564752,-0.05792826,0.1663388,0.03529222,-1.416963,0.08643395,0.4000313,0.7942295,1.571231,0.1353142,0.159814,1.685256,0.2718511,286.8484,101.196,152.9521,True
3,2.977774,0.1623449,0.06386267,0.001847766,-1.438618,1.528864,-1.721405,0.479915,1.565241,0.3699794,-0.8780559,-0.00739485,0,0.4,-0.1146438,0.1241791,-0.02232683,-0.3085224,-0.4857182,2.481966,0.7022408,1.65522,0.2561688,-0.03454848,0.155537,0.03615144,-1.416165,0.08750868,0.3994617,0.7934427,1.571371,0.1351998,0.1584393,1.684674,0.2720401,286.7298,100.9248,153.3151,True
3,2.988885,0.1517875,0.01901937,-0.01281601,-1.437327,1.528478,-1.722669,0.4788749,1.565326,0.3698597,-0.8777614,0.02697966,0,0.4,-0.09978937,0.1081721,-0.02364615,-0.3078492,-0.4871358,2.483969,0.7011014,1.65534,0.2559552,-0.02168621,0.1597234,0.04242308,-1.414767,0.08901083,0.399109,0.7925811,1.571525,0.1349578,0.157228,1.684082,0.2722053,286.6538,100.73,153.6096,True
3,2.999996,0.1497788,-0.03538132,-0.02637823,-1.435278,1.528058,-1.724237,0.4777731,1.565305,0.3697624,-0.8776357,0.01124868,0,0.4,-0.08270833,0.1016738,-0.01744513,-0.3071972,-0.4892265,2.486122,0.6998097,1.655477,0.2557156,-0.0173175,0.1640558,0.04874846,-1.413196,0.09191315,0.3985647,0.7918332,1.571839,0.1347594,0.1560777,1.683508,0.2722907,286.6052,100.7111,153.7203,True
3,3.011107,0.147724,-0.06952608,-0.03578411,-1.433266,1.527637,-1.725752,0.476759,1.565301,0.36957,-0.8773928,0.02219079,0,0.4,-0.06371657,0.07833637,-0.0359013,-0.3065027,-0.4869961,2.483769,0.698736,1.655404,0.2552509,-0.004688643,0.1545144,0.04327336,-1.412438,0.09509602,0.3986081,0.7910432,1.571877,0.1347289,0.1549269,1.682958,0.2722695,286.5705,100.9112,153.5791,True
3,3.022218,0.1499086,-0.09512101,-0.04205418,-1.431363,1.527145,-1.72739,0.475779,1.565177,0.3693569,-0.8777316,-0.03113741,0,0.4,-0.04776319,0.07301209,-0.04247065,-0.3054774,-0.4866418,2.482952,0.6975465,1.655469,0.2549374,-0.01676998,0.1300732,0.02423805,-1.412466,0.09592693,0.3995503,0.7901075,1.57219,0.1345363,0.153718,1.682464,0.2721475,286.5426,101.3472,153.1578,True
3,3.033329,0.1520191,-0.08982229,-0.04847422,-1.430488,1.526546,-1.729068,0.4747997,1.565096,0.3691592,-0.877764,-0.00264024,0,0.3,-0.04980566,0.08468975,-0.03702094,-0.304476,-0.4898834,2.48656,0.6964093,1.655695,0.2545776,-0.01782291,0.1162978,0.03702937,-1.411444,0.09716623,0.3998547,0.789095,1.572274,0.1343856,0.1524882,1.681952,0.2719453,286.5574,101.8473,152.6539,True
3,3.04444,0.1519787,-0.06954131,-0.04112422,-1.430357,1.526341,-1.730764,0.4737737,1.564959,0.3690269,-0.8779228,-0.01449647,0,0.4,-0.04752912,0.1101685,-0.02935263,-0.3032078,-0.4945858,2.491314,0.6952353,1.6557,0.2542989,-0.01023281,0.1205369,0.05080435,-1.409852,0.09827677,0.3997597,0.7881857,1.572485,0.1341593,0.1512827,1.681361,0.2716787,286.5605,102.2906,152.2066,True
3,3.055551,0.1519418,-0.05034859,-0.03803157,-1.430391,1.525981,-1.73252,0.4726668,1.564819,0.3688366,-0.878009,-0.007738666,0,0.4,-0.06247091,0.1134649,-0.03561069,-0.3018677,-0.4966907,2.494403,0.6940667,1.655895,0.253983,-0.008955069,0.1184708,0.07741149,-1.407824,0.09933724,0.3998545,0.7870916,1.57265,0.1339667,0.1501088,1.680654,0.2713771,286.5364,102.6812,151.7894,True
3,3.066662,0.1359031,-0.01942834,-0.02432179,-1.431098,1.526126,-1.733555,0.4715027,1.564682,0.3686764,-0.8779814,0.00256373,0,0.4,-0.07852739,0.1210873,-0.04928411,-0.30011,-0.498003,2.497064,0.6928883,1.655855,0.2538264,-0.007853866,0.1099564,0.08913317,-1.406196,0.09961341,0.4000529,0.7860944,1.572792,0.1336186,0.1489059,1.679886,0.2711026,286.4507,102.959,151.441,True
3,3.077773,0.131622,-0.01197572,-0.02329052,-1.43115,1.525882,-1.734831,0.4704284,1.564514,0.3684535,-0.8780591,-0.007155181,0,0.3,-0.087027,0.1317648,-0.04913095,-0.2984738,-0.501882,2.502157,0.6918375,1.655828,0.2536051,0.004710637,0.09921756,0.07303501,-1.405854,0.1005494,0.3995788,0.7851301,1.572854,0.13344,0.147632,1.679106,0.2709048,286.3281,103.0909,151.2431,True
3,3.088884,0.1113476,0.008298181,-0.008458223,-1.432066,1.526212,-1.73542,0.4692731,1.564358,0.3682394,-0.8772959,0.06987298,0,0.3,-0.07972471,0.1105021,-0.05792091,-0.2973451,-0.5006988,2.50201,0.6907482,1.655955,0.2536995,0.01743685,0.09487322,0.06972982,-1.404918,0.1012216,0.3988454,0.7840954,1.573115,0.133359,0.1462493,1.678354,0.2708028,286.1972,103.1552,151.1544,True
3,3.099995,0.09959924,0.02217368,0.002134542,-1.432825,1.526492,-1.736104,0.4681731,1.564221,0.3679566,-0.8775574,-0.02448566,0,0.3,-0.05749129,0.08065088,-0.06260217,-0.2968077,-0.4994779,2.500908,0.6896342,1.656077,0.2536654,0.01205344,0.1076864,0.05483429,-1.404293,0.1029843,0.3987564,0.7831191,1.573219,0.1332633,0.1447899,1.67768,0.270781,286.022,103.1382,151.201,True
3,3.111106,0.09104206,0.03923739,0.01057797,-1.43383,1.526755,-1.736885,0.4670362,1.564097,0.3677416,-0.876914,0.05917768,0,0.3,-0.04895301,0.07738499,-0.05737386,-0.295866,-0.5006524,2.502515,0.6883665,1.65609,0.2535715,0.01632804,0.112982,0.05372728,-1.403158,0.1040791,0.3984233,0.7821627,1.573336,0.1330936,0.1433646,1.677061,0.2708069,285.8727,103.1756,151.2355,True
3,3.122217,0.08143738,0.04992791,0.02225108,-1.434831,1.527231,-1.737566,0.4659421,1.563912,0.3675394,-0.8770498,-0.01285418,0,0.3,-0.04261157,0.06672858,-0.05857569,-0.2950793,-0.5006763,2.502926,0.6872805,1.656316,0.2533274,0.03228677,0.116073,0.05037707,-1.40233,0.1053079,0.3974459,0.7811761,1.573411,0.1329467,0.1419838,1.676567,0.2708315,285.7016,103.0474,151.4437,True
3,3.133328,0.07506404,0.04462489,0.02974274,-1.435221,1.52774,-1.738241,0.4648752,1.563804,0.3672831,-0.8772879,-0.02154928,0,0.3,-0.04674419,0.04732786,-0.03209728,-0.2954372,-0.5014712,2.504505,0.6861907,1.656417,0.2530663,0.03000215,0.08413361,0.05682764,-1.401637,0.1048327,0.3972914,0.7802923,1.573529,0.1327424,0.1407012,1.676216,0.2708015,285.5704,102.8763,151.6922,True
3,3.144439,0.07614756,0.03716776,0.02977972,-1.435417,1.528034,-1.739172,0.4638901,1.563727,0.3670223,-0.8772783,0.001130311,0,0.2,-0.04880696,0.04081772,-0.01828333,-0.2955816,-0.5029113,2.506685,0.685142,1.656481,0.2527924,-0.001241233,0.0576772,0.03796505,-1.40185,0.1047391,0.3984939,0.7794263,1.573633,0.1325333,0.1395289,1.675998,0.2707051,285.5145,102.6587,151.9407,True
3,3.15555,0.07829046,0.03184516,0.02874525,-1.435745,1.528346,-1.740155,0.4629995,1.563627,0.3667269,-0.8773534,-0.00687213,0,0.2,-0.04657915,0.06420883,-0.0138245,-0.2946234,-0.5072904,2.51139,0.6840576,1.656529,0.2524972,-0.01203289,0.05027063,0.02847158,-1.401905,0.1050441,0.3990052,0.7785537,1.573768,0.132313,0.1384798,1.675866,0.2705323,285.5178,102.3813,152.2275,True
3,3.166661,0.08363149,0.0243792,0.02451783,-1.435792,1.528469,-1.741283,0.4620977,1.563567,0.3664389,-0.8777172,-0.03311585,0,0.2,-0.0550794,0.08238486,-0.01890994,-0.2935943,-0.5106782,2.515447,0.6830817,1.656345,0.2520568,0.0008756444,0.0523428,0.042207,-1.400654,0.105358,0.3985844,0.7775828,1.574011,0.1321485,0.1375252,1.675785,0.2702575,285.5549,102.2014,152.4158,True
3,3.177772,0.08687446,0.006256084,0.02034807,-1.435254,1.52863,-1.742465,0.4611565,1.563534,0.3661366,-0.8778508,-0.01191037,0,0.2,-0.0613955,0.09620638,-0.01340758,-0.2927267,-0.5152278,2.520807,0.6821119,1.656306,0.2519081,0.01177824,0.06188267,0.0634044,-1.399016,0.1056593,0.398047,0.7767029,1.574117,0.1319013,0.1366627,1.675694,0.2698916,285.6101,102.1154,152.4812,True
3,3.188883,0.07839701,-0.01080337,0.02044596,-1.434715,1.528963,-1.743103,0.4602758,1.563482,0.365891,-0.8780485,-0.01800311,0,0.3,-0.05299343,0.08350208,-0.0253027,-0.2919821,-0.5148741,2.520664,0.6811674,1.65618,0.2516186,0.02676706,0.06179766,0.07179436,-1.397741,0.105874,0.3971681,0.7758107,1.574188,0.1317132,0.1358638,1.675551,0.2694627,285.6583,102.0415,152.5056,True
3,3.199994,0.07098478,-0.02787968,0.01842295,-1.433917,1.529392,-1.743778,0.4593515,1.563345,0.365592,-0.8781167,-0.006105979,0,0.3,-0.03519148,0.06352691,-0.06184352,-0.2905242,-0.5100643,2.515614,0.6803383,1.656037,0.2515519,0.03511606,0.05426069,0.05788295,-1.397519,0.1060159,0.3964469,0.7749475,1.574289,0.1315341,0.1350424,1.675343,0.2690021,285.7074,102.0559,152.4328,True
3,3.211105,0.05819293,-0.02149692,0.02266319,-1.433959,1.529774,-1.744113,0.4582823,1.56315,0.3653085,-0.8775611,0.05087579,0,0.3,-0.04060786,0.04440202,-0.06518159,-0.2898164,-0.508145,2.514497,0.6793972,1.655943,0.2513993,0.02408379,0.04148984,0.02390093,-1.398496,0.1063053,0.3965335,0.7741429,1.57428,0.131356,0.13415,1.675042,0.2685294,285.7423,102.1811,152.2538,True
3,3.222216,0.04964347,-0.007630819,0.03005551,-1.434397,1.530278,-1.744501,0.4573667,1.562983,0.3650446,-0.8775563,-1.054097E-06,0,0.3,-0.05023416,0.02415486,-0.06316134,-0.2897402,-0.5054168,2.512677,0.6785343,1.655891,0.2512128,0.0293454,0.03292702,0.02173508,-1.398282,0.1062599,0.3958896,0.7733808,1.574426,0.1312766,0.1331957,1.674647,0.2680569,285.718,102.3455,152.0467,True
3,3.233327,0.04644202,-0.002273239,0.03748651,-1.434629,1.530897,-1.745022,0.4564101,1.562871,0.3647833,-0.8772932,0.02413358,0,0.2,-0.05342095,0.03163402,-0.06413871,-0.2886797,-0.5056256,2.513644,0.6776019,1.655955,0.2510076,0.01760438,0.04044408,0.01436916,-1.398144,0.1068627,0.3960453,0.7726158,1.5745,0.131114,0.1321687,1.67418,0.2675765,285.6747,102.5023,151.8603,True
3,3.244438,0.04323341,0.004138729,0.04278442,-1.434976,1.531513,-1.745453,0.4555309,1.562732,0.3646131,-0.8773757,-0.007675952,0,0.2,-0.06397448,0.05505737,-0.05852428,-0.2873726,-0.5088691,2.517926,0.6766459,1.656197,0.2509224,0.008103698,0.04903011,0.01763875,-1.397557,0.1075366,0.3961495,0.7718445,1.574612,0.1310449,0.1310489,1.673703,0.267107,285.579,102.5453,151.7653,True
3,3.255549,0.04002245,0.01267549,0.04700272,-1.435468,1.532079,-1.745893,0.4546815,1.562588,0.3643382,-0.8775803,-0.0185692,0,0.1,-0.07232722,0.07733227,-0.04440896,-0.2863511,-0.5136836,2.523621,0.6758035,1.656209,0.250735,0.01240034,0.04474917,0.02506202,-1.396972,0.1076033,0.3958818,0.7710533,1.574714,0.1308846,0.1299411,1.67324,0.2666699,285.4379,102.5471,151.7133,True
3,3.26666,0.03787261,0.02118726,0.0469579,-1.435975,1.532482,-1.746334,0.4538487,1.562437,0.3641014,-0.8775707,0.001047742,0,0.1,-0.07121308,0.07939875,-0.03693763,-0.285657,-0.5164398,2.527156,0.6749078,1.656374,0.2507477,0.02114446,0.03406608,0.0537642,-1.395593,0.1067862,0.3949372,0.7702044,1.575025,0.1306031,0.1288855,1.672822,0.2662651,285.3127,102.5888,151.6339,True
3,3.277771,0.03998036,0.03079184,0.04903466,-1.436753,1.532961,-1.746909,0.4530987,1.562285,0.3637745,-0.8776346,-0.005821682,0,0.1,-0.06075272,0.05286975,-0.05111013,-0.2849337,-0.5134737,2.524735,0.6740918,1.656379,0.2506473,0.01811951,0.04156397,0.06762978,-1.394179,0.1070249,0.3948293,0.769442,1.575091,0.13044,0.1279342,1.67246,0.2659029,285.2166,102.5924,151.596,True
3,3.288882,0.03673954,0.04566983,0.0436322,-1.437786,1.533053,-1.747195,0.4523717,1.562197,0.3634665,-0.8777102,-0.006831694,0.5,0.1,-0.06397039,0.04114231,-0.04798998,-0.284554,-0.5132843,2.525492,0.6733341,1.656413,0.250504,0.0267,0.04894266,0.06327809,-1.393589,0.1074426,0.3935018,0.7688671,1.575068,0.1301069,0.1270788,1.672177,0.2655744,285.1588,102.5068,151.6658,True
3,3.299993,0.03032869,0.05206034,0.04572796,-1.438688,1.533377,-1.747284,0.4516301,1.562028,0.3631666,-0.8778764,-0.01508048,1.4,0.2,-0.07346395,0.05388537,-0.04034548,-0.2838003,-0.5159747,2.52922,0.6726011,1.656405,0.2503922,0.03946123,0.04353115,0.06530342,-1.392763,0.1073159,0.3927001,0.7682822,1.575111,0.1299963,0.1263051,1.671973,0.2652786,285.1343,102.3531,151.8118,True
3,3.311104,0.02499509,0.05524942,0.0467808,-1.439499,1.53379,-1.747432,0.4509038,1.561924,0.3629041,-0.8776831,0.01778781,1.4,0.2,-0.05762177,0.03368153,-0.04916834,-0.2832171,-0.5138401,2.527478,0.6719528,1.656273,0.2503414,0.02839759,0.03499307,0.02066833,-1.393894,0.1075225,0.3921675,0.7678137,1.574941,0.1299372,0.125602,1.671836,0.2650031,285.1224,102.1133,152.0537,True
3,3.322215,0.02392395,0.05629567,0.04358426,-1.4402,1.534102,-1.747728,0.4502188,1.561792,0.3627245,-0.8774732,0.0190757,1.4,0.2,-0.03850996,0.02408488,-0.05365613,-0.2825784,-0.5127885,2.526335,0.6713009,1.656258,0.2502928,0.03036105,0.03920795,-0.002792993,-1.394394,0.1083466,0.3914474,0.7671967,1.575059,0.1300821,0.1249214,1.671781,0.264755,285.1189,101.8717,152.2915,True
3,3.333326,0.0249987,0.04987917,0.03829017,-1.440574,1.534283,-1.748045,0.4496045,1.561654,0.3625469,-0.8775542,-0.007529597,3.3,0.1,-0.02899142,0.008094482,-0.0560053,-0.2822535,-0.5101147,2.523871,0.6706379,1.65622,0.2501924,0.02603167,0.0477411,-0.01661153,-1.394573,0.1093498,0.3911097,0.7665931,1.575117,0.1300175,0.1242604,1.671789,0.2645247,285.1315,101.6145,152.5524,True
3,3.344437,0.02926411,0.04237142,0.02660149,-1.440748,1.534058,-1.748442,0.4490131,1.561535,0.3624692,-0.8777779,-0.02036184,3.3,0.1,-0.02472182,-0.002604309,-0.05292517,-0.2822849,-0.5082064,2.521933,0.6699677,1.656157,0.2498672,0.005937165,0.06172755,-0.010058,-1.394036,0.1103202,0.3915305,0.7660528,1.575261,0.1300943,0.1236247,1.671836,0.2642985,285.1559,101.3816,152.785,True
3,3.355548,0.03035152,0.03167671,0.01813456,-1.440741,1.53399,-1.748853,0.4483495,1.561437,0.3623495,-0.8778732,-0.008504963,4.1,0.1,-0.05119611,0.01758894,-0.03869901,-0.2817656,-0.5106468,2.525784,0.6692479,1.656168,0.2497048,0.004047565,0.06603066,0.01445371,-1.392866,0.1107097,0.391543,0.7653825,1.575191,0.1300619,0.1230436,1.671863,0.2640855,285.2025,101.2001,152.9515,True
3,3.366659,0.02823416,0.02741819,0.0202854,-1.440889,1.534211,-1.74912,0.4476887,1.561371,0.3622429,-0.8780266,-0.01397834,4.1,0.1,-0.06281875,0.03783819,-0.03735238,-0.2810743,-0.51271,2.528492,0.6685785,1.65604,0.2494354,0.007484362,0.07030007,0.03785464,-1.391392,0.1110731,0.3911739,0.7648413,1.575266,0.1300406,0.1225144,1.671827,0.2639004,285.2572,101.1254,152.9984,True
3,3.37777,0.02184544,0.02526123,0.01817164,-1.441162,1.534293,-1.749146,0.4470289,1.561283,0.3621137,-0.8780383,-0.0009451702,4.1,0.1,-0.0648739,0.04736393,-0.02979451,-0.2804655,-0.5149016,2.531481,0.6679175,1.655976,0.2493234,0.00856933,0.06815556,0.0421061,-1.390708,0.1113199,0.3910618,0.764304,1.575256,0.130024,0.1219768,1.671724,0.2637808,285.3087,101.1476,152.937,True
3,3.388881,0.02075307,0.03269823,0.01493814,-1.441749,1.534247,-1.749276,0.4464352,1.561201,0.361948,-0.8778599,0.01633637,5.6,0.1,-0.04884988,0.03868731,-0.01933182,-0.2806716,-0.5153126,2.531948,0.6673999,1.6558,0.2492244,0.01700058,0.07447601,0.02711244,-1.39043,0.1123795,0.3903891,0.7636757,1.57539,0.1298497,0.1213599,1.671574,0.2637268,285.3282,101.1336,152.9423,True
3,3.399992,0.02072039,0.04547472,0.01274703,-1.442749,1.534272,-1.749562,0.4458778,1.561071,0.3618324,-0.8776336,0.02055427,6.2,0.3,-0.02240251,0.01316871,-0.0336142,-0.2803084,-0.5114837,2.527724,0.6669052,1.655881,0.2493639,0.01366595,0.07767148,0.01222878,-1.390302,0.1133509,0.3905723,0.7630695,1.575475,0.1300523,0.1206578,1.671393,0.2637086,285.2932,101.0525,153.0523,True
3,3.411103,0.01852214,0.06888904,0.009430492,-1.444235,1.534033,-1.749615,0.4453731,1.560958,0.3617074,-0.8777646,-0.01212968,6.2,0.3,-0.01822944,-0.01667766,-0.0328587,-0.2806098,-0.5073212,2.523881,0.6663536,1.655882,0.2493267,0.0113516,0.07020431,-0.002660787,-1.390654,0.114013,0.3904524,0.7626354,1.575486,0.1300921,0.1199048,1.671203,0.2636969,285.2144,100.9767,153.1758,True
3,3.422215,0.01425376,0.07315113,0.01154579,-1.445199,1.534118,-1.749665,0.4448085,1.560842,0.361557,-0.8779563,-0.01737974,6.2,0.3,-0.02346035,-0.009301675,-0.02209646,-0.280613,-0.5083205,2.525386,0.6657559,1.655957,0.2493434,0.01238758,0.07445019,-0.009067573,-1.390592,0.1150539,0.3900982,0.7621446,1.575504,0.1301284,0.1191788,1.671015,0.2636862,285.1208,100.8946,153.2906,True
3,3.433326,0.007884966,0.06785354,0.02010194,-1.445837,1.534514,-1.749598,0.4442519,1.560829,0.3614631,-0.8777949,0.01492364,6.2,0.3,-0.03201893,-0.000684306,-0.02941526,-0.2799424,-0.5078707,2.525701,0.6652204,1.655909,0.2492802,0.01454378,0.07550418,-0.005891526,-1.390128,0.1158808,0.389796,0.7617958,1.575407,0.1297851,0.1185281,1.670835,0.2636919,285.0366,100.727,153.4587,True
3,3.444437,-0.002734277,0.05505084,0.02124804,-1.446096,1.534774,-1.749262,0.4437456,1.56082,0.3614171,-0.8777507,0.003914651,7.6,0.3,-0.03618771,0.0131111,-0.02179282,-0.2796468,-0.5101184,2.528449,0.6646875,1.655954,0.2492747,0.01542273,0.05205543,-0.01013136,-1.390473,0.1157564,0.3895944,0.7613422,1.575408,0.129719,0.1179373,1.670709,0.2637327,284.965,100.4907,153.6954,True
3,3.455548,-0.002710514,0.04545301,0.01916955,-1.446305,1.53488,-1.749285,0.4432262,1.560757,0.3613186,-0.8776261,0.01139282,7.8,0.3,-0.03304881,0.002472278,-0.02404608,-0.2795611,-0.5083835,2.527138,0.6641588,1.655904,0.2492306,0.01214703,0.02226284,0.002721865,-1.390345,0.1148017,0.3897288,0.7608035,1.575393,0.1296513,0.1173803,1.670658,0.2637772,284.9279,100.2658,153.9561,True
3,3.466659,-0.006984926,0.04646995,0.01064388,-1.446925,1.534557,-1.749012,0.4428211,1.560659,0.3612719,-0.8774104,0.01965232,7.8,0.3,-0.0233011,0.02576874,-0.01111392,-0.279168,-0.512565,2.531141,0.6636703,1.655927,0.2492211,0.00903254,0.02974731,0.005934856,-1.389928,0.115401,0.3895925,0.7603464,1.575373,0.1295288,0.1168575,1.670693,0.2637794,284.9086,100.1063,154.1603,True
3,3.47777,-0.008049455,0.04859839,0.01063302,-1.447581,1.534554,-1.748977,0.4424246,1.56064,0.3611872,-0.8778178,-0.03739967,7.8,0.3,-0.01043521,0.01065398,0.006759429,-0.2798641,-0.5130771,2.53142,0.6632686,1.655983,0.2491596,0.02624022,0.03391881,0.02175505,-1.38898,0.1156567,0.3887011,0.759909,1.575441,0.1294718,0.1163911,1.670801,0.2637181,284.9176,100.0421,154.2505,True
3,3.488881,-0.009123337,0.05070923,0.007419326,-1.448185,1.534307,-1.748801,0.4420517,1.560574,0.3611138,-0.8776655,0.01432994,7.8,0.3,-0.001973023,-0.003195266,0.004441623,-0.2801443,-0.5115739,2.529752,0.662829,1.656016,0.2491422,0.01978165,0.03607649,0.01222314,-1.388996,0.1161157,0.388568,0.7595428,1.575442,0.129472,0.1159977,1.670939,0.263608,284.9792,99.98611,154.2906,True
3,3.499992,-0.01127955,0.05919921,0.002051005,-1.449155,1.533972,-1.748572,0.4417153,1.56055,0.3611052,-0.87787,-0.01885208,8.3,0.3,-0.004101779,0.005359054,0.001339142,-0.2798407,-0.5122668,2.530523,0.6624727,1.655915,0.2490826,0.008908954,0.01801782,0.0006303894,-1.389442,0.1158285,0.3889286,0.7591607,1.575423,0.1293874,0.1156757,1.671084,0.2635079,285.0309,99.88283,154.3359,True
3,3.511103,-0.01338562,0.05171317,-0.002172616,-1.449404,1.533698,-1.748452,0.4413695,1.56062,0.3610849,-0.8778104,0.005642002,8.2,0.3,-0.0104404,0.02564569,-0.002681899,-0.2792463,-0.5146551,2.532884,0.6622005,1.65572,0.2488649,0.007594293,-0.01074947,-0.006775143,-1.390112,0.114892,0.3890111,0.7588151,1.575447,0.129303,0.1153901,1.671239,0.2634403,285.0751,99.72735,154.4515,True
3,3.522214,-0.01548874,0.04213579,0.001074846,-1.449558,1.533781,-1.748213,0.4411219,1.560621,0.3610697,-0.8777811,0.002665977,8.2,0.3,-0.00924232,0.03402774,0.01229714,-0.2793736,-0.5179397,2.536159,0.6619343,1.655658,0.2488279,0.01288257,-0.02250149,-0.002542648,-1.390223,0.114152,0.3887978,0.7584382,1.575445,0.1292357,0.1151146,1.671393,0.2634255,285.1149,99.59608,154.5559,True
