loc,t,aDotUA,bDotUA,gDotUA,aUA,bUA,gUA,xUA,yUA,zUA,qE,qDotE,emgA,emgB,aDotSH,bDotSH,gDotSH,aSH,bSH,gSH,xSH,ySH,zSH,aDotUB,bDotUB,gDotUB,aUB,bUB,gUB,xUB,yUB,zUB,xHand,yHand,zHand,aHand,bHand,gHand,enable
1,0,-0.3360351,-1.353013,0.1925643,-1.293864,-3.944634,-3.128777,0.6309795,1.275247,0.4903777,-1.255361,-0.02031357,10.1,4.1,-0.4041755,0.4892692,0.1852331,-0.6243706,-4.404806,-0.1835144,0.6935724,1.47395,0.3790181,-0.2747608,0.2055259,-0.03190434,-0.9433124,0.07341509,0.08131164,0.7787702,1.544949,0.1884089,0.4589196,1.069209,0.2972333,308.6777,224.8718,0.8794369,True
1,0.01111111,-0.3360351,-1.353013,0.1925643,-1.293864,-3.944634,-3.128777,0.6309795,1.275247,0.4903777,-1.255402,-0.003392009,10.1,4.1,-0.4041755,0.4892692,0.1852331,-0.6243706,-4.404806,-0.1835144,0.6935724,1.47395,0.3790181,-0.2747608,0.2055259,-0.03190434,-0.9433124,0.07341509,0.08131164,0.7787702,1.544949,0.1884089,0.4601286,1.068625,0.2928378,309.9215,218.3303,5.073389,True
1,0.02222222,-0.351612,-1.144611,0.1483777,-1.29556,-3.924155,-3.126236,0.6271809,1.275489,0.488126,-1.259231,-0.3501423,10.1,4.1,-0.353014,0.4103665,0.195181,-0.6208601,-4.391949,-0.1876104,0.6922765,1.474393,0.378257,-0.2885668,0.2353681,-0.03167291,-0.9435239,0.08086263,0.08365468,0.7792516,1.544805,0.1884251,0.4629273,1.067199,0.2878072,310.8472,216.1618,5.093833,True
1,0.03333334,-0.3582081,-1.08512,0.1287608,-1.296083,-3.913931,-3.124814,0.6253042,1.275667,0.4871359,-1.251299,0.7281969,10.1,4.1,-0.3489685,0.4019332,0.1695504,-0.6206902,-4.38462,-0.1898397,0.6916482,1.474597,0.3779104,-0.300269,0.2385751,-0.03047262,-0.9435772,0.08428638,0.08538947,0.7795807,1.544754,0.1883893,0.4665004,1.065352,0.2831848,311.3793,215.5811,3.506558,True
1,0.04444445,-0.3638262,-1.003379,0.09511331,-1.295714,-3.904916,-3.123086,0.6233563,1.275762,0.485882,-1.254857,-0.33183,10.1,4.1,-0.3557536,0.3829464,0.1216025,-0.6218209,-4.378395,-0.1907372,0.6908369,1.474771,0.3775005,-0.3023804,0.2428396,-0.02937433,-0.9436128,0.08785116,0.08668803,0.7799807,1.544657,0.1883962,0.4678928,1.06515,0.2801901,312.8268,212.1356,6.628012,True
1,0.05555556,-0.3629481,-0.950273,0.07340495,-1.295505,-3.896055,-3.121489,0.6215026,1.27598,0.4848504,-1.251407,0.3193513,10.1,4.1,-0.3580474,0.3744943,0.1024156,-0.6221677,-4.371775,-0.1920158,0.6901872,1.475007,0.377187,-0.2992576,0.2396576,-0.03580892,-0.9440299,0.09107012,0.08803425,0.7803618,1.544567,0.1883104,0.4679753,1.065116,0.2782817,313.9153,210.9492,7.725406,True
1,0.06666667,-0.3654781,-0.842047,0.02037604,-1.293671,-3.889818,-3.119034,0.6198676,1.275999,0.4837971,-1.259536,-0.7461481,8.8,2.8,-0.3506113,0.368104,0.1002039,-0.6217623,-4.364907,-0.193999,0.6896509,1.475343,0.3767087,-0.2876954,0.2322233,-0.04981241,-0.9450621,0.09392942,0.08902921,0.7809027,1.544486,0.1882834,0.4672963,1.065183,0.2767496,314.9448,210.8375,7.847162,True
1,0.07777778,-0.3749452,-0.7541962,-0.02133259,-1.292499,-3.882254,-3.116638,0.6181855,1.276182,0.4828584,-1.256425,0.2911163,8.8,2.8,-0.3472182,0.3680223,0.1214812,-0.6204835,-4.357348,-0.1966643,0.6892022,1.475662,0.3762076,-0.2856977,0.2269265,-0.06156749,-0.9460006,0.09688487,0.09039701,0.78133,1.544372,0.18819,0.4667183,1.065193,0.2756919,314.8634,211.3384,7.16251,True
1,0.08888889,-0.376675,-0.6934639,-0.046787,-1.290338,-3.877833,-3.11349,0.6165291,1.276463,0.4819348,-1.255686,0.0643018,8.8,2.8,-0.3362361,0.3625426,0.1618554,-0.6179711,-4.349671,-0.1995786,0.6886988,1.476002,0.3757627,-0.2901509,0.2301773,-0.07962304,-0.9473333,0.1003852,0.0917704,0.7818891,1.54427,0.18818,0.4661949,1.065151,0.2747733,315.1323,211.4603,6.864822,True
1,0.1,-0.3940774,-0.5979716,-0.08904245,-1.287685,-3.873971,-3.109409,0.6149951,1.276667,0.4810135,-1.255366,0.0290461,8.8,2.8,-0.3509216,0.3485894,0.1906873,-0.6156371,-4.343114,-0.2005011,0.6882465,1.4763,0.3753388,-0.2858981,0.22804,-0.08073908,-0.9480193,0.1034385,0.09297042,0.7824063,1.544181,0.1879792,0.4656574,1.065199,0.2739713,315.5688,211.4992,6.709094,True
1,0.1111111,-0.4071922,-0.5045708,-0.130211,-1.284607,-3.871806,-3.105082,0.61342,1.277036,0.4801395,-1.255496,-0.01215145,8.8,2.8,-0.3624726,0.3261469,0.2130685,-0.6130853,-4.337238,-0.20085,0.68785,1.476597,0.3749495,-0.273132,0.2237665,-0.08195367,-0.9487517,0.1063623,0.09384713,0.7828883,1.544032,0.1878555,0.4651235,1.065249,0.2729619,316.1106,211.3949,6.655704,True
1,0.1222222,-0.4234935,-0.4218791,-0.1745043,-1.281032,-3.869358,-3.10048,0.6116595,1.277383,0.4792898,-1.254818,0.06226211,8.3,2.5,-0.3634862,0.3090829,0.219416,-0.6111651,-4.33148,-0.2016753,0.6873385,1.476808,0.3746483,-0.2636177,0.214182,-0.08848,-0.9498451,0.1088776,0.09483037,0.7832288,1.54387,0.1876945,0.4645189,1.065297,0.2717675,316.756,211.1508,6.594768,True
1,0.1333333,-0.4354007,-0.3710051,-0.2047004,-1.277527,-3.867145,-3.095857,0.6099494,1.277811,0.4784408,-1.255075,-0.02392923,8.3,2.5,-0.3443151,0.2579236,0.2233273,-0.6087603,-4.328866,-0.2006846,0.6871181,1.477128,0.3743346,-0.2584459,0.2099525,-0.1023971,-0.9512918,0.1117472,0.09582027,0.7837016,1.543696,0.1875675,0.4638452,1.065337,0.2705236,317.2896,210.9326,6.391597,True
1,0.1444445,-0.4590833,-0.3074916,-0.2456368,-1.273313,-3.865478,-3.09042,0.6081913,1.27838,0.4776094,-1.25488,0.01814081,8.3,2.5,-0.3059161,0.1917983,0.2345039,-0.6057674,-4.328366,-0.1991451,0.686882,1.477453,0.374007,-0.2510617,0.2088973,-0.1088724,-0.9524636,0.1147201,0.09668233,0.7840605,1.543489,0.18764,0.4629484,1.065398,0.2686641,317.4812,211.0321,5.615839,True
1,0.1555556,-0.473074,-0.2736917,-0.278898,-1.26885,-3.863931,-3.085144,0.6064311,1.27893,0.4768054,-1.255019,-0.0128204,8.3,2.5,-0.2899466,0.1449069,0.2373931,-0.603026,-4.327726,-0.1970734,0.6866233,1.477741,0.3736329,-0.2553598,0.2067807,-0.112028,-0.9535922,0.1175746,0.09801845,0.7845279,1.543316,0.1875417,0.4619038,1.065468,0.265349,316.7801,211.7359,3.841508,True
1,0.1666667,-0.510598,-0.2167331,-0.3368122,-1.263001,-3.86342,-3.078386,0.6047099,1.279645,0.4760349,-1.254517,0.04615029,7.4,2.3,-0.2997039,0.07891446,0.2223232,-0.6008613,-4.329653,-0.191815,0.6863842,1.477964,0.3730676,-0.2553881,0.2078512,-0.1152261,-0.9547965,0.1205537,0.09905814,0.7850893,1.543078,0.187412,0.4597638,1.065953,0.2596942,314.5639,210.8677,3.557596,True
1,0.1777778,-0.5309443,-0.1967921,-0.3657065,-1.257871,-3.861595,-3.072308,0.6030444,1.280164,0.4752359,-1.254808,-0.02687382,7.4,2.3,-0.3103833,0.07786754,0.2192118,-0.5987516,-4.327452,-0.189796,0.6860405,1.478243,0.3726659,-0.2427042,0.1993354,-0.1239176,-0.9563667,0.1230119,0.09981155,0.7857268,1.542813,0.1872859,0.4580408,1.068305,0.2543585,313.4066,209.5147,3.559272,True
1,0.1888889,-0.5662817,-0.157879,-0.4192202,-1.251248,-3.861736,-3.06475,0.6010702,1.281035,0.4744191,-1.253856,0.08748713,7.4,2.3,-0.3688348,0.09277317,0.234661,-0.5959872,-4.32331,-0.1867981,0.6856238,1.478445,0.3720858,-0.2375593,0.1919158,-0.1399738,-0.9583108,0.1255119,0.1008228,0.7863264,1.542581,0.1871638,0.4563595,1.071766,0.2497998,312.256,208.0853,3.843461,True
1,0.2,-0.5908729,-0.1411981,-0.4534003,-1.245212,-3.86051,-3.057886,0.5991329,1.281944,0.4736154,-1.254246,-0.03626366,7.4,2.3,-0.381525,0.1193832,0.2423258,-0.5934545,-4.318255,-0.1865672,0.6854188,1.478724,0.3715634,-0.2270532,0.1887496,-0.1528728,-0.9601313,0.1283,0.1014212,0.786862,1.542409,0.1871183,0.4544418,1.075931,0.2463317,311.1484,206.802,4.351242,True
1,0.2111111,-0.6229719,-0.113946,-0.5004385,-1.237962,-3.860867,-3.049732,0.5970652,1.282905,0.4728158,-1.253667,0.05347225,7.4,2.3,-0.3853973,0.1607751,0.2861857,-0.5894023,-4.310612,-0.1884019,0.6851697,1.479052,0.3710544,-0.2208056,0.1930413,-0.166778,-0.9622533,0.1313462,0.1018651,0.7874488,1.542134,0.1870406,0.4520257,1.080254,0.2438777,310.1005,205.6832,5.135677,True
1,0.2222222,-0.6560754,-0.1004387,-0.531391,-1.231065,-3.860613,-3.04139,0.5948566,1.284,0.4720197,-1.25412,-0.0417157,7.9,2.5,-0.3799204,0.1543255,0.3031616,-0.5858656,-4.306808,-0.1878035,0.68489,1.479417,0.3704228,-0.2197173,0.2004984,-0.1657008,-0.963716,0.1346958,0.1023772,0.7879916,1.541925,0.1869547,0.4488038,1.084334,0.2422141,309.2928,204.7401,6.082799,True
1,0.2333333,-0.696651,-0.08920667,-0.5804305,-1.222753,-3.860954,-3.032043,0.5926318,1.285176,0.4712188,-1.253649,0.04355462,7.9,2.5,-0.397962,0.1266019,0.3138636,-0.5820978,-4.304794,-0.184454,0.6846943,1.479683,0.3698423,-0.2153699,0.1962086,-0.1572365,-0.964933,0.1373531,0.103088,0.7886369,1.54168,0.1868238,0.444898,1.087977,0.2411879,308.7068,203.964,7.198655,True
1,0.2444444,-0.7372485,-0.0747605,-0.6284379,-1.214059,-3.861617,-3.022103,0.5905272,1.286331,0.4703836,-1.253491,0.01435226,7.9,2.5,-0.440584,0.09146541,0.315159,-0.5785637,-4.304297,-0.1785109,0.6845723,1.479904,0.369292,-0.2079415,0.1823577,-0.1584166,-0.9664857,0.1393857,0.103953,0.7892823,1.541463,0.1866667,0.440403,1.091127,0.2405836,308.3797,203.3381,8.346332,True
1,0.2555556,-0.7820914,-0.0603379,-0.67324,-1.205028,-3.862154,-3.011741,0.5884562,1.287424,0.4696722,-1.252992,0.04573046,7.9,2.5,-0.4597392,0.08187965,0.3184782,-0.5750516,-4.302159,-0.1744738,0.6843882,1.480176,0.3687835,-0.1878965,0.1642672,-0.1746626,-0.9689128,0.1410332,0.1043128,0.7899331,1.541192,0.1864986,0.4355974,1.093915,0.2402264,308.2696,202.8334,9.479465,True
1,0.2666667,-0.8226736,-0.04480435,-0.7169845,-1.195625,-3.863593,-3.000677,0.5861025,1.288854,0.4688179,-1.252822,0.01540594,7.9,2.5,-0.4711709,0.09881103,0.3516602,-0.57039,-4.297272,-0.1730077,0.6844158,1.480475,0.3683164,-0.1699261,0.1557593,-0.1865973,-0.9712708,0.1431434,0.1043602,0.7906843,1.540885,0.1864169,0.4307038,1.096535,0.2399306,308.3077,202.3093,10.62767,True
1,0.2777778,-0.8557502,-0.0419732,-0.7500052,-1.186055,-3.864219,-2.98983,0.5839738,1.290145,0.4679282,-1.25274,0.007700453,7.3,7,-0.4603166,0.09125254,0.3771112,-0.565526,-4.294268,-0.1708365,0.6843874,1.480706,0.3678105,-0.1646485,0.153634,-0.1909214,-0.9733832,0.1453879,0.1047195,0.7913455,1.540622,0.1863036,0.4259405,1.099209,0.2395483,308.3634,201.7209,11.7825,True
1,0.2888889,-0.9058723,-0.04570587,-0.8021179,-1.175189,-3.865367,-2.977428,0.5815133,1.291787,0.466984,-1.252763,-0.001820104,7.3,7,-0.4558521,0.09329146,0.4015849,-0.5604074,-4.290455,-0.1691608,0.6844921,1.481005,0.3672383,-0.1561186,0.1504292,-0.1888831,-0.975044,0.1476555,0.1050657,0.7919148,1.540371,0.186202,0.4214143,1.102106,0.2389242,308.3869,201.0437,12.871,True
1,0.3,-0.9559887,-0.05152363,-0.8488942,-1.164145,-3.866554,-2.964494,0.5790039,1.293616,0.4659851,-1.253089,-0.02946339,7.3,7,-0.4783005,0.03579599,0.3962474,-0.5558933,-4.29226,-0.1615676,0.6846335,1.481374,0.3665388,-0.1518667,0.1472224,-0.1889394,-0.977011,0.1496963,0.1055584,0.7927246,1.540053,0.1859868,0.4170523,1.10538,0.2378887,308.36,200.2566,13.90332,True
1,0.3111111,-1.003981,-0.05416858,-0.8988869,-1.152312,-3.86815,-2.950828,0.5763487,1.295555,0.4649427,-1.252175,0.08408239,7.3,7,-0.5083313,-0.03975368,0.3781113,-0.5518219,-4.297029,-0.1507322,0.684841,1.481761,0.3660362,-0.1443681,0.1440059,-0.1847676,-0.9787564,0.1517476,0.1057504,0.7933912,1.539787,0.1858242,0.4129032,1.109102,0.2364199,308.2025,199.2445,15.02906,True
1,0.3222222,-1.03277,-0.05446637,-0.925482,-1.141232,-3.869769,-2.937745,0.5737715,1.297444,0.4638751,-1.252014,0.0142741,6.2,7.2,-0.5105222,-0.0866113,0.3747614,-0.5474415,-4.300716,-0.1418221,0.6849269,1.482193,0.3654656,-0.1263165,0.1248163,-0.1882181,-0.9810031,0.1527998,0.1059224,0.7940637,1.539545,0.1856632,0.4087902,1.113337,0.2344688,308.016,197.9924,16.19122,True
1,0.3333333,-1.066897,-0.05805673,-0.9648311,-1.129026,-3.871738,-2.923687,0.5709977,1.299609,0.4627025,-1.251944,0.006647198,6.2,7.2,-0.4945407,-0.1441673,0.3797488,-0.542487,-4.306705,-0.1317849,0.6851044,1.482637,0.364949,-0.1179622,0.1099301,-0.2021987,-0.9836998,0.1539615,0.1062913,0.7947759,1.539284,0.1854496,0.4046194,1.118173,0.2321204,307.7524,196.5467,17.43317,True
1,0.3444445,-1.11059,-0.07354128,-1.017948,-1.115626,-3.872895,-2.909292,0.5683786,1.301794,0.4614582,-1.253014,-0.09746617,6.2,7.2,-0.4966779,-0.1718782,0.3807311,-0.5378073,-4.311184,-0.1224258,0.6853225,1.482952,0.3642929,-0.1148556,0.09822142,-0.2086494,-0.9860897,0.1550651,0.1069688,0.7954143,1.538994,0.1852276,0.4003112,1.123623,0.2295095,307.361,194.9286,18.83842,True
1,0.3555556,-1.135103,-0.07806884,-1.044531,-1.103052,-3.875111,-2.894889,0.565679,1.304012,0.4602573,-1.252739,0.02620953,6.2,7.2,-0.5275456,-0.1739992,0.3841738,-0.5331457,-4.31416,-0.1127439,0.6854138,1.483348,0.3635902,-0.1106372,0.08224283,-0.2108696,-0.9884993,0.1557276,0.1076932,0.7961251,1.538743,0.1849937,0.3959173,1.129599,0.226825,306.8084,193.1891,20.44788,True
1,0.3666667,-1.174526,-0.09344333,-1.090169,-1.089427,-3.877261,-2.879397,0.5626683,1.306356,0.4590886,-1.252439,0.02745411,6.2,7.2,-0.5858908,-0.1644682,0.4134564,-0.527308,-4.315432,-0.1028004,0.6853887,1.483684,0.362777,-0.1064219,0.07051945,-0.2130772,-0.9908557,0.1564154,0.1084674,0.7967914,1.538553,0.1848645,0.391394,1.135949,0.2241471,306.2471,191.2876,22.29869,True
1,0.3777778,-1.207547,-0.1076373,-1.125199,-1.075831,-3.879627,-2.863954,0.5598381,1.308926,0.4578686,-1.253285,-0.07730291,6.3,9.3,-0.6546181,-0.1028402,0.4707147,-0.5202299,-4.311954,-0.09626608,0.6852254,1.48404,0.361902,-0.1117794,0.07479507,-0.2162026,-0.9932067,0.1579179,0.1091033,0.7973689,1.538284,0.1847601,0.3868151,1.142537,0.2215599,305.7522,189.2456,24.3713,True
1,0.3888889,-1.226714,-0.118497,-1.145338,-1.062533,-3.882053,-2.848551,0.5568521,1.311396,0.4566278,-1.252684,0.05600307,6.3,9.3,-0.7033548,-0.05177268,0.4989998,-0.5138926,-4.308441,-0.08987689,0.6849673,1.484464,0.3611267,-0.1203263,0.09186168,-0.220325,-0.9955866,0.1601805,0.109511,0.7979882,1.538018,0.1846254,0.3821653,1.149226,0.2190988,305.2949,187.1933,26.46788,True
1,0.4,-1.246942,-0.1410419,-1.164278,-1.049374,-3.884358,-2.83275,0.5538236,1.314372,0.4554749,-1.253154,-0.0433648,6.3,9.3,-0.7309353,-0.02623814,0.5121059,-0.5079245,-4.30654,-0.08256705,0.6849989,1.484946,0.3603551,-0.1202654,0.1014393,-0.2160373,-0.9976244,0.1622226,0.1096626,0.7986391,1.53778,0.1845644,0.37738,1.155922,0.2167333,304.9695,185.1896,28.532,True
1,0.4111111,-1.253247,-0.1785024,-1.185301,-1.035079,-3.885681,-2.817865,0.5506579,1.317324,0.4540377,-1.253665,-0.04605642,6.3,9.3,-0.7552294,-0.007130623,0.5358129,-0.5011824,-4.304065,-0.07543138,0.6847749,1.485394,0.3595164,-0.1287194,0.1099571,-0.210596,-0.9995845,0.1642955,0.1102312,0.7992409,1.537545,0.1844556,0.3725601,1.162622,0.2144907,304.7638,183.271,30.58737,True
1,0.4222222,-1.262756,-0.2192077,-1.214806,-1.020237,-3.887235,-2.802701,0.5477439,1.320436,0.4525108,-1.253598,0.006760743,6.8,13.2,-0.7679136,-0.01676416,0.548669,-0.4946039,-4.3046,-0.06610019,0.6847694,1.48577,0.3587425,-0.136122,0.1110132,-0.2051861,-1.001523,0.1659714,0.1111649,0.7999606,1.53713,0.1842437,0.3677575,1.169297,0.2123275,304.6358,181.4541,32.57907,True
1,0.4333333,-1.265914,-0.2439488,-1.245514,-1.005051,-3.889362,-2.787345,0.5446931,1.323474,0.450933,-1.254306,-0.06464915,6.8,13.2,-0.7974713,-0.07014304,0.5860064,-0.4865175,-4.309491,-0.05182272,0.6844167,1.4863,0.3578575,-0.1436731,0.108915,-0.2136334,-1.004072,0.1676439,0.1121702,0.8005801,1.536862,0.1841416,0.3630489,1.176001,0.2101777,304.6255,179.7475,34.47498,True
1,0.4444444,-1.268027,-0.2612041,-1.273083,-0.9896919,-3.891798,-2.771813,0.5415335,1.326602,0.4494216,-1.254469,-0.01429092,6.8,13.2,-0.863989,-0.1044656,0.6620813,-0.4761785,-4.313932,-0.03584269,0.6839561,1.486876,0.3568022,-0.1587658,0.1324225,-0.2325823,-1.007063,0.1707181,0.1127961,0.8011415,1.536565,0.1841073,0.3584632,1.182707,0.2078989,304.7042,177.9451,36.47895,True
1,0.4555556,-1.260526,-0.2794677,-1.294286,-0.9741795,-3.894229,-2.756739,0.5384995,1.329625,0.4478688,-1.254799,-0.02990775,6.8,13.2,-0.9258385,-0.0377329,0.7778925,-0.4636318,-4.308553,-0.02816453,0.6834682,1.487489,0.3557782,-0.1662626,0.1558855,-0.2388292,-1.009637,0.1740675,0.1131183,0.8017128,1.536274,0.1840711,0.3540961,1.189432,0.2054625,304.8531,176.0625,38.51248,True
1,0.4666667,-1.247732,-0.2858753,-1.301712,-0.9591513,-3.897296,-2.741376,0.5352064,1.332876,0.446342,-1.255009,-0.01878821,6.8,13.2,-0.9282636,0.05677176,0.8634819,-0.4511235,-4.298532,-0.0265669,0.6829112,1.48805,0.3547926,-0.1790676,0.1846783,-0.2439387,-1.012197,0.1780615,0.1134043,0.8022165,1.53599,0.1840956,0.3498932,1.196172,0.2028335,305.0276,174.0646,40.52519,True
1,0.4777778,-1.234924,-0.2965363,-1.308041,-0.9442621,-3.900306,-2.72642,0.5319881,1.33608,0.4448607,-1.255626,-0.05612996,7.2,11.5,-0.9078919,0.07268018,0.8782885,-0.4411926,-4.294935,-0.02070448,0.6824587,1.488485,0.3538375,-0.1929092,0.2028124,-0.2448085,-1.014597,0.1818705,0.1140334,0.8028188,1.535768,0.1841049,0.3458362,1.202939,0.2000851,305.2175,172.0026,42.50483,True
1,0.4888889,-1.209326,-0.3092889,-1.31437,-0.9293404,-3.903357,-2.712187,0.5287029,1.339431,0.4433372,-1.255854,-0.02042842,7.2,11.5,-0.8954955,0.04725802,0.8333558,-0.4337171,-4.296092,-0.01044199,0.6817441,1.488971,0.3528759,-0.2141035,0.2273189,-0.237055,-1.016502,0.1861519,0.1148778,0.8032682,1.535532,0.1841722,0.3419213,1.209705,0.1973034,305.434,169.9193,44.46547,True
1,0.5,-1.190131,-0.3210048,-1.319625,-0.9145023,-3.906579,-2.697764,0.5257183,1.342794,0.4417613,-1.256297,-0.0403286,7.2,11.5,-0.9491391,-0.004777014,0.7920569,-0.4266517,-4.301635,0.006894391,0.6810127,1.489463,0.351898,-0.2299964,0.2433008,-0.2304463,-1.018347,0.1901588,0.1158805,0.8037798,1.535325,0.1842494,0.3380468,1.216479,0.1945247,305.692,167.9164,46.31258,True
1,0.5111111,-1.156014,-0.332666,-1.325973,-0.8994928,-3.910008,-2.684263,0.5224472,1.346209,0.4401472,-1.25708,-0.07132898,7.2,11.5,-1.025993,-0.0003948808,0.7735309,-0.4188955,-4.30186,0.0210142,0.6800436,1.490031,0.3509464,-0.2554859,0.2774118,-0.2268815,-1.020157,0.1954217,0.1168273,0.8041737,1.535079,0.184375,0.3342154,1.223243,0.1918392,305.984,165.9874,48.1266,True
1,0.5222223,-1.11014,-0.3549041,-1.324797,-0.8845253,-3.912844,-2.671862,0.5194529,1.349643,0.4384129,-1.257007,0.007216538,6,17,-1.058898,0.02834439,0.7856312,-0.4096901,-4.298774,0.03088814,0.6792477,1.490641,0.3500366,-0.2597339,0.2997943,-0.2278471,-1.022293,0.2004653,0.1171602,0.804726,1.534832,0.1844685,0.3304222,1.229963,0.1892964,306.3219,164.1541,49.91661,True
1,0.5333334,-1.069588,-0.3771124,-1.319353,-0.8695834,-3.915762,-2.65947,0.5164599,1.353083,0.4367046,-1.257921,-0.08382797,6,17,-1.035813,0.09301817,0.8666413,-0.3971338,-4.290956,0.034334,0.6782764,1.491297,0.3490777,-0.2715949,0.3328793,-0.244674,-1.024997,0.2065878,0.1173764,0.8050976,1.534574,0.1845939,0.3266832,1.236606,0.186886,306.7188,162.4566,51.64904,True
1,0.5444446,-1.037589,-0.3898057,-1.319297,-0.8544816,-3.91915,-2.646858,0.5133255,1.356561,0.4349694,-1.258565,-0.05827558,6,17,-0.9767772,0.1087723,0.9194837,-0.3849205,-4.287025,0.0391988,0.6773043,1.492009,0.3478639,-0.2930518,0.3532023,-0.2603633,-1.027862,0.2124115,0.1182963,0.805469,1.534462,0.1847005,0.3229294,1.243123,0.1845516,307.1597,160.8227,53.33934,True
1,0.5555557,-0.9949166,-0.4098684,-1.311731,-0.839626,-3.922086,-2.635282,0.5102451,1.36001,0.4331989,-1.258425,0.01291712,6,17,-0.9639319,0.07676286,0.9299231,-0.3743968,-4.289568,0.05182165,0.6762373,1.492571,0.3466783,-0.3133458,0.364962,-0.2665042,-1.030474,0.2180078,0.1195956,0.8058228,1.534246,0.184818,0.3192518,1.249435,0.1823206,307.6307,159.3103,54.9673,True
1,0.5666668,-0.9490488,-0.4267252,-1.305272,-0.8246835,-3.925136,-2.62436,0.5070924,1.363522,0.4313884,-1.258224,0.01801666,6,17,-1.017339,0.03530288,0.9163638,-0.3647657,-4.294028,0.06893113,0.6749829,1.493247,0.3455143,-0.3345918,0.3809592,-0.2619678,-1.032593,0.223883,0.1211011,0.8059741,1.534092,0.1849182,0.3156344,1.255492,0.1801324,308.1614,157.9195,56.45243,True
1,0.577778,-0.8978688,-0.4424941,-1.297765,-0.8097448,-3.928385,-2.61368,0.50411,1.367081,0.4295084,-1.258682,-0.04219081,6.4,18.4,-1.07924,-0.006165147,0.9071378,-0.3551688,-4.300437,0.08911549,0.6737559,1.493988,0.3441355,-0.3493319,0.3979742,-0.2468416,-1.034089,0.2298257,0.1223936,0.8063693,1.534011,0.1850255,0.312015,1.261308,0.1779141,308.757,156.6553,57.75952,True
1,0.5888891,-0.8487984,-0.4593015,-1.285984,-0.7949749,-3.931307,-2.603884,0.5010195,1.370514,0.427598,-1.259164,-0.04393934,6.4,18.4,-1.145787,0.05969983,0.9707815,-0.342131,-4.295524,0.09965469,0.6722937,1.4948,0.3428242,-0.3767437,0.4426906,-0.2251153,-1.035058,0.2374404,0.1235598,0.8065053,1.533836,0.1851444,0.3084303,1.266896,0.1756822,309.384,155.4975,58.94004,True
1,0.6000003,-0.8189495,-0.4697982,-1.275283,-0.7800505,-3.934763,-2.592825,0.4980437,1.374043,0.4255834,-1.259244,-0.007259797,6.4,18.4,-1.108543,0.1923963,1.083898,-0.3253131,-4.279028,0.09513104,0.6706591,1.495582,0.341475,-0.3862717,0.4618757,-0.2217512,-1.036608,0.2445168,0.1245204,0.8066486,1.533554,0.1853044,0.3048822,1.272271,0.173454,310.045,154.4357,60.00574,True
1,0.6111114,-0.7698914,-0.4812557,-1.260346,-0.7655864,-3.937799,-2.583836,0.4950016,1.377414,0.4236262,-1.259531,-0.02651713,6.4,18.4,-1.034765,0.2465732,1.11225,-0.311552,-4.26795,0.09358295,0.6690278,1.496238,0.3400924,-0.4043382,0.4778708,-0.2193813,-1.038208,0.2515987,0.1260242,0.8067552,1.533361,0.1854105,0.3013919,1.27746,0.1712532,310.7345,153.4679,60.9866,True
1,0.6222225,-0.7411215,-0.4874416,-1.247534,-0.7514753,-3.94153,-2.573708,0.4921433,1.380897,0.4222457,-1.258316,0.1110054,4.4,22.3,-1.028662,0.2445401,1.075987,-0.300966,-4.264495,0.1013485,0.6676037,1.496918,0.3387153,-0.4182384,0.4799885,-0.2245454,-1.040143,0.2574057,0.1280102,0.8067545,1.533128,0.1853492,0.2979279,1.282461,0.1690622,311.4315,152.5448,61.92051,True
1,0.6333337,-0.6963444,-0.4892699,-1.225205,-0.7377664,-3.944869,-2.565221,0.4891128,1.384171,0.4203115,-1.259612,-0.1197064,4.4,22.3,-1.06526,0.243665,1.030477,-0.2910052,-4.259221,0.109466,0.6658022,1.49764,0.3373768,-0.4459516,0.4906786,-0.2284856,-1.042105,0.2643002,0.1302435,0.8067948,1.532905,0.1854901,0.2944746,1.287343,0.1668201,312.1595,151.7582,62.73303,True
1,0.6444448,-0.6302245,-0.4962705,-1.191157,-0.7244416,-3.947646,-2.558329,0.4863294,1.387465,0.4180846,-1.258787,0.07623723,4.4,22.3,-1.089928,0.2713621,1.008437,-0.2799542,-4.251806,0.1153862,0.6639199,1.49835,0.3359237,-0.4758203,0.5045457,-0.2313159,-1.043846,0.2714334,0.1331458,0.8066915,1.532784,0.1861253,0.2911476,1.292107,0.1647099,312.88,150.915,63.53637,True
1,0.655556,-0.5811327,-0.5161642,-1.164429,-0.7109069,-3.949779,-2.55163,0.4833881,1.390732,0.4159734,-1.259665,-0.08129437,4.4,22.3,-1.090007,0.271397,0.9988502,-0.268942,-4.245495,0.1213903,0.6622097,1.499039,0.3345709,-0.4874595,0.5066699,-0.2247874,-1.04526,0.278201,0.1353951,0.8066616,1.532611,0.186281,0.2879628,1.296792,0.1628425,313.5724,150.1312,64.25338,True
1,0.6666671,-0.524554,-0.5445803,-1.140855,-0.6971506,-3.95112,-2.546517,0.4804858,1.393837,0.4137807,-1.260529,-0.07853616,4.4,22.3,-1.068915,0.2746848,0.9710041,-0.2587841,-4.238345,0.1254628,0.6604104,1.499713,0.3329463,-0.5172849,0.5258483,-0.2233445,-1.046772,0.2857019,0.1386567,0.8064663,1.532522,0.1864045,0.2847006,1.301385,0.160931,314.2093,149.4258,65.01945,True
1,0.6777782,-0.4872035,-0.562471,-1.126917,-0.6833245,-3.953084,-2.54057,0.4775915,1.397022,0.411659,-1.259832,0.06392065,6.3,36.4,-1.059252,0.2703632,0.9815618,-0.2470934,-4.233179,0.1319663,0.6586689,1.500475,0.3313229,-0.5405537,0.5418029,-0.2092106,-1.047758,0.2933756,0.1415505,0.8063655,1.532331,0.1866193,0.2813879,1.305791,0.1589359,314.8355,148.79,65.8098,True
1,0.6888894,-0.4338246,-0.5909204,-1.106535,-0.6694292,-3.953675,-2.53701,0.4747306,1.400007,0.4093847,-1.260234,-0.0377581,6.3,36.4,-1.065959,0.268971,1.072166,-0.2319826,-4.22948,0.1403947,0.6565905,1.501357,0.3296061,-0.5574237,0.5524351,-0.1940843,-1.048418,0.3011234,0.1444637,0.8060952,1.532246,0.1867249,0.2780571,1.309916,0.1568693,315.4971,148.1866,66.54499,True
1,0.7000005,-0.4028524,-0.608839,-1.09366,-0.6555728,-3.954868,-2.532509,0.4720892,1.403082,0.407048,-1.259458,0.07097735,6.3,36.4,-1.068611,0.3124231,1.134146,-0.2167483,-4.216668,0.1399915,0.6547426,1.502163,0.327883,-0.5690974,0.5598972,-0.1896685,-1.04939,0.3089099,0.1473192,0.8059653,1.532158,0.1868794,0.274768,1.313678,0.1547966,316.2028,147.6046,67.18219,True
1,0.7111117,-0.3548132,-0.6352135,-1.078613,-0.6416519,-3.95476,-2.530353,0.4693291,1.405868,0.4047434,-1.260222,-0.07075864,6.3,36.4,-1.068454,0.3635026,1.149247,-0.2028306,-4.197758,0.1333354,0.6526941,1.502876,0.3259528,-0.5946707,0.5673859,-0.1915023,-1.050573,0.3166247,0.1508537,0.8055465,1.532127,0.1869426,0.2715123,1.317094,0.1527419,316.9485,147.1485,67.6305,True
1,0.7222228,-0.3078756,-0.6615053,-1.052876,-0.6284133,-3.954126,-2.528726,0.4666375,1.408779,0.4025829,-1.259379,0.07733695,6.3,36.4,-1.067405,0.4295914,1.144148,-0.189828,-4.170468,0.1186268,0.6505876,1.503635,0.3239496,-0.6052611,0.5726899,-0.1849874,-1.051435,0.3242267,0.1542522,0.8051962,1.532081,0.1869466,0.2683139,1.320153,0.1507309,317.7064,146.7841,67.9904,True
1,0.7333339,-0.2779914,-0.6686826,-1.027294,-0.6152626,-3.953701,-2.527006,0.4638509,1.411549,0.4003248,-1.260125,-0.06924564,8.7,70.5,-1.036522,0.4817908,1.138757,-0.1765409,-4.138421,0.09777183,0.6484216,1.504325,0.3221066,-0.6179589,0.5726823,-0.1773932,-1.052148,0.3318169,0.1577814,0.8047736,1.532088,0.1869853,0.2651785,1.322909,0.1487389,318.4904,146.5517,68.23228,True
1,0.7444451,-0.2257291,-0.6681182,-0.9730237,-0.6038638,-3.952289,-2.527352,0.4612386,1.413828,0.3979523,-1.259843,0.02601445,8.7,70.5,-1.002957,0.4724122,1.077718,-0.1663197,-4.115264,0.08493726,0.6460717,1.50503,0.3201394,-0.6475009,0.5865029,-0.1503867,-1.051684,0.3401538,0.1620035,0.8043036,1.532171,0.1869538,0.2621283,1.325359,0.1468221,319.2747,146.2914,68.45423,True
1,0.7555562,-0.1947961,-0.668897,-0.9464219,-0.5917618,-3.951332,-2.526937,0.4585331,1.416372,0.3957188,-1.25903,0.07322373,8.7,70.5,-1.046141,0.4087628,1.013922,-0.1570466,-4.107558,0.09048143,0.6435664,1.505973,0.3182027,-0.6737856,0.5896379,-0.1170471,-1.050627,0.3477449,0.1665991,0.8035942,1.532189,0.1870415,0.2591287,1.327538,0.1450061,320.0328,146.0659,68.57389,True
1,0.7666674,-0.1532288,-0.6599413,-0.9049959,-0.5807619,-3.949948,-2.527766,0.4559824,1.418678,0.3935087,-1.258918,0.008326646,8.7,70.5,-1.074215,0.4387839,0.9663239,-0.1475998,-4.075069,0.07120627,0.6411476,1.506804,0.3162549,-0.7022015,0.6087643,-0.08685675,-1.049365,0.3560516,0.1711118,0.8028788,1.53227,0.187017,0.256054,1.329479,0.1432067,320.7408,145.8822,68.67927,True
1,0.7777785,-0.1202369,-0.6286128,-0.8605341,-0.5704778,-3.94978,-2.5276,0.4534795,1.420924,0.3911521,-1.256844,0.1879988,8,59.5,-1.037311,0.4857686,0.9172047,-0.1382681,-4.028893,0.03580247,0.6388388,1.507523,0.3140495,-0.7062351,0.6342993,-0.06754997,-1.048123,0.3653772,0.1745811,0.8022686,1.5323,0.1869032,0.2529129,1.331126,0.141478,321.3649,145.7215,68.81766,True
1,0.7888896,-0.0851469,-0.5866069,-0.8129498,-0.561437,-3.949967,-2.527657,0.4508834,1.423006,0.3889613,-1.255367,0.1314773,8,59.5,-0.924979,0.5360416,0.8418854,-0.1316811,-3.971447,-0.01479519,0.6364031,1.508113,0.3120527,-0.7103664,0.656649,-0.05785576,-1.046998,0.3746507,0.1779767,0.8014468,1.532409,0.1868198,0.2496614,1.332499,0.1398785,322.03,145.6553,68.83041,True
1,0.8000008,-0.06067908,-0.5607578,-0.7854782,-0.5516605,-3.950262,-2.527516,0.4484761,1.425129,0.3866341,-1.252736,0.2373519,8,59.5,-0.8263174,0.5255271,0.7909728,-0.1245102,-3.925893,-0.054039,0.6340805,1.508855,0.3099413,-0.7209684,0.664088,-0.05131264,-1.045971,0.3834214,0.1822449,0.8005574,1.532571,0.1866548,0.2462969,1.333632,0.1384632,322.6687,145.6999,68.76083,True
1,0.8111119,-0.03088117,-0.5369953,-0.7537323,-0.5427117,-3.950213,-2.528296,0.4459127,1.427099,0.3844564,-1.250013,0.2443616,8,59.5,-0.8072708,0.42647,0.7829939,-0.1158933,-3.910018,-0.06131982,0.6317097,1.50939,0.3078725,-0.7144892,0.6597967,-0.04287195,-1.044817,0.3917141,0.1858633,0.7997134,1.53272,0.1865203,0.2427286,1.334605,0.1371759,323.2652,145.862,68.61687,True
1,0.8222231,-0.03088117,-0.5369953,-0.7537323,-0.5427117,-3.950213,-2.528296,0.4459127,1.427099,0.3844564,-1.24629,0.335644,8,59.5,-0.8072708,0.42647,0.7829939,-0.1158933,-3.910018,-0.06131982,0.6317097,1.50939,0.3078725,-0.7144892,0.6597967,-0.04287195,-1.044817,0.3917141,0.1858633,0.7997134,1.53272,0.1865203,0.238945,1.335475,0.1360662,323.8086,146.0865,68.46964,True
1,0.8333342,0.009687871,-0.5483812,-0.7249438,-0.522606,-3.947147,-2.532389,0.4408759,1.430967,0.3799486,-1.242146,0.3729878,16.7,63.5,-0.8556767,0.3339882,0.7330182,-0.1006558,-3.855523,-0.09441678,0.6271622,1.51054,0.3035736,-0.6756008,0.6393675,0.009962827,-1.040298,0.4069775,0.1923324,0.7975387,1.533148,0.1861022,0.2354454,1.336214,0.1356339,324.1741,146.4492,68.45819,True
1,0.8444453,0.0343537,-0.5907166,-0.6969637,-0.512323,-3.941483,-2.538418,0.4384722,1.432768,0.3778329,-1.239159,0.266622,16.7,63.5,-0.7810364,0.3360417,0.7409289,-0.09270677,-3.805657,-0.1377091,0.6248895,1.510972,0.301523,-0.6597162,0.6489639,0.0002276599,-1.039133,0.4156139,0.1948211,0.7964307,1.533288,0.1858494,0.2324053,1.336648,0.1357981,324.3606,146.8344,68.54204,True
1,0.8555565,0.05363348,-0.6107146,-0.6712736,-0.5025225,-3.936482,-2.54397,0.4360076,1.434502,0.3756714,-1.233647,0.4982077,16.7,63.5,-0.7427497,0.347755,0.7310852,-0.08546031,-3.743028,-0.193146,0.6225682,1.51133,0.2993693,-0.6555939,0.6575302,-0.01362823,-1.038249,0.4245679,0.1975426,0.7954627,1.533409,0.1856194,0.2276771,1.337046,0.1344275,325.4969,146.9635,68.22461,True
1,0.8666676,0.06756887,-0.62752,-0.6445345,-0.4930129,-3.930803,-2.550155,0.4335575,1.436173,0.3736124,-1.22874,0.4404109,16.7,63.5,-0.6885488,0.3840086,0.7126572,-0.07960188,-3.657107,-0.2728864,0.6201954,1.51169,0.2973163,-0.6525003,0.6596837,-0.02324428,-1.037356,0.4331645,0.2003677,0.7942922,1.533598,0.1853168,0.2227249,1.337474,0.1333191,326.3345,147.2648,67.8968,True
1,0.8777788,0.08146034,-0.6326573,-0.6242703,-0.4837036,-3.925584,-2.556066,0.4311279,1.438007,0.3715219,-1.223253,0.4939195,31.2,71.5,-0.6491948,0.4053051,0.7049445,-0.07400285,-3.561346,-0.3622227,0.6177711,1.51204,0.2952354,-0.6450416,0.6586291,-0.02330527,-1.036002,0.4417869,0.2029907,0.7931703,1.533804,0.1849775,0.2179935,1.337782,0.1328211,326.8291,147.6965,67.83019,True
1,0.8888899,0.09961151,-0.632366,-0.5923361,-0.475191,-3.919341,-2.56332,0.4287239,1.43961,0.3694773,-1.217322,0.5337674,31.2,71.5,-0.6116524,0.3576856,0.6117758,-0.0713056,-3.510213,-0.4075766,0.6152602,1.512522,0.2931376,-0.6406688,0.6340873,-0.01063633,-1.034394,0.4488292,0.2064083,0.7918534,1.534071,0.1845815,0.2135243,1.337824,0.1328146,327.3066,148.19,67.84864,True
1,0.900001,0.117788,-0.6438675,-0.570968,-0.4663914,-3.912373,-2.571407,0.4263526,1.441233,0.36744,-1.211169,0.5536946,31.2,71.5,-0.6255352,0.2654758,0.4858557,-0.06985684,-3.501684,-0.4086099,0.6128172,1.512897,0.2910628,-0.6265846,0.6127393,0.01152258,-1.032284,0.4558414,0.2092512,0.7905248,1.534401,0.1840847,0.209249,1.337552,0.1330942,327.8736,148.7352,67.72578,True
1,0.9111122,0.1349207,-0.6682444,-0.5612236,-0.4569484,-3.90393,-2.581005,0.4240637,1.442897,0.3653793,-1.205068,0.5485973,31.2,71.5,-0.6396765,0.2538865,0.4508026,-0.06695081,-3.440132,-0.4624728,0.6105606,1.513293,0.2888761,-0.6091039,0.593447,0.05177841,-1.029067,0.4622844,0.2118894,0.7890161,1.534817,0.1836905,0.2050328,1.337042,0.1334348,328.4948,149.3329,67.40424,True
1,0.9222233,0.1509773,-0.6883829,-0.5536355,-0.4475405,-3.894838,-2.591364,0.4217838,1.444568,0.3633089,-1.198498,0.5912405,31.2,71.5,-0.6168818,0.3229483,0.4966776,-0.06388604,-3.307937,-0.5882832,0.6081753,1.513703,0.2867329,-0.5981151,0.6039978,0.08259857,-1.025626,0.4699192,0.2143024,0.7875298,1.53514,0.1831558,0.2008278,1.336339,0.1337565,329.0898,149.9169,67.03179,True
1,0.9333345,0.172394,-0.720193,-0.5417128,-0.4379616,-3.88353,-2.604088,0.4196357,1.446158,0.361341,-1.191695,0.6121488,43.6,63.5,-0.5836674,0.3674931,0.5157812,-0.06143433,-3.175694,-0.7153333,0.6058623,1.513697,0.2840562,-0.572203,0.6230602,0.1122116,-1.021887,0.4781309,0.2156151,0.7859912,1.535512,0.1826484,0.196629,1.33548,0.1340659,329.7095,150.4755,66.65353,True
1,0.9444456,0.1970315,-0.7551143,-0.5201805,-0.4287348,-3.869863,-2.619511,0.4173732,1.447639,0.3592246,-1.184698,0.6296268,43.6,63.5,-0.5441479,0.4121788,0.5252063,-0.06135923,-3.034966,-0.8509798,0.6035033,1.514025,0.2818229,-0.552866,0.622997,0.1269152,-1.018536,0.4856151,0.2171917,0.7845005,1.535814,0.1820872,0.1924633,1.334506,0.1344142,330.3905,151.0177,66.26504,True
1,0.9555568,0.2087698,-0.7667034,-0.5073251,-0.4198772,-3.857708,-2.632922,0.4151894,1.449061,0.3573318,-1.177732,0.6264905,43.6,63.5,-0.5058442,0.423901,0.5195931,-0.06193128,-2.917192,-0.9639413,0.601139,1.514576,0.2798452,-0.5379673,0.6080639,0.1277781,-1.015821,0.4924628,0.2191955,0.7829172,1.536055,0.1815362,0.1883551,1.333466,0.1348626,331.0878,151.5508,65.87507,True
1,0.9666679,0.236503,-0.7653332,-0.4775423,-0.4119931,-3.844185,-2.648887,0.412941,1.450264,0.3553951,-1.170955,0.6094084,43.6,63.5,-0.4722092,0.3761354,0.4679984,-0.06220984,-2.847379,-1.029537,0.5987734,1.514821,0.2776225,-0.5392084,0.5867981,0.1138825,-1.013768,0.4989177,0.2218339,0.7813756,1.536344,0.180867,0.184348,1.332354,0.1354749,331.7693,152.0675,65.53757,True
1,0.977779,0.236503,-0.7653332,-0.4775423,-0.4119931,-3.844185,-2.648887,0.412941,1.450264,0.3553951,-1.16301,0.7162442,43.6,63.5,-0.4722092,0.3761354,0.4679984,-0.06220984,-2.847379,-1.029537,0.5987734,1.514821,0.2776225,-0.5392084,0.5867981,0.1138825,-1.013768,0.4989177,0.2218339,0.7813756,1.536344,0.180867,0.1803752,1.331122,0.1362025,332.4295,152.5635,65.22702,True
1,0.9888902,0.2513445,-0.7256135,-0.4426995,-0.3970203,-3.820545,-2.676645,0.4083896,1.452611,0.3513947,-1.153423,0.8657247,53,57.3,-0.3980284,0.3155231,0.4245478,-0.06329056,-2.69296,-1.176486,0.5938574,1.515591,0.2735107,-0.5286924,0.5602098,0.1030458,-1.009237,0.5120792,0.2264912,0.7781383,1.53684,0.1793802,0.1767873,1.329843,0.1373999,332.9205,153.1822,64.88345,True
1,1.000001,0.2608208,-0.6774626,-0.4164334,-0.3909174,-3.810759,-2.68887,0.406198,1.453614,0.3492835,-1.152605,0.06288523,53,57.3,-0.3854123,0.3177201,0.4052748,-0.06534225,-2.615945,-1.249368,0.591442,1.515894,0.2715261,-0.5018998,0.5708268,0.1155604,-1.006068,0.5197473,0.2270377,0.7763942,1.537239,0.178659,0.1735996,1.328586,0.1388016,333.218,153.9599,64.55837,True
1,1.011112,0.2628552,-0.6378998,-0.3975522,-0.3850814,-3.801426,-2.700503,0.4040352,1.454616,0.3474171,-1.142847,0.8872262,53,57.3,-0.3796239,0.2924074,0.334823,-0.06721392,-2.586238,-1.274893,0.5891253,1.516067,0.2695267,-0.4642702,0.5760386,0.1471291,-1.001923,0.5269101,0.2272635,0.774662,1.537474,0.1778111,0.1691517,1.32711,0.139073,334.2481,154.1886,64.228,True
1,1.022224,0.2178501,-0.5354992,-0.3620358,-0.3813093,-3.798661,-2.704014,0.4020782,1.455429,0.3456104,-1.135522,0.6571308,53,57.3,-0.3916966,0.250969,0.2932511,-0.06756014,-2.551238,-1.305439,0.586899,1.516081,0.2672043,-0.4395704,0.5482526,0.1680884,-0.9982785,0.5322154,0.2284073,0.7729555,1.53778,0.1770148,0.1645218,1.325676,0.1394516,334.9767,154.649,63.72924,True
1,1.033335,0.2135036,-0.4948484,-0.337827,-0.3767787,-3.791428,-2.713075,0.3999912,1.456337,0.3436639,-1.128677,0.6161962,58.3,74.7,-0.3981298,0.2499204,0.2890432,-0.06947974,-2.495784,-1.356037,0.5845839,1.516333,0.2651944,-0.4288966,0.5226776,0.1721526,-0.9953207,0.5375913,0.2299626,0.7712916,1.538086,0.1763639,0.1599639,1.324429,0.1400906,335.4197,155.3445,63.2978,True
1,1.044446,0.2187143,-0.4434637,-0.306253,-0.3734162,-3.786198,-2.720522,0.3979721,1.457021,0.3418887,-1.120287,0.7578459,58.3,74.7,-0.3865889,0.2638459,0.2676882,-0.07244544,-2.455579,-1.392179,0.5823933,1.516685,0.2634537,-0.4130715,0.501386,0.160201,-0.9929191,0.5427445,0.2311776,0.7696126,1.53832,0.1755188,0.1556548,1.323433,0.1410544,335.835,156.1064,62.9765,True
1,1.055557,0.2122219,-0.3985028,-0.2735528,-0.3702172,-3.780551,-2.727918,0.3959573,1.457609,0.3399987,-1.115548,0.4232733,58.3,74.7,-0.3474341,0.2628842,0.2375209,-0.07514535,-2.428913,-1.416141,0.5801923,1.51692,0.261682,-0.3761406,0.4630681,0.1330662,-0.9914091,0.5472453,0.2318346,0.7678831,1.53862,0.1747093,0.1515663,1.322788,0.1420264,336.2129,156.9621,62.70873,True
1,1.066668,0.1929682,-0.3578222,-0.2386721,-0.3677532,-3.775504,-2.734116,0.3939371,1.458115,0.3382709,-1.110304,0.472448,58.3,74.7,-0.3186891,0.246895,0.2361553,-0.07697281,-2.391252,-1.451179,0.5780745,1.517115,0.2598619,-0.3368195,0.4342744,0.1272293,-0.9893409,0.551412,0.2319656,0.7661791,1.538849,0.1737819,0.1477141,1.322457,0.1428287,336.591,157.6319,62.60794,True
1,1.077779,0.17801,-0.3374368,-0.216441,-0.3649452,-3.770218,-2.740555,0.3918624,1.458838,0.336586,-1.104437,0.5288087,58.3,74.7,-0.3168854,0.2150735,0.1998019,-0.07820053,-2.374514,-1.464231,0.5760319,1.517234,0.2581167,-0.3164924,0.4118777,0.1365166,-0.9867049,0.5557337,0.2324769,0.7644296,1.5391,0.1728692,0.1440944,1.322337,0.1434097,336.8556,158.1055,62.63425,True
1,1.08889,0.1620134,-0.3202453,-0.1899134,-0.3626842,-3.763814,-2.747818,0.3899464,1.459226,0.3349125,-1.098646,0.5218753,60.1,75.1,-0.30437,0.1970743,0.1687349,-0.07970628,-2.362176,-1.473475,0.5740288,1.517344,0.2564511,-0.2874461,0.3787355,0.165937,-0.9832327,0.558523,0.2330961,0.7627372,1.539328,0.1718137,0.1406547,1.322289,0.1436972,337.0408,158.46,62.7184,True
1,1.100002,0.1428603,-0.3180289,-0.1696686,-0.3599699,-3.755715,-2.756413,0.3881512,1.45953,0.3332608,-1.094212,0.3985001,60.1,75.1,-0.2722341,0.2033605,0.188738,-0.08192682,-2.323835,-1.50992,0.5719756,1.51718,0.2545071,-0.2498799,0.3349243,0.1973597,-0.9795266,0.5603234,0.2338096,0.7609313,1.539566,0.1707203,0.1374255,1.32223,0.1437046,337.2103,158.7537,62.75625,True
1,1.111113,0.1311657,-0.3179314,-0.1515435,-0.3577115,-3.747624,-2.765022,0.3863865,1.459867,0.3316224,-1.090271,0.3549511,60.1,75.1,-0.2253885,0.1990864,0.186204,-0.0839423,-2.296867,-1.535911,0.5702084,1.517174,0.2529781,-0.2165356,0.2985725,0.2309804,-0.9755958,0.5619385,0.2343228,0.7592231,1.539858,0.1697369,0.1344418,1.322137,0.1434795,337.407,158.9865,62.74112,True
1,1.122224,0.2058805,-0.3440705,-0.1162946,-0.3559608,-3.73595,-2.780425,0.3848039,1.459969,0.3299353,-1.086826,0.3103497,60.1,75.1,-0.2194012,0.1832839,0.1392128,-0.08539692,-2.298441,-1.531995,0.5684316,1.517341,0.2517664,-0.1847554,0.2602179,0.2188077,-0.9732437,0.5632508,0.2346069,0.7576076,1.540057,0.1686485,0.1317783,1.321932,0.1430788,337.5832,159.1672,62.77076,True
1,1.133335,0.2144184,-0.354772,-0.1279457,-0.3528161,-3.726659,-2.791902,0.3832212,1.460183,0.3283312,-1.084126,0.2428084,58.8,56.7,-0.2013485,0.1662462,0.1336761,-0.08655273,-2.282485,-1.546193,0.5667461,1.51742,0.2503133,-0.1582445,0.2389079,0.2109918,-0.9709235,0.5652118,0.2346815,0.756073,1.540213,0.1674728,0.129467,1.321538,0.1425349,337.7903,159.2969,62.78638,True
1,1.144446,0.1931355,-0.3547367,-0.1140736,-0.3505945,-3.716559,-2.80293,0.3817316,1.460234,0.3267314,-1.085162,-0.09810295,58.8,56.7,-0.151553,0.1312011,0.1022408,-0.08702092,-2.279823,-1.548913,0.5650239,1.517488,0.2488909,-0.1433812,0.2261162,0.2075982,-0.9682785,0.5671074,0.2347334,0.7544955,1.540426,0.1663275,0.1275032,1.320923,0.1418596,337.9917,159.4045,62.74408,True
1,1.155557,0.1782243,-0.346115,-0.0960149,-0.3490083,-3.707971,-2.812368,0.3801395,1.460312,0.3249888,-1.081619,0.3235364,58.8,56.7,-0.1352348,0.1112874,0.01682045,-0.0879706,-2.308232,-1.519549,0.5634643,1.517464,0.2475019,-0.1274567,0.2005397,0.2062878,-0.9656835,0.5682485,0.2351917,0.7529597,1.54061,0.1651275,0.1258877,1.319979,0.1412836,338.1805,159.334,62.69885,True
1,1.166668,0.144161,-0.3428206,-0.0682965,-0.3480517,-3.697495,-2.822595,0.3787488,1.460263,0.323503,-1.078287,0.3005716,58.8,56.7,-0.1266232,0.1293573,0.02640438,-0.08996584,-2.301197,-1.525431,0.5619743,1.517439,0.2461426,-0.09536854,0.1546477,0.2228566,-0.9627189,0.5675501,0.2355388,0.751565,1.540802,0.1638863,0.1243388,1.318728,0.1408287,338.4504,159.2986,62.48059,True
1,1.17778,0.117559,-0.3405776,-0.04165293,-0.3472107,-3.686838,-2.833107,0.3772956,1.460194,0.3219829,-1.076447,0.1649972,58.8,56.7,-0.1189623,0.15591,0.05095565,-0.09284632,-2.280226,-1.544964,0.5604522,1.517285,0.2447188,-0.0793191,0.1333077,0.2322063,-0.9597351,0.5678683,0.2358591,0.7499205,1.541111,0.1627443,0.1227017,1.317269,0.1403699,338.7427,159.4622,62.12939,True
1,1.188891,0.08030735,-0.3350849,-0.003291853,-0.3473417,-3.675843,-2.843097,0.3760116,1.460079,0.3205867,-1.074246,0.1992819,53.1,40.2,-0.09967089,0.1920767,0.06264868,-0.09625942,-2.267244,-1.557479,0.5591987,1.517184,0.2434275,-0.05054954,0.1108944,0.2350274,-0.9569819,0.5676333,0.2355555,0.7485796,1.541298,0.161546,0.1209619,1.315737,0.1398148,339.019,159.7602,61.75008,True
1,1.200002,0.05901073,-0.3275144,0.02117653,-0.3472826,-3.66545,-2.852839,0.3747454,1.459936,0.319109,-1.073307,0.0837317,53.1,40.2,-0.0976567,0.2112738,0.04780135,-0.09878463,-2.265663,-1.558129,0.5580325,1.516935,0.241843,-0.03036017,0.1002263,0.2326412,-0.9544556,0.5679469,0.2352629,0.7471843,1.541493,0.1603529,0.1193281,1.314219,0.1391985,339.27,160.088,61.44532,True
1,1.211113,0.03453165,-0.3187978,0.05736415,-0.3481689,-3.655148,-2.862126,0.3736024,1.459628,0.3176956,-1.071744,0.1418274,53.1,40.2,-0.07965596,0.2145082,0.03488192,-0.1012022,-2.265203,-1.558237,0.5569627,1.516896,0.2406626,-0.007911414,0.08845892,0.2408877,-0.9514761,0.5677291,0.2346312,0.7460157,1.541669,0.1591594,0.1178899,1.312762,0.1384742,339.4971,160.3478,61.20303,True
1,1.222224,0.009978086,-0.289884,0.08807315,-0.3494099,-3.647373,-2.868708,0.3724912,1.45924,0.3162491,-1.07139,0.03090709,53.1,40.2,-0.0661633,0.1944247,-0.005783163,-0.1028183,-2.278379,-1.544734,0.5557864,1.516899,0.239753,0.0005169734,0.06609461,0.2354059,-0.9491149,0.5670534,0.2348991,0.7448677,1.541811,0.15798,0.1167505,1.311387,0.1375979,339.667,160.5595,60.99122,True
1,1.233335,-0.01452127,-0.2801939,0.1125331,-0.3505546,-3.637726,-2.876848,0.3713973,1.45881,0.3147633,-1.070592,0.07249174,42.5,26.6,-0.08038341,0.1317306,-0.04638098,-0.1020736,-2.298162,-1.523649,0.5547022,1.516841,0.2385678,-0.002819851,0.03202917,0.2268243,-0.9471426,0.5654017,0.2361758,0.7437631,1.541853,0.1567514,0.1158902,1.310093,0.1364993,339.7982,160.661,60.81626,True
1,1.244446,-0.0390023,-0.2801521,0.1285443,-0.3516603,-3.627619,-2.885078,0.3704541,1.458347,0.3133388,-1.069852,0.06681283,42.5,26.6,-0.1228769,0.1327677,-0.03111034,-0.1036225,-2.29536,-1.523398,0.5536292,1.51678,0.2375097,0.013136,0.02242649,0.2255591,-0.9448006,0.5645723,0.2360069,0.7427955,1.541951,0.1556678,0.1153007,1.308844,0.135157,339.8505,160.678,60.67573,True
1,1.255558,-0.05495635,-0.2843608,0.1424363,-0.3526361,-3.61693,-2.893981,0.3694893,1.457916,0.3119237,-1.069342,0.04592637,42.5,26.6,-0.1398792,0.1625919,-0.02766016,-0.1066101,-2.294989,-1.521591,0.5526077,1.516625,0.2362802,0.01627108,0.0160537,0.2212408,-0.9425689,0.5641103,0.2360527,0.7417022,1.542113,0.1546555,0.1148998,1.307609,0.133527,339.8525,160.6202,60.54652,True
1,1.266669,-0.07729834,-0.287516,0.1574028,-0.3540486,-3.605939,-2.90262,0.3686053,1.457381,0.3105025,-1.06879,0.05001566,42.5,26.6,-0.1480738,0.2679425,0.005829372,-0.1133303,-2.281777,-1.532833,0.5517738,1.516312,0.2349961,0.00217773,0.0225265,0.1979777,-0.9410067,0.5642381,0.2364362,0.7408344,1.54224,0.1537585,0.1146844,1.306345,0.131671,339.8611,160.473,60.43999,True
1,1.27778,-0.09112918,-0.2896007,0.1691525,-0.355483,-3.595463,-2.910956,0.3675905,1.456962,0.3092074,-1.068747,0.003504381,26.6,21.1,-0.1542801,0.306222,0.02626386,-0.1179589,-2.272318,-1.540287,0.5508158,1.516213,0.2338431,0.003067605,0.04070394,0.1798975,-0.9394828,0.565433,0.2356615,0.7398617,1.542246,0.1527789,0.1146802,1.305026,0.1296942,339.8915,160.2633,60.32039,True
1,1.288891,-0.1049461,-0.2840442,0.2064162,-0.3583981,-3.584985,-2.919087,0.3667342,1.456472,0.3078005,-1.068133,0.05613352,26.6,21.1,-0.176495,0.3178782,0.04460852,-0.1217129,-2.261564,-1.548263,0.5500299,1.515943,0.2327459,0.01139967,0.04821461,0.161715,-0.9381081,0.5661997,0.2347992,0.7390442,1.542394,0.1520081,0.1148331,1.303633,0.1276715,339.9262,160.0106,60.17227,True
1,1.300002,-0.107061,-0.2698355,0.2563802,-0.3622373,-3.575641,-2.926528,0.3657839,1.456112,0.3062091,-1.068207,-0.007287397,26.6,21.1,-0.2398871,0.3053816,-0.01881802,-0.1247744,-2.278989,-1.526124,0.5492181,1.515527,0.2317393,0.01665906,0.05035652,0.1552716,-0.936532,0.5665392,0.2342466,0.7382176,1.542469,0.1511738,0.1150808,1.302145,0.1256383,339.9506,159.7698,59.98586,True
1,1.311113,-0.087814,-0.2801988,0.2883894,-0.3657149,-3.563558,-2.937521,0.3650125,1.455573,0.304445,-1.068007,0.01837236,26.6,21.1,-0.2925577,0.345049,-0.076821,-0.1301604,-2.299162,-1.501115,0.5484594,1.515365,0.2308111,0.005964868,0.05037791,0.1511273,-0.9349064,0.5667245,0.2344096,0.7375761,1.542509,0.1503985,0.1153592,1.300584,0.123644,339.9585,159.5612,59.74529,True
1,1.322224,-0.07246444,-0.4272302,0.2787827,-0.3665372,-3.536585,-2.962476,0.3643337,1.455238,0.3025522,-1.068349,-0.03150515,26.6,21.1,-0.280546,0.3779432,-0.04377247,-0.1354271,-2.292072,-1.505378,0.5477036,1.515195,0.229764,-0.004884645,0.06110981,0.1320888,-0.9339099,0.5679193,0.2341726,0.7369195,1.54254,0.1496019,0.1156594,1.298937,0.1216547,339.9099,159.493,59.47226,True
1,1.333336,-0.07661504,-0.4753834,0.2525029,-0.36721,-3.516879,-2.979818,0.3635858,1.454592,0.300597,-1.069329,-0.08931187,15.2,21.5,-0.2528071,0.3736521,-0.03869572,-0.1394074,-2.291466,-1.504214,0.546948,1.514966,0.2287474,-0.009314775,0.06010216,0.1172152,-0.9329357,0.5686358,0.2340266,0.736197,1.542638,0.1488307,0.115956,1.297183,0.1195975,339.8409,159.5111,59.20149,True
1,1.344447,-0.07115832,-0.5385679,0.2050177,-0.3666896,-3.494222,-3.000359,0.3628317,1.454129,0.2987053,-1.069371,-0.00309083,15.2,21.5,-0.2121229,0.3362475,-0.01254416,-0.1418634,-2.285105,-1.509575,0.5462908,1.51481,0.2276909,-0.01708813,0.05592804,0.08852322,-0.9327748,0.5692186,0.2341323,0.7355363,1.542683,0.1480203,0.1163785,1.29523,0.1175923,339.8693,159.435,59.05648,True
1,1.355558,-0.06147641,-0.5867597,0.167008,-0.3663572,-3.471803,-3.020875,0.3620717,1.453716,0.2968326,-1.06841,0.08780254,15.2,21.5,-0.1865825,0.2627263,-0.01302502,-0.1422874,-2.285048,-1.50853,0.5455384,1.51442,0.2264347,-0.02379841,0.05601906,0.05876837,-0.9328616,0.5700775,0.2340362,0.7348608,1.54275,0.1472816,0.1169966,1.292901,0.1157649,340.156,159.2039,58.92952,True
1,1.366669,-0.04443052,-0.5974666,0.1521464,-0.3668419,-3.452154,-3.039191,0.3612309,1.453318,0.2951918,-1.068651,-0.02294463,15.2,21.5,-0.2145087,0.2319419,-0.03847519,-0.1439955,-2.293883,-1.496365,0.5447289,1.514264,0.2252662,-0.02489058,0.06242075,0.05560154,-0.9321612,0.5710493,0.2337781,0.7341233,1.542842,0.1464431,0.1175892,1.290224,0.1139702,340.5157,159.0115,58.58113,True
1,1.37778,-0.01894009,-0.5729112,0.1487377,-0.367985,-3.436694,-3.054289,0.3603114,1.452766,0.2934949,-1.068806,-0.01395762,15.2,21.5,-0.2312407,0.2755013,-0.003021628,-0.1485485,-2.284617,-1.502309,0.5437247,1.514278,0.2242332,-0.02887338,0.09113671,0.0780834,-0.9301457,0.5731825,0.2329334,0.7333835,1.542812,0.1456048,0.1181278,1.28737,0.1122856,340.9346,158.8455,58.05819,True
1,1.388891,0.02142584,-0.5333493,0.1515938,-0.3694987,-3.423589,-3.068072,0.3594897,1.452434,0.2918279,-1.069101,-0.02689882,13.7,21.8,-0.2384913,0.3116378,0.01954877,-0.153185,-2.275582,-1.508414,0.5428078,1.514197,0.2229946,-0.03284107,0.1049166,0.1037252,-0.9279311,0.5744902,0.2326343,0.7328084,1.542888,0.1447916,0.1185734,1.284518,0.1107649,341.3474,158.725,57.4685,True
1,1.400002,0.06387156,-0.4831997,0.1437098,-0.3705938,-3.413149,-3.079827,0.358714,1.452128,0.2907491,-1.069683,-0.05316424,13.7,21.8,-0.2468044,0.3658828,0.04007205,-0.1588171,-2.265755,-1.515259,0.5420299,1.514099,0.2215383,-0.04232047,0.09850714,0.1144641,-0.9261244,0.5751336,0.2330354,0.7322638,1.542938,0.1439061,0.1188593,1.281813,0.1094275,341.66,158.6606,56.91024,True
1,1.411114,0.08709574,-0.4246841,0.1240666,-0.371005,-3.404549,-3.089364,0.3581329,1.451745,0.2895145,-1.07042,-0.06710497,13.7,21.8,-0.2255765,0.3680295,0.03031555,-0.1627405,-2.26474,-1.514491,0.5412998,1.514107,0.2205143,-0.06371514,0.07725379,0.108248,-0.9250671,0.5752429,0.2342945,0.7317497,1.542994,0.14306,0.1188927,1.279346,0.1082312,341.8726,158.6831,56.42939,True
1,1.422225,0.09109533,-0.3470391,0.1053843,-0.3715174,-3.400639,-3.094152,0.3575053,1.451421,0.288439,-1.070674,-0.022927,13.7,21.8,-0.1916203,0.3254492,0.01708826,-0.165002,-2.265291,-1.512917,0.5406142,1.514023,0.2193942,-0.09714533,0.06033881,0.07340191,-0.9254346,0.5753928,0.2364336,0.7311844,1.542964,0.1422286,0.1187511,1.277236,0.1073115,342.0477,158.7212,56.02956,True
1,1.433336,0.0898473,-0.2938657,0.09433872,-0.3721049,-3.395452,-3.099815,0.3568805,1.451146,0.2872968,-1.069897,0.07098504,14.7,19.7,-0.1704515,0.2722087,0.002868161,-0.1659533,-2.266963,-1.510198,0.5398965,1.513825,0.2182915,-0.112214,0.06038764,0.05970949,-0.9250836,0.5761465,0.2377079,0.7305248,1.543023,0.1414001,0.1184643,1.275557,0.1068231,342.1914,158.7394,55.73976,True
1,1.444447,0.0898473,-0.2938657,0.09433872,-0.3721049,-3.395452,-3.099815,0.3568805,1.451146,0.2872968,-1.069192,0.06370839,14.7,19.7,-0.1704515,0.2722087,0.002868161,-0.1659533,-2.266963,-1.510198,0.5398965,1.513825,0.2182915,-0.112214,0.06038764,0.05970949,-0.9250836,0.5761465,0.2377079,0.7305248,1.543023,0.1414001,0.1179072,1.274302,0.1066059,342.341,158.8748,55.54425,True
1,1.455558,0.08412562,-0.171526,0.07427287,-0.373078,-3.393854,-3.103042,0.3557397,1.450811,0.2853861,-1.067848,0.122241,14.7,19.7,-0.1013007,0.2317188,-0.006383374,-0.1695267,-2.268539,-1.508345,0.5385023,1.513637,0.2159083,-0.09897645,0.1028873,0.09697165,-0.9211757,0.5795111,0.2376376,0.729375,1.543119,0.1396375,0.1171851,1.273558,0.1066595,342.4598,159.0901,55.40789,True
1,1.466669,0.09564203,-0.1032745,0.07908676,-0.3741816,-3.397412,-3.101201,0.3552673,1.450622,0.2846761,-1.069208,-0.1252968,14.7,19.7,-0.08439676,0.2413632,-0.023533,-0.172682,-2.271967,-1.504509,0.5377742,1.51368,0.214843,-0.09446011,0.09855761,0.1203568,-0.9188204,0.5800371,0.2381348,0.7288246,1.543153,0.1387255,0.1163618,1.27335,0.1068495,342.5228,159.4116,55.39486,True
1,1.47778,0.1103841,-0.04570064,0.07971084,-0.3751403,-3.400692,-3.099898,0.3547374,1.450569,0.2838166,-1.068711,0.04646739,14.7,19.7,-0.08590768,0.178688,-0.0727658,-0.1726623,-2.2867,-1.488912,0.5371576,1.513731,0.213809,-0.1019121,0.07938097,0.1235653,-0.9175645,0.579857,0.2397561,0.7281845,1.543226,0.1378303,0.1149448,1.27327,0.1064147,342.5716,159.7427,55.59081,True
1,1.488891,0.1294259,-0.006308556,0.06768129,-0.375576,-3.404125,-3.098836,0.3542872,1.450553,0.2831414,-1.068998,-0.02676333,17.5,16.2,-0.07285675,0.1412589,-0.03786563,-0.1729148,-2.282402,-1.492574,0.5364889,1.513966,0.2129891,-0.1264452,0.0495812,0.1237537,-0.9163224,0.5788615,0.2425868,0.7277647,1.543238,0.1368785,0.1135741,1.273378,0.1058005,342.5611,159.9913,55.80118,True
1,1.500003,0.1485119,0.01924848,0.05894172,-0.3759041,-3.406603,-3.098825,0.3538738,1.45039,0.2823246,-1.069195,-0.01787379,17.5,16.2,-0.06080274,0.1517575,0.001490489,-0.1748685,-2.273812,-1.50078,0.5359455,1.513954,0.2118995,-0.1349115,0.0463845,0.1302193,-0.9146819,0.5789956,0.244435,0.727248,1.543233,0.1359041,0.1124928,1.273667,0.1051993,342.4263,160.1284,55.9719,True
1,1.511114,0.1526826,0.04366122,0.04491207,-0.3760692,-3.409879,-3.097578,0.3533761,1.450403,0.2817545,-1.069446,-0.02295165,17.5,16.2,-0.03918999,0.1931577,0.03556446,-0.1783615,-2.263336,-1.511444,0.5353735,1.513823,0.2106791,-0.1200208,0.0517002,0.1279355,-0.9132395,0.5795877,0.2449413,0.7267215,1.543222,0.1351511,0.111676,1.274052,0.1046387,342.2696,160.1686,56.10473,True
1,1.522225,0.1494497,0.05211154,0.03633213,-0.3762301,-3.41224,-3.096925,0.3530221,1.450361,0.2812116,-1.069461,-0.00130544,17.5,16.2,-0.02328967,0.1974483,0.02585906,-0.1807312,-2.262804,-1.512243,0.5349019,1.513767,0.2096977,-0.1083992,0.04851374,0.1192783,-0.9121369,0.579793,0.2456217,0.7262688,1.543223,0.1343098,0.1110511,1.27445,0.1041766,342.1363,160.1292,56.23655,True
1,1.533336,0.1377023,0.05408326,0.01929216,-0.3759691,-3.413928,-3.096454,0.3527933,1.450387,0.2808361,-1.068807,0.05966244,17.5,16.2,-0.01060506,0.1814999,0.01609735,-0.182092,-2.264217,-1.51097,0.5342987,1.513987,0.2090473,-0.1001443,0.04432325,0.09466568,-0.911942,0.5803951,0.246063,0.7258518,1.543116,0.1334498,0.1104685,1.274742,0.103788,342.0364,160.072,56.35373,True
1,1.544447,0.1344118,0.08279684,0.01376055,-0.3760064,-3.419059,-3.093067,0.3525323,1.450489,0.2804697,-1.068368,0.03962941,18.3,12.5,0.02242567,0.1591067,0.01786543,-0.1830199,-2.262456,-1.514161,0.5338608,1.514047,0.2082391,-0.09821855,0.02732208,0.07755323,-0.9117625,0.579963,0.2473549,0.7254672,1.543102,0.1326103,0.1098618,1.274912,0.1035174,341.9664,160.0572,56.39459,True
1,1.555558,0.1375643,0.09555437,0.009397669,-0.3760266,-3.422813,-3.091242,0.3523567,1.450535,0.2800262,-1.06784,0.04792602,18.3,12.5,0.04583424,0.1377923,0.01546631,-0.1837427,-2.260781,-1.517093,0.5335102,1.514055,0.2072978,-0.09173189,0.01452018,0.0870306,-0.9105955,0.5795312,0.2483155,0.7251256,1.543081,0.1317801,0.1092606,1.274963,0.1034013,341.939,160.1157,56.40542,True
1,1.566669,0.1471377,0.09658672,0.0008551325,-0.3757955,-3.425859,-3.090363,0.3521471,1.45064,0.2795267,-1.068066,-0.02104045,18.3,12.5,0.05432576,0.1175538,0.01319407,-0.1843419,-2.259799,-1.518878,0.5332807,1.514105,0.2064874,-0.08406541,0.006999947,0.1071694,-0.9088271,0.5787426,0.2494674,0.7247765,1.543107,0.1308982,0.1086986,1.274947,0.1034404,341.9729,160.2477,56.35027,True
1,1.577781,0.15887,0.08588254,-0.010803,-0.3752607,-3.427215,-3.09123,0.3521266,1.450746,0.279144,-1.06837,-0.02756295,18.3,12.5,0.04274739,0.1292128,0.03038277,-0.1861294,-2.25433,-1.524183,0.5330248,1.514412,0.2057488,-0.07949474,0.001609884,0.1358613,-0.9065368,0.5781016,0.2505222,0.7245425,1.543249,0.1299481,0.1081189,1.274951,0.1035377,341.9928,160.4469,56.24319,True
1,1.588892,0.1620858,0.07192367,-0.02668459,-0.3744687,-3.427967,-3.092394,0.3520988,1.450892,0.2786739,-1.068642,-0.0246761,16.8,10.1,0.04071066,0.1387601,0.04109092,-0.1879973,-2.249351,-1.529433,0.5329288,1.514415,0.204915,-0.07083279,-0.01228808,0.1495848,-0.9046002,0.5766631,0.2518346,0.724354,1.543262,0.1290965,0.107515,1.275004,0.1036425,342.0073,160.6497,56.18386,True
1,1.600003,0.164243,0.05907682,-0.03618503,-0.3737017,-3.428579,-3.093695,0.3520316,1.451059,0.2782657,-1.068769,-0.01147131,16.8,10.1,0.03851624,0.157972,0.03372288,-0.1904853,-2.24847,-1.530528,0.5327137,1.514367,0.2040906,-0.06339882,-0.02399219,0.1483982,-0.9033427,0.5757218,0.2528248,0.7241948,1.54327,0.1282992,0.1069099,1.27512,0.1037615,342.0371,160.8053,56.18365,True
1,1.611114,0.1578862,0.04405998,-0.04778446,-0.3728857,-3.42871,-3.095171,0.3520576,1.451221,0.2778234,-1.068435,0.03051721,16.8,10.1,0.04917173,0.1600927,0.03470942,-0.1922674,-2.245791,-1.534002,0.5326331,1.514418,0.2035506,-0.05295537,-0.04739589,0.13118,-0.9028297,0.5737757,0.2541758,0.7240376,1.543258,0.127501,0.1063859,1.2753,0.1039677,342.0829,160.9167,56.23102,True
1,1.622225,0.1600332,0.03549814,-0.05411736,-0.3720692,-3.429159,-3.096565,0.3520867,1.451341,0.2774503,-1.06834,0.008374831,16.8,10.1,0.06201109,0.1451452,0.04200206,-0.193338,-2.241904,-1.53895,0.5325626,1.514475,0.2028823,-0.0458288,-0.06330767,0.1022846,-0.9031717,0.5722387,0.2553769,0.7238732,1.543269,0.1269047,0.105891,1.275515,0.1041994,342.1456,161.026,56.27386,True
1,1.633336,0.1547511,0.02162675,-0.05507631,-0.3714316,-3.42879,-3.0985,0.3521162,1.451646,0.2770689,-1.068026,0.0285956,16.8,10.1,0.07803977,0.09610336,0.0501985,-0.1926073,-2.237888,-1.544303,0.5325127,1.514448,0.2024238,-0.03964889,-0.0749743,0.08300012,-0.9032782,0.5708331,0.2563524,0.7237537,1.543221,0.1261306,0.1054089,1.275754,0.1044308,342.2019,161.1373,56.3111,True
1,1.644447,0.1548096,0.0002909005,-0.05918266,-0.3706129,-3.426939,-3.101908,0.3522611,1.451829,0.2767432,-1.068187,-0.01501046,14.6,7.4,0.08229776,0.05881172,0.05215845,-0.1919537,-2.234117,-1.549006,0.5325927,1.514561,0.2018709,-0.02793551,-0.08777471,0.08390469,-0.9027115,0.5687721,0.2575626,0.7237126,1.543207,0.12537,0.1049585,1.276001,0.1046371,342.2567,161.2606,56.35973,True
1,1.655559,0.1516564,-0.01465363,-0.0622652,-0.3697948,-3.425315,-3.105024,0.3523445,1.452023,0.2763169,-1.067976,0.01957223,14.6,7.4,0.08875528,0.07155941,0.05855342,-0.1931889,-2.228812,-1.555502,0.5327843,1.514462,0.2011847,-0.01501296,-0.09742782,0.0975872,-0.9015642,0.5663164,0.2588049,0.7235707,1.54327,0.1246343,0.1045643,1.276248,0.1048311,342.3089,161.3631,56.40226,True
1,1.66667,0.1463978,-0.03814178,-0.06635086,-0.3688478,-3.421763,-3.109828,0.3526093,1.452252,0.2759874,-1.068037,-0.005819667,14.6,7.4,0.09071285,0.06950579,0.03828971,-0.1939639,-2.229949,-1.555424,0.5329884,1.51446,0.2006741,0.0001496933,-0.1134918,0.1218855,-0.8998731,0.5633716,0.2600926,0.7236292,1.543294,0.1239133,0.1042611,1.276495,0.1050281,342.3651,161.4571,56.43478,True
1,1.677781,0.1411428,-0.06594454,-0.07785963,-0.367562,-3.417065,-3.115618,0.3529033,1.45238,0.2757123,-1.067964,0.006706562,14.6,7.4,0.08529346,0.06208924,0.02765065,-0.1943346,-2.230519,-1.555626,0.5331194,1.514408,0.200105,0.0001320988,-0.1273472,0.1218397,-0.8992499,0.560562,0.2618715,0.7236017,1.543209,0.1231327,0.1040627,1.2767,0.1052347,342.4333,161.521,56.49015,True
1,1.688892,0.1241572,-0.09167717,-0.09362932,-0.3659497,-3.412057,-3.121122,0.3532237,1.452636,0.2755041,-1.067851,0.01030203,12.9,5.3,0.06192033,0.07059374,0.03534034,-0.195426,-2.226653,-1.559212,0.5334002,1.514349,0.1995783,0.003324606,-0.1316117,0.1217964,-0.8983338,0.5581151,0.2632641,0.7236742,1.543189,0.1224823,0.1039349,1.276834,0.1054195,342.5146,161.579,56.52959,True
1,1.700003,0.1156662,-0.105607,-0.1009776,-0.3645111,-3.407524,-3.126344,0.3535107,1.452785,0.2753103,-1.067772,0.007185015,12.9,5.3,0.06869237,0.1332766,0.07706995,-0.1988375,-2.215005,-1.571633,0.5336642,1.514278,0.1991973,0.01714928,-0.1230908,0.1184566,-0.8976706,0.5565981,0.2634993,0.723732,1.543092,0.1217639,0.1039554,1.276892,0.1056511,342.6224,161.6115,56.57006,True
1,1.711114,0.1156662,-0.105607,-0.1009776,-0.3645111,-3.407524,-3.126344,0.3535107,1.452785,0.2753103,-1.06723,0.04951821,12.9,5.3,0.06869237,0.1332766,0.07706995,-0.1988375,-2.215005,-1.571633,0.5336642,1.514278,0.1991973,0.01714928,-0.1230908,0.1184566,-0.8976706,0.5565981,0.2634993,0.723732,1.543092,0.1217639,0.1053671,1.284173,0.10276,339.828,159.4006,59.54484,True
1,1.722225,0.09006963,-0.09179738,-0.09572105,-0.362396,-3.402755,-3.132134,0.3543615,1.453488,0.2753818,-1.066443,0.07157004,12.9,5.3,0.1029886,0.1555378,0.09924237,-0.2028157,-2.200715,-1.588996,0.534382,1.514366,0.1985688,0.055276,-0.1103006,0.09570399,-0.8966038,0.5535659,0.2630255,0.7241724,1.542979,0.120676,0.1054012,1.288712,0.1008359,340.4627,158.1682,61.23335,True
1,1.733337,0.08793253,-0.08643956,-0.09149076,-0.3616062,-3.400882,-3.134866,0.3547376,1.45376,0.2753229,-1.068064,-0.1487082,12.9,5.3,0.1232133,0.1416767,0.09794727,-0.2037238,-2.196473,-1.595145,0.5346997,1.514426,0.1985281,0.05733353,-0.1166772,0.08927669,-0.8962059,0.5513987,0.2636388,0.7243537,1.542936,0.1200593,0.1052431,1.290342,0.1000738,340.6092,157.9564,61.6913,True
1,1.744448,0.08042994,-0.06505873,-0.0777918,-0.3611896,-3.401025,-3.135395,0.3553062,1.454025,0.2754781,-1.067464,0.05632554,11.1,3.8,0.1411696,0.1182986,0.08066137,-0.2041686,-2.195366,-1.598463,0.5352225,1.51453,0.1984088,0.06774408,-0.1422099,0.06992255,-0.8967844,0.5481614,0.2645643,0.7245672,1.542894,0.1194139,0.1052393,1.289561,0.1006334,340.9702,158.3409,61.16693,True
1,1.755559,0.0717994,-0.02880583,-0.07057931,-0.3607465,-3.403974,-3.133018,0.3559061,1.454263,0.2758086,-1.067667,-0.01914418,11.1,3.8,0.1803929,0.06616583,0.05989476,-0.2030117,-2.195466,-1.601808,0.5358235,1.51474,0.1984625,0.07087982,-0.1730902,0.06767623,-0.8968568,0.5444046,0.2660021,0.7249357,1.542732,0.1186039,0.1051206,1.287296,0.1017832,341.6704,158.66,60.59637,True
1,1.76667,0.05996693,0.008442596,-0.07083515,-0.3599614,-3.408038,-3.12946,0.3566154,1.454455,0.2760544,-1.067434,0.02149691,11.1,3.8,0.213242,0.01402339,0.04130799,-0.2011741,-2.196525,-1.604392,0.5365385,1.514852,0.1984982,0.07834051,-0.1976096,0.07072642,-0.8968307,0.540336,0.2674085,0.7253313,1.542692,0.1179619,0.1050278,1.286026,0.1024024,341.7328,158.7145,60.56996,True
1,1.777781,0.0566854,0.02975328,-0.0699171,-0.3592604,-3.411337,-3.126594,0.3572626,1.454622,0.2765703,-1.067196,0.02163281,11.1,3.8,0.2281843,0.002292931,0.04539326,-0.2010676,-2.193094,-1.610697,0.5370497,1.515046,0.1985641,0.08693096,-0.2072293,0.07807048,-0.896322,0.5367373,0.2684099,0.7256583,1.542622,0.1174192,0.1052878,1.285916,0.1028295,341.6787,158.7231,60.60731,True
1,1.788892,0.04700399,0.06170519,-0.06694123,-0.3586756,-3.416847,-3.121579,0.3580383,1.454779,0.2769179,-1.06713,0.00596863,11.1,3.8,0.2194187,-0.02304348,0.01547065,-0.200242,-2.19479,-1.611302,0.5377918,1.515103,0.1985788,0.09970941,-0.2200312,0.07896367,-0.8962059,0.5327957,0.2692688,0.7260925,1.542509,0.1168265,0.1058311,1.286326,0.1033337,341.6848,158.7748,60.56095,True
1,1.800003,0.04376009,0.0776806,-0.06598473,-0.3580503,-3.42095,-3.118093,0.3586373,1.455096,0.2772079,-1.067204,-0.00675668,10.6,3.4,0.219319,-0.02844164,0.003811614,-0.1993307,-2.198626,-1.610029,0.5384928,1.514886,0.1982567,0.09958208,-0.2349209,0.06934743,-0.8965782,0.5287011,0.2708429,0.7264025,1.542507,0.1163442,0.1063639,1.286874,0.1040871,341.8352,158.9537,60.5009,True
1,1.811115,0.0426428,0.09366494,-0.06503442,-0.3574356,-3.42572,-3.114,0.3595093,1.455375,0.2772927,-1.067237,-0.002927382,10.6,3.4,0.2118159,-0.007107779,-0.002435237,-0.2000833,-2.199838,-1.610896,0.5391526,1.51492,0.1982315,0.1003515,-0.2508335,0.0437281,-0.8980227,0.5246882,0.2721809,0.7268949,1.542392,0.1158228,0.1070724,1.287583,0.1046261,341.6962,159.0228,60.44118,True
1,1.822226,0.04577819,0.1064368,-0.06832445,-0.3565999,-3.430605,-3.109832,0.3602862,1.455527,0.2775419,-1.067537,-0.02726937,10.6,3.4,0.2129612,0.01096551,0.005079534,-0.200838,-2.1983,-1.614956,0.5398253,1.514936,0.1982274,0.1023232,-0.2507854,0.02879075,-0.89895,0.5215673,0.2728808,0.7274488,1.542119,0.1152437,0.1076588,1.288195,0.1052134,341.7153,159.1644,60.37339,True
1,1.833337,0.0542667,0.1149952,-0.06838992,-0.3560316,-3.43568,-3.105889,0.3611494,1.455651,0.2778466,-1.067653,-0.01037619,10.6,3.4,0.2172313,-0.01035108,0.007079655,-0.1999917,-2.197878,-1.617981,0.5406179,1.515113,0.198478,0.1087065,-0.2486598,0.02766276,-0.899374,0.5182254,0.2734776,0.7279252,1.542013,0.1147106,0.1082711,1.287722,0.1062611,341.836,159.9716,59.42155,True
1,1.844448,0.05748206,0.1086134,-0.06834753,-0.3553328,-3.438573,-3.10393,0.3619404,1.455836,0.2780893,-1.067741,-0.007939324,10.2,3.4,0.2161028,-0.05613762,0.001586491,-0.1976859,-2.198342,-1.619881,0.5414519,1.515195,0.1985226,0.1087285,-0.2571914,0.03083453,-0.899782,0.5140916,0.2748947,0.7285413,1.541929,0.1143758,0.1086646,1.286561,0.1074898,342.0392,160.6118,58.73235,True
1,1.855559,0.05966593,0.09264114,-0.06716942,-0.3546393,-3.439648,-3.103686,0.3628094,1.456113,0.2780628,-1.068175,-0.03960174,10.2,3.4,0.2225905,-0.07642777,0.01423687,-0.1962675,-2.194848,-1.625982,0.5423418,1.515368,0.1986728,0.1076926,-0.2667741,0.03508462,-0.9000803,0.5100302,0.2763328,0.7291041,1.541803,0.1138053,0.1092699,1.286062,0.1079208,341.9331,160.6642,58.5259,True
1,1.86667,0.05654883,0.06815369,-0.06379082,-0.3540161,-3.439372,-3.10446,0.3636246,1.456415,0.278259,-1.068157,0.001998748,10.2,3.4,0.2450716,-0.09140341,0.02783945,-0.194725,-2.190097,-1.634189,0.5432616,1.515464,0.1988063,0.105563,-0.2752966,0.03615031,-0.9005479,0.5057212,0.2778971,0.7296486,1.541656,0.113287,0.1100605,1.286157,0.1078861,341.9741,160.4999,58.50056,True
1,1.877781,0.05236606,0.0457992,-0.05935568,-0.3535687,-3.438666,-3.105616,0.3644488,1.456629,0.2784867,-1.06814,0.001499157,10.2,3.4,0.2630745,-0.1073442,0.0148499,-0.1929572,-2.190614,-1.637342,0.5442147,1.515377,0.1989024,0.1044592,-0.2699456,0.03191344,-0.9011397,0.5024512,0.2787725,0.7301663,1.541489,0.1127532,0.1108906,1.286422,0.1078856,342.0353,160.3695,58.47265,True
1,1.888893,0.0481611,0.02551517,-0.06346361,-0.352692,-3.437459,-3.107138,0.3652174,1.456913,0.2786245,-1.067881,0.02357922,10.2,3.4,0.2639263,-0.1242951,-0.009725239,-0.1908538,-2.195462,-1.635578,0.5450693,1.515406,0.1990225,0.1011139,-0.2699049,0.01809989,-0.9022912,0.4988585,0.2799888,0.7306919,1.541342,0.1122935,0.1117727,1.286687,0.1080648,342.0423,160.3905,58.32418,True
1,1.900004,0.04828355,-0.0182201,-0.0695454,-0.3514792,-3.431867,-3.112905,0.3659678,1.457227,0.2786334,-1.067838,0.003810376,9.8,3.4,0.2606164,-0.1551383,-0.02153433,-0.1880282,-2.198204,-1.635571,0.5458771,1.51554,0.1991253,0.09998266,-0.2666805,0.01173209,-0.9030646,0.4955918,0.2809417,0.7311473,1.54127,0.1118236,0.1126431,1.286991,0.1083142,342.0582,160.3774,58.27841,True
1,1.911115,0.05484492,-0.07900473,-0.07975803,-0.3502499,-3.423063,-3.121981,0.3666842,1.457576,0.2787266,-1.067753,0.007776237,9.8,3.4,0.2405832,-0.150962,0.003154047,-0.1865938,-2.192331,-1.643196,0.5465855,1.515597,0.1991208,0.1010261,-0.261348,0.008541875,-0.9037911,0.4922568,0.2817638,0.7316594,1.541123,0.1114359,0.1134839,1.287331,0.108595,341.9993,160.3135,58.30721,True
1,1.922226,0.05813996,-0.1174455,-0.09333111,-0.3486557,-3.4151,-3.130225,0.3674038,1.457877,0.2787619,-1.067897,-0.01320958,9.8,3.4,0.2058116,-0.09252489,0.04735725,-0.187934,-2.180515,-1.655682,0.5473487,1.515699,0.199028,0.09889926,-0.2517633,0.008590844,-0.9043898,0.4891513,0.2827822,0.7322057,1.541186,0.111052,0.1141405,1.28749,0.1090807,342.1594,160.3762,58.27747,True
1,1.933337,0.05291827,-0.1634688,-0.1206867,-0.3462445,-3.40474,-3.140345,0.3681168,1.458219,0.2787888,-1.06821,-0.02855075,9.8,3.4,0.1593202,0.0096104,0.0875631,-0.1918536,-2.169734,-1.666509,0.548005,1.515704,0.1987844,0.09680052,-0.2304695,0.009737037,-0.9047695,0.4867298,0.2833603,0.7326635,1.54107,0.1107039,0.11465,1.287468,0.109748,342.4041,160.4844,58.26023,True
1,1.944448,0.05619663,-0.19227,-0.1268698,-0.344718,-3.395514,3.133391,0.3687065,1.458592,0.2789619,-1.068183,0.002677905,9.8,3.4,0.12665,0.08191532,0.1264683,-0.1956038,-2.157376,-1.678833,0.5486121,1.515783,0.1985412,0.08612957,-0.2176645,0.006690226,-0.905323,0.4844318,0.2841851,0.7331415,1.540937,0.1103578,0.1151413,1.287391,0.1104913,342.614,160.5512,58.27089,True
1,1.955559,0.06475823,-0.2018118,-0.1246849,-0.3434466,-3.388337,3.125484,0.369363,1.459036,0.2792258,-1.067783,0.03653678,8.3,3.4,0.117271,0.1127277,0.1501046,-0.1980114,-2.146214,-1.690833,0.549256,1.515802,0.1984742,0.08501509,-0.2144536,0.001387233,-0.9060979,0.4816805,0.2849207,0.7336013,1.540838,0.1099772,0.1156296,1.287346,0.1112161,342.8155,160.5846,58.29355,True
1,1.966671,0.07432541,-0.1878099,-0.107754,-0.3428825,-3.383565,3.119826,0.3699324,1.459442,0.2793808,-1.068131,-0.03207632,8.3,3.4,0.1249284,0.1414018,0.1725223,-0.2010122,-2.134053,-1.704412,0.5499304,1.515889,0.1984248,0.076446,-0.2112358,-0.002770925,-0.9069192,0.4789626,0.2861401,0.7339536,1.540747,0.1097434,0.1161201,1.287391,0.1119145,343.0075,160.6009,58.30102,True
1,1.977782,0.07537755,-0.1770569,-0.09505326,-0.3422721,-3.37906,3.11468,0.3705308,1.459679,0.2796326,-1.068538,-0.03692216,8.3,3.4,0.1451041,0.1339706,0.1648629,-0.2023251,-2.128015,-1.712774,0.5506188,1.516028,0.1984944,0.07107866,-0.201637,-0.006939624,-0.907568,0.4765607,0.2870861,0.7343969,1.540573,0.1093168,0.1166266,1.287514,0.1126064,343.1904,160.5819,58.2946,True
1,1.988893,0.08277014,-0.1513902,-0.08459658,-0.3417938,-3.376905,3.111444,0.3711467,1.459954,0.2797892,-1.068541,-7.320221E-05,8.3,3.4,0.180962,0.04461965,0.1258649,-0.1994079,-2.126453,-1.717739,0.5513103,1.51618,0.1986523,0.06904458,-0.1888708,0.0005738214,-0.9077289,0.4744979,0.2876808,0.7347997,1.540497,0.108932,0.1171648,1.287694,0.1133041,343.3257,160.5785,58.26298,True
1,2.000004,0.09015941,-0.1311329,-0.08582588,-0.3406753,-3.374619,3.108091,0.3717977,1.460301,0.2799587,-1.068217,0.02951263,7.5,3.4,0.2048579,-0.08509868,0.06017554,-0.1934094,-2.13197,-1.715433,0.5519351,1.516337,0.1987681,0.05525572,-0.1952561,0.007096205,-0.9081438,0.471541,0.2893615,0.7350978,1.540406,0.1084907,0.117679,1.287821,0.1139319,343.3167,160.6193,58.19067,True
1,2.011115,0.09649076,-0.1162778,-0.09659584,-0.3392494,-3.372116,3.10447,0.3723238,1.460622,0.2801604,-1.068439,-0.02053513,7.5,3.4,0.1950252,-0.1318636,0.03344122,-0.1903287,-2.132779,-1.716335,0.5524786,1.516421,0.1987655,0.03834479,-0.1952679,0.01900098,-0.9081241,0.4686585,0.2912588,0.7354679,1.540345,0.1081293,0.1181634,1.287827,0.114557,343.3866,160.6816,58.14561,True
1,2.022226,0.09429379,-0.09721208,-0.1095213,-0.3375162,-3.370236,3.101595,0.3730615,1.460958,0.2802691,-1.068415,0.002349579,7.5,3.4,0.183543,-0.06376445,0.05830035,-0.1925402,-2.126214,-1.724382,0.5529913,1.516355,0.1986101,0.04283674,-0.1867955,0.03921289,-0.907526,0.4663026,0.2920172,0.7360265,1.540205,0.1076641,0.118616,1.287806,0.1151799,343.4847,160.7539,58.08461,True
