loc,t,aDotUA,bDotUA,gDotUA,aUA,bUA,gUA,xUA,yUA,zUA,qE,qDotE,emgA,emgB,aDotSH,bDotSH,gDotSH,aSH,bSH,gSH,xSH,ySH,zSH,aDotUB,bDotUB,gDotUB,aUB,bUB,gUB,xUB,yUB,zUB,xHand,yHand,zHand,aHand,bHand,gHand,enable
3,0,0.03115233,0.1661451,0.2647163,-1.333922,-4.015808,3.137098,0.6129229,1.207424,0.4933443,-1.486523,0.03315511,44.6,13.3,-0.06363831,0.1632039,-0.334814,-0.794602,-4.173113,-0.1877811,0.6565192,1.412381,0.4026041,0.1165965,0.3199775,0.1254857,-0.8395078,0.4013662,-0.1333756,0.7798271,1.529583,0.2443871,0.4253363,1.070803,0.2730614,296.365,213.7265,11.05759,True
3,0.01111111,0.03115233,0.1661451,0.2647163,-1.333922,-4.015808,3.137098,0.6129229,1.207424,0.4933443,-1.485601,0.08392594,44.6,13.3,-0.06363831,0.1632039,-0.334814,-0.794602,-4.173113,-0.1877811,0.6565192,1.412381,0.4026041,0.1165965,0.3199775,0.1254857,-0.8395078,0.4013662,-0.1333756,0.7798271,1.529583,0.2443871,0.4267385,1.067722,0.2714584,297.25,216.4474,6.92746,True
3,0.02222222,-0.01582538,0.1891714,0.231578,-1.33804,-4.02066,3.139935,0.6130153,1.206199,0.4934471,-1.485608,-0.001392233,44.6,13.3,-0.09178081,0.1606903,-0.2759441,-0.7994937,-4.169231,-0.1875907,0.6556186,1.411417,0.4033954,0.09701768,0.2871273,0.08933946,-0.8392404,0.4089573,-0.139825,0.779007,1.52952,0.2461307,0.4295176,1.063389,0.2691752,298.6742,217.149,4.585426,True
3,0.03333334,-0.03505353,0.1974541,0.2091676,-1.339592,-4.022965,3.141512,0.6129065,1.20561,0.49353,-1.48471,0.08219112,44.6,13.3,-0.09142092,0.1221824,-0.2484678,-0.8010746,-4.169906,-0.1861012,0.6552097,1.411047,0.4038384,0.08921984,0.2776698,0.05635642,-0.8403328,0.4124451,-0.1428128,0.778726,1.529443,0.2469721,0.4307484,1.061041,0.2676345,299.4614,211.9169,9.49243,True
3,0.04444445,-0.04679619,0.2005198,0.1963747,-1.341304,-4.025375,-3.140149,0.6128232,1.204966,0.4936569,-1.484657,0.004875801,44.6,13.3,-0.08159655,0.06460591,-0.2361092,-0.8029212,-4.172631,-0.1836694,0.654905,1.410518,0.4043117,0.08772624,0.2725094,0.01478909,-0.8422737,0.4161261,-0.1461418,0.7782553,1.529224,0.2477813,0.4308912,1.060425,0.267269,299.8076,210.7837,10.4777,True
3,0.05555556,-0.06173867,0.2056575,0.1782353,-1.342507,-4.027781,-3.138522,0.6125417,1.204258,0.493773,-1.485948,-0.1169401,45.6,15.6,-0.06975365,0.02093697,-0.2332852,-0.8052132,-4.175186,-0.1816497,0.6544973,1.409971,0.4048419,0.08531956,0.2630213,-0.01184899,-0.8436367,0.4193011,-0.1491325,0.7778342,1.528897,0.2486174,0.4304787,1.060267,0.2675117,299.7719,212.4204,8.995968,True
3,0.06666667,-0.0777016,0.1915807,0.1538529,-1.343307,-4.029423,-3.136668,0.6121315,1.203519,0.4940038,-1.48754,-0.1432702,45.6,15.6,-0.06310845,-0.002602302,-0.2132464,-0.8066267,-4.17688,-0.1800174,0.6540551,1.409262,0.4052668,0.08826932,0.2503245,-0.03536494,-0.8452911,0.4220648,-0.152058,0.7774292,1.528522,0.249418,0.4298651,1.060189,0.2679872,299.6972,214.347,7.117153,True
3,0.07777778,-0.07768118,0.1786448,0.1337015,-1.343996,-4.030833,-3.135588,0.611706,1.202876,0.4941652,-1.489275,-0.1559332,45.6,15.6,-0.05976485,-0.001615509,-0.1994287,-0.8083503,-4.177146,-0.1793303,0.6535637,1.408502,0.405632,0.08812403,0.2514463,-0.04920742,-0.846718,0.4256794,-0.1553526,0.7770635,1.528266,0.2503204,0.4292697,1.060122,0.2683291,299.6534,215.7084,5.721747,True
3,0.08888889,-0.08504897,0.1400631,0.1052258,-1.344019,-4.030828,-3.134337,0.6109486,1.20194,0.494354,-1.491139,-0.1672474,45.6,15.6,-0.06182613,0.02494184,-0.187542,-0.8102444,-4.17592,-0.1793873,0.652945,1.407403,0.4058454,0.09177108,0.2821765,-0.00651367,-0.845919,0.431648,-0.1604573,0.7767182,1.527925,0.2510958,0.428794,1.060057,0.2684688,299.7083,216.3932,4.912859,True
3,0.1,-0.090278,0.09505982,0.07252371,-1.343518,-4.030121,-3.133213,0.6101384,1.200953,0.494385,-1.494484,-0.3023241,45.6,15.6,-0.07473823,0.07287408,-0.1903249,-0.8128213,-4.172883,-0.1801293,0.6524389,1.40648,0.4060006,0.0974828,0.2905622,0.03073722,-0.8448191,0.4368533,-0.1652225,0.776607,1.527697,0.2518492,0.4284017,1.060016,0.2684362,299.8176,216.6757,4.486723,True
3,0.1111111,-0.09539858,0.02242168,0.04961746,-1.343238,-4.027465,-3.132663,0.6092062,1.199987,0.4943855,-1.497064,-0.2310461,43.7,17.3,-0.1173899,0.1802852,-0.1732986,-0.8152639,-4.165009,-0.1826092,0.6517284,1.405409,0.4061339,0.1041943,0.2840461,0.06260537,-0.8433576,0.4411415,-0.1695083,0.7764477,1.527432,0.2525537,0.4280296,1.059978,0.2681277,299.7969,216.977,3.984251,True
3,0.1222222,-0.09834713,-0.06405237,0.02574494,-1.342594,-4.023417,-3.132356,0.60804,1.199104,0.4942827,-1.500255,-0.2874511,43.7,17.3,-0.1747794,0.2865163,-0.1401335,-0.8168165,-4.155434,-0.1851342,0.6511419,1.404458,0.4062214,0.1062841,0.2659546,0.06037462,-0.8433986,0.4442656,-0.1727473,0.7763718,1.527261,0.2532887,0.4276461,1.0599,0.2674072,299.648,217.2304,3.41461,True
3,0.1333333,-0.1023594,-0.1538072,-0.00875341,-1.341319,-4.018506,-3.132221,0.6069232,1.198528,0.4940183,-1.50392,-0.3301229,43.7,17.3,-0.2106616,0.3160529,-0.101252,-0.8173934,-4.149391,-0.1855984,0.650569,1.40372,0.4065344,0.1074183,0.255273,0.06778051,-0.8427957,0.4476192,-0.1762259,0.7762108,1.527009,0.2539907,0.4273154,1.059811,0.2663227,299.4786,217.2274,3.043817,True
3,0.1444445,-0.09784982,-0.243515,-0.04113378,-1.339692,-4.01244,-3.132682,0.6056738,1.198009,0.4935534,-1.507605,-0.3314415,43.7,17.3,-0.2356233,0.2496924,-0.0555568,-0.8161353,-4.14871,-0.1826108,0.6502955,1.403232,0.4066308,0.08609468,0.2393144,0.07004681,-0.8424867,0.4507187,-0.1781317,0.7759915,1.526484,0.254668,0.4270944,1.059744,0.2649075,299.274,216.9881,2.895059,True
3,0.1555556,-0.09025214,-0.2958665,-0.06527381,-1.338072,-4.00738,-3.133148,0.6045804,1.19767,0.4932723,-1.511489,-0.349534,39.4,17.2,-0.240835,0.1879101,-0.05692799,-0.8169854,-4.149288,-0.1795881,0.6498209,1.402684,0.4069085,0.07325076,0.2308182,0.0637397,-0.8425517,0.4537418,-0.1805442,0.7758546,1.526158,0.2552826,0.4269504,1.059727,0.2630918,299.0147,216.5569,2.899587,True
3,0.1666667,-0.09863314,-0.3504301,-0.09363364,-1.335897,-4.001248,-3.133214,0.6033686,1.19735,0.4928098,-1.515881,-0.3956971,39.4,17.2,-0.2225975,0.1144474,-0.05860082,-0.8173859,-4.15158,-0.1762429,0.6495309,1.402243,0.4072404,0.05508481,0.2255245,0.05964381,-0.8424245,0.4569771,-0.1825008,0.7755176,1.525945,0.2559509,0.4270886,1.059884,0.2609628,298.8647,216.1117,2.798653,True
3,0.1777778,-0.1220609,-0.3569877,-0.1063386,-1.33439,-3.997241,-3.131921,0.6022176,1.196952,0.4925094,-1.520317,-0.3994064,39.4,17.2,-0.2001168,0.09528665,-0.05255806,-0.8179809,-4.150842,-0.1755787,0.6490424,1.401743,0.4074726,0.04972331,0.2393919,0.05548794,-0.8425677,0.4612474,-0.1856687,0.7754686,1.525738,0.2566266,0.4275047,1.060275,0.2587145,298.7734,215.3339,2.954736,True
3,0.1888889,-0.1060208,-0.3793764,-0.1157829,-1.332705,-3.992039,-3.132674,0.6011457,1.196667,0.4922113,-1.523964,-0.3271582,39.4,17.2,-0.1758506,0.09759268,-0.07516739,-0.8198589,-4.149727,-0.1754083,0.6486865,1.401373,0.4076202,0.02911842,0.2565791,0.01953164,-0.8444021,0.4655907,-0.1880626,0.7756894,1.525848,0.2571907,0.4281027,1.060933,0.2565337,298.6341,214.4574,3.158065,True
3,0.2,-0.1104201,-0.3292155,-0.1012295,-1.332117,-3.990167,-3.131914,0.6003729,1.196544,0.4922173,-1.527456,-0.313488,39.4,17.2,-0.1961879,0.1710481,-0.07134391,-0.8215075,-4.143435,-0.1768177,0.6483172,1.401212,0.4076002,0.01722965,0.24173,0.003617667,-0.8453406,0.4682322,-0.1895515,0.7758226,1.525789,0.2577205,0.4286442,1.061817,0.2544154,298.4315,213.5435,3.40862,True
3,0.2111111,-0.1286693,-0.2823325,-0.09090108,-1.331377,-3.988574,-3.130185,0.5994298,1.196235,0.4921362,-1.533666,-0.5619206,34,17,-0.2118396,0.2219253,-0.03040592,-0.821044,-4.137352,-0.1781247,0.6478877,1.400965,0.4076285,0.008636124,0.2108547,-0.001729157,-0.8457363,0.4694851,-0.190159,0.7759959,1.525852,0.2581429,0.428947,1.062947,0.2524459,298.1769,212.7536,3.606054,True
3,0.2222222,-0.1704891,-0.1907295,-0.07446851,-1.331168,-3.989898,-3.126464,0.5989406,1.19632,0.492224,-1.537701,-0.3609931,34,17,-0.228429,0.2886825,0.02661072,-0.8196629,-4.129055,-0.1806385,0.6476005,1.401087,0.4076498,-0.02007302,0.1703618,0.005871054,-0.8454199,0.4700661,-0.1893004,0.7761473,1.525922,0.2585328,0.4291195,1.064302,0.2508176,297.8496,212.0108,3.870898,True
3,0.2333333,-0.2741795,-0.07702965,-0.06877819,-1.330655,-3.993281,-3.118981,0.5987797,1.196663,0.4924278,-1.541225,-0.316269,34,17,-0.2247715,0.308656,0.07462069,-0.8180426,-4.123189,-0.1824311,0.6474535,1.40128,0.4076872,-0.05107158,0.1725426,-0.004448805,-0.845976,0.4724442,-0.1892266,0.7763233,1.525959,0.2590067,0.4290475,1.065851,0.2496358,297.4951,211.4693,4.037841,True
3,0.2444444,-0.3469611,0.02925804,-0.07052693,-1.329908,-3.997511,-3.111489,0.5986438,1.197222,0.4926429,-1.544379,-0.2826695,34,17,-0.2039097,0.2742964,0.1285444,-0.8150908,-4.119838,-0.1832218,0.6474513,1.401727,0.4078574,-0.06618778,0.1960659,-0.0255154,-0.8475121,0.4760153,-0.1903353,0.7766492,1.526114,0.2594402,0.4285395,1.067551,0.2488165,297.1542,211.0843,4.210511,True
3,0.2555556,-0.3183301,0.07083475,-0.07937685,-1.328784,-3.999606,-3.108669,0.5980232,1.197733,0.4929156,-1.545676,-0.1130349,30,17,-0.1768468,0.2134656,0.1577475,-0.8125517,-4.118955,-0.1829949,0.6474771,1.402134,0.4081118,-0.08566445,0.1983075,-0.0519433,-0.8494493,0.4789388,-0.1903678,0.7770902,1.525995,0.2598817,0.4276276,1.069563,0.2484463,296.916,210.9272,4.335251,True
3,0.2666667,-0.3377988,0.1612905,-0.08426793,-1.327813,-4.004929,-3.103045,0.5979759,1.198694,0.4933965,-1.550398,-0.4274283,30,17,-0.132445,0.07480146,0.202311,-0.8078625,-4.12387,-0.1798744,0.6477536,1.403092,0.4085867,-0.1202428,0.147361,-0.09759361,-0.8521226,0.4778996,-0.1870346,0.7775537,1.52621,0.2600207,0.4262475,1.072152,0.2484381,296.7802,210.9114,4.523494,True
3,0.2777778,-0.3881994,0.2665554,-0.09029081,-1.326938,-4.011511,-3.095731,0.5975577,1.199811,0.4940195,-1.559384,-0.8145903,30,17,-0.08886711,-0.09744403,0.1593239,-0.8066342,-4.133444,-0.1739747,0.6481016,1.404035,0.4090791,-0.1366262,0.1070239,-0.1338091,-0.8548534,0.4767817,-0.1839576,0.7780789,1.526356,0.2601578,0.4244307,1.075513,0.248669,296.5171,210.7627,5.01731,True
3,0.2888889,-0.4256979,0.3302843,-0.1002957,-1.325731,-4.017838,-3.088021,0.5973573,1.200917,0.4946523,-1.562332,-0.2597118,30,17,-0.05608892,-0.2079207,0.1146762,-0.8059114,-4.14242,-0.1683864,0.6484581,1.404896,0.4094405,-0.1421711,0.1007139,-0.1550837,-0.8575075,0.4773294,-0.182504,0.7785608,1.526526,0.2603626,0.422477,1.079504,0.2491835,295.8943,210.3192,5.854245,True
3,0.3,-0.3726488,0.3877042,-0.1380525,-1.323229,-4.024165,-3.083927,0.5965869,1.202616,0.4954224,-1.565135,-0.2515347,30,17,-0.03359152,-0.3047681,0.1085594,-0.8041969,-4.151148,-0.1628022,0.6487936,1.406016,0.4096024,-0.1648709,0.1114956,-0.1878355,-0.8608157,0.4788108,-0.1809421,0.7792739,1.526871,0.2603943,0.4204634,1.083983,0.2500068,295.1627,209.9392,6.590303,True
3,0.3111111,-0.3971939,0.3851319,-0.1880683,-1.319792,-4.028043,-3.078032,0.5961288,1.203914,0.4967771,-1.568913,-0.3403592,26.6,16.9,-0.05562186,-0.2826355,0.1451331,-0.800927,-4.152941,-0.1601718,0.6489699,1.407146,0.4097972,-0.1853869,0.1041702,-0.2142899,-0.8642213,0.4798215,-0.1788299,0.7799249,1.527307,0.2605438,0.4181843,1.08885,0.2509828,294.4069,209.5654,7.321094,True
3,0.3222222,-0.5806699,0.4579628,-0.2022357,-1.31748,-4.036369,-3.062462,0.5953531,1.205927,0.4975336,-1.576311,-0.6712283,26.6,16.9,-0.1046466,-0.2088141,0.2611143,-0.7939123,-4.150807,-0.1586477,0.6491737,1.408633,0.4098523,-0.1913789,0.04581405,-0.2773012,-0.8692041,0.4766761,-0.1743771,0.7808633,1.527592,0.2603641,0.415712,1.094012,0.2520683,293.6652,209.057,8.235753,True
3,0.3333333,-0.6924881,0.4122546,-0.2870007,-1.311638,-4.040061,-3.049448,0.5943856,1.208106,0.4984655,-1.577494,-0.1007382,26.6,16.9,-0.1721412,-0.10396,0.3476309,-0.7875153,-4.145573,-0.1580216,0.649547,1.410195,0.4097922,-0.1927566,0.01289393,-0.3061759,-0.8733464,0.4744472,-0.1707419,0.7817241,1.527872,0.2602453,0.4132319,1.099227,0.2534296,292.8394,208.0288,9.611583,True
3,0.3444445,-0.7573385,0.3368309,-0.3769379,-1.304451,-4.041941,-3.038102,0.5928392,1.21059,0.4992118,-1.571638,0.5374837,26.6,16.9,-0.2234736,-0.06409846,0.4400048,-0.7796053,-4.14267,-0.1557033,0.6501694,1.4119,0.4097676,-0.1867862,-0.05195041,-0.3448283,-0.878008,0.4696164,-0.1657653,0.7828293,1.528147,0.2598987,0.4108601,1.104205,0.2550863,292.0681,206.9308,11.02038,True
3,0.3555556,-0.7870523,0.2723657,-0.4361123,-1.297558,-4.043075,-3.028242,0.5915952,1.212681,0.5004153,-1.575243,-0.3320999,23.5,17.4,-0.2256474,-0.09555404,0.5346658,-0.7701894,-4.144283,-0.1520138,0.6509956,1.413444,0.4098611,-0.1828077,-0.1040637,-0.3695512,-0.8822435,0.4650797,-0.1609463,0.7837595,1.528338,0.259619,0.4079168,1.109239,0.256415,291.759,206.4421,11.90143,True
3,0.3666667,-0.849627,0.1413475,-0.5544169,-1.28668,-4.040878,-3.016925,0.5894674,1.215702,0.5010631,-1.57961,-0.3942781,23.5,17.4,-0.1914642,-0.2110706,0.6263433,-0.7587277,-4.151503,-0.1459822,0.652151,1.415252,0.4098287,-0.1723814,-0.1679158,-0.3890671,-0.886609,0.4585138,-0.1552098,0.78496,1.528537,0.2591143,0.4047926,1.11464,0.2574159,291.6021,205.3329,13.46381,True
3,0.3777778,-0.9153712,0.000692606,-0.6758451,-1.274441,-4.037097,-3.005516,0.5871863,1.218931,0.5016177,-1.583535,-0.3541576,23.5,17.4,-0.1675369,-0.3613678,0.6465414,-0.7498109,-4.163809,-0.1361576,0.653378,1.417146,0.4099023,-0.1714337,-0.2137176,-0.3998661,-0.8901914,0.45218,-0.1495336,0.7859384,1.528531,0.2586727,0.4018233,1.120471,0.2581235,291.3002,203.4949,15.62778,True
3,0.3888889,-0.9736579,-0.1475773,-0.8142916,-1.259911,-4.03199,-2.994011,0.5852451,1.222541,0.5019619,-1.58338,0.01816344,23.5,17.4,-0.1647695,-0.5213507,0.678625,-0.7398283,-4.178816,-0.1233997,0.6547126,1.419132,0.4098663,-0.1821171,-0.2307699,-0.4030065,-0.8941696,0.4471051,-0.1440922,0.7871788,1.528762,0.2581079,0.3993745,1.126552,0.2587149,290.7409,201.1732,18.12334,True
3,0.4,-1.028869,-0.2509606,-0.9445238,-1.243939,-4.02759,-2.981823,0.5824867,1.226371,0.5025721,-1.584401,-0.09271383,23.5,17.4,-0.1788267,-0.6367884,0.7409657,-0.7280725,-4.193763,-0.1098684,0.6559981,1.421159,0.4097633,-0.1833256,-0.2573551,-0.4158754,-0.8986827,0.4413461,-0.1384045,0.7885519,1.528807,0.2574368,0.397146,1.132758,0.2587562,290.3504,198.2908,21.01601,True
3,0.4111111,-1.06927,-0.2932711,-1.021993,-1.228988,-4.025589,-2.96943,0.580395,1.229334,0.5011337,-1.585546,-0.1027571,21.2,16.9,-0.2111589,-0.6712742,0.8018464,-0.7162891,-4.204546,-0.09830766,0.6573093,1.423277,0.4095037,-0.184579,-0.2796397,-0.4362091,-0.9036984,0.4353511,-0.1327085,0.7900779,1.528927,0.2568326,0.3952289,1.139063,0.2581999,290.1736,194.9837,24.1893,True
3,0.4222222,-1.151296,-0.3414021,-1.158982,-1.210823,-4.023114,-2.954816,0.5771149,1.233781,0.5017476,-1.586557,-0.09053355,21.2,16.9,-0.2473418,-0.6879194,0.9065292,-0.7022985,-4.214924,-0.08648163,0.6585133,1.425384,0.4092515,-0.18754,-0.3464614,-0.515262,-0.9112448,0.4262774,-0.1249936,0.7916824,1.528787,0.2559357,0.393735,1.145466,0.2571167,290.2083,191.2429,27.56796,True
3,0.4333333,-1.184345,-0.3505105,-1.222823,-1.19484,-4.021996,-2.941427,0.5746062,1.237756,0.5022142,-1.588453,-0.1715165,21.2,16.9,-0.2763625,-0.7033238,0.9834441,-0.6884543,-4.225612,-0.07427529,0.6597584,1.427442,0.4089305,-0.1889126,-0.3825667,-0.5441678,-0.9174744,0.4183052,-0.1179674,0.7934062,1.528721,0.2550991,0.3922259,1.151975,0.2554072,290.2836,187.2248,31.07052,True
3,0.4444444,-1.229171,-0.3588206,-1.320724,-1.176368,-4.021443,-2.926569,0.5713664,1.242407,0.5027573,-1.587406,0.09804694,21.2,16.9,-0.3296565,-0.7071933,1.084114,-0.6725371,-4.23654,-0.06025189,0.6609447,1.429637,0.4084342,-0.1956789,-0.4218487,-0.5794025,-0.9243566,0.4097107,-0.1104043,0.7950544,1.528583,0.2542188,0.3904774,1.158511,0.2530362,290.3639,183.1012,34.66586,True
3,0.4555556,-1.257989,-0.3616012,-1.391001,-1.158272,-4.020968,-2.912225,0.5685591,1.246852,0.5031168,-1.590006,-0.2379943,17.2,17,-0.3653401,-0.6873662,1.141056,-0.6579334,-4.246383,-0.04724874,0.6622172,1.431838,0.4079437,-0.2128831,-0.4451972,-0.595315,-0.9306651,0.4019248,-0.1028348,0.7967571,1.52853,0.2533655,0.3886903,1.165223,0.2508155,290.7882,178.9391,37.89532,True
3,0.4666667,-1.298554,-0.3720819,-1.496348,-1.137224,-4.021402,-2.896134,0.5651373,1.252082,0.5034761,-1.589997,0.00363145,17.2,17,-0.4156616,-0.634704,1.230299,-0.6408316,-4.253622,-0.03487063,0.6633408,1.434141,0.4072654,-0.2427872,-0.4494155,-0.6024876,-0.9371158,0.3946689,-0.09471826,0.7983993,1.528322,0.2523944,0.3868945,1.172196,0.249223,291.2315,174.9918,40.98153,True
3,0.4777778,-1.335859,-0.3911601,-1.601681,-1.114921,-4.021297,-2.880221,0.5620261,1.257328,0.5035362,-1.591328,-0.1212555,17.2,17,-0.4499385,-0.6118635,1.323457,-0.6229837,-4.262923,-0.02110821,0.6646186,1.436539,0.4065297,-0.2670884,-0.4430734,-0.5841113,-0.942391,0.3884597,-0.08740042,0.8000553,1.528188,0.2514372,0.384685,1.179517,0.2482246,291.7674,171.2385,44.13033,True
3,0.4888889,-1.365797,-0.4121397,-1.704777,-1.092446,-4.02268,-2.863208,0.5584773,1.26345,0.5040119,-1.59086,0.04435517,17.2,17,-0.4981244,-0.5762395,1.410446,-0.604349,-4.271657,-0.006777745,0.6658915,1.438803,0.4057343,-0.2872243,-0.4548073,-0.5733112,-0.9479474,0.3812498,-0.07937338,0.8017658,1.527889,0.2504649,0.3820149,1.187179,0.2477713,292.3437,167.6559,47.48532,True
3,0.5,-1.392475,-0.4310484,-1.802613,-1.068664,-4.024198,-2.846248,0.555061,1.269519,0.5040374,-1.591478,-0.05650824,17.2,17,-0.5436535,-0.5626593,1.441887,-0.5872004,-4.282204,0.009715212,0.6671982,1.441228,0.4048779,-0.3129659,-0.4675208,-0.5901383,-0.9544801,0.3735479,-0.07055327,0.8034827,1.527669,0.2493629,0.3786948,1.195242,0.2475854,293.1081,164.3111,50.85555,True
3,0.5111111,-1.418173,-0.4338662,-1.889883,-1.04475,-4.027237,-2.82822,0.5517913,1.275722,0.5040107,-1.591811,-0.02948988,14.9,16.5,-0.5977151,-0.5714362,1.470088,-0.5701119,-4.295317,0.02935496,0.6686196,1.443738,0.403877,-0.3323478,-0.4685188,-0.6091099,-0.9614496,0.3664209,-0.06206337,0.8051922,1.527372,0.2481904,0.3749705,1.203705,0.2475771,294.0124,161.2745,54.08612,True
3,0.5222223,-1.438526,-0.4259478,-1.964489,-1.020085,-4.031217,-2.809451,0.5485674,1.282197,0.5040693,-1.592625,-0.07359625,14.9,16.5,-0.6178747,-0.5604109,1.584352,-0.5486751,-4.307966,0.04787112,0.6698921,1.446338,0.4030001,-0.3484486,-0.4578095,-0.6216924,-0.9685736,0.3600945,-0.05403128,0.8067355,1.527012,0.2471576,0.3709582,1.21267,0.247659,295.0006,158.5766,56.99123,True
3,0.5333334,-1.449316,-0.4071626,-2.0072,-0.996484,-4.036145,-2.790254,0.5456034,1.288535,0.5040212,-1.592979,-0.03137605,14.9,16.5,-0.6068417,-0.5787156,1.61929,-0.5297773,-4.323984,0.06788903,0.6713631,1.448824,0.4020193,-0.3569322,-0.4514343,-0.617319,-0.9749721,0.3537208,-0.04612062,0.8085192,1.52669,0.2460063,0.366868,1.22208,0.2476917,296.0057,155.8876,60.02126,True
3,0.5444446,-1.468663,-0.3745949,-2.061744,-0.9719121,-4.043369,-2.769181,0.5425833,1.295341,0.5040443,-1.59332,-0.0305454,14.9,16.5,-0.5989221,-0.6428138,1.652933,-0.5108705,-4.346119,0.09344313,0.672702,1.451295,0.4010193,-0.3633558,-0.4514188,-0.6204504,-0.9817924,0.3472974,-0.03824433,0.8100142,1.526288,0.2449043,0.3629408,1.231842,0.2476315,297.0558,153.2151,63.05309,True
3,0.5555557,-1.479532,-0.3420184,-2.117345,-0.9472896,-4.051837,-2.747411,0.5399576,1.302151,0.5038834,-1.593962,-0.05810716,13.4,16.2,-0.6226453,-0.6581888,1.729796,-0.4901095,-4.367183,0.1197829,0.6741191,1.453704,0.3997705,-0.3718987,-0.4524744,-0.6225018,-0.9886293,0.3408095,-0.0302631,0.8116351,1.525829,0.2435894,0.3593634,1.241859,0.2474668,298.1707,150.6012,65.96091,True
3,0.5666668,-1.484952,-0.3263108,-2.152608,-0.9226421,-4.060723,-2.725292,0.5371536,1.308992,0.5038602,-1.593924,0.004293447,13.4,16.2,-0.6392495,-0.666981,1.771464,-0.4699414,-4.390145,0.1479325,0.6754919,1.456059,0.3987269,-0.3720199,-0.4588222,-0.6342432,-0.9960201,0.3341446,-0.02242754,0.8130679,1.525399,0.2424293,0.3562177,1.25203,0.2471497,299.3203,148.0878,68.6677,True
3,0.577778,-1.490468,-0.292628,-2.213576,-0.8973276,-4.072347,-2.701439,0.5348957,1.316131,0.5036449,-1.594447,-0.04759722,13.4,16.2,-0.6570579,-0.7300311,1.791501,-0.4513504,-4.420623,0.1831419,0.6769811,1.458298,0.3972449,-0.3796279,-0.4704909,-0.6480507,-1.003554,0.3271652,-0.0141041,0.8145387,1.524958,0.2412682,0.3534088,1.262356,0.2466277,300.6109,145.7584,71.05602,True
3,0.5888891,-1.486429,-0.2545322,-2.253229,-0.8732255,-4.085124,-2.676991,0.5326122,1.323184,0.5036163,-1.594892,-0.04000133,13.4,16.2,-0.6420732,-0.7917775,1.794183,-0.4339749,-4.454296,0.2202187,0.6782404,1.460609,0.3960712,-0.3871488,-0.4587454,-0.6553799,-1.01088,0.3215638,-0.006627542,0.8159007,1.524461,0.2401319,0.3509308,1.272808,0.2459526,301.9987,143.5368,73.28364,True
3,0.6000003,-1.479113,-0.2184191,-2.271609,-0.8499425,-4.099146,-2.651936,0.5303424,1.330075,0.5035508,-1.595315,-0.03834646,13.4,16.2,-0.6260624,-0.8343349,1.789514,-0.4175245,-4.490056,0.2590784,0.679324,1.462845,0.3949387,-0.4083691,-0.4417173,-0.6476457,-1.01772,0.316512,0.001249555,0.8171115,1.524038,0.2391047,0.3487245,1.28333,0.2451827,303.4434,141.4286,75.35001,True
3,0.6111114,-1.453924,-0.1428632,-2.294485,-0.8279927,-4.116848,-2.625087,0.5285613,1.337257,0.5034742,-1.595932,-0.05572639,12.8,15.3,-0.6303312,-0.8630789,1.784069,-0.4017783,-4.528041,0.3009495,0.6805572,1.46509,0.3936889,-0.4307137,-0.4193583,-0.6483977,-1.024774,0.311888,0.009003615,0.8183557,1.523666,0.2381194,0.3467557,1.293924,0.2444073,304.9756,139.562,77.17644,True
3,0.6222225,-1.422242,-0.0640282,-2.308941,-0.806737,-4.136869,-2.597047,0.5267721,1.344336,0.5034389,-1.596564,-0.05719604,12.8,15.3,-0.6688797,-0.872614,1.763099,-0.3874201,-4.56787,0.3462442,0.6813623,1.467319,0.3923893,-0.4486561,-0.3885112,-0.6331879,-1.031244,0.3082312,0.01637391,0.8193887,1.523237,0.2371371,0.3449439,1.304574,0.2437365,306.4961,137.7854,78.9082,True
3,0.6333337,-1.403183,-0.02026111,-2.305032,-0.7856847,-4.156974,-2.568058,0.5250735,1.351632,0.5031908,-1.597569,-0.09141307,12.8,15.3,-0.6904705,-0.8353115,1.757112,-0.3721538,-4.607021,0.3913963,0.6825112,1.4698,0.3908713,-0.4592001,-0.3523292,-0.6244178,-1.037904,0.3050928,0.02335512,0.820649,1.522745,0.2359855,0.3431834,1.315251,0.2432033,307.9632,136.1792,80.52417,True
3,0.6444448,-1.378814,0.02355701,-2.296855,-0.7655842,-4.179241,-2.537718,0.5234686,1.358987,0.5030849,-1.598305,-0.06624475,12.8,15.3,-0.668919,-0.7353756,1.799017,-0.3543629,-4.643264,0.4322207,0.6832426,1.472252,0.3894873,-0.4697389,-0.3204007,-0.6146053,-1.044505,0.3024856,0.0302639,0.8216273,1.522388,0.2349155,0.3413951,1.326014,0.2428908,309.4317,134.8508,81.94077,True
3,0.655556,-1.354354,0.04831809,-2.285352,-0.7460223,-4.201952,-2.507051,0.5222969,1.366432,0.5029817,-1.597671,0.05830275,12.8,15.3,-0.5953677,-0.6501346,1.829659,-0.3367604,-4.682201,0.4732184,0.6843719,1.474664,0.3879476,-0.4696178,-0.3098263,-0.6039025,-1.05092,0.2988073,0.03726561,0.82267,1.521992,0.233717,0.339454,1.336891,0.242817,310.9011,133.6923,83.31337,True
3,0.6666671,-1.338414,0.06116903,-2.283334,-0.726594,-4.226036,-2.474957,0.5208055,1.373788,0.5028284,-1.59795,-0.0264055,11.4,16.1,-0.5525954,-0.6576023,1.8441,-0.3219165,1.549669,0.526378,0.6851876,1.476979,0.3865037,-0.4737831,-0.3109248,-0.5942766,-1.05731,0.2951046,0.04448784,0.823565,1.521661,0.23264,0.3373412,1.347905,0.2428684,312.3362,132.7853,84.60312,True
3,0.6777782,-1.294717,0.05402595,-2.285445,-0.7072434,-4.251123,-2.443302,0.5199161,1.381269,0.5024583,-1.598187,-0.02139316,11.4,16.1,-0.5467969,-0.778108,1.88384,-0.3100484,1.476239,0.6020986,0.6860725,1.479236,0.3847842,-0.4853626,-0.3120357,-0.5813811,-1.06348,0.2913136,0.05206906,0.8244137,1.52132,0.2314825,0.3352065,1.359033,0.2430928,313.7308,132.082,85.81618,True
3,0.6888894,-1.260566,0.03510243,-2.290676,-0.6877432,-4.277393,-2.41028,0.5187411,1.388787,0.5021186,-1.597961,0.02071668,11.4,16.1,-0.5986841,-0.8848776,1.910357,-0.3003145,1.396503,0.6866652,0.6868488,1.481586,0.3830228,-0.4861531,-0.289734,-0.5675383,-1.069517,0.2884733,0.05894002,0.825078,1.520966,0.2303004,0.333227,1.370211,0.2434694,315.1016,131.484,87.03258,True
3,0.7000005,-1.205067,0.002242088,-2.292641,-0.6681866,-4.303687,-2.378245,0.5175632,1.396295,0.5017252,-1.599272,-0.1201648,11.4,16.1,-0.6307963,-0.9135782,1.890272,-0.2924716,1.321474,0.7664474,0.6874259,1.483897,0.3813775,-0.4873263,-0.272687,-0.5662935,-1.075885,0.2863612,0.06536196,0.8256003,1.520595,0.2292681,0.3314176,1.381395,0.2438099,316.4767,130.9162,88.262,True
3,0.7111117,-1.149527,-0.03145522,-2.282896,-0.6492882,-4.331336,-2.345309,0.5167748,1.403869,0.5012002,-1.599045,0.02158053,12.1,15.7,-0.6280469,-0.8377976,1.876798,-0.2830642,1.253676,0.8387519,0.6878628,1.486091,0.3796489,-0.502421,-0.2544964,-0.5884724,-1.083474,0.284261,0.07234024,0.826066,1.520171,0.2282035,0.3299199,1.392459,0.2440653,317.8936,130.3884,89.44962,True
3,0.7222228,-1.097218,-0.05994612,-2.267844,-0.6309907,-4.359597,-2.31205,0.5157406,1.411438,0.5006952,-1.600041,-0.09163601,12.1,15.7,-0.5672333,-0.7238709,1.904543,-0.2720526,1.181453,0.912764,0.6880301,1.488432,0.3779554,-0.5088683,-0.2182462,-0.5957322,-1.090489,0.2833855,0.07866871,0.8263723,1.51988,0.2272279,0.3286678,1.403316,0.2441129,319.3807,129.8229,90.54502,True
3,0.7333339,-1.057785,-0.07252985,-2.258194,-0.6136733,-4.390449,-2.276259,0.515057,1.418986,0.5000868,-1.600284,-0.02173691,12.1,15.7,-0.5131483,-0.7046134,1.903002,-0.2656823,1.099672,0.9957678,0.688352,1.490897,0.3762,-0.5055319,-0.1842399,-0.5828503,-1.096644,0.2826752,0.08455776,0.8268186,1.519679,0.2262733,0.3276653,1.413823,0.2439643,320.8777,129.2724,91.51017,True
3,0.7444451,-1.009767,-0.09470266,-2.251704,-0.5963521,-4.422173,-2.240524,0.5142784,1.42655,0.4994197,-1.600381,-0.00891384,12.1,15.7,-0.4814594,-0.7342085,1.870561,-0.2635235,1.016262,1.080382,0.688276,1.493204,0.3743458,-0.5145313,-0.1365035,-0.5261223,-1.100577,0.2832898,0.09033176,0.8268951,1.519506,0.2252674,0.326882,1.423917,0.2436271,322.3746,128.838,92.26739,True
3,0.7555562,-0.9574724,-0.1222281,-2.250502,-0.5794884,-4.455334,-2.204008,0.5139011,1.433942,0.4985259,-1.599857,0.04763842,12.1,15.7,-0.5320634,-0.7403979,1.842263,-0.2630852,0.9332538,1.168774,0.6886252,1.495331,0.3722529,-0.5329102,-0.1186916,-0.4470332,-1.102899,0.2824979,0.09725598,0.8269683,1.519388,0.2240651,0.326202,1.433609,0.2431001,323.8787,128.4848,92.8297,True
3,0.7666674,-0.9285975,-0.1551221,-2.244979,-0.5627467,-4.489802,-2.165601,0.5132941,1.441537,0.4977975,-1.600494,-0.05883338,13.2,16.5,-0.5821202,-0.6671394,1.874019,-0.2602771,0.8458686,1.26178,0.6889752,1.497612,0.3701751,-0.5590366,-0.1241914,-0.3967234,-1.105869,0.2809986,0.1049919,0.8269118,1.519231,0.2229612,0.3255813,1.442992,0.2424233,325.3884,128.2786,93.2129,True
3,0.7777785,-0.8718411,-0.243247,-2.226309,-0.544985,-4.521971,-2.130294,0.5132729,1.449076,0.4968989,-1.600858,-0.03319588,13.2,16.5,-0.5531566,-0.5288357,1.91927,-0.2555788,0.7587503,1.351576,0.6890287,1.499778,0.3683898,-0.5609486,-0.1338676,-0.373289,-1.109509,0.2793699,0.1120528,0.8268455,1.519102,0.2219813,0.3249901,1.452112,0.2416719,326.9009,128.1456,93.54394,True
3,0.7888896,-0.8450617,-0.3007139,-2.216324,-0.5280942,-4.55733,-2.091078,0.5132477,1.456569,0.4959002,-1.599967,0.08135021,13.2,16.5,-0.4923455,-0.465107,1.962674,-0.2548363,0.6656736,1.445321,0.6893355,1.502129,0.3665292,-0.553459,-0.1328355,-0.3712393,-1.113905,0.2782042,0.118337,0.8270143,1.518939,0.2209916,0.3244388,1.460976,0.2409232,328.4115,128.0818,93.84319,True
3,0.8000008,-0.7978475,-0.4038558,-2.210326,-0.5093551,-4.59214,-2.053475,0.5131249,1.464085,0.4948344,-1.600899,-0.08626372,13.2,16.5,-0.3867301,-0.4373779,1.982065,-0.2565567,0.5749024,1.533768,0.6895872,1.504227,0.364769,-0.5237007,-0.1200376,-0.378948,-1.118412,0.2778082,0.1232681,0.8268508,1.518786,0.2200615,0.3239282,1.469621,0.2402081,329.8824,128.111,94.08067,True
3,0.8111119,-0.758119,-0.4995738,-2.194757,-0.4910491,-4.628273,-2.014375,0.5132772,1.4715,0.4936402,-1.599702,0.1095409,12.9,18,-0.3019735,-0.5211935,1.949871,-0.2656285,0.4950628,1.611944,0.690003,1.506204,0.3628976,-0.5080295,-0.1188905,-0.4110744,-1.124256,0.2769855,0.1287673,0.8266929,1.518671,0.2190437,0.3236111,1.477916,0.2395693,331.2903,128.2278,94.33112,True
3,0.8222231,-0.7141455,-0.587841,-2.186718,-0.4726371,-4.667169,-1.973204,0.5135801,1.478812,0.4923835,-1.600628,-0.08571344,12.9,18,-0.2800421,-0.6177658,1.889456,-0.2771173,0.4270303,1.679669,0.6903709,1.508231,0.3612423,-0.5016718,-0.1231428,-0.4143493,-1.129184,0.2760167,0.1345709,0.8264714,1.518635,0.2181029,0.3234253,1.485907,0.2388095,332.7216,128.3799,94.54642,True
3,0.8333342,-0.6852021,-0.6386485,-2.180049,-0.455799,-4.710103,-1.928218,0.5137633,1.486227,0.4912312,-1.600297,0.03058683,12.9,18,-0.277975,-0.6698922,1.866833,-0.2892321,0.3571447,1.750122,0.6909167,1.509508,0.3584571,-0.4930208,-0.1168144,-0.4037796,-1.133429,0.2753029,0.1400559,0.8262367,1.51862,0.2170994,0.3233843,1.49347,0.2379046,334.2006,128.4776,94.74117,True
3,0.8444453,-0.6477686,-0.6853389,-2.172307,-0.4394051,1.527699,-1.881198,0.5145035,1.493478,0.489799,-1.600518,-0.02084995,12.9,18,-0.2708211,-0.7303727,1.825938,-0.3032648,0.3008218,1.80667,0.6911935,1.511297,0.3566647,-0.4618997,-0.1264979,-0.3806861,-1.137064,0.2739534,0.1447297,0.8258751,1.518614,0.216109,0.3234888,1.500537,0.2368205,335.6747,128.606,94.82314,True
3,0.8555565,-0.5954406,-0.7191539,-2.157219,-0.4238559,1.480043,-1.832992,0.5151632,1.500554,0.4883945,-1.600235,0.02585234,12.9,18.3,-0.2725185,-0.7204558,1.779139,-0.3153257,0.2489567,1.85953,0.6914009,1.513778,0.3553462,-0.4212156,-0.15748,-0.3609768,-1.140873,0.2713881,0.1490861,0.8254969,1.518658,0.215014,0.3236984,1.507114,0.2355797,337.2237,128.7438,94.72927,True
3,0.8666676,-0.5954406,-0.7191539,-2.157219,-0.4238559,1.480043,-1.832992,0.5151632,1.500554,0.4883945,-1.600288,-0.005172934,12.9,18.3,-0.2725185,-0.7204558,1.779139,-0.3153257,0.2489567,1.85953,0.6914009,1.513778,0.3553462,-0.4212156,-0.15748,-0.3609768,-1.140873,0.2713881,0.1490861,0.8254969,1.518658,0.215014,0.3239292,1.513384,0.2342227,338.7948,128.9249,94.44604,True
3,0.8777788,-0.4919785,-0.7611238,-2.117625,-0.3969681,1.378843,-1.732127,0.5170518,1.51395,0.4854085,-1.605807,-0.5051249,12.9,18.3,-0.2070241,-0.6530061,1.750146,-0.3391445,0.1514245,1.955021,0.6917814,1.517784,0.3519998,-0.3957321,-0.1947802,-0.3677418,-1.149849,0.2669097,0.1589332,0.8246825,1.518674,0.2130027,0.3245186,1.519094,0.2332255,339.7986,128.9237,94.68504,True
3,0.8888899,-0.4642702,-0.7693244,-2.103796,-0.3855123,1.322693,-1.675973,0.5180631,1.520519,0.4836466,-1.596855,0.8220885,12.9,18.3,-0.1510937,-0.5473639,1.731025,-0.348922,0.1043906,1.999551,0.6919227,1.519517,0.3498101,-0.4189852,-0.1895175,-0.3504585,-1.153413,0.2654428,0.1649599,0.8241043,1.518717,0.2117631,0.3253597,1.523577,0.2327342,340.338,128.5583,95.24847,True
3,0.900001,-0.4258544,-0.7807712,-2.082459,-0.3747728,1.264891,-1.618879,0.5191778,1.526761,0.4819751,-1.600321,-0.3247269,12.9,18.3,-0.1480192,-0.4770283,1.727131,-0.3598479,0.05908489,2.043656,0.6920081,1.521299,0.3478684,-0.4258887,-0.1790593,-0.2949543,-1.155042,0.2639767,0.1705358,0.823526,1.518766,0.2105606,0.3250878,1.528729,0.2307996,343.1421,129.5678,93.69224,True
3,0.9111122,-0.4066945,-0.7773428,-2.061212,-0.3659694,1.20389,-1.558037,0.5204018,1.5331,0.4801247,-1.600302,0.005100986,12.6,16.9,-0.1502416,-0.3732598,1.770183,-0.3728116,0.008727845,2.090905,0.6927111,1.521736,0.3441787,-0.398632,-0.1888909,-0.2313407,-1.156077,0.2614205,0.1750578,0.8229474,1.518853,0.209425,0.3248602,1.534483,0.2290086,345.1782,130.2519,92.56274,True
3,0.9222233,-0.3672836,-0.7588181,-2.019845,-0.3589962,1.143636,-1.499032,0.5215951,1.539035,0.4784236,-1.600657,-0.03301746,12.6,16.9,-0.1407562,-0.3657277,1.760553,-0.3860428,-0.03128469,2.12934,0.6928751,1.523281,0.3420537,-0.3886466,-0.1975605,-0.1909869,-1.157257,0.2588885,0.1800899,0.8223511,1.518895,0.2082553,0.32482,1.54073,0.2275875,346.332,130.5245,92.43552,True
3,0.9333345,-0.3343478,-0.7263845,-1.973247,-0.3541813,1.082928,-1.439458,0.5229178,1.544914,0.4766121,-1.599721,0.08538873,12.6,16.9,-0.1318474,-0.3876988,1.696372,-0.399668,-0.05952178,2.156585,0.6928474,1.525904,0.3412788,-0.389276,-0.1945323,-0.1472778,-1.157839,0.2566731,0.1854359,0.8216678,1.519012,0.2070279,0.3249999,1.547067,0.2266117,347.4026,130.6906,92.8963,True
3,0.9444456,-0.2971349,-0.6865375,-1.924553,-0.3510472,1.022732,-1.380803,0.5244101,1.550581,0.474894,-1.600534,-0.07525168,12.6,16.9,-0.1263173,-0.4201041,1.600232,-0.4127164,-0.08175705,2.178149,0.6929739,1.527456,0.3393855,-0.3987005,-0.189262,-0.1311817,-1.159181,0.2547524,0.191015,0.8209954,1.519101,0.205822,0.3253047,1.553339,0.2258245,348.6036,130.9336,93.35791,True
3,0.9555568,-0.2652507,-0.6434986,-1.87802,-0.3496187,0.9637688,-1.323591,0.5257368,1.5559,0.4731922,-1.600215,0.02961775,12.6,16.9,-0.1151463,-0.4611655,1.553012,-0.4269665,-0.1043457,2.200109,0.6930158,1.529403,0.3380251,-0.385874,-0.1850219,-0.1270541,-1.161036,0.2529354,0.1956957,0.8203895,1.519085,0.2044988,0.3256962,1.559432,0.2251408,349.809,131.1773,93.66734,True
3,0.9666679,-0.2281529,-0.588821,-1.830469,-0.3499772,0.9063897,-1.268121,0.527485,1.56107,0.4712803,-1.60028,-0.006524493,12.1,16.7,-0.07142651,-0.4483984,1.526745,-0.4417252,-0.1264196,2.217853,0.6934662,1.53004,0.3351271,-0.3698613,-0.19037,-0.1240417,-1.162817,0.2506602,0.2001416,0.8198292,1.51905,0.2032998,0.3261025,1.565366,0.2244057,350.957,131.4625,93.82297,True
3,0.977779,-0.2005867,-0.5341794,-1.798929,-0.3521413,0.8509654,-1.214838,0.5289112,1.565854,0.4695699,-1.600218,0.005471218,12.1,16.7,-0.07202458,-0.4000714,1.471692,-0.4527278,-0.1489105,2.238946,0.6934739,1.531236,0.3332491,-0.3445647,-0.200945,-0.1509741,-1.165952,0.2483492,0.2040594,0.8191674,1.519157,0.2020171,0.3265318,1.571123,0.223634,352.0709,131.7455,93.94556,True
3,0.9888902,-0.1804972,-0.4914725,-1.776855,-0.355165,0.7956642,-1.161365,0.530438,1.570596,0.4675713,-1.600078,0.01245943,12.1,16.7,-0.04112959,-0.410938,1.387199,-0.4643397,-0.1643683,2.253092,0.6932027,1.533355,0.332036,-0.3329414,-0.215833,-0.1596607,-1.168512,0.2457814,0.2084619,0.8184628,1.519226,0.2007856,0.3269502,1.576693,0.2227985,353.1368,132.0355,94.0845,True
3,1.000001,-0.1476194,-0.4325584,-1.746423,-0.3602991,0.7450162,-1.113467,0.5317381,1.575066,0.4657691,-1.600004,0.006418249,12.1,16.7,-0.01325297,-0.4283385,1.289869,-0.4755543,-0.1762664,2.26294,0.6930295,1.534793,0.3303628,-0.3051949,-0.2233177,-0.1546351,-1.170581,0.2432056,0.2118787,0.8177687,1.519301,0.1995375,0.3273947,1.58209,0.22189,354.1768,132.3673,94.22265,True
3,1.011112,-0.1063013,-0.3800299,-1.715945,-0.3662598,0.6964087,-1.068013,0.5330383,1.579452,0.4638469,-1.599292,0.06487055,11.6,16.9,-0.00111413,-0.4564681,1.233169,-0.4875902,-0.1886051,2.274081,0.6926664,1.536616,0.3287065,-0.3072479,-0.2350678,-0.1461361,-1.172493,0.2403549,0.2165387,0.8170366,1.519509,0.1981874,0.32783,1.587335,0.2209425,355.2223,132.6444,94.38113,True
3,1.022224,-0.06600285,-0.3072129,-1.681363,-0.3740942,0.652739,-1.02797,0.5341392,1.583644,0.462091,-1.600011,-0.06663981,11.6,16.9,0.004652143,-0.4751838,1.171216,-0.4993592,-0.1984031,2.282706,0.6923687,1.538065,0.3269353,-0.3349412,-0.2222739,-0.1458172,-1.174523,0.238525,0.2219026,0.8162647,1.51968,0.1969035,0.3282146,1.592486,0.2198792,356.2741,132.9289,94.51919,True
3,1.033335,-0.04059911,-0.2579969,-1.654039,-0.3822568,0.6104067,-0.9887896,0.5354608,1.587918,0.4601943,-1.60019,-0.01586013,11.6,16.9,0.009839177,-0.4537086,1.166031,-0.5109216,-0.2131661,2.295657,0.6919208,1.539634,0.3249097,-0.3508507,-0.1967151,-0.1402658,-1.176309,0.2375239,0.2266403,0.8154763,1.519826,0.1956317,0.3285403,1.59761,0.2188134,357.3035,133.1578,94.64603,True
3,1.044446,0.006137848,-0.1935891,-1.606626,-0.3914628,0.5746999,-0.9575161,0.5363666,1.591705,0.4582906,-1.600481,-0.0268506,11.6,16.9,-0.07691443,-0.354485,1.129137,-0.5189223,-0.2295421,2.313836,0.6912888,1.540989,0.3229704,-0.3729258,-0.1648516,-0.11117,-1.176761,0.2367785,0.231883,0.8145683,1.520052,0.1944003,0.3287572,1.60278,0.2178041,358.2963,133.375,94.78733,True
3,1.055557,0.05286551,-0.1517825,-1.572894,-0.4004617,0.5398204,-0.9271311,0.5373653,1.595272,0.4562948,-1.599618,0.07901561,11.6,16.9,-0.1261426,-0.2862465,1.126861,-0.5278748,-0.2465629,2.332197,0.6904982,1.542287,0.3208654,-0.3680779,-0.1235172,-0.05246237,-1.175351,0.2363658,0.2359689,0.8136661,1.520374,0.1931891,0.3288297,1.60809,0.2169418,359.237,133.6159,94.95548,True
3,1.066668,0.0847621,-0.1259651,-1.548627,-0.4098845,0.5064278,-0.898366,0.5383497,1.598772,0.4542959,-1.60075,-0.1046497,13.4,16.7,-0.1558043,-0.244082,1.050725,-0.5352016,-0.2577105,2.344808,0.6898634,1.54345,0.318711,-0.3570429,-0.1012808,-0.0141562,-1.174622,0.2356567,0.2397402,0.8127875,1.520522,0.1919341,0.3287578,1.613602,0.2161735,0.09474501,133.9669,95.21201,True
3,1.077779,0.1432871,-0.09564117,-1.50739,-0.4194239,0.4770172,-0.8749339,0.5388964,1.601912,0.4522016,-1.600478,0.02564588,13.4,16.7,-0.1502073,-0.2296723,0.964473,-0.5421631,-0.2657717,2.353256,0.6889025,1.5448,0.3167953,-0.3730834,-0.09805694,-0.02037856,-1.175255,0.2347498,0.2447112,0.8118615,1.520702,0.1907449,0.3285245,1.619279,0.215506,0.8352422,134.3138,95.65804,True
3,1.08889,0.1763102,-0.08264485,-1.485165,-0.4293218,0.4464426,-0.8499218,0.5396966,1.60536,0.4501224,-1.600124,0.03169579,13.4,16.7,-0.145428,-0.2345747,0.9122077,-0.5503688,-0.2738737,2.361963,0.6881275,1.546013,0.3148174,-0.4054335,-0.1010932,-0.05950052,-1.177692,0.234047,0.2506567,0.810953,1.520873,0.1894796,0.3281396,1.624962,0.2149725,1.507604,134.7284,96.23161,True
3,1.100002,0.2232081,-0.07155466,-1.445899,-0.4386951,0.4199002,-0.8299387,0.5400165,1.608271,0.4480472,-1.601215,-0.1003753,13.4,16.7,-0.149597,-0.2410345,0.9217917,-0.5599019,-0.283916,2.372275,0.6870946,1.54735,0.3129513,-0.414207,-0.09993359,-0.08497837,-1.179744,0.2333949,0.25579,0.8099397,1.52107,0.1883729,0.3275898,1.63054,0.2145049,2.16674,135.1952,96.83083,True
3,1.111113,0.2699856,-0.04553238,-1.406756,-0.4489205,0.3956263,-0.8123217,0.5403815,1.611079,0.4459188,-1.600254,0.08848826,13.4,16.7,-0.1619734,-0.2277867,0.854875,-0.566759,-0.2911008,2.380867,0.6858619,1.548661,0.3109086,-0.4132024,-0.08285391,-0.09025957,-1.180927,0.2334631,0.2604273,0.8089129,1.521246,0.1871729,0.3268156,1.635928,0.214073,2.813654,135.6393,97.3842,True
3,1.122224,0.3157357,-0.00676012,-1.366625,-0.4594682,0.3742117,-0.7980881,0.5405081,1.613709,0.4439406,-1.600918,-0.06188561,14.8,15.6,-0.1522689,-0.2239394,0.7557343,-0.5723064,-0.294646,2.385537,0.6844882,1.549952,0.3090355,-0.4343959,-0.04026897,-0.08030957,-1.181229,0.2347466,0.2655414,0.807717,1.521497,0.1860859,0.3258289,1.641097,0.2136824,3.468834,136.1488,97.8348,True
3,1.133335,0.3412179,0.02016264,-1.3381,-0.4701395,0.3536726,-0.7842719,0.5406022,1.616514,0.4420228,-1.600754,0.0152868,14.8,15.6,-0.1391199,-0.2254938,0.6789293,-0.5778623,-0.2981772,2.389835,0.682963,1.551318,0.3070264,-0.4756492,-0.003055155,-0.05100061,-1.180411,0.2359794,0.2719945,0.806422,1.521666,0.1848691,0.3246128,1.645992,0.2133304,4.060955,136.6461,98.2792,True
3,1.144446,0.3581951,0.06533661,-1.285193,-0.4807411,0.3376003,-0.77457,0.5404831,1.618842,0.4403014,-1.600955,-0.01886412,14.8,15.6,-0.1542107,-0.1912804,0.6697019,-0.5840211,-0.3065163,2.39948,0.6813017,1.552521,0.3050156,-0.5083289,0.03093967,-0.01647377,-1.179165,0.2373474,0.278365,0.8051316,1.521967,0.1837707,0.3231818,1.650643,0.2130249,4.628531,137.1834,98.66374,True
3,1.155557,0.3793936,0.1234305,-1.22067,-0.491252,0.3255444,-0.7688077,0.5401132,1.621118,0.4386086,-1.600059,0.08184436,14.8,15.6,-0.1692961,-0.1794696,0.6517951,-0.5900398,-0.3124583,2.406796,0.6796032,1.553799,0.3031509,-0.5315351,0.05218983,0.006200522,-1.178083,0.2385484,0.284566,0.8038361,1.522411,0.182698,0.3215656,1.65513,0.2128306,5.204517,137.7223,98.96562,True
3,1.166668,0.4048766,0.1847529,-1.154044,-0.5017353,0.3156127,-0.7654164,0.539739,1.62319,0.4369283,-1.599599,0.04088601,16,14,-0.1956195,-0.1491463,0.5776354,-0.5933225,-0.316366,2.413534,0.6777499,1.555145,0.3012762,-0.538904,0.05748591,0.01481803,-1.177443,0.2391824,0.2904329,0.8023841,1.522792,0.1816728,0.3198138,1.659579,0.2127533,5.747053,138.2952,99.21873,True
3,1.17778,0.4207913,0.2277454,-1.108571,-0.5121269,0.3063734,-0.7625788,0.5393149,1.625316,0.4353771,-1.599536,0.005410396,16,14,-0.1970494,-0.1105739,0.5405914,-0.5967377,-0.3220075,2.420444,0.6759033,1.556508,0.2994668,-0.5707855,0.07986516,0.02159822,-1.176598,0.2408677,0.2971062,0.8008368,1.523095,0.1807516,0.31801,1.664054,0.2127882,6.165762,138.8649,99.54168,True
3,1.188891,0.4462448,0.2910657,-1.052607,-0.5227455,0.3002999,-0.7630971,0.5387183,1.627209,0.4339669,-1.599656,-0.01124659,16,14,-0.1524548,-0.05397333,0.5320228,-0.6001444,-0.3308433,2.42797,0.6738163,1.557805,0.297636,-0.5929886,0.1203107,0.03687665,-1.174953,0.2433935,0.3033873,0.7993199,1.523496,0.1798031,0.3161838,1.668635,0.2128527,6.463884,139.4148,99.95062,True
3,1.200002,0.4642212,0.3468319,-1.008309,-0.5337278,0.2949291,-0.7641842,0.5380073,1.628953,0.4326091,-1.599254,0.03668034,16,14,-0.1560722,-0.06646346,0.4819087,-0.6036763,-0.3336355,2.432066,0.6715662,1.559039,0.2958226,-0.604605,0.1341223,0.04663157,-1.173554,0.2451386,0.3097648,0.7976888,1.523966,0.1789603,0.3144061,1.673318,0.212972,6.713168,139.9538,100.4357,True
3,1.211113,0.4769484,0.3758546,-0.9808374,-0.5445307,0.2886691,-0.7645621,0.5373298,1.630903,0.4311612,-1.59946,-0.01946858,16,14,-0.1841781,-0.08536071,0.4372897,-0.6072013,-0.335143,2.43684,0.6694398,1.560266,0.2939754,-0.6121128,0.1234963,0.0413294,-1.173023,0.2460281,0.3164072,0.7959784,1.524339,0.1780987,0.3127192,1.678102,0.2131688,6.955741,140.4657,100.9516,True
3,1.222224,0.499306,0.4115367,-0.9172168,-0.5543807,0.2859136,-0.7685784,0.5362309,1.632422,0.4298882,-1.599134,0.02992855,19.2,13.5,-0.2060197,-0.05947608,0.3800998,-0.608869,-0.3378245,2.442259,0.6669407,1.561499,0.2922013,-0.6099782,0.1096439,0.04232258,-1.172322,0.2465634,0.3229237,0.7942594,1.524741,0.1773524,0.3111342,1.682993,0.2134578,7.156765,140.9064,101.5232,True
3,1.233335,0.5132276,0.4065156,-0.8862954,-0.5639137,0.2800581,-0.769886,0.5351921,1.634186,0.4284372,-1.59885,0.02552826,19.2,13.5,-0.1911559,0.0002249628,0.3813881,-0.6108045,-0.3458317,2.450492,0.6646234,1.56289,0.2904303,-0.6078455,0.1330902,0.04132251,-1.171119,0.2489071,0.3286916,0.7926384,1.525084,0.1764035,0.3096063,1.687998,0.2138093,7.343767,141.3236,102.1505,True
3,1.244446,0.5378135,0.4144644,-0.8277963,-0.5724891,0.2769853,-0.774203,0.5339326,1.635572,0.4269669,-1.599183,-0.03097461,19.2,13.5,-0.1870002,0.07697012,0.3796621,-0.6118506,-0.3552979,2.460361,0.6620954,1.564133,0.2885649,-0.6346609,0.1853786,0.02047001,-1.170346,0.2532364,0.3351271,0.7908574,1.525474,0.1756649,0.3080857,1.693099,0.2141763,7.508355,141.7367,102.8262,True
3,1.255558,0.5250542,0.4274979,-0.7873873,-0.5814059,0.2743297,-0.7774616,0.5325768,1.636806,0.4256451,-1.598885,0.02745461,19.2,13.5,-0.1977224,0.0727459,0.3712074,-0.6144115,-0.360484,2.46719,0.6595759,1.565263,0.2868323,-0.6613796,0.2301611,0.01024704,-1.16923,0.2575909,0.3418458,0.7890582,1.525982,0.1749687,0.3065073,1.698169,0.2145893,7.579051,142.0794,103.5924,True
3,1.266669,0.5144947,0.398705,-0.7850392,-0.5900958,0.2676914,-0.7772121,0.5314117,1.63813,0.4240839,-1.59922,-0.03115925,21.5,13.4,-0.2245174,0.05365662,0.3521481,-0.6171764,-0.3637041,2.473431,0.6572104,1.566334,0.2850668,-0.6718354,0.2450085,0.02958663,-1.167105,0.2604835,0.3485599,0.7871464,1.526502,0.1743298,0.3047638,1.703087,0.2150157,7.636547,142.4621,104.3725,True
3,1.27778,0.5488104,0.3544574,-0.7304515,-0.5962961,0.2627448,-0.7804719,0.5298624,1.63916,0.4224644,-1.597631,0.1454884,21.5,13.4,-0.2962629,0.02828684,0.3068076,-0.6189862,-0.3648196,2.480292,0.6546677,1.567341,0.2834787,-0.6490592,0.2416465,0.07089983,-1.164111,0.2622009,0.354288,0.7852773,1.52703,0.1737232,0.3028212,1.707699,0.2154875,7.633829,142.855,105.1273,True
3,1.288891,0.5468416,0.3130686,-0.7077792,-0.6029812,0.2566286,-0.7813864,0.5285513,1.640259,0.4211044,-1.597131,0.0443458,21.5,13.4,-0.3091084,0.05174013,0.303849,-0.6206987,-0.3705223,2.488813,0.6520909,1.568363,0.2818151,-0.5911987,0.2478809,0.1044501,-1.160976,0.2643518,0.3580202,0.7833647,1.527536,0.173157,0.3006783,1.711931,0.2159708,7.630515,143.3293,105.7989,True
3,1.300002,0.5609099,0.265462,-0.6680399,-0.6080891,0.2506487,-0.7831163,0.5269752,1.641288,0.4195998,-1.599071,-0.1778169,21.5,13.4,-0.3106307,0.0988841,0.2561896,-0.6199674,-0.3755623,2.496408,0.6495131,1.569172,0.2803569,-0.5496302,0.2542479,0.106195,-1.158716,0.2669421,0.3616093,0.7814965,1.52789,0.1726909,0.2983762,1.715715,0.216371,7.681737,143.9071,106.3803,True
3,1.311113,0.5504593,0.2209998,-0.6250857,-0.6127992,0.2453285,-0.7842908,0.5252908,1.642313,0.4183035,-1.597749,0.1223528,21.5,13.4,-0.3174883,0.07683416,0.2007163,-0.6201746,-0.3760471,2.500688,0.6468344,1.570094,0.2788177,-0.5210953,0.2532634,0.08247566,-1.157695,0.2697954,0.3653436,0.7795453,1.528226,0.1721826,0.2959372,1.718916,0.2167756,7.720283,144.3848,106.8548,True
3,1.322224,0.5729918,0.1980149,-0.5727549,-0.6169218,0.2414275,-0.7882558,0.5236791,1.643351,0.417027,-1.598111,-0.03444711,23.4,15.4,-0.3252596,0.08022909,0.1645786,-0.6202492,-0.3780358,2.50622,0.6440703,1.571038,0.2773397,-0.5302846,0.2364674,0.01538722,-1.159042,0.2726793,0.3703552,0.7776667,1.528545,0.1718194,0.2933725,1.721558,0.2172282,7.79069,144.852,107.1599,True
3,1.333336,0.5729918,0.1980149,-0.5727549,-0.6169218,0.2414275,-0.7882558,0.5236791,1.643351,0.417027,-1.596967,0.1049642,23.4,15.4,-0.3252596,0.08022909,0.1645786,-0.6202492,-0.3780358,2.50622,0.6440703,1.571038,0.2773397,-0.5302846,0.2364674,0.01538722,-1.159042,0.2726793,0.3703552,0.7776667,1.528545,0.1718194,0.2906212,1.723738,0.2176487,7.87933,145.272,107.3413,True
3,1.344447,0.4294184,0.2386003,-0.3469569,-0.6223312,0.2487724,-0.7991291,0.5198972,1.644965,0.4148021,-1.591444,0.5041533,23.4,15.4,-0.3187335,0.2079041,0.1961373,-0.6197096,-0.3949871,2.526993,0.6383976,1.572949,0.2741334,-0.5846085,0.2901665,-0.09468502,-1.161291,0.2829807,0.3811111,0.7737409,1.529083,0.1708438,0.2879854,1.72533,0.2183668,7.819959,145.7481,107.3914,True
3,1.355558,0.3932909,0.2335006,-0.298915,-0.6251989,0.2493161,-0.8028768,0.5177373,1.645753,0.413692,-1.599905,-0.7776895,23.4,15.4,-0.33171,0.2921363,0.1839263,-0.6174315,-0.405329,2.539617,0.6356451,1.573771,0.2726018,-0.5533198,0.3017292,-0.05552685,-1.15893,0.2866304,0.3844829,0.7715749,1.529496,0.170311,0.2856462,1.726376,0.2189762,7.547624,146.2899,107.3831,True
3,1.366669,0.377399,0.21226,-0.284884,-0.628522,0.2477889,-0.8053921,0.5157153,1.646677,0.4125051,-1.595356,0.4230388,23.4,15.4,-0.3467525,0.3209469,0.1735501,-0.6162198,-0.4131778,2.5506,0.6329932,1.574488,0.2710483,-0.5507705,0.275988,-0.01196691,-1.156842,0.288105,0.3898439,0.7694429,1.529884,0.1697576,0.2826228,1.728083,0.2183072,7.702941,146.4016,107.2676,True
3,1.37778,0.3639099,0.1100653,-0.268143,-0.628669,0.2423989,-0.8045913,0.5134398,1.647302,0.4112396,-1.59491,0.03654389,24.4,17.3,-0.3680813,0.3209546,0.1705351,-0.6157377,-0.4200576,2.56115,0.6302236,1.575282,0.2696245,-0.499912,0.2575513,0.06950627,-1.152761,0.2888108,0.3935598,0.7671698,1.53041,0.1690657,0.2796784,1.729912,0.2175101,7.634251,146.4914,107.2475,True
3,1.388891,0.3554884,0.08237019,-0.2625956,-0.6305391,0.2391208,-0.8056304,0.5112675,1.647645,0.4099867,-1.595591,-0.06203599,24.4,17.3,-0.3467682,0.2794362,0.1690358,-0.6165873,-0.4238835,2.567523,0.6273747,1.575929,0.2683113,-0.4601613,0.2574107,0.1032175,-1.149677,0.2909444,0.3965436,0.7649956,1.530905,0.1685152,0.2769357,1.731716,0.2168053,7.599739,146.61,107.3605,True
3,1.400002,0.4932714,-0.01824552,-0.2429167,-0.6293539,0.2322159,-0.8101168,0.5088062,1.648232,0.4086473,-1.595671,-0.006617961,24.4,17.3,-0.3246216,0.2678944,0.1410846,-0.6157361,-0.4281844,2.573844,0.6243998,1.576491,0.2670565,-0.4321281,0.2370303,0.138024,-1.146419,0.2917149,0.4000726,0.7626996,1.531295,0.1680119,0.274435,1.733399,0.2163448,7.643137,146.7576,107.5918,True
3,1.411114,0.5231092,-0.0126844,-0.2227581,-0.6305753,0.2302124,-0.8153436,0.506613,1.648461,0.4077294,-1.595956,-0.02603139,24.4,17.3,-0.3174788,0.260654,0.1037036,-0.6141484,-0.4322562,2.580661,0.6215044,1.577156,0.2656574,-0.407551,0.2252735,0.1462585,-1.144017,0.2931539,0.4033272,0.76038,1.531622,0.1676104,0.2720151,1.734735,0.2161301,7.65851,146.8995,107.945,True
3,1.422225,0.5231304,-0.005026698,-0.1951152,-0.6315069,0.229035,-0.8200549,0.5041987,1.648876,0.4065378,-1.602304,-0.580187,26.5,19.6,-0.329052,0.2509658,0.1197283,-0.6144658,-0.4374949,2.588911,0.6186132,1.577761,0.2643304,-0.4077211,0.2200094,0.1291952,-1.142385,0.2950123,0.4070133,0.7580838,1.531937,0.1672173,0.2695057,1.735706,0.2160218,7.655085,147.0609,108.2613,True
3,1.433336,0.5519336,-0.01227009,-0.1801972,-0.6323932,0.2273385,-0.8255495,0.501628,1.648986,0.4054527,-1.599437,0.266829,26.5,19.6,-0.344721,0.2720653,0.1572713,-0.6152179,-0.4462711,2.600364,0.6157217,1.578347,0.2631042,-0.4187107,0.2329282,0.09419508,-1.141388,0.2981675,0.4107012,0.7557038,1.532294,0.1668348,0.2666783,1.736212,0.2163191,7.762008,147.0729,108.398,True
3,1.444447,0.5392293,-0.02491659,-0.1555822,-0.6325743,0.225566,-0.8295448,0.499079,1.649083,0.4044087,-1.597521,0.172213,26.5,19.6,-0.3297673,0.3338085,0.1681411,-0.6141542,-0.4570426,2.612105,0.6128073,1.578654,0.261863,-0.4221373,0.2553903,0.06980766,-1.140041,0.3018503,0.4139426,0.7533357,1.532603,0.1664801,0.2633631,1.736539,0.2169909,7.74229,147.2371,108.2959,True
3,1.455558,0.5061738,-0.01762372,-0.1630242,-0.6339261,0.2232537,-0.8321718,0.4964729,1.649125,0.4035244,-1.59839,-0.08089254,26.5,19.6,-0.3280234,0.3596215,0.1256525,-0.6116067,-0.4643144,2.621672,0.6098819,1.578947,0.2607994,-0.3848502,0.2937253,0.06851905,-1.13758,0.306137,0.4151868,0.7508864,1.53288,0.166151,0.2594877,1.736987,0.2177097,7.577407,147.6316,108.1694,True
3,1.466669,0.4848764,-0.02735448,-0.1735757,-0.635059,0.2196069,-0.833784,0.4940755,1.649086,0.4025204,-1.596971,0.1305218,26.5,19.6,-0.3092794,0.3514127,0.07324985,-0.6092663,-0.46915,2.628441,0.6070135,1.57915,0.259829,-0.3558202,0.2978775,0.09489397,-1.134332,0.308639,0.4170321,0.7484951,1.533158,0.1657755,0.2552619,1.737499,0.2185664,7.363887,148.1526,108.1395,True
3,1.47778,0.4564687,-0.1134222,-0.1302841,-0.6319633,0.2146843,-0.8339955,0.4916881,1.649021,0.4018908,-1.595857,0.1006885,29.1,22.8,-0.261462,0.352601,0.05899885,-0.6074873,-0.4751965,2.634767,0.6040572,1.579366,0.2589471,-0.330934,0.2870869,0.1329708,-1.130555,0.3102421,0.419062,0.7460906,1.533559,0.1653335,0.2508746,1.738012,0.2195385,7.110314,148.7643,108.1581,True
3,1.488891,0.4469289,-0.1207901,-0.114233,-0.6313625,0.2122732,-0.8366914,0.4891514,1.64896,0.4010158,-1.595912,-0.005681682,29.1,22.8,-0.2296353,0.3676218,0.0449705,-0.6055602,-0.482556,2.642379,0.6011854,1.579582,0.2579622,-0.3307991,0.2763896,0.1467921,-1.127529,0.3120711,0.4220405,0.7435379,1.533812,0.1648836,0.2465454,1.738508,0.2205433,6.890348,149.4324,108.1804,True
3,1.500003,0.4565675,-0.1183727,-0.0791106,-0.630245,0.211233,-0.8412604,0.4864942,1.648723,0.400315,-1.595703,0.01924924,29.1,22.8,-0.2160085,0.3518076,0.01706855,-0.6032486,-0.4871518,2.648081,0.59824,1.579809,0.2570105,-0.3361582,0.251898,0.1446249,-1.125303,0.3133568,0.4254184,0.7409055,1.534171,0.1645069,0.2425304,1.738847,0.221574,6.680861,150.0615,108.2497,True
3,1.511114,0.4586481,-0.08399975,-0.04101329,-0.6298776,0.2122803,-0.8472434,0.4839303,1.648443,0.3997655,-1.596274,-0.05230249,29.1,22.8,-0.2373655,0.3539486,0.01087999,-0.601517,-0.4931988,2.65645,0.5954022,1.579965,0.2559671,-0.3253698,0.2486603,0.1573007,-1.122198,0.3151826,0.4278049,0.738442,1.534509,0.1641557,0.2388687,1.738793,0.2225883,6.436401,150.5216,108.3478,True
3,1.522225,0.4404553,-0.05308151,-0.02948758,-0.6302291,0.2128092,-0.851967,0.4813826,1.647985,0.3993583,-1.59719,-0.08320009,28.3,25.2,-0.240712,0.3678755,-0.005001232,-0.5989391,-0.4998046,2.66473,0.5925525,1.580011,0.2551062,-0.2866095,0.2484908,0.198465,-1.117759,0.3162681,0.4291468,0.7358457,1.534838,0.1638019,0.2353776,1.738514,0.223291,6.265545,150.8372,108.3615,True
3,1.533336,0.4233862,-0.03811657,-0.01357909,-0.6298903,0.2132349,-0.8563698,0.4787262,1.647489,0.3988564,-1.597026,0.01570309,28.3,25.2,-0.2428677,0.3732214,-0.007090196,-0.5967596,-0.5066838,2.673158,0.5895066,1.580147,0.2542529,-0.2565471,0.2366769,0.2226233,-1.113819,0.3171526,0.4306014,0.7331386,1.535118,0.1634262,0.2320409,1.738064,0.2237614,6.159814,150.9837,108.2878,True
3,1.544447,0.4085105,-0.03799719,0.009883337,-0.6289369,0.2138898,-0.8609118,0.4761047,1.64707,0.398494,-1.596175,0.07757968,28.3,25.2,-0.2418516,0.3966754,-0.01016751,-0.5942754,-0.5147158,2.682503,0.586546,1.580249,0.2535019,-0.2309206,0.231315,0.2287424,-1.110338,0.3182813,0.4317658,0.7305385,1.535456,0.1630876,0.2288529,1.737559,0.2241188,6.088908,151.0335,108.152,True
3,1.555558,0.3894022,-0.04098684,0.04723006,-0.6272426,0.2154753,-0.8658421,0.4735069,1.646668,0.3982449,-1.595927,0.02207933,28.3,25.2,-0.2111126,0.4372614,-0.02405909,-0.5908819,-0.5240858,2.691563,0.583585,1.580384,0.252877,-0.176762,0.2260354,0.2111468,-1.107748,0.3200351,0.4311932,0.7279116,1.535908,0.1627376,0.2257859,1.73709,0.224444,6.041564,151.0743,108.0651,True
3,1.566669,0.3723393,-0.03464308,0.04828378,-0.6267238,0.2160401,-0.8699524,0.4708411,1.646157,0.3978865,-1.595986,-0.005444271,28.3,25.2,-0.1879471,0.4246757,-0.05735444,-0.5874619,-0.5295114,2.697396,0.5808135,1.580405,0.2521803,-0.1641496,0.2175674,0.1939472,-1.10541,0.321456,0.4319759,0.7253323,1.536278,0.1624155,0.2227694,1.736682,0.2247477,5.967179,151.123,108.057,True
3,1.577781,0.3617735,-0.05590546,0.05910917,-0.6251051,0.2158694,-0.8735307,0.4683063,1.64572,0.3976188,-1.595766,0.02034783,28.3,26.4,-0.1388297,0.4182498,-0.04290378,-0.5854288,-0.5361525,2.703037,0.5780418,1.580249,0.2515666,-0.1588423,0.2037186,0.1938436,-1.102703,0.3222719,0.4334023,0.722666,1.536641,0.1619732,0.2197862,1.73628,0.2251211,5.845356,151.1636,108.0755,True
3,1.588892,0.3469109,-0.07081923,0.06563367,-0.6235451,0.2157335,-0.8766745,0.4658116,1.645188,0.3973467,-1.595886,-0.011154,28.3,26.4,-0.1282116,0.4267838,-0.04402311,-0.5828727,-0.5439749,2.710938,0.5752175,1.58015,0.250988,-0.1211187,0.2056732,0.2371615,-1.097986,0.3228056,0.433275,0.7200688,1.536993,0.1615808,0.2167812,1.735847,0.2255733,5.673778,151.2136,108.1102,True
3,1.600003,0.3225189,-0.100672,0.0733486,-0.6212297,0.2147937,-0.8786504,0.4633062,1.644765,0.3971138,-1.596102,-0.01950592,28.3,26.4,-0.1116503,0.4303048,-0.1006083,-0.5780433,-0.5497121,2.716462,0.5725423,1.580112,0.2505927,-0.08110352,0.1937056,0.2985162,-1.092348,0.3221401,0.4331964,0.7173514,1.537372,0.1610889,0.2137007,1.73539,0.2260822,5.542495,151.3245,108.1472,True
3,1.611114,0.3098334,-0.1272993,0.08102732,-0.6186656,0.2136384,-0.8808014,0.4608265,1.644283,0.3969421,-1.595792,0.02865423,28.3,26.4,-0.09976977,0.4195637,-0.08266346,-0.5759933,-0.5566241,2.723012,0.5697878,1.580231,0.2502162,-0.06695133,0.1616159,0.3312843,-1.087829,0.3206485,0.434324,0.7147342,1.537968,0.1607122,0.2105852,1.734834,0.2267099,5.409616,151.4798,108.1548,True
3,1.622225,0.2939893,-0.171058,0.07711156,-0.6155663,0.2107686,-0.8811622,0.4584019,1.643862,0.396647,-1.595392,0.03642041,28.6,26.2,-0.1252674,0.4141709,-0.0750187,-0.5737791,-0.5635484,2.731165,0.5671792,1.580183,0.2497616,-0.04422595,0.1135266,0.3692358,-1.083072,0.3176557,0.4354119,0.7121876,1.538386,0.1603181,0.2074267,1.734153,0.2274108,5.252782,151.6695,108.1387,True
3,1.633336,0.2750112,-0.2253844,0.08713278,-0.6113536,0.2076848,-0.8811849,0.4559583,1.64339,0.3964555,-1.595874,-0.04428356,28.6,26.2,-0.1188588,0.4865362,-0.06191391,-0.5703096,-0.5766098,2.743492,0.5647817,1.580017,0.2493703,-0.01844956,0.09319144,0.3912765,-1.078418,0.3157064,0.4357134,0.7096798,1.538694,0.1599505,0.2042172,1.733314,0.2281207,5.093402,151.8756,108.0943,True
3,1.644447,0.2549396,-0.2690027,0.1045335,-0.6067603,0.2051357,-0.8812664,0.4535883,1.642965,0.3962524,-1.595704,0.01608509,28.6,26.2,-0.09950936,0.5449909,-0.03406522,-0.5678163,-0.5908353,2.755889,0.5625156,1.579912,0.2490296,0.009188712,0.08254522,0.3856371,-1.074482,0.3142577,0.4352657,0.7072755,1.539008,0.1595504,0.2009774,1.732268,0.2288271,4.959037,152.0773,108.0149,True
3,1.655559,0.2400729,-0.2764198,0.1163386,-0.6031356,0.2039326,-0.8825426,0.4510703,1.642563,0.3962831,-1.595679,0.002255497,28.6,26.2,-0.0868791,0.5631906,-0.048988,-0.5642365,-0.6017203,2.76569,0.560011,1.579948,0.2488039,0.02385703,0.09221733,0.3599638,-1.071037,0.3143104,0.4345243,0.704875,1.539273,0.1590781,0.1976947,1.730983,0.2294869,4.857488,152.2908,107.8942,True
3,1.66667,0.2208972,-0.2754073,0.1184962,-0.599892,0.2023848,-0.8831143,0.4488083,1.642205,0.3960845,-1.595475,0.01869714,28.6,26.2,-0.07653275,0.4782251,-0.09534858,-0.5607802,-0.6038301,2.767931,0.5577987,1.579936,0.2484887,0.01398279,0.06462973,0.3322652,-1.068518,0.3128037,0.4354665,0.7025561,1.539699,0.1585772,0.1943901,1.729395,0.2301012,4.757074,152.4841,107.7074,True
3,1.677781,0.2081879,-0.3010538,0.1133781,-0.5959606,0.1990847,-0.8822682,0.4467753,1.64192,0.3958929,-1.595721,-0.02249458,30.7,25.5,-0.1083176,0.4120613,-0.08160326,-0.5596063,-0.6065545,2.77278,0.5554924,1.579906,0.2482963,0.02148095,0.01667017,0.3384071,-1.065556,0.3093977,0.4366426,0.7002182,1.539936,0.1581278,0.1910622,1.727546,0.2306208,4.675042,152.6472,107.4058,True
3,1.688892,0.1870483,-0.3490197,0.1190975,-0.5906955,0.1949904,-0.8803058,0.4448679,1.641639,0.3957922,-1.595507,0.01987271,30.7,25.5,-0.07936579,0.5535535,-0.04060529,-0.5565719,-0.6273963,2.790352,0.5535513,1.579764,0.2481096,0.05601376,0.009029657,0.3827798,-1.060368,0.3063993,0.4362186,0.6980816,1.54012,0.1576393,0.1877339,1.725598,0.2310418,4.639946,152.7747,106.9878,True
3,1.700003,0.1679834,-0.3788465,0.1278695,-0.5856025,0.1913839,-0.8784946,0.4430289,1.641362,0.3956585,-1.595687,-0.01648296,30.7,25.5,-0.06417108,0.5693586,-0.005491793,-0.5553138,-0.640505,2.80165,0.5517394,1.579652,0.247988,0.1304034,-0.003047332,0.4725495,-1.05289,0.3021648,0.4342425,0.696022,1.540311,0.157129,0.1845107,1.723686,0.2313618,4.619407,152.9561,106.5311,True
3,1.711114,0.1584223,-0.3831066,0.1321859,-0.5812695,0.1888023,-0.8779268,0.4412116,1.641024,0.3956177,-1.595439,0.02299352,30.7,25.5,-0.04188368,0.537503,-0.02077904,-0.5529532,-0.6477852,2.807561,0.5500188,1.57941,0.2479286,0.1505872,-0.02540876,0.4680089,-1.048872,0.2988555,0.4337368,0.6938568,1.540613,0.1567123,0.1815429,1.721799,0.2316848,4.619111,153.1447,106.1267,True
3,1.722225,0.1243357,-0.389687,0.121639,-0.5770756,0.1849456,-0.8749437,0.4397089,1.640595,0.3956323,-1.595353,0.007738067,30.7,25.5,-0.005309254,0.3900117,-0.123093,-0.5485409,-0.643593,2.802868,0.5485355,1.579186,0.2480946,0.1393087,-0.07205403,0.4072247,-1.047637,0.2951374,0.4343719,0.6919233,1.540837,0.1563327,0.1788672,1.719883,0.2320414,4.595125,153.2915,105.8003,True
3,1.733337,0.1051628,-0.3951422,0.1131858,-0.5729163,0.1808274,-0.8720675,0.4379717,1.640261,0.3956199,-1.595927,-0.05242864,33.3,25.4,0.007508874,0.3527537,-0.1244704,-0.5462415,-0.6480476,2.806204,0.5467044,1.579159,0.2481854,0.1495926,-0.0825783,0.3708605,-1.045628,0.2925283,0.433802,0.6900753,1.541088,0.1559513,0.1764186,1.717977,0.2323515,4.566324,153.3915,105.5072,True
3,1.744448,0.08278406,-0.3952538,0.1078972,-0.5688975,0.1769758,-0.8690265,0.4365731,1.639896,0.3957078,-1.594838,0.100162,33.3,25.4,0.03461765,0.3812188,-0.06488933,-0.5458953,-0.6584429,2.81374,0.5452611,1.578903,0.2481315,0.1698181,-0.05381458,0.3675695,-1.041762,0.2909589,0.4320113,0.6883399,1.541268,0.1555991,0.174186,1.716118,0.2326438,4.565999,153.4363,105.2255,True
3,1.755559,0.06891656,-0.386742,0.1121183,-0.5649853,0.1742811,-0.8671186,0.4350492,1.639447,0.3958902,-1.595263,-0.03960848,33.3,25.4,0.03896883,0.4557014,-0.04641916,-0.5434756,-0.6726705,2.825317,0.5437711,1.578718,0.2481244,0.1848403,-0.02721331,0.3771025,-1.037381,0.2895594,0.4301974,0.6866488,1.541494,0.1551974,0.1721531,1.714321,0.2329011,4.592399,153.4901,104.9757,True
3,1.76667,0.04542619,-0.3611202,0.1300806,-0.5612399,0.1735049,-0.8661252,0.4337482,1.639083,0.3961289,-1.595178,0.008431716,33.3,25.4,0.03899366,0.5035875,-0.03764558,-0.541116,-0.6857967,2.836159,0.5425837,1.578443,0.2481184,0.1976307,-0.03787404,0.378009,-1.033708,0.286682,0.4289982,0.685059,1.541709,0.1547587,0.1702292,1.712618,0.2330731,4.652322,153.5085,104.7434,True
3,1.777781,0.02619252,-0.3322715,0.1501353,-0.5576521,0.1734055,-0.8657047,0.4326079,1.63867,0.3963606,-1.595539,-0.03299516,35.6,24.6,0.07264985,0.4251253,-0.1001445,-0.5372767,-0.6882362,2.836332,0.5416191,1.578277,0.2483339,0.2071373,-0.106034,0.3734007,-1.031606,0.2811245,0.4292246,0.6837061,1.541851,0.1542881,0.1684708,1.710961,0.23324,4.691172,153.5114,104.5157,True
3,1.788892,0.02832016,-0.3279561,0.1564922,-0.5536904,0.1717765,-0.8647718,0.431468,1.638382,0.3964119,-1.595086,0.04179525,35.6,24.6,0.09500939,0.3261495,-0.1147193,-0.5354706,-0.6877174,2.834036,0.5405278,1.578194,0.2484839,0.2102839,-0.1560916,0.3710625,-1.029286,0.2754594,0.4297,0.6822301,1.542041,0.1538267,0.1668387,1.709356,0.2334129,4.695814,153.4742,104.2951,True
3,1.800003,0.02727382,-0.333278,0.1575982,-0.5495699,0.1696049,-0.8632024,0.4305754,1.638057,0.396471,-1.595249,-0.01512467,35.6,24.6,0.07937558,0.2396799,-0.08415539,-0.5357215,-0.6870514,2.833073,0.539586,1.578001,0.2484629,0.1909017,-0.1837094,0.3519754,-1.02766,0.270709,0.4307037,0.6810579,1.542066,0.1533034,0.1653543,1.707825,0.2335774,4.633768,153.4572,104.0605,True
3,1.811115,0.01669103,-0.3599867,0.1514181,-0.5449344,0.1655737,-0.8595259,0.4297878,1.637614,0.3965025,-1.596251,-0.09131803,35.6,24.6,0.06957421,0.2951657,-0.1040177,-0.5324399,-0.6961258,2.840456,0.5388192,1.577718,0.2485883,0.1993901,-0.163464,0.3477001,-1.02475,0.2678462,0.4296528,0.6796932,1.542058,0.1527593,0.1640267,1.706372,0.2336916,4.554379,153.4603,103.8626,True
3,1.822226,0.007163674,-0.3813617,0.1462636,-0.540235,0.1614069,-0.8557165,0.4289704,1.637248,0.396538,-1.596317,-0.005100222,35.6,24.6,0.08450574,0.3963063,-0.08975398,-0.5296282,-0.7105138,2.851389,0.5381684,1.577492,0.2486086,0.2228568,-0.1251293,0.3486728,-1.021198,0.2659099,0.4274027,0.6786284,1.542199,0.1523349,0.1628156,1.704958,0.2337559,4.521358,153.4535,103.7005,True
3,1.833337,-0.001309693,-0.3973931,0.1432061,-0.5354632,0.1575096,-0.8521284,0.4282594,1.636806,0.3965213,-1.595898,0.03832454,35.9,24.1,0.09076427,0.4017305,-0.1057586,-0.526786,-0.7183145,2.856863,0.5373862,1.577264,0.2488432,0.2291711,-0.1197692,0.3401067,-1.018477,0.2630698,0.4261156,0.67761,1.542317,0.1518929,0.1617498,1.703485,0.2338528,4.504133,153.4454,103.563,True
3,1.844448,0.0007903874,-0.3845403,0.1516326,-0.5313087,0.1554804,-0.8504456,0.4276515,1.636481,0.3965535,-1.595966,-0.006448615,35.9,24.1,0.1287585,0.3210738,-0.1576525,-0.5231769,-0.7175376,2.853542,0.5371037,1.577067,0.2489128,0.2247945,-0.1378376,0.3294314,-1.016384,0.2591823,0.4258211,0.6766534,1.542453,0.1514466,0.1607761,1.701855,0.2339733,4.508583,153.4446,103.4372,True
3,1.855559,0.009248435,-0.3631919,0.1535963,-0.5276026,0.1538701,-0.8494855,0.4270416,1.63619,0.396697,-1.596104,-0.01245289,35.9,24.1,0.1525806,0.2058873,-0.1286361,-0.5231013,-0.7142984,2.84792,0.5365726,1.57693,0.2488153,0.2160967,-0.1537487,0.3124103,-1.014699,0.2552577,0.4257513,0.6760622,1.54261,0.1509881,0.1598074,1.700052,0.234059,4.527442,153.4416,103.2547,True
3,1.86667,0.002819747,-0.3504163,0.1556463,-0.5237586,0.1520008,-0.8476732,0.4264306,1.63598,0.3968148,-1.596526,-0.03845146,35.9,24.1,0.1463421,0.1855521,-0.1127122,-0.522118,-0.7167517,2.848703,0.5361167,1.576733,0.2488191,0.2116854,-0.1462352,0.2975676,-1.012628,0.2524536,0.4250802,0.6753109,1.542658,0.1504927,0.15883,1.698084,0.2340869,4.542443,153.4546,102.9709,True
3,1.877781,-0.009019375,-0.3218088,0.1394822,-0.5211061,0.1500793,-0.8454927,0.4261519,1.635879,0.3969717,-1.596995,-0.04247176,34.8,24.2,0.1185192,0.197333,-0.1273212,-0.5194597,-0.7213691,2.852281,0.5358105,1.576835,0.2487881,0.2113788,-0.1290743,0.2656726,-1.011275,0.2506499,0.4237044,0.6747908,1.542685,0.1500432,0.1578674,1.696071,0.2340663,4.571621,153.45,102.5703,True
3,1.888893,-0.01436891,-0.3154486,0.1362585,-0.5176002,0.1480503,-0.8434596,0.4257906,1.635562,0.3971224,-1.596452,0.05001109,34.8,24.2,0.1197329,0.2004473,-0.1113338,-0.5180514,-0.7258307,2.854554,0.5356076,1.57674,0.248836,0.1971385,-0.1374543,0.2274323,-1.010898,0.2479679,0.4234607,0.6741365,1.542697,0.149621,0.1569393,1.69414,0.2340632,4.624025,153.3998,102.1393,True
3,1.900004,-0.02399603,-0.308093,0.1266321,-0.5144812,0.1453888,-0.8405573,0.4256124,1.635423,0.3971698,-1.596126,0.02934201,34.8,24.2,0.121038,0.1640979,-0.08703604,-0.517792,-0.727019,2.854167,0.5354522,1.576613,0.2487857,0.1795061,-0.1585386,0.1689347,-1.012173,0.2453461,0.4234954,0.6737657,1.542764,0.1492488,0.1560569,1.692394,0.2340964,4.674572,153.3786,101.7221,True
3,1.911115,-0.0197679,-0.3017688,0.1159275,-0.511402,0.1423948,-0.837965,0.4255528,1.635214,0.3971102,-1.596429,-0.02782017,34.8,24.2,0.1200363,0.1310585,-0.08614253,-0.5166373,-0.7269282,2.852485,0.5353783,1.57631,0.2488058,0.1900464,-0.157429,0.1571145,-1.011488,0.2429015,0.4222397,0.6735071,1.542793,0.1489267,0.1553377,1.690906,0.2342011,4.71235,153.4225,101.3717,True
3,1.922226,-0.0144396,-0.3049865,0.110616,-0.5081157,0.1391966,-0.8351961,0.4253882,1.635082,0.3970199,-1.596237,0.01789279,34.8,24.2,0.1307427,0.1320966,-0.07983551,-0.5155677,-0.7295054,2.85293,0.5353502,1.576142,0.2486982,0.1846675,-0.1243753,0.1498326,-1.010188,0.2418959,0.4208183,0.6732224,1.54279,0.1486468,0.1548084,1.689636,0.2343656,4.697104,153.4705,101.1731,True
3,1.933337,-0.003799364,-0.3082478,0.09676639,-0.5051985,0.135075,-0.8319465,0.4252565,1.634929,0.39692,-1.596883,-0.05920212,34.8,24.9,0.1351666,0.1320102,-0.06389976,-0.5148183,-0.7322007,2.853289,0.5352926,1.576006,0.2487452,0.1611047,-0.08595736,0.1352879,-1.009111,0.2418046,0.4199304,0.6731012,1.542784,0.1483161,0.1544492,1.688558,0.2345139,4.665746,153.5485,101.0532,True
3,1.944448,0.005770877,-0.3104486,0.08291893,-0.5023345,0.1309041,-0.8286612,0.4251404,1.634821,0.3967254,-1.596997,-0.009953794,34.8,24.9,0.1362735,0.1106932,-0.06189476,-0.5140194,-0.732886,2.852307,0.5353717,1.576087,0.2487655,0.1513853,-0.07737832,0.1215678,-1.008527,0.2407514,0.4191557,0.6728936,1.542751,0.1479406,0.1542393,1.687608,0.2346084,4.64746,153.6028,100.9905,True
3,1.955559,0.004672438,-0.3095041,0.06799893,-0.4995856,0.1263476,-0.8246137,0.4251006,1.634714,0.3965564,-1.597327,-0.03004668,34.8,24.9,0.1192019,0.06704168,-0.06943996,-0.5132716,-0.7308468,2.849795,0.5354574,1.575941,0.2486808,0.1510669,-0.09964095,0.09059618,-1.009357,0.2387295,0.4185597,0.6729656,1.54271,0.1475203,0.1540801,1.686731,0.2346154,4.647565,153.5929,100.9532,True
3,1.966671,0.004649684,-0.3074244,0.06052858,-0.4968851,0.1223849,-0.8211277,0.4249872,1.63463,0.3965402,-1.597347,-0.001616467,34.8,24.9,0.1116919,0.03300485,-0.07914302,-0.5123203,-0.7290097,2.847167,0.5354565,1.575812,0.248642,0.1424388,-0.1241006,0.08100557,-1.009614,0.2361256,0.4186018,0.6728395,1.542616,0.1471131,0.1539169,1.68586,0.2345769,4.685361,153.5506,100.9021,True
3,1.977782,0.001385152,-0.2882913,0.05613161,-0.4947163,0.1193952,-0.8184056,0.4251076,1.634495,0.3963618,-1.596898,0.0409531,34.8,24.9,0.0925604,0.02444337,-0.07476483,-0.5117317,-0.7284065,2.846282,0.5355618,1.575665,0.2484956,0.1167184,-0.1378826,0.06629442,-1.010222,0.2338542,0.4193912,0.6728617,1.542529,0.146733,0.153704,1.684958,0.2345199,4.733957,153.5225,100.8093,True
3,1.988893,0.00452064,-0.2680728,0.05277027,-0.4926971,0.1163945,-0.8160498,0.4251558,1.634364,0.3962195,-1.596892,0.0002539063,35.8,26.4,0.09053242,0.04461209,-0.06292646,-0.5109823,-0.7303354,2.846726,0.5357834,1.575338,0.2482638,0.09432579,-0.1218851,0.06337401,-1.010014,0.2326978,0.4196623,0.6729066,1.542404,0.1463735,0.1534514,1.683989,0.2344893,4.790133,153.5201,100.6728,True
3,2.000004,0.01186068,-0.227506,0.0609823,-0.491227,0.1162301,-0.8162671,0.4252135,1.63416,0.3960426,-1.596824,0.006198901,35.8,26.4,0.08949822,0.05098017,-0.05862234,-0.5102798,-0.7315562,2.846841,0.5358647,1.575197,0.2481153,0.08802983,-0.100607,0.07203613,-1.009184,0.2317448,0.4194119,0.6729183,1.54234,0.1460223,0.1531768,1.682955,0.2345112,4.830901,153.543,100.4878,True
3,2.011115,0.0202971,-0.201904,0.06183827,-0.4897846,0.1150237,-0.8156613,0.4253062,1.633972,0.39588,-1.597203,-0.03460298,35.8,26.4,0.0693809,0.03917294,-0.04466771,-0.5102451,-0.7315376,2.84685,0.5361316,1.575203,0.2480934,0.08920407,-0.08253583,0.08167242,-1.008258,0.2307816,0.4187728,0.6731105,1.542167,0.1456501,0.1529236,1.681903,0.2345441,4.848585,153.6284,100.2775,True
3,2.022226,0.02653188,-0.1539391,0.062543,-0.4892285,0.1160338,-0.8169926,0.425466,1.633699,0.3957276,-1.597306,-0.009187493,35.8,26.4,0.06704497,0.03610533,-0.06916723,-0.5086025,-0.7311714,2.84588,0.5362983,1.575065,0.2479069,0.08704829,-0.07080492,0.07854021,-1.0077,0.2300179,0.4182945,0.6732271,1.542079,0.145278,0.1526978,1.680898,0.2345574,4.868383,153.7106,100.0657,True
3,2.033337,0.03063241,-0.1027767,0.06534807,-0.4890714,0.1178409,-0.8190387,0.4256527,1.633451,0.3954766,-1.597372,-0.005996831,36.9,28.6,0.05731558,0.01702578,-0.09050248,-0.5069322,-0.7288792,2.843228,0.5365953,1.574899,0.2475843,0.05792556,-0.07492229,0.04152638,-1.008942,0.2292271,0.4189938,0.6734203,1.542008,0.1449564,0.1525167,1.680025,0.2345175,4.852193,153.7663,99.87939,True
3,2.044448,0.02841259,-0.07400575,0.06727034,-0.4886725,0.1194307,-0.8206707,0.4258667,1.633189,0.3953438,-1.597318,0.004921322,36.9,28.6,0.05216099,0.01691408,-0.07021768,-0.506823,-0.7291484,2.843065,0.5367454,1.57478,0.2473247,0.02771619,-0.0822245,0.003448538,-1.010613,0.2285338,0.4201363,0.6736308,1.541916,0.1446579,0.1524157,1.679301,0.2344588,4.840549,153.8019,99.73828,True
3,2.055559,0.02397199,-0.01754399,0.06899115,-0.4893324,0.1230121,-0.8238915,0.4261777,1.633041,0.3952169,-1.597282,0.003251475,36.9,28.6,0.04068708,0.0412495,-0.04123714,-0.5069769,-0.7320662,2.84534,0.536946,1.574555,0.2470212,0.0299288,-0.05989214,0.01096447,-1.010252,0.2282954,0.4198854,0.6738031,1.541785,0.1444094,0.152417,1.678794,0.2343635,4.808355,153.8403,99.63194,True
3,2.06667,0.02388714,0.009110412,0.07199149,-0.4893548,0.1256161,-0.8264061,0.4263556,1.63276,0.3951347,-1.597028,0.02313601,36.9,28.6,0.03954485,0.05513838,-0.04967614,-0.5057796,-0.7336828,2.846253,0.5372741,1.574533,0.2470634,0.03963802,-0.03437581,0.021616,-1.009453,0.2283978,0.4189366,0.6739614,1.541614,0.1441236,0.1525364,1.678542,0.2342146,4.753036,153.8654,99.59514,True
3,2.077781,0.03125509,0.03683113,0.07177547,-0.4898762,0.1288568,-0.8298514,0.4265091,1.632566,0.3950431,-1.596825,0.01836134,37.4,30.6,0.05018034,0.006177751,-0.05641717,-0.5054019,-0.730011,2.842112,0.5375401,1.574509,0.246928,0.03842756,-0.03005967,0.006728744,-1.009848,0.2284422,0.4184633,0.6742544,1.541465,0.1439323,0.1528067,1.678507,0.2340525,4.690092,153.8643,99.61517,True
3,2.088892,0.03125509,0.03683113,0.07177547,-0.4898762,0.1288568,-0.8298514,0.4265091,1.632566,0.3950431,-1.596973,-0.01359182,37.4,30.6,0.05018034,0.006177751,-0.05641717,-0.5054019,-0.730011,2.842112,0.5375401,1.574509,0.246928,0.03842756,-0.03005967,0.006728744,-1.009848,0.2284422,0.4184633,0.6742544,1.541465,0.1439323,0.1527328,1.681206,0.234609,4.178644,154.413,101.0386,True
3,2.100003,0.03438411,0.05493597,0.06949671,-0.4903726,0.1313151,-0.8324456,0.4267545,1.632322,0.3949771,-1.59679,0.01688049,37.4,30.6,0.0577157,-0.04177713,-0.05460592,-0.5055537,-0.7251244,2.836616,0.5378505,1.574392,0.2466362,0.02632174,-0.04376731,-0.03155529,-1.011811,0.2280703,0.4188343,0.6745448,1.541369,0.1436698,0.1527989,1.683143,0.235398,3.91699,154.7988,101.6791,True
3,2.111114,0.04494696,0.07522818,0.07255043,-0.4907226,0.1371391,-0.8391125,0.4270526,1.632111,0.3947864,-1.597766,-0.08942397,37.4,30.6,0.04928143,-0.09190084,-0.04629234,-0.5059916,-0.7186822,2.830407,0.5382622,1.574542,0.2460949,-0.00635805,-0.05418929,-0.09836788,-1.016986,0.2290462,0.4199395,0.6750555,1.541291,0.1431215,0.1532254,1.684043,0.2358179,3.713599,154.6784,101.7397,True
3,2.122225,0.05143143,0.04640928,0.06101245,-0.4903742,0.1392227,-0.8420047,0.427411,1.631764,0.394145,-1.597694,0.007333805,37.4,30.6,0.01304433,-0.01842468,-0.04558112,-0.504358,-0.721298,2.833232,0.5384929,1.574379,0.2451985,0.001652446,0.004250814,-0.05137906,-1.015399,0.2308851,0.4182457,0.6755237,1.541261,0.1422765,0.1538627,1.684117,0.2357812,3.571678,154.5301,101.6904,True
3,2.133336,0.05463421,0.04212704,0.05677764,-0.490281,0.1403964,-0.8437709,0.4276001,1.631612,0.3938174,-1.597879,-0.01713635,39.2,31.8,0.002474112,0.004941277,-0.03364893,-0.5041673,-0.7233366,2.83543,0.5385988,1.574287,0.2448223,0.004245245,-0.0001805765,-0.004551589,-1.013936,0.229859,0.4186327,0.675665,1.54129,0.1418839,0.1545075,1.683634,0.2353234,3.596193,154.3002,101.5135,True
3,2.144447,0.05679332,0.02499612,0.04518155,-0.4898949,0.13979,-0.8438588,0.4277931,1.631388,0.3934884,-1.597149,0.06687532,39.2,31.8,0.004620172,0.03155608,-0.02926241,-0.5035905,-0.7262187,2.837785,0.5388593,1.57441,0.2447119,0.008792593,-0.004549661,0.02414913,-1.012904,0.2289544,0.4188151,0.675959,1.541195,0.1415877,0.1550365,1.68279,0.2346094,3.627363,154.1003,101.3354,True
3,2.155558,0.06214894,0.01325592,0.03993313,-0.4894997,0.1396195,-0.8446341,0.4279624,1.631254,0.3931446,-1.597237,-0.008657405,39.2,31.8,0.007875776,0.01129008,-0.02407019,-0.5037209,-0.724918,2.83643,0.5391275,1.574417,0.2443867,0.02501309,-0.007842712,0.0484791,-1.011525,0.2279579,0.4183853,0.6761644,1.541186,0.1412838,0.1550005,1.682311,0.2340778,3.552287,154.1973,101.3768,True
3,2.166669,0.06106205,0.01535077,0.03459461,-0.4896222,0.1405548,-0.8460013,0.4281486,1.631113,0.3929844,-1.597125,0.0103531,39.2,31.8,0.00561114,-0.03228015,-0.04344914,-0.5032714,-0.7201968,2.83236,0.5392807,1.574381,0.244195,0.02479013,-0.007761499,0.02611092,-1.012195,0.2282104,0.4180124,0.6763615,1.541137,0.1410482,0.1549933,1.682171,0.2338492,3.463325,154.2092,101.4267,True
3,2.17778,0.05783742,0.01953072,0.02498084,-0.4899865,0.1408996,-0.8468168,0.4283667,1.630963,0.3927472,-1.597385,-0.0239492,43.3,33,0.001275506,-0.02904268,-0.0519181,-0.5024437,-0.7191747,2.831619,0.5394726,1.574319,0.2439096,0.01789618,-0.01715824,-0.02391949,-1.014396,0.2287217,0.4178731,0.6766278,1.54112,0.1408281,0.1550051,1.682099,0.2337936,3.431856,154.2591,101.4747,True
3,2.188891,0.04503066,0.02584862,0.0206911,-0.4903572,0.1416932,-0.8475342,0.4286565,1.630795,0.3924553,-1.597006,0.03493408,43.3,33,-0.001686402,0.00596005,-0.02401869,-0.5026573,-0.7227047,2.834492,0.5397817,1.57409,0.2434189,0.02070387,-0.02767278,-0.06234308,-1.016725,0.2290272,0.4174185,0.6769286,1.541007,0.1405818,0.155059,1.682057,0.2338134,3.388003,154.2792,101.4868,True
3,2.200002,0.03971485,0.02586361,0.02495333,-0.4903306,0.1426891,-0.8487279,0.4289337,1.630642,0.3921533,-1.596918,0.007632255,43.3,33,-0.01759303,0.01229745,-0.01532963,-0.5027265,-0.7236568,2.836115,0.5399126,1.574056,0.2432704,0.02376207,-0.02549089,-0.07621388,-1.018002,0.2294956,0.4168004,0.6771582,1.540917,0.1403751,0.1551487,1.682043,0.2338541,3.338813,154.2949,101.4729,True
3,2.211113,0.03865062,0.02369076,0.01964771,-0.4904387,0.143024,-0.8494501,0.4291459,1.630536,0.3918505,-1.596442,0.04355802,43.3,33,-0.005904095,0.007000996,-0.01864465,-0.5025327,-0.723318,2.835487,0.5401984,1.574063,0.2430382,0.01419844,-0.008446719,-0.07500079,-1.018554,0.2305721,0.4164121,0.677393,1.540804,0.1400886,0.1552599,1.682036,0.2338442,3.302388,154.3426,101.4609,True
3,2.222224,0.03653377,0.02051581,0.02286847,-0.4903071,0.1438324,-0.8505085,0.4294804,1.630427,0.3916998,-1.596731,-0.02676777,43.3,33,-0.003735472,-0.002594898,-0.01551544,-0.5025933,-0.7226748,2.834802,0.5405356,1.574077,0.2427876,0.004767068,0.009610513,-0.05992669,-1.018244,0.2314239,0.4163181,0.677657,1.540814,0.1398444,0.1553986,1.682012,0.2337426,3.253289,154.4342,101.454,True
3,2.233335,0.03119701,0.02477561,0.02497598,-0.4904041,0.1450425,-0.8516999,0.4297852,1.630319,0.3915195,-1.596918,-0.01680412,43.6,33.9,-0.001577033,-0.01645319,-0.01347617,-0.502767,-0.7211031,2.833352,0.5408403,1.574143,0.2425368,0.001859224,0.01589872,-0.03111034,-1.017328,0.2315214,0.4163698,0.6779568,1.540851,0.1395588,0.1555526,1.681953,0.2335947,3.212278,154.5422,101.466,True
3,2.244446,0.0279475,0.0450567,0.03123094,-0.4909857,0.1480591,-0.8545666,0.4300738,1.630357,0.3913856,-1.596871,0.004378021,43.6,33.9,0.004894122,-0.01543629,-0.006072172,-0.5030243,-0.7206298,2.832376,0.5413371,1.573901,0.2420802,0.005173792,0.008383738,-0.01838913,-1.017272,0.2309886,0.4164712,0.6783752,1.540887,0.1393049,0.1557422,1.681899,0.2334182,3.225307,154.618,101.5012,True
3,2.255557,0.02790793,0.06217187,0.04069225,-0.4914603,0.1512845,-0.8577038,0.4304133,1.630342,0.3912947,-1.596664,0.01891945,43.6,33.9,0.01010696,-0.007907909,-0.0188608,-0.5022945,-0.7205909,2.832026,0.5416487,1.573902,0.2418683,0.009476145,-0.01294363,-0.01318289,-1.017609,0.229859,0.4167847,0.678672,1.540914,0.1390038,0.1559345,1.681852,0.2333513,3.187263,154.6756,101.5234,True
3,2.266668,0.02790793,0.06217187,0.04069225,-0.4914603,0.1512845,-0.8577038,0.4304133,1.630342,0.3912947,-1.596755,-0.008479223,43.6,33.9,0.01010696,-0.007907909,-0.0188608,-0.5022945,-0.7205909,2.832026,0.5416487,1.573902,0.2418683,0.009476145,-0.01294363,-0.01318289,-1.017609,0.229859,0.4167847,0.678672,1.540914,0.1390038,0.156136,1.681859,0.2332998,3.114827,154.7195,101.5078,True
3,2.277779,0.02675948,0.08666167,0.04052243,-0.4927972,0.15656,-0.8628506,0.4311145,1.630143,0.3909643,-1.5966,0.01426926,43.6,33.9,0.01637632,-0.02593812,-0.03285438,-0.5014935,-0.7176369,2.829103,0.5423386,1.57402,0.241545,0.01904014,-0.02892406,-0.01546445,-1.018473,0.2286388,0.4166209,0.679432,1.540994,0.138577,0.1563595,1.681937,0.2331916,3.129014,154.7296,101.4642,True
3,2.28889,0.02885772,0.09302011,0.03515125,-0.4935583,0.1585932,-0.8650041,0.4314786,1.630098,0.3908579,-1.597106,-0.0463383,43.8,34.4,0.01220211,-0.04728954,-0.02654137,-0.5019414,-0.7145607,2.826213,0.54273,1.574027,0.2412629,0.01993378,-0.02780123,-0.03251912,-1.019622,0.2288545,0.4163024,0.6797675,1.541007,0.1383085,0.1565596,1.681993,0.2330755,3.131053,154.7515,101.4205,True
3,2.300001,0.02777009,0.09722573,0.02873041,-0.4944068,0.1603085,-0.8667846,0.4319175,1.630014,0.3906519,-1.596972,0.01272346,43.8,34.4,0.02190541,-0.04522606,-0.01276515,-0.5024447,-0.7140949,2.825167,0.5430254,1.574233,0.2411702,0.02172445,-0.03087342,-0.06663865,-1.021762,0.2293702,0.415725,0.680109,1.541031,0.1381278,0.1569079,1.682053,0.2329192,3.032138,154.8388,101.3289,True
3,2.311112,0.0245523,0.1003478,0.02018744,-0.4954417,0.1617557,-0.868227,0.4324571,1.630003,0.3904724,-1.597016,-0.004175597,43.8,34.4,0.03143925,-0.02921342,-0.01701911,-0.5019957,-0.7145455,2.824908,0.5435038,1.574244,0.2409632,0.02048379,-0.01802368,-0.08468766,-1.023146,0.2304752,0.4150262,0.6804806,1.541104,0.1378324,0.1572797,1.68211,0.2327611,3.045233,154.9145,101.2971,True
3,2.322223,0.02132494,0.1066604,0.01056025,-0.4966966,0.1634097,-0.8698494,0.4330359,1.629989,0.3904133,-1.596933,0.007566973,43.8,34.4,0.03145653,-0.007923074,-0.01264409,-0.5017737,-0.716291,2.826161,0.5439163,1.574266,0.2408078,0.03788548,-0.004309153,-0.04966012,-1.022188,0.2306693,0.4137969,0.6807815,1.541123,0.1375728,0.1577369,1.682172,0.2325924,3.068792,154.8895,101.2687,True
3,2.333334,0.02131345,0.103362,-0.003264539,-0.4978732,0.1638136,-0.8704339,0.4336119,1.630019,0.3902793,-1.59683,0.009379192,43.2,34,0.02298408,0.01120647,-0.005014475,-0.5017081,-0.7183192,2.82798,0.5443822,1.574254,0.2406282,0.04995246,-0.01936261,-0.01361008,-1.021304,0.229167,0.4135668,0.6811372,1.541202,0.1372676,0.1583,1.68223,0.232367,3.090652,154.8218,101.2226,True
3,2.344445,0.01918947,0.09907123,-0.007497221,-0.4988447,0.1647526,-0.8713953,0.434274,1.629969,0.3902736,-1.596836,-0.0006327075,43.2,34,0.02530045,0.02175206,0.01525301,-0.5022988,-0.7198018,2.828601,0.544933,1.574169,0.24037,0.05756845,-0.02261558,0.002282929,-1.020929,0.2285221,0.4129689,0.6814467,1.541189,0.1369722,0.1589823,1.682327,0.2320597,3.136822,154.7329,101.1723,True
3,2.355556,0.01714791,0.06812434,-0.01365601,-0.4987584,0.1634758,-0.8703746,0.4348615,1.630062,0.3900831,-1.596918,-0.007438828,43.2,34,0.03496296,0.01745336,0.02367139,-0.5028916,-0.7203915,2.828323,0.5455794,1.57426,0.2402446,0.06725597,-0.03224701,0.01280529,-1.020694,0.2274143,0.4123852,0.6818593,1.541238,0.1366961,0.1598269,1.68247,0.2316806,3.206255,154.584,101.1295,True
3,2.366668,0.01508382,0.04785483,-0.01670505,-0.4987914,0.162502,-0.8697048,0.4355565,1.630136,0.3898954,-1.596848,0.006399964,43.2,34,0.04442253,-0.03250655,0.005221667,-0.5029646,-0.7155221,2.823315,0.5462333,1.574388,0.2401905,0.06934474,-0.039693,0.00849342,-1.021147,0.2267142,0.4118469,0.6823851,1.541267,0.1364799,0.1608417,1.682621,0.231195,3.308886,154.3529,101.1027,True
3,2.377779,0.01938326,0.02750165,-0.03360558,-0.4990753,0.1599337,-0.8678448,0.4363216,1.630274,0.3896816,-1.596822,0.002411885,43.2,34,0.05079439,-0.0442055,0.001911446,-0.5031702,-0.7134939,2.820736,0.5468849,1.574452,0.2400541,0.06586891,-0.03319259,-0.0202077,-1.022374,0.227247,0.4109721,0.6829298,1.541297,0.1362619,0.1620089,1.682727,0.2306387,3.409517,154.0579,101.1091,True
3,2.38889,0.02474997,0.01252547,-0.04415014,-0.4993081,0.1581033,-0.8668616,0.4370889,1.630411,0.3894348,-1.596922,-0.009157083,42.6,33.8,0.05941796,-0.02721943,0.01363975,-0.5036346,-0.7147685,2.820619,0.5476344,1.574376,0.2396958,0.07198524,-0.04694494,-0.04695171,-1.024207,0.2269161,0.4101558,0.6834464,1.541281,0.1359825,0.1630398,1.682744,0.2301437,3.483051,153.8676,101.1183,True
