loc,t,aDotUA,bDotUA,gDotUA,aUA,bUA,gUA,xUA,yUA,zUA,qE,qDotE,emgA,emgB,aDotSH,bDotSH,gDotSH,aSH,bSH,gSH,xSH,ySH,zSH,aDotUB,bDotUB,gDotUB,aUB,bUB,gUB,xUB,yUB,zUB,xHand,yHand,zHand,aHand,bHand,gHand,enable
3,0,-0.3693283,-0.8493283,-0.1166845,-1.36876,-4.110137,2.979602,0.633734,1.129539,0.4794853,-1.682666,0.1135053,0.9,17.6,-0.3057098,0.212306,-0.09503156,-0.7895756,-4.421597,0.1969477,0.6828864,1.315972,0.4144318,-0.1420514,0.1609954,-0.05454563,-1.031985,0.2596454,0.04658215,0.8059311,1.379957,0.2511113,0.4758515,1.004332,0.2935187,299.0626,226.8519,359.036,True
3,0.01111111,-0.3906432,-0.8462247,-0.1230838,-1.368707,-4.100351,2.98265,0.6320942,1.129554,0.4787176,-1.683596,-0.0859229,0.3,15.2,-0.3088047,0.2143614,-0.08114839,-0.7895335,-4.41806,0.1979975,0.68242,1.315999,0.4142909,-0.1366789,0.1567156,-0.05036501,-1.032351,0.2614379,0.04704341,0.8059856,1.379851,0.251302,0.4755184,1.005063,0.2912895,298.9394,225.8544,359.5893,True
3,0.02222222,-0.405564,-0.8388467,-0.1273751,-1.368796,-4.090724,2.985558,0.6304566,1.129629,0.4780519,-1.68336,0.02261831,0.3,15.2,-0.3129159,0.2110594,-0.06196807,-0.7893285,-4.414997,0.1993752,0.6820034,1.316018,0.4142008,-0.1303304,0.1503234,-0.05366125,-1.033047,0.2631352,0.04738269,0.8061173,1.379705,0.2514627,0.4755851,1.005939,0.2884313,298.7095,225.0437,359.7332,True
3,0.03333334,-0.4183894,-0.8197387,-0.1338838,-1.368438,-4.081862,2.988802,0.6289248,1.129708,0.4773066,-1.68329,0.00618681,0.3,15.2,-0.3117312,0.1939439,-0.04821643,-0.7891101,-4.412716,0.201185,0.6815705,1.316033,0.4140809,-0.1293634,0.1460793,-0.06114144,-1.033892,0.2649169,0.04785914,0.8062078,1.379601,0.2516646,0.4759657,1.006896,0.2851134,298.4386,224.1849,359.7008,True
3,0.04444445,-0.4290611,-0.8048925,-0.1382378,-1.36814,-4.072803,2.992027,0.6274475,1.129772,0.4766624,-1.683657,-0.03341375,0.3,15.2,-0.3095411,0.1864445,-0.04081742,-0.7890488,-4.410152,0.2028024,0.6812246,1.316083,0.4140279,-0.1240828,0.1460892,-0.06439932,-1.034576,0.266979,0.04809642,0.8063555,1.379572,0.251899,0.4765872,1.007905,0.2815763,298.1574,223.2436,359.6143,True
3,0.05555556,-0.4397743,-0.7761931,-0.1448122,-1.367443,-4.064803,2.995618,0.6259836,1.129854,0.475965,-1.683691,-0.002711987,0,16.2,-0.2978112,0.1821896,-0.03986138,-0.7890531,-4.407472,0.2038479,0.6808052,1.316089,0.4139855,-0.1253215,0.1482541,-0.07822838,-1.035843,0.2690588,0.04846926,0.8064469,1.379469,0.252156,0.4773518,1.008942,0.2780758,297.8823,222.2858,359.5096,True
3,0.06666667,-0.4451458,-0.7549132,-0.1460028,-1.366936,-4.056712,2.999063,0.6246119,1.129919,0.4751244,-1.683829,-0.01247053,0,16.2,-0.2839428,0.1789882,-0.03785446,-0.7890685,-4.404878,0.2046703,0.6804751,1.316113,0.4138184,-0.1264147,0.1599813,-0.08137859,-1.036681,0.2716309,0.04855289,0.8065939,1.379394,0.2523813,0.4781027,1.009974,0.2747976,297.6193,221.3357,359.4729,True
3,0.07777778,-0.4526742,-0.7208886,-0.1536813,-1.365934,-4.049697,3.002833,0.623247,1.130029,0.4744842,-1.683836,-0.0004734353,0,16.2,-0.2712622,0.1705562,-0.05290728,-0.7898206,-4.402408,0.2054115,0.680086,1.316113,0.4137981,-0.131719,0.1589187,-0.07918482,-1.037401,0.2736927,0.04916195,0.806594,1.379362,0.2526541,0.4787314,1.010972,0.2718692,297.3727,220.4446,359.5016,True
3,0.08888889,-0.4506041,-0.6793656,-0.155038,-1.365035,-4.04286,3.00625,0.6218865,1.130235,0.4738019,-1.684097,-0.02371282,0,16.2,-0.2659486,0.1556685,-0.05729271,-0.7904118,-4.400441,0.2068408,0.6796174,1.31613,0.4137387,-0.1358459,0.1610257,-0.06846848,-1.037649,0.2758884,0.04972947,0.8066634,1.379235,0.2529504,0.4790742,1.011916,0.2693033,297.1601,219.6654,359.6035,True
3,0.1,-0.4496102,-0.6378292,-0.1553182,-1.3641,-4.036623,3.009863,0.6205099,1.130442,0.4731877,-1.684131,-0.002878501,0,16.2,-0.2637554,0.1481714,-0.04989114,-0.790439,-4.398453,0.2083202,0.6792367,1.316163,0.4137523,-0.136922,0.1620937,-0.06951404,-1.038336,0.2780632,0.05015132,0.8066375,1.379044,0.2532039,0.4791257,1.012809,0.2670822,296.9737,218.9982,359.7816,True
3,0.1111111,-0.4432989,-0.5984434,-0.1598475,-1.362936,-4.030677,3.013422,0.6192738,1.130551,0.4726546,-1.684609,-0.04359008,0,12.7,-0.255114,0.1417063,-0.0350736,-0.7900273,-4.396636,0.2095511,0.6787372,1.316131,0.4137666,-0.1316094,0.1620919,-0.07064676,-1.039064,0.2802037,0.05034946,0.8066874,1.378916,0.2534838,0.4789102,1.013682,0.2652078,296.8243,218.3883,0.009690794,True
3,0.1222222,-0.4466103,-0.5399373,-0.1676755,-1.361561,-4.025744,3.017507,0.6180246,1.130661,0.4722052,-1.684647,-0.003023195,0,12.7,-0.2389371,0.1437145,-0.008551786,-0.7888587,-4.394597,0.2101458,0.6783406,1.316162,0.4137404,-0.12533,0.1621095,-0.07925223,-1.040187,0.2823932,0.05046344,0.8067696,1.378792,0.2537494,0.4784693,1.01457,0.2636277,296.6958,217.8629,0.2612111,True
3,0.1333333,-0.4510171,-0.4675427,-0.1734815,-1.359814,-4.022494,3.021971,0.6169591,1.130811,0.4718184,-1.684793,-0.01339231,0,12.7,-0.2324873,0.1266453,-0.003358096,-0.7885284,-4.393473,0.2117133,0.6779441,1.316175,0.4137895,-0.1180244,0.1621346,-0.09106289,-1.041507,0.2846031,0.05043415,0.806838,1.378687,0.2540784,0.4778648,1.015492,0.2622797,296.5446,217.3797,0.5554448,True
3,0.1444445,-0.4543253,-0.4132251,-0.1727762,-1.35833,-4.019037,3.02648,0.6159576,1.130967,0.4714959,-1.684526,0.02456442,0,12.7,-0.2249734,0.1212898,0.002961043,-0.787975,-4.392034,0.2129165,0.6776468,1.316222,0.4137578,-0.1128034,0.1600133,-0.09857747,-1.042552,0.2865601,0.05061204,0.8070397,1.378653,0.2543969,0.4771987,1.016439,0.2611157,296.3475,216.8798,0.9112971,True
3,0.1555556,-0.4534431,-0.3173203,-0.1691565,-1.356596,-4.018528,3.031326,0.6150386,1.131151,0.4712293,-1.684509,0.001415953,0,12.7,-0.2163985,0.1159389,0.009261552,-0.7874509,-4.390591,0.2140257,0.6773071,1.31626,0.4137936,-0.103295,0.1472348,-0.104056,-1.043833,0.2880084,0.05070552,0.8070801,1.37851,0.2546251,0.4764639,1.017403,0.2600669,296.1488,216.3669,1.271219,True
3,0.1666667,-0.4482414,-0.2544785,-0.1685112,-1.354956,-4.017056,3.035899,0.6142544,1.13133,0.4710095,-1.684478,0.002872325,0,13.1,-0.2099629,0.1159191,0.01454116,-0.7868395,-4.388844,0.2148617,0.6770411,1.316213,0.4138184,-0.09702846,0.1376616,-0.1137278,-1.045117,0.2894042,0.05076731,0.8072417,1.378385,0.2548678,0.4756726,1.018411,0.2591413,295.9597,215.8674,1.634455,True
3,0.1777778,-0.4421063,-0.1234076,-0.165134,-1.352861,-4.019803,3.041248,0.6135288,1.13168,0.4709148,-1.684809,-0.0302824,0,13.1,-0.1981326,0.1062717,0.02825258,-0.785885,-4.387919,0.215989,0.6768146,1.316286,0.413909,-0.08115302,0.1302107,-0.121407,-1.046669,0.2908998,0.05041923,0.8072774,1.378276,0.2550972,0.474841,1.019489,0.2583161,295.774,215.4022,1.976287,True
3,0.1888889,-0.4399827,-0.04033037,-0.1650348,-1.350911,-4.02058,3.046383,0.6127709,1.131975,0.4707427,-1.684945,-0.01203939,0,13.1,-0.1755734,0.08913574,0.05037198,-0.784482,-4.387699,0.2169704,0.6766489,1.316378,0.4139924,-0.07582589,0.1280729,-0.1214611,-1.047733,0.2924953,0.05022935,0.8073992,1.378209,0.2553222,0.4738933,1.020661,0.2576088,295.565,214.9637,2.318563,True
3,0.2,-0.4402366,0.01081498,-0.1660356,-1.348749,-4.022996,3.051774,0.6120168,1.132393,0.4706337,-1.685091,-0.01333181,0,13.1,-0.1498798,0.06139455,0.06281804,-0.7834951,-4.388421,0.2182386,0.6766251,1.316466,0.4141569,-0.06735066,0.1173957,-0.1247638,-1.048846,0.2932754,0.05020858,0.8075974,1.378071,0.2555525,0.4728747,1.02193,0.2570575,295.3428,214.5215,2.692209,True
3,0.2111111,-0.4499543,0.07250288,-0.1770901,-1.346201,-4.025419,3.057721,0.6111342,1.132695,0.470489,-1.684899,0.01766943,0,12,-0.1370379,0.01771767,0.06463012,-0.7829971,-4.390355,0.2207377,0.6765941,1.31662,0.4143088,-0.05460066,0.0950167,-0.1260466,-1.050295,0.2937404,0.05016543,0.8076527,1.377973,0.2557244,0.4716142,1.023316,0.2566978,295.1161,214.0995,3.079041,True
3,0.2222222,-0.4553825,0.1181996,-0.189109,-1.343557,-4.027578,3.063523,0.6104263,1.133038,0.4704175,-1.684981,-0.007709373,0,12,-0.1327032,-0.01319102,0.06869248,-0.7824799,-4.392179,0.223224,0.6765606,1.316747,0.4144614,-0.03754345,0.06944805,-0.1241792,-1.051364,0.2940623,0.0498075,0.8072764,1.377811,0.2558987,0.4701369,1.024811,0.2565154,294.8654,213.7161,3.548317,True
3,0.2333333,-0.466136,0.1660595,-0.1979419,-1.340782,-4.030848,3.06982,0.6096923,1.133568,0.4702916,-1.684467,0.04710893,0,12,-0.1112396,-0.0494757,0.08539043,-0.7814268,-4.395061,0.2258883,0.6765681,1.316932,0.4146545,-0.0163659,0.04814554,-0.133024,-1.053149,0.29398,0.04936169,0.8072574,1.377677,0.2559965,0.4684212,1.026402,0.2564717,294.5908,213.3161,4.098826,True
3,0.2444444,-0.4694078,0.196813,-0.2130695,-1.337687,-4.033352,3.075683,0.6090728,1.1342,0.470125,-1.684546,-0.007626621,0,12,-0.09518312,-0.03248103,0.09813948,-0.779977,-4.395046,0.2264667,0.6765876,1.317124,0.4148295,-0.004627168,0.03748389,-0.1300018,-1.054444,0.2943685,0.049024,0.8071812,1.377501,0.2562089,0.4664895,1.028059,0.2565277,294.2821,212.8844,4.753368,True
3,0.2555556,-0.4737543,0.2318235,-0.2335408,-1.33414,-4.03707,3.082042,0.6083126,1.134996,0.4698765,-1.684388,0.01465369,0,12,-0.06957193,0.01116054,0.1098941,-0.7780084,-4.393408,0.2252233,0.6767789,1.317382,0.4149747,0.01567586,0.01721099,-0.1239175,-1.055665,0.293854,0.0483923,0.8071488,1.377393,0.2563255,0.4645148,1.02978,0.2567066,293.9833,212.4718,5.442137,True
3,0.2666667,-0.4887194,0.2421832,-0.2708868,-1.329757,-4.039587,3.088483,0.6075708,1.135712,0.4696336,-1.684699,-0.02847479,0,16.1,-0.05898435,0.04315628,0.1046528,-0.7768121,-4.391593,0.2242115,0.6770808,1.317736,0.4151435,0.02000795,-0.008357562,-0.1165796,-1.056765,0.2932214,0.04841334,0.8071129,1.377317,0.2565181,0.4625207,1.031582,0.2569407,293.7359,212.093,6.131016,True
3,0.2777778,-0.4983159,0.2345094,-0.3006569,-1.325301,-4.041774,3.094865,0.6066803,1.136516,0.4693098,-1.68458,0.0110869,0,16.1,-0.07062462,0.02818638,0.1131844,-0.7753463,-4.392335,0.2259138,0.6773612,1.318051,0.415262,0.02748509,-0.031808,-0.1135363,-1.057967,0.2919558,0.04848072,0.8071361,1.377246,0.256541,0.460589,1.033483,0.2571671,293.517,211.645,6.890189,True
3,0.2888889,-0.544068,0.1871821,-0.35464,-1.319843,-4.041879,3.102254,0.6053551,1.13734,0.4694846,-1.68427,0.02826662,0,16.1,-0.09564067,-0.05950833,0.1757682,-0.7722656,-4.398512,0.2322932,0.6777577,1.318398,0.4152634,0.04865563,-0.08400037,-0.12033,-1.059706,0.2890642,0.0487694,0.8072809,1.377143,0.2563758,0.4586353,1.035489,0.2572861,293.2931,211.043,7.753785,True
3,0.3,-0.57602,0.177377,-0.3758553,-1.314988,-4.043365,3.109996,0.6046116,1.137948,0.4691415,-1.684304,-0.003378724,0,16.1,-0.09216225,-0.1033413,0.2074758,-0.7696722,-4.402786,0.2361611,0.6779977,1.318539,0.4153533,0.08361019,-0.136196,-0.1326247,-1.061785,0.2855182,0.04844103,0.8073993,1.376974,0.256165,0.4567135,1.037577,0.2572789,293.0316,210.2445,8.770907,True
3,0.3111111,-0.615424,0.1600766,-0.4023425,-1.309707,-4.04454,3.118516,0.6031756,1.138802,0.469238,-1.682937,0.1252415,0,13.1,-0.08147219,-0.1746824,0.2027656,-0.7686048,-4.409648,0.2416411,0.6783735,1.318675,0.4154499,0.1099021,-0.1702464,-0.1575506,-1.064585,0.2822229,0.04788949,0.8074933,1.376805,0.2558899,0.4548452,1.039716,0.2571312,292.7511,209.2339,9.878558,True
3,0.3222222,-0.6580921,0.1790298,-0.4205513,-1.304296,-4.047141,3.127806,0.6023558,1.139577,0.4690862,-1.682983,-0.005180384,0,13.1,-0.06460337,-0.2139288,0.1736753,-0.7685094,-4.414984,0.2456819,0.6787452,1.318621,0.415484,0.1171333,-0.1840534,-0.1747231,-1.067163,0.2797166,0.04760454,0.8075256,1.376624,0.255775,0.4530652,1.041886,0.2568871,292.4737,208.053,11.0588,True
3,0.3333333,-0.6805221,0.2077404,-0.4217895,-1.299495,-4.050535,3.137092,0.6012927,1.140323,0.4690683,-1.682429,0.05106012,0,13.1,-0.04136661,-0.2201528,0.1457725,-0.7684456,-4.418781,0.2481014,0.6790378,1.318673,0.4155817,0.1160735,-0.1776607,-0.1746938,-1.069212,0.2778095,0.04725619,0.8075482,1.376476,0.255671,0.451353,1.044099,0.25652,292.197,206.9006,12.21686,True
3,0.3444445,-0.7051215,0.2523627,-0.42635,-1.294394,-4.05471,-3.136365,0.6006798,1.141046,0.468658,-1.682277,0.013668,0,13.1,-0.01822016,-0.2188676,0.1072564,-0.7690357,-4.421981,0.2498748,0.6793783,1.318741,0.4156892,0.1130034,-0.1638281,-0.1661042,-1.070884,0.27641,0.0467438,0.8076019,1.376446,0.2556758,0.4495912,1.046403,0.2560625,291.9708,205.6643,13.37163,True
3,0.3555556,-0.7201197,0.291719,-0.4308611,-1.289506,-4.059564,-3.126491,0.5996397,1.141823,0.4686041,-1.682811,-0.04864893,0,13.1,-0.02267262,-0.2336422,0.0795141,-0.769889,-4.42631,0.253366,0.6795487,1.318768,0.4157603,0.1067837,-0.1532016,-0.1532142,-1.072208,0.2749543,0.04646311,0.8075963,1.376295,0.2556086,0.4478041,1.048875,0.2556277,291.7353,204.4091,14.59639,True
3,0.3666667,-0.7329939,0.3364084,-0.4332795,-1.284656,-4.064972,-3.116527,0.5988665,1.142675,0.4684482,-1.682944,-0.0115558,0,10.7,-0.03226572,-0.2421664,0.0774078,-0.7698059,-4.43087,0.2573527,0.6798748,1.318803,0.415838,0.109,-0.1393951,-0.1468397,-1.074075,0.2733756,0.04603141,0.8076991,1.376195,0.2554913,0.44591,1.051549,0.2552605,291.4303,203.1913,15.86901,True
3,0.3777778,-0.7415841,0.3672481,-0.4388048,-1.279685,-4.070535,-3.106351,0.5978709,1.143488,0.4683945,-1.683261,-0.02875469,0,10.7,-0.04284088,-0.2156166,0.09147335,-0.7687156,-4.433494,0.2601126,0.6799781,1.318892,0.4158263,0.09946581,-0.1330206,-0.1445945,-1.076053,0.2716615,0.04579705,0.8078803,1.375985,0.2554467,0.4439209,1.054413,0.2549667,291.0842,201.8906,17.32579,True
3,0.3888889,-0.742746,0.4141199,-0.4369946,-1.27501,-4.077089,-3.09617,0.5970652,1.144318,0.4682465,-1.683601,-0.03065619,0,10.7,-0.04164857,-0.1624781,0.1162416,-0.7666016,-4.434126,0.2610276,0.6801689,1.3191,0.4158745,0.08987947,-0.1340805,-0.1444722,-1.077714,0.2699471,0.04591876,0.8078693,1.37584,0.2553575,0.4417782,1.057449,0.2547973,290.7175,200.4907,18.85095,True
3,0.4,-0.7449747,0.4620926,-0.4298624,-1.27075,-4.08427,-3.085682,0.5961689,1.145093,0.4682117,-1.683676,-0.006478309,0,10.7,-0.04470749,-0.1317041,0.1387961,-0.7643949,-4.435449,0.2625906,0.6802936,1.319225,0.4158466,0.09095574,-0.1255504,-0.1433838,-1.079099,0.2689826,0.04540077,0.8077518,1.375753,0.2551744,0.439512,1.060628,0.2548184,290.3376,199.0441,20.48454,True
3,0.4111111,-0.748257,0.5133145,-0.4163581,-1.266874,-4.092239,-3.074997,0.5951763,1.145951,0.4681907,-1.684139,-0.04219216,0,13.4,-0.05944327,-0.1073632,0.1667286,-0.7617967,-4.437137,0.2650567,0.6804899,1.319386,0.4157579,0.08981724,-0.1148546,-0.149719,-1.08073,0.2684381,0.04468092,0.8077105,1.375475,0.2551231,0.4370787,1.063898,0.2550175,289.9502,197.5479,22.23084,True
3,0.4222222,-0.7515438,0.5591878,-0.4038724,-1.263347,-4.100431,-3.064035,0.594274,1.146863,0.4682167,-1.684217,-0.006706955,0,13.4,-0.08384398,-0.09361979,0.1818943,-0.7595117,-4.439018,0.2681976,0.6805962,1.319544,0.4156873,0.0823812,-0.1084602,-0.1485417,-1.082366,0.2673697,0.04452299,0.8077645,1.375309,0.2550421,0.4345126,1.067216,0.2554048,289.5595,196.0927,24.02505,True
3,0.4333333,-0.7545304,0.6126516,-0.3939564,-1.259928,-4.108955,-3.05329,0.5933573,1.147671,0.4681938,-1.68438,-0.01475846,0,13.4,-0.1231999,-0.07560889,0.1939997,-0.7571804,-4.440354,0.2719862,0.6806978,1.319681,0.4156241,0.07577502,-0.1073379,-0.1654938,-1.084714,0.2663317,0.04437332,0.8079078,1.375201,0.2550337,0.4317951,1.070539,0.2559552,289.1815,194.7003,25.79329,True
3,0.4444444,-0.7559551,0.6391817,-0.3873598,-1.256622,-4.118176,-3.041908,0.5924974,1.148503,0.4681382,-1.684301,0.007380329,0,13.4,-0.1337869,-0.06608598,0.2047847,-0.7547483,-4.442014,0.2749924,0.6807644,1.319733,0.4154611,0.06820406,-0.1040871,-0.1739419,-1.08729,0.2656624,0.04422712,0.8082913,1.375126,0.2549992,0.4289175,1.073864,0.2566464,288.8412,193.423,27.48713,True
3,0.4555556,-0.7634784,0.6732974,-0.3811884,-1.253525,-4.127725,-3.03022,0.5915881,1.14931,0.4681106,-1.684706,-0.03704624,0,13.4,-0.1337721,-0.06503176,0.2069208,-0.7526461,-4.443909,0.2778726,0.6809149,1.319784,0.415442,0.05754322,-0.08276704,-0.1758839,-1.089319,0.2655631,0.04399489,0.8084397,1.374924,0.2550418,0.4259618,1.077203,0.257475,288.5256,192.217,29.17692,True
3,0.4666667,-0.7613927,0.6914117,-0.3802532,-1.250154,-4.136734,-3.018917,0.5907364,1.150084,0.4680967,-1.684417,0.02674115,0,9.1,-0.1338089,-0.07778493,0.2004581,-0.7511877,-4.446661,0.2813313,0.6810536,1.319826,0.4154527,0.06388943,-0.06466027,-0.179129,-1.091586,0.2654691,0.04335546,0.808625,1.374571,0.2550628,0.4229739,1.080542,0.2583885,288.2068,190.9579,30.96706,True
3,0.4777778,-0.7656796,0.7041935,-0.3792693,-1.247069,-4.146012,-3.007272,0.5898457,1.150871,0.4680433,-1.684271,0.01321972,0,9.1,-0.135039,-0.1202538,0.1725483,-0.7511547,-4.451097,0.2861114,0.6811994,1.319859,0.4154842,0.06377149,-0.05718476,-0.1897456,-1.093841,0.265004,0.04270032,0.8086519,1.374434,0.2550597,0.4199722,1.083887,0.2593325,287.9074,189.6672,32.79435,True
3,0.4888889,-0.7572013,0.7083645,-0.378373,-1.244196,-4.155011,-2.996008,0.5889599,1.151601,0.4680288,-1.684581,-0.02837925,0,9.1,-0.137401,-0.1743852,0.1339313,-0.7520048,-4.456412,0.2915954,0.6813619,1.319866,0.4154973,0.05941962,-0.05184008,-0.1971323,-1.096265,0.2645887,0.04239726,0.8088852,1.374297,0.2550282,0.4169913,1.087254,0.2602798,287.6204,188.3054,34.68294,True
3,0.5,-0.7550389,0.7084922,-0.3760812,-1.241441,-4.163921,-2.984988,0.5881176,1.152448,0.4679701,-1.68445,0.01217693,0,9.1,-0.1374919,-0.1849684,0.1200271,-0.7518306,-4.460148,0.2958468,0.6814744,1.319944,0.4155338,0.05829301,-0.04436864,-0.2024249,-1.098712,0.2644486,0.04184199,0.8091074,1.374134,0.2550137,0.4141222,1.090629,0.2612211,287.347,186.8138,36.68562,True
3,0.5111111,-0.7443635,0.6956958,-0.3813313,-1.238267,-4.17219,-2.974489,0.5873113,1.153292,0.4678216,-1.684805,-0.03248562,0,10.7,-0.1450131,-0.168966,0.1148385,-0.7511062,-4.462305,0.2993968,0.6815703,1.319974,0.415498,0.04877666,-0.03691765,-0.1969569,-1.100644,0.2643432,0.04168593,0.8093963,1.373987,0.2550015,0.4113537,1.094014,0.2621046,287.0865,185.2641,38.70922,True
3,0.5222223,-0.7326406,0.6935439,-0.3866617,-1.235022,-4.180761,-2.96409,0.5867304,1.154222,0.467838,-1.685113,-0.02784509,0,10.7,-0.1545505,-0.1498441,0.1235282,-0.7498066,-4.464355,0.3028624,0.6818035,1.320009,0.4155011,0.03921598,-0.03158391,-0.1946959,-1.102761,0.2643199,0.04166595,0.8096446,1.373788,0.2550423,0.4087252,1.097398,0.2629314,286.8353,183.6656,40.74678,True
3,0.5333334,-0.7209023,0.6796425,-0.3982971,-1.231571,-4.188992,-2.953799,0.5860343,1.155094,0.4676688,-1.685466,-0.03200395,0,10.7,-0.1692998,-0.1222983,0.150418,-0.7473613,-4.466053,0.3065794,0.6819642,1.320201,0.4153566,0.01898164,-0.02091698,-0.1944109,-1.104861,0.2645384,0.04212641,0.8099269,1.37361,0.255127,0.4062496,1.100773,0.2636857,286.617,182.0309,42.80818,True
3,0.5444446,-0.7134386,0.6721725,-0.3982639,-1.228573,-4.197091,-2.943413,0.5854688,1.155898,0.4675338,-1.685671,-0.01865583,0,10.7,-0.1745467,-0.1149106,0.1632763,-0.7456489,-4.468538,0.3105621,0.6822191,1.320402,0.4152896,0.0135559,-0.01448262,-0.2007386,-1.107555,0.2650213,0.04214399,0.8103777,1.373332,0.2551723,0.4039876,1.104103,0.2643775,286.4498,180.2819,44.95276,True
3,0.5555557,-0.7038136,0.6529898,-0.4024054,-1.225402,-4.204866,-2.933361,0.584797,1.156788,0.4673281,-1.685638,0.003111102,0,10.7,-0.1903809,-0.1097047,0.183662,-0.7433772,-4.471227,0.3151854,0.6824021,1.32057,0.4152718,0.01138811,-0.01235363,-0.2049499,-1.109708,0.2648611,0.04201936,0.8105114,1.37322,0.2552073,0.4019661,1.107369,0.2650575,286.331,178.4578,47.11647,True
3,0.5666668,-0.6931545,0.6338707,-0.405406,-1.222933,-4.213094,-2.92292,0.5840215,1.157885,0.46751,-1.685444,0.01764076,0,5.3,-0.1977752,-0.1023048,0.1933393,-0.7414262,-4.473585,0.3193466,0.6826113,1.320784,0.4152157,0.009191066,-0.01664451,-0.2091904,-1.112126,0.2640223,0.04248834,0.8106779,1.372885,0.2552502,0.4000477,1.110564,0.2656599,286.2313,176.5757,49.31511,True
3,0.577778,-0.6877626,0.5997438,-0.4126419,-1.219434,-4.219799,-2.913204,0.5833794,1.158791,0.4672825,-1.685606,-0.01498709,0,5.3,-0.2010324,-0.08736096,0.1870487,-0.7398272,-4.47501,0.3227272,0.6828324,1.320943,0.4151754,0.006991357,-0.02941307,-0.2134625,-1.114745,0.2633441,0.04282416,0.8111156,1.372596,0.2552602,0.3982084,1.113678,0.2661908,286.1454,174.77,51.42607,True
3,0.5888891,-0.6813066,0.5624528,-0.4187604,-1.216199,-4.226367,-2.903541,0.5827582,1.159664,0.4671273,-1.685349,0.02367751,0,5.3,-0.2010204,-0.0916291,0.188093,-0.7382016,-4.477702,0.3269352,0.6830281,1.320975,0.4152043,0.004965678,-0.03049939,-0.2049224,-1.116792,0.2630162,0.04299673,0.8115689,1.372548,0.2553442,0.3963838,1.116738,0.2666479,286.1236,173.0803,53.34196,True
3,0.6000003,-0.6823069,0.5294012,-0.4217394,-1.212713,-4.232441,-2.893797,0.5821246,1.160536,0.4669065,-1.685491,-0.01325165,0,5.3,-0.1946937,-0.09689908,0.1784304,-0.7370426,-4.480277,0.3307801,0.6832366,1.321092,0.4152048,-0.005684033,-0.02516242,-0.2047746,-1.119063,0.2630771,0.04341565,0.8118867,1.372345,0.2553661,0.3945513,1.119807,0.2671355,286.1272,171.5126,55.11156,True
3,0.6111114,-0.6736928,0.4847263,-0.4161106,-1.209535,-4.237875,-2.884643,0.5814812,1.161468,0.4666543,-1.685476,0.001414827,0,5.3,-0.1927322,-0.09789051,0.1560186,-0.7362676,-4.482672,0.3348049,0.6835423,1.321276,0.4153335,-0.02158649,-0.01664115,-0.1992242,-1.12112,0.2632858,0.04408437,0.8121506,1.372197,0.2554569,0.3927769,1.12286,0.2676311,286.136,169.8019,57.14297,True
3,0.6222225,-0.6587105,0.445389,-0.4073304,-1.206484,-4.242914,-2.875815,0.5808361,1.162421,0.4664249,-1.685192,0.02591941,0,6,-0.1863981,-0.08077231,0.150753,-0.7351864,-4.483592,0.3372507,0.6837642,1.321396,0.4153733,-0.02456263,-0.01454763,-0.1821345,-1.122624,0.2632565,0.04443032,0.8123386,1.372126,0.2555463,0.3911206,1.12586,0.2681072,286.1475,168.0394,59.24427,True
3,0.6333337,-0.6437036,0.4093348,-0.3868634,-1.203892,-4.247481,-2.867497,0.5801032,1.163504,0.4660573,-1.685501,-0.02849536,0,6,-0.1652515,-0.009312481,0.1381866,-0.7333062,-4.480945,0.3363935,0.6840559,1.32148,0.4152975,-0.01797879,-0.02737574,-0.1662691,-1.123989,0.262542,0.04473631,0.8126122,1.371977,0.2555804,0.3895798,1.128798,0.268491,286.1821,166.357,61.24252,True
3,0.6444448,-0.6276646,0.3828014,-0.3760385,-1.201225,-4.25221,-2.859318,0.5794495,1.164672,0.4656863,-1.685682,-0.01639157,0,6,-0.1609778,0.01090577,0.1425216,-0.7314521,-4.480984,0.3380952,0.68443,1.321602,0.4153733,-0.01034038,-0.04019507,-0.1514827,-1.125258,0.2617448,0.0448985,0.8130032,1.371773,0.2556713,0.3881772,1.131677,0.2687408,286.2341,164.7941,63.06619,True
3,0.655556,-0.616904,0.3371088,-0.3618959,-1.198481,-4.255522,-2.851606,0.5786146,1.165829,0.465183,-1.685966,-0.02591119,0,6,-0.1671131,0.01497841,0.1777444,-0.7283841,-4.482093,0.3409866,0.6848707,1.321746,0.4153666,0.0100451,-0.05941855,-0.1390052,-1.12643,0.2603115,0.04470728,0.8132935,1.371615,0.2556164,0.3868984,1.134509,0.268826,286.3016,163.3403,64.7168,True
3,0.6666671,-0.6178878,0.3084942,-0.3404032,-1.196191,-4.259301,-2.843299,0.5778532,1.167011,0.4646282,-1.686089,-0.01105648,0,6.2,-0.1818071,-0.001165286,0.2054647,-0.7256289,-4.484758,0.3455119,0.6854817,1.321863,0.4152958,0.01959564,-0.07007968,-0.1412835,-1.128186,0.2591108,0.04472513,0.8136078,1.371447,0.2556367,0.3856902,1.13733,0.2687082,286.3812,162.0029,66.20129,True
3,0.6777782,-0.6220841,0.2840898,-0.3242583,-1.19399,-4.262638,-2.835014,0.5770024,1.168246,0.4640725,-1.68594,0.01357406,0,6.2,-0.1872249,-0.01281682,0.191595,-0.7242408,-4.486368,0.3489889,0.6860027,1.322043,0.415313,0.03652863,-0.1201488,-0.1469482,-1.130132,0.2558185,0.04516269,0.813832,1.371294,0.2555358,0.3845569,1.140151,0.2684211,286.4869,160.6483,67.66695,True
3,0.6888894,-0.6294951,0.2714507,-0.3017938,-1.192356,-4.266355,-2.826327,0.5761421,1.169693,0.4634295,-1.685399,0.04923594,0,6.2,-0.2043274,-0.04047133,0.1798642,-0.7232459,-4.489106,0.3538766,0.686541,1.322264,0.4154918,0.04914103,-0.157421,-0.1578553,-1.132384,0.2526773,0.04560424,0.8141723,1.371108,0.2555122,0.3834685,1.142968,0.2679391,286.5935,159.2408,69.15495,True
3,0.7000005,-0.6443952,0.2704726,-0.2868589,-1.190709,-4.270669,-2.817031,0.5753445,1.171144,0.4626114,-1.685149,0.02240861,0,6.2,-0.2032728,-0.04578566,0.1776982,-0.7216905,-4.491102,0.3576138,0.6870797,1.322459,0.4155467,0.06176293,-0.1765831,-0.1687173,-1.134693,0.2500194,0.04577255,0.8145405,1.370885,0.2553301,0.3824195,1.1458,0.2672916,286.7045,157.8897,70.54436,True
3,0.7111117,-0.6741643,0.2416413,-0.2877089,-1.188257,-4.273527,-2.80747,0.5743781,1.172745,0.4617453,-1.684853,0.02687816,0,6.2,-0.2021594,-0.1107586,0.1741656,-0.7210535,-4.496996,0.3640107,0.6877836,1.322851,0.4154105,0.07438782,-0.2021344,-0.1795949,-1.137201,0.2466784,0.04592967,0.8148521,1.370736,0.2551754,0.3813846,1.148698,0.2665112,286.8253,156.6552,71.77351,True
3,0.7222228,-0.726346,0.230807,-0.2982442,-1.185609,-4.277124,-2.79654,0.5735559,1.17414,0.4609561,-1.684463,0.03547836,0,5,-0.2104894,-0.1598787,0.1942216,-0.7195105,-4.503449,0.3715384,0.6885312,1.323026,0.4152997,0.08179158,-0.2170458,-0.1829174,-1.139391,0.2435883,0.04606656,0.8152628,1.370521,0.2550552,0.3803111,1.15176,0.2656278,286.9455,155.547,72.87835,True
3,0.7333339,-0.8030617,0.2305348,-0.3152228,-1.182679,-4.281147,-2.783724,0.572603,1.175505,0.4602859,-1.6837,0.06950048,0,5,-0.2428825,-0.2082576,0.2730463,-0.7157581,-4.512276,0.3819881,0.6890533,1.323314,0.4152079,0.08500341,-0.2234411,-0.1818914,-1.141264,0.2407474,0.0461169,0.8156092,1.370531,0.2549007,0.3791933,1.155051,0.2646746,287.0798,154.3311,74.14435,True
3,0.7444451,-0.86061,0.230343,-0.3332441,-1.180043,-4.285737,-2.77077,0.5716637,1.177019,0.4599621,-1.6827,0.09093569,0,5,-0.2512172,-0.1934887,0.2998199,-0.7125288,-4.516584,0.3881571,0.6894927,1.32349,0.4152303,0.08201377,-0.208566,-0.1668999,-1.142647,0.2388086,0.04611823,0.8157805,1.370373,0.2547905,0.3781036,1.158576,0.2636565,287.2517,152.8438,75.70121,True
3,0.7555562,-0.9351718,0.2259274,-0.3331515,-1.177541,-4.289568,-2.75649,0.5706059,1.178379,0.459466,-1.681183,0.1382081,0,5,-0.2468302,-0.1435376,0.3234837,-0.7084557,-4.519081,0.3926519,0.6897597,1.323668,0.4150515,0.07401802,-0.1809584,-0.1273107,-1.142709,0.2376473,0.04607562,0.8159533,1.370238,0.2546785,0.377131,1.162305,0.2626415,287.4719,150.9894,77.58418,True
3,0.7666674,-0.9767306,0.2269643,-0.3298782,-1.175627,-4.293846,-2.742818,0.5695431,1.179933,0.458936,-1.681525,-0.03201693,0,5.5,-0.2383925,-0.08491406,0.3194664,-0.7050074,-4.519421,0.3952078,0.6900324,1.32389,0.4149528,0.06687286,-0.1629145,-0.1037353,-1.143204,0.2361021,0.04623727,0.8159851,1.370196,0.2546234,0.3762269,1.166288,0.2616711,287.7477,149.0093,79.50379,True
3,0.7777785,-1.027851,0.222633,-0.3244783,-1.173434,-4.297616,-2.728127,0.5683638,1.181403,0.4585695,-1.680453,0.09878277,0,5.5,-0.2194809,-0.008062117,0.2941561,-0.701833,-4.517016,0.3951825,0.6901125,1.324047,0.4148011,0.06370312,-0.1458719,-0.1026164,-1.144793,0.2349666,0.04611423,0.8159361,1.370203,0.2544866,0.3753959,1.170568,0.2608708,288.0348,146.8885,81.53794,True
3,0.7888896,-1.079016,0.2332802,-0.3127089,-1.172384,-4.302047,-2.712882,0.5671778,1.183012,0.4581909,-1.681606,-0.10599,0,5.5,-0.1940925,0.03892575,0.2761015,-0.6988912,-4.515929,0.3956507,0.6903365,1.324262,0.414675,0.05612651,-0.1383881,-0.1121326,-1.147068,0.2336044,0.04633234,0.8159094,1.369814,0.2545466,0.3745323,1.175191,0.2601582,288.2843,144.6753,83.76955,True
3,0.8000008,-1.096073,0.2471948,-0.3010647,-1.170962,-4.306728,-2.698574,0.5659953,1.184259,0.4575524,-1.681023,0.05469759,0,5.5,-0.1931416,0.04431783,0.2612171,-0.6963713,-4.516936,0.3985642,0.6904532,1.324638,0.4145195,0.04746041,-0.1202457,-0.1247814,-1.149209,0.2328309,0.04635711,0.8160126,1.369672,0.2544594,0.3736686,1.180132,0.2595114,288.5446,142.2827,86.2459,True
3,0.8111119,-1.113166,0.2684308,-0.3065153,-1.169317,-4.312031,-2.683542,0.5648242,1.185802,0.4571474,-1.681119,-0.009102568,0,5.5,-0.2100833,0.01974411,0.2718689,-0.6935186,-4.519836,0.4036718,0.6905473,1.324961,0.4143784,0.03460702,-0.109569,-0.129951,-1.151314,0.2319801,0.0468719,0.8162068,1.369449,0.2544379,0.372833,1.185312,0.2589101,288.8391,139.7724,88.83303,True
3,0.8222231,-1.126056,0.3142353,-0.3046292,-1.168834,-4.318566,-2.667987,0.5638603,1.187554,0.4570067,-1.682617,-0.1364525,0,5.9,-0.2258828,0.01641014,0.2954125,-0.6896341,-4.522308,0.4085917,0.6907172,1.325234,0.414243,0.02493954,-0.09996954,-0.1362539,-1.153872,0.231016,0.04737364,0.816551,1.369416,0.2543015,0.3720066,1.190711,0.2583196,289.1434,137.1549,91.55556,True
3,0.8333342,-1.132544,0.3664904,-0.2943129,-1.168837,-4.325634,-2.652338,0.5627373,1.189147,0.4566386,-1.682653,-0.001885624,0,5.9,-0.2382213,0.03099088,0.3573695,-0.6837543,-4.525017,0.4138355,0.6908101,1.325588,0.4139764,0.01761277,-0.0754826,-0.1275771,-1.155032,0.2310797,0.04741572,0.8166803,1.369253,0.2542315,0.3712507,1.196145,0.2577506,289.5321,134.3638,94.48335,True
3,0.8444453,-1.136872,0.4049197,-0.2870748,-1.169104,-4.332882,-2.636722,0.5617347,1.190769,0.4560924,-1.682889,-0.02143058,0,5.9,-0.2422577,0.0478631,0.3883898,-0.6784632,-4.526947,0.4179759,0.6909354,1.325856,0.4136636,0.02311184,-0.06380145,-0.1148655,-1.156336,0.2306934,0.04708602,0.8169626,1.369066,0.2541356,0.3705665,1.20152,0.2572637,289.986,131.9812,96.90349,True
3,0.8555565,-1.140188,0.4721375,-0.2704675,-1.170641,-4.341417,-2.620535,0.5606064,1.192341,0.4557321,-1.68329,-0.03632051,0,5.9,-0.26446,0.04559402,0.4109153,-0.6733835,-4.529767,0.4238599,0.6909404,1.32623,0.4134197,0.01997422,-0.05954815,-0.1105534,-1.157437,0.2301562,0.04717923,0.8171046,1.36892,0.2540615,0.3698936,1.206892,0.2569595,290.4264,129.9625,98.91851,True
3,0.8666676,-1.143479,0.5308862,-0.2484629,-1.172791,-4.349904,-2.604387,0.5595191,1.193994,0.4552824,-1.683651,-0.0325705,0,5.9,-0.2728974,0.04766089,0.4227219,-0.6684321,-4.532398,0.4292917,0.6909782,1.326535,0.41312,0.008130468,-0.04779876,-0.1200015,-1.159687,0.2300861,0.04768896,0.817259,1.368876,0.2539306,0.3690729,1.212333,0.256802,290.8428,127.9823,101.0155,True
3,0.8777788,-1.14568,0.5714324,-0.2380737,-1.17483,-4.358453,-2.58819,0.5583944,1.195596,0.4549172,-1.683786,-0.0118648,0,3.2,-0.282524,0.06364718,0.4196804,-0.663729,-4.533689,0.4338066,0.6909439,1.326867,0.4128838,-0.005765259,-0.02860428,-0.1251127,-1.161389,0.2304045,0.0480088,0.8173645,1.368767,0.2538652,0.3681032,1.217831,0.2567684,291.2545,126.0676,103.1509,True
3,0.8888899,-1.140461,0.6387078,-0.2172066,-1.178284,-4.368118,-2.571982,0.5574484,1.197092,0.4545577,-1.683954,-0.0152421,0,3.2,-0.3030362,0.07978697,0.3858339,-0.6601492,-4.53364,0.4378524,0.6908478,1.327311,0.4124651,-0.01424704,-0.02221442,-0.1217947,-1.162654,0.2304078,0.04851986,0.8176448,1.368806,0.2537816,0.3669639,1.223401,0.2568909,291.6475,124.2224,105.2349,True
3,0.900001,-1.134107,0.6600631,-0.2120217,-1.180742,-4.376643,-2.556236,0.556294,1.198867,0.4541733,-1.684063,-0.009724716,0,3.2,-0.3212345,0.05108403,0.3677197,-0.6571382,-4.537091,0.4445434,0.6907299,1.327633,0.4122372,-0.0216373,-0.01050394,-0.1174201,-1.163949,0.2307281,0.048873,0.8177168,1.36874,0.2537246,0.3657088,1.229043,0.2571882,292.0207,122.4713,107.2924,True
3,0.9111122,-1.123471,0.6686069,-0.2120882,-1.183122,-4.385007,-2.54094,0.5550246,1.200652,0.4537816,-1.684571,-0.04627664,0,3.2,-0.342367,0.04455477,0.3902154,-0.6524894,-4.540339,0.451618,0.6905456,1.328017,0.4119737,-0.03120252,0.001213565,-0.1162187,-1.165412,0.2311363,0.04938965,0.817752,1.36861,0.2536676,0.3644402,1.234712,0.2576847,292.4105,120.7919,109.324,True
3,0.9222233,-1.118108,0.6472626,-0.2215314,-1.184601,-4.392481,-2.525882,0.553853,1.202416,0.4534431,-1.684697,-0.01106573,0,3.2,-0.345391,0.05508345,0.4094892,-0.6472701,-4.542958,0.4571588,0.6903947,1.328364,0.4116814,-0.03972175,0.01720766,-0.1171344,-1.166693,0.2320552,0.04969432,0.8177371,1.368436,0.2536304,0.3632029,1.240406,0.2583877,292.79,119.156,111.3572,True
3,0.9333345,-1.111677,0.6227111,-0.2309647,-1.185876,-4.39965,-2.510993,0.552538,1.204234,0.4530027,-1.685101,-0.0369256,0,3.2,-0.3590447,0.06770892,0.4373558,-0.6415054,-4.545511,0.4636433,0.6900535,1.328814,0.4112844,-0.04402331,0.03320111,-0.1213014,-1.168136,0.2331105,0.04990071,0.8178031,1.368337,0.2535863,0.3619488,1.246157,0.2591597,293.2054,117.6095,113.3356,True
3,0.9444456,-1.111627,0.5981483,-0.2393405,-1.186964,-4.406589,-2.49607,0.5512784,1.205993,0.4525807,-1.685037,0.00611862,0,3.2,-0.3759798,0.08572158,0.4546259,-0.6358377,-4.547418,0.469935,0.6897482,1.329295,0.4107993,-0.04931457,0.05237748,-0.1201071,-1.169153,0.2343795,0.05001896,0.817788,1.368157,0.2535908,0.3607283,1.251902,0.2599289,293.6705,116.0872,115.2913,True
3,0.9555568,-1.108428,0.5830591,-0.2669429,-1.187444,-4.414219,-2.480971,0.5499364,1.207865,0.4521737,-1.68506,-0.002188592,0,3.2,-0.3758322,0.105846,0.4771013,-0.6296113,-4.549297,0.4756539,0.68941,1.329717,0.4103932,-0.05460338,0.06409483,-0.1178799,-1.170326,0.2356286,0.05031004,0.8178103,1.368043,0.2535841,0.3596413,1.257532,0.2606305,294.178,114.6494,117.1474,True
3,0.9666679,-1.105251,0.5807486,-0.2946249,-1.188195,-4.422376,-2.465816,0.5486223,1.209844,0.4518924,-1.684935,0.01150343,0,3.2,-0.3896652,0.1483994,0.4859539,-0.62316,-4.549178,0.480361,0.6889567,1.330233,0.4098773,-0.07156177,0.09285504,-0.1133161,-1.171098,0.2376906,0.05077396,0.8177423,1.367932,0.2535596,0.3586627,1.263024,0.2611474,294.7169,113.3175,118.8399,True
3,0.977779,-1.098903,0.6031657,-0.2905228,-1.190479,-4.430845,-2.450545,0.5473661,1.211839,0.4515553,-1.685001,-0.006102428,0,3.3,-0.3852383,0.1823548,0.5127304,-0.6157883,-4.549587,0.4848487,0.6885089,1.330699,0.4095163,-0.09703915,0.1003172,-0.1065685,-1.171835,0.2391614,0.05208664,0.8176727,1.367853,0.2536798,0.3578098,1.268348,0.2614487,295.2946,112.1565,120.2745,True
3,0.9888902,-1.092518,0.6096055,-0.286287,-1.192861,-4.438669,-2.435779,0.5459894,1.21398,0.4514437,-1.685141,-0.01282299,0,3.3,-0.3862111,0.2610509,0.537648,-0.6072338,-4.546761,0.4869446,0.6879741,1.331255,0.409199,-0.0969476,0.09603764,-0.09912246,-1.17264,0.2402169,0.05275136,0.8176295,1.367745,0.2537661,0.3570119,1.273557,0.2615502,295.9286,111.2552,121.3268,True
3,1.000001,-1.077584,0.6171942,-0.2735822,-1.195416,-4.446342,-2.421791,0.5446727,1.216483,0.4510381,-1.685134,0.0007681285,0,3.3,-0.4075194,0.2024859,0.5279223,-0.6022115,-4.550888,0.4953663,0.6877598,1.331848,0.4087567,-0.07947341,0.09593664,-0.0652408,-1.17202,0.2412897,0.05268319,0.8175807,1.367731,0.253942,0.3562253,1.278738,0.261584,296.5425,110.5246,122.1065,True
3,1.011112,-1.072243,0.610827,-0.271415,-1.197618,-4.453649,-2.407509,0.543203,1.218888,0.4504776,-1.685358,-0.0204183,0,3.3,-0.4372436,0.1214775,0.5309203,-0.5975952,-4.557894,0.5068544,0.6874179,1.332423,0.4083762,-0.06558483,0.1118995,-0.06324824,-1.172544,0.2431872,0.05222512,0.8175699,1.367681,0.2539961,0.3554071,1.284016,0.2616921,297.0888,109.7984,122.8679,True
3,1.022224,-1.074369,0.6087384,-0.2724134,-1.200238,-4.461346,-2.392766,0.5418326,1.221205,0.4502027,-1.686027,-0.06107,0,3.5,-0.4752041,0.0306839,0.5712175,-0.5921597,-4.568414,0.522036,0.6870464,1.333001,0.4079483,-0.06906749,0.1226106,-0.08660951,-1.174082,0.2450699,0.05233298,0.8175195,1.36764,0.2540174,0.354535,1.289487,0.2619611,297.588,109.0625,123.7073,True
3,1.033335,-1.093602,0.6245065,-0.2991304,-1.202258,-4.470167,-2.376882,0.5404009,1.223491,0.4497414,-1.685564,0.04272345,0,3.5,-0.492924,-0.01750992,0.6169096,-0.5859002,-4.57871,0.5365931,0.686548,1.33375,0.4074674,-0.08985982,0.1376419,-0.1299742,-1.176659,0.2472854,0.05328666,0.8174719,1.36747,0.2539835,0.3535743,1.295236,0.2623495,298.0865,108.2803,124.7489,True
3,1.044446,-1.107466,0.6318755,-0.3119108,-1.204753,-4.478587,-2.361354,0.5389612,1.225929,0.4492314,-1.685098,0.04215906,0,3.5,-0.5193259,-0.005982965,0.649121,-0.5787172,-4.585279,0.5485108,0.6859821,1.334432,0.4068496,-0.1135478,0.1451731,-0.1498762,-1.178509,0.2494378,0.05450132,0.8173113,1.367268,0.2539971,0.352598,1.301163,0.2628385,298.6542,107.4027,125.9612,True
3,1.055557,-1.120221,0.6050482,-0.3383552,-1.205616,-4.486467,-2.345686,0.5375544,1.228288,0.4488106,-1.684299,0.07275382,0,3.5,-0.5489998,0.04817227,0.6773225,-0.5702637,-4.589786,0.5594508,0.6853157,1.335199,0.4062505,-0.1510137,0.1484323,-0.1643015,-1.180646,0.2514409,0.05663105,0.8172019,1.367156,0.2540503,0.3517087,1.30714,0.2634839,299.2956,106.5053,127.191,True
3,1.066668,-1.12545,0.5516661,-0.3561323,-1.205541,-4.493269,-2.330581,0.5360542,1.230769,0.4482002,-1.684461,-0.01537746,0,3.5,-0.5530789,0.114053,0.7085953,-0.5611046,-4.593019,0.5683239,0.6846416,1.335944,0.4058177,-0.1691554,0.1548484,-0.1672426,-1.182339,0.2536642,0.05819806,0.8171204,1.36706,0.2541339,0.3508359,1.313194,0.2642206,299.9818,105.7011,128.3607,True
3,1.077779,-1.127488,0.5026388,-0.3590067,-1.205631,-4.499335,-2.315705,0.5345048,1.233357,0.4477742,-1.684225,0.02187143,0,3.9,-0.5348688,0.1576487,0.7278612,-0.5519247,-4.596816,0.5769443,0.6839751,1.336603,0.4052978,-0.1776707,0.1623124,-0.1671156,-1.184082,0.2560304,0.05960474,0.816991,1.36691,0.2543049,0.3500151,1.319302,0.265012,300.6579,104.9353,129.5262,True
3,1.08889,-1.116678,0.4215777,-0.3787371,-1.203821,-4.504592,-2.301877,0.5328827,1.235982,0.4471409,-1.684448,-0.02065936,0,3.9,-0.5318651,0.1609736,0.7033514,-0.5451672,-4.601363,0.5866246,0.6833561,1.337223,0.4046845,-0.1850541,0.1793618,-0.162708,-1.185433,0.2590549,0.06068945,0.8167143,1.366839,0.2544279,0.3493463,1.325332,0.2657804,301.368,104.2323,130.6752,True
3,1.100002,-1.103748,0.3383622,-0.4016592,-1.201004,-4.509553,-2.288222,0.5313469,1.238637,0.4465964,-1.684516,-0.006053982,0,3.9,-0.5595647,0.1258271,0.6980487,-0.5388134,-4.609327,0.6006904,0.6827283,1.337978,0.4042022,-0.1911477,0.1931612,-0.1402199,-1.186014,0.2619343,0.06195471,0.8164647,1.366778,0.2545605,0.3488318,1.331248,0.2663396,302.0869,103.5869,131.7212,True
3,1.111113,-1.09722,0.260482,-0.4214005,-1.197788,-4.51406,-2.274646,0.5297716,1.241348,0.4461493,-1.685323,-0.07362704,0,3.9,-0.5698643,0.06275851,0.7372185,-0.5317571,-4.622336,0.6185386,0.682019,1.338736,0.403681,-0.1919017,0.1952437,-0.1156866,-1.186117,0.2645016,0.06315234,0.8162017,1.366653,0.2545815,0.348479,1.337018,0.2665915,302.8083,102.9897,132.6121,True
3,1.122224,-1.091821,0.2188325,-0.4381913,-1.195231,-4.519294,-2.26084,0.5284173,1.244158,0.4457381,-1.685471,-0.0129567,0,4.1,-0.576148,0.02861577,0.7466859,-0.5251088,-4.633534,0.6347695,0.6813697,1.339497,0.403151,-0.2014779,0.1931185,-0.1144892,-1.187088,0.2667828,0.06483758,0.8159703,1.366528,0.2546418,0.3483029,1.342529,0.2664433,303.5961,102.5082,133.3098,True
3,1.133335,-1.076866,0.1889218,-0.4550555,-1.192404,-4.524629,-2.24744,0.5269244,1.246778,0.4452696,-1.685358,0.0104066,0,4.1,-0.5813376,0.002966344,0.7615066,-0.5185094,-4.645803,0.6520188,0.6806462,1.340321,0.402549,-0.2110784,0.1931291,-0.1154318,-1.188264,0.269191,0.06661019,0.815768,1.366473,0.2546947,0.3483096,1.347679,0.2658915,304.4113,102.2051,133.6683,True
3,1.144446,-1.064132,0.2091013,-0.467988,-1.191379,-4.53152,-2.233456,0.5256844,1.249487,0.4449606,-1.685343,0.00116327,0,4.1,-0.5597774,0.02836388,0.7998328,-0.5095586,-4.656412,0.6668262,0.6800153,1.341162,0.4018104,-0.2357156,0.2070231,-0.1267964,-1.189821,0.2722651,0.06892767,0.8155808,1.366479,0.25472,0.3484346,1.352518,0.2649909,305.1842,102.0662,133.682,True
3,1.155557,-1.046119,0.2570458,-0.4725796,-1.191599,-4.539149,-2.219647,0.524329,1.251941,0.4446273,-1.685746,-0.03682444,0,4.1,-0.5629632,0.083711,0.8086662,-0.5005597,-4.663837,0.6797016,0.6791749,1.341944,0.4011242,-0.2465174,0.2230427,-0.1394037,-1.19159,0.2756851,0.07079162,0.8152857,1.366418,0.2547901,0.3486195,1.35718,0.2638915,305.9256,102.0477,133.4866,True
3,1.166668,-1.018505,0.3061615,-0.4643986,-1.192731,-4.546579,-2.206545,0.5230782,1.254492,0.4444022,-1.685712,0.003374367,0,4.1,-0.5597513,0.1230954,0.8163064,-0.4916866,-4.671769,0.6928679,0.6784289,1.342821,0.4003835,-0.2486668,0.232642,-0.1414672,-1.192801,0.2789589,0.0723248,0.8150299,1.366436,0.2548802,0.3487999,1.361745,0.2627707,306.6826,102.0602,133.2268,True
3,1.17778,-1.001502,0.3372055,-0.446507,-1.19408,-4.553445,-2.193484,0.5217722,1.256984,0.4440808,-1.686056,-0.03159626,0,3.9,-0.552382,0.1476485,0.8078554,-0.4833803,-4.679461,0.7055281,0.6776109,1.343605,0.3997123,-0.2399853,0.2443244,-0.1298302,-1.193598,0.2824298,0.07340205,0.8146861,1.366388,0.2549953,0.3489009,1.366375,0.2618771,307.417,102.0888,132.9589,True
3,1.188891,-0.9780967,0.3725891,-0.4169406,-1.196204,-4.559849,-2.18109,0.5204305,1.259525,0.4436898,-1.686587,-0.0483007,0,3.9,-0.5662725,0.1189136,0.8003476,-0.4767516,-4.691543,0.7231137,0.676926,1.344414,0.3989818,-0.2279941,0.2357427,-0.1076141,-1.193597,0.2849569,0.07461112,0.8143077,1.366368,0.2549713,0.3488583,1.371164,0.2614381,308.1316,102.0078,132.9085,True
3,1.200002,-0.9642659,0.3940393,-0.3968616,-1.198078,-4.566234,-2.168479,0.5192871,1.262001,0.4433248,-1.686297,0.0268106,0,3.9,-0.5716655,0.05295485,0.7830017,-0.4717241,-4.706188,0.7426608,0.6762004,1.345242,0.3983335,-0.2171936,0.2325122,-0.09604072,-1.194121,0.2877165,0.07562632,0.8139224,1.366342,0.2550259,0.3486571,1.37615,0.2615725,308.7747,101.7996,133.1772,True
3,1.211113,-0.9525559,0.4037189,-0.386283,-1.199877,-4.572586,-2.156095,0.5181047,1.264256,0.4430294,-1.686564,-0.02485873,0,3.9,-0.5866333,-0.003438681,0.7679099,-0.467209,1.5618,0.7631624,0.6754555,1.34603,0.3976667,-0.2172254,0.234647,-0.09816256,-1.195043,0.2906693,0.07702447,0.8135512,1.366365,0.2550006,0.3482921,1.38134,0.262209,309.347,101.4704,133.7979,True
3,1.222224,-0.9482919,0.4101467,-0.3820663,-1.201567,-4.578956,-2.143599,0.5169119,1.266443,0.4428151,-1.68619,0.03436268,0,3.9,-0.5641168,-0.0003029704,0.7753208,-0.460158,1.547107,0.7813733,0.6747577,1.346967,0.3972585,-0.2162176,0.2367887,-0.1024222,-1.195988,0.2936561,0.07832783,0.8131399,1.366317,0.2550757,0.3478235,1.386672,0.263209,309.8594,101.0653,134.6703,True
3,1.233335,-0.9418899,0.4069909,-0.3777906,-1.203098,-4.585122,-2.131166,0.5157685,1.268408,0.4426081,-1.686186,-0.000121091,0,3.6,-0.5109742,0.02431911,0.7622622,-0.4537249,1.5362,0.7948665,0.6739714,1.347668,0.3966875,-0.2205685,0.2432024,-0.1098083,-1.197202,0.2968707,0.07972013,0.81276,1.366243,0.2551091,0.347401,1.391967,0.264437,310.3667,100.6786,135.6256,True
3,1.244446,-0.937621,0.4113102,-0.3703735,-1.20502,-4.591292,-2.118822,0.5147116,1.270528,0.442446,-1.685936,0.02277562,0,3.6,-0.4749648,0.03087316,0.73224,-0.4482052,1.524579,0.8093858,0.6730825,1.348334,0.39605,-0.2271643,0.2475133,-0.1256862,-1.198786,0.3001736,0.08127142,0.812439,1.366208,0.2552531,0.3471132,1.397072,0.2657482,310.9272,100.296,136.5569,True
3,1.255558,-0.9216377,0.4135271,-0.3618806,-1.207065,-4.597192,-2.1072,0.5136068,1.272518,0.4422567,-1.685768,0.01508475,0,3.6,-0.4592189,0.054473,0.7034812,-0.442595,1.515344,0.8222121,0.6723284,1.348921,0.3954861,-0.236903,0.2454195,-0.137286,-1.200475,0.3031359,0.08311859,0.8120085,1.366127,0.2553258,0.3469706,1.401922,0.2670011,311.5219,99.93332,137.394,True
3,1.266669,-0.8939056,0.4040684,-0.3511923,-1.208869,-4.602692,-2.096354,0.5124387,1.274604,0.4420123,-1.685731,0.003135212,0,3.6,-0.4487125,0.05137917,0.6842273,-0.4374562,1.503612,0.8375298,0.67154,1.349478,0.394845,-0.2293907,0.2400767,-0.1320669,-1.201501,0.3059527,0.08447041,0.8115919,1.366091,0.2553415,0.3469682,1.406493,0.2680778,312.1055,99.62561,138.0872,True
3,1.27778,-0.8736507,0.4020558,-0.3384132,-1.210982,-4.608062,-2.085472,0.5113696,1.276761,0.4417372,-1.686237,-0.04627017,0,3.5,-0.4465436,0.003459737,0.6818314,-0.4337437,1.488028,0.8564627,0.6709074,1.350062,0.3943408,-0.217485,0.2368345,-0.1173121,-1.202068,0.3087176,0.08546723,0.8111378,1.366056,0.2553933,0.3470537,1.410907,0.2688922,312.6569,99.39795,138.5982,True
3,1.288891,-0.8448443,0.3894542,-0.3181164,-1.212963,-4.612655,-2.075493,0.5104171,1.278626,0.4414511,-1.686762,-0.04774002,0,3.5,-0.4465046,-0.01466013,0.6859965,-0.4292233,1.472719,0.875434,0.6702091,1.350694,0.3938127,-0.1980326,0.2346433,-0.09518707,-1.202033,0.3115877,0.08597376,0.8106525,1.366123,0.2554114,0.347201,1.415197,0.269441,313.2232,99.18334,139.013,True
3,1.300002,-0.8182254,0.4012989,-0.3065012,-1.215772,-4.618028,-2.065354,0.5095162,1.280396,0.4411535,-1.68653,0.02143252,0,3.5,-0.447696,-0.07737984,0.6611761,-0.4274778,1.455899,0.8956847,0.6695733,1.351183,0.3932266,-0.1914985,0.2282229,-0.0835641,-1.202327,0.3141808,0.08697112,0.8101642,1.366205,0.2554052,0.3473482,1.419402,0.2697304,313.7903,98.98795,139.3371,True
3,1.311113,-0.8033548,0.4290541,-0.3024433,-1.219197,-4.623976,-2.054915,0.5085542,1.2821,0.4408793,-1.686907,-0.03484051,0,3.5,-0.4434608,-0.07098696,0.6601042,-0.4234522,1.441381,0.9137086,0.668833,1.351706,0.3925397,-0.1850049,0.2228689,-0.0751337,-1.202663,0.3166561,0.08795036,0.8097394,1.366261,0.2553756,0.3475091,1.423497,0.2698411,314.317,98.82167,139.5952,True
3,1.322224,-0.7895419,0.4482469,-0.303643,-1.222583,-4.62993,-2.044605,0.507658,1.283793,0.4406223,-1.686833,0.006932586,0,3.5,-0.4231175,-0.04760754,0.6749878,-0.4183027,1.426366,0.9312972,0.6681455,1.352203,0.3919482,-0.17856,0.2175281,-0.07096829,-1.203146,0.3191423,0.08880284,0.8091937,1.366162,0.2554126,0.3477647,1.427334,0.2698948,314.8316,98.65079,139.8433,True
3,1.333336,-0.7799844,0.4696473,-0.2920732,-1.226636,-4.635521,-2.034387,0.5066717,1.28535,0.4403729,-1.686485,0.03164921,0,4,-0.4134233,-0.03597268,0.6930814,-0.4133599,1.409679,0.950924,0.6673337,1.352651,0.3913448,-0.1755401,0.2196904,-0.08485173,-1.204279,0.3219217,0.08963108,0.8086984,1.366074,0.2555125,0.3480437,1.430986,0.269973,315.3644,98.52362,140.0262,True
3,1.344447,-0.7683133,0.4984989,-0.2816177,-1.231146,-4.641207,-2.024276,0.5057595,1.28703,0.4401922,-1.686366,0.01044376,0,4,-0.4101682,-0.03601399,0.7015747,-0.4092118,1.392568,0.9711823,0.6665099,1.353148,0.3909082,-0.1801063,0.229343,-0.1092664,-1.205966,0.3252108,0.09062045,0.8082421,1.366001,0.2556407,0.3482556,1.434587,0.2701745,315.896,98.4307,140.1797,True
3,1.355558,-0.753445,0.534914,-0.256302,-1.236766,-4.646471,-2.014634,0.5047258,1.288582,0.4400017,-1.686138,0.02066244,0,4,-0.4061925,-0.0251682,0.6653792,-0.4056969,1.379793,0.9872972,0.6656369,1.353632,0.3903804,-0.1815558,0.2432693,-0.1401095,-1.208302,0.3288707,0.09140608,0.8076948,1.36594,0.2558086,0.3483773,1.438207,0.2705845,316.3958,98.3312,140.3942,True
3,1.366669,-0.7311085,0.5627892,-0.2362673,-1.242308,-4.651642,-2.005535,0.5038276,1.290324,0.4398754,-1.686083,0.004687653,0,4,-0.404542,-0.03761905,0.6024343,-0.4041017,1.369359,1.001429,0.664829,1.354243,0.3899131,-0.1677823,0.2560578,-0.1466472,-1.209764,0.3324512,0.09158211,0.8071572,1.365927,0.2559192,0.3484017,1.441899,0.271244,316.8449,98.18063,140.7274,True
3,1.37778,-0.7151182,0.565055,-0.2203172,-1.247296,-4.656269,-1.996657,0.5027982,1.291972,0.4396567,-1.686239,-0.01435502,0,3.9,-0.3973168,-0.08961426,0.564822,-0.4036638,1.354849,1.01899,0.664019,1.354698,0.3894839,-0.1483377,0.2581245,-0.126636,-1.210174,0.3355423,0.09144789,0.8065934,1.365887,0.2560117,0.3483442,1.445729,0.2721662,317.2516,98.00406,141.1589,True
3,1.388891,-0.6948447,0.5556155,-0.2042938,-1.251856,-4.660507,-1.988199,0.5018291,1.29364,0.4394717,-1.686584,-0.03151741,0,3.9,-0.3899902,-0.1161368,0.5454434,-0.4026391,1.340015,1.036784,0.6632178,1.355163,0.3889575,-0.1428703,0.2559605,-0.1149854,-1.210655,0.338641,0.09181727,0.8061121,1.36588,0.256026,0.3482379,1.449697,0.2733582,317.6292,97.75589,141.7268,True
3,1.400002,-0.6809397,0.5280098,-0.1945408,-1.255674,-4.664438,-1.97974,0.5008652,1.295226,0.4392471,-1.686458,0.01161395,0,3.9,-0.3870422,-0.1489601,0.5068996,-0.4028516,1.326933,1.052899,0.6624191,1.355674,0.3884375,-0.1470307,0.2463556,-0.1064314,-1.211328,0.3413661,0.09265696,0.8055073,1.365928,0.2560148,0.3481271,1.453764,0.2747744,318.0023,97.48022,142.4109,True
3,1.411114,-0.6723541,0.4971275,-0.195417,-1.25893,-4.668486,-1.97128,0.4997216,1.29674,0.439065,-1.68653,-0.006758729,0,3.9,-0.3859717,-0.1511016,0.510064,-0.4015211,1.311946,1.071145,0.6615962,1.356257,0.3879392,-0.1556327,0.234661,-0.1116729,-1.212507,0.3439299,0.09382796,0.8049073,1.365865,0.2560077,0.3480479,1.457811,0.2762982,318.4002,97.16,143.2047,True
3,1.422225,-0.6691259,0.47472,-0.2005989,-1.262179,-4.672647,-1.962553,0.4986594,1.29835,0.4388328,-1.686247,0.02579919,0,3.9,-0.3696992,-0.09382044,0.5581743,-0.3970273,1.295008,1.090495,0.6605169,1.35681,0.3872888,-0.1556576,0.2325493,-0.1127287,-1.213397,0.346992,0.09459095,0.8043104,1.366004,0.2560191,0.3480379,1.46171,0.2777926,318.8072,96.83517,144.0105,True
3,1.433336,-0.6658859,0.4394291,-0.2206084,-1.264542,-4.677135,-1.953818,0.4975487,1.300035,0.4385858,-1.686078,0.01509634,0,5.9,-0.3759789,-0.06621611,0.575412,-0.3937457,1.279025,1.109583,0.6595947,1.357241,0.3866374,-0.1479986,0.2293071,-0.09685444,-1.213774,0.3496473,0.09508071,0.8036163,1.365986,0.2560918,0.3480983,1.465373,0.2791083,319.251,96.54582,144.7391,True
3,1.444447,-0.659462,0.4180927,-0.2268704,-1.267235,-4.681326,-1.945384,0.4964015,1.301682,0.4383008,-1.685688,0.03541121,0,5.9,-0.3898298,-0.02366222,0.5842465,-0.389907,1.264606,1.127916,0.6586526,1.35775,0.3860567,-0.1458151,0.2356826,-0.09260143,-1.214349,0.3527334,0.09561068,0.8029312,1.366039,0.2562044,0.3481671,1.468803,0.2801321,319.7263,96.32562,145.2931,True
3,1.455558,-0.6519358,0.3893678,-0.2245613,-1.269539,-4.684994,-1.937399,0.4952083,1.303485,0.4379621,-1.685631,0.004876756,0,5.9,-0.4089283,-0.03971726,0.5917656,-0.3880375,1.247085,1.149226,0.6575646,1.358354,0.3854792,-0.129683,0.2558835,-0.0821042,-1.21457,0.3565384,0.09516487,0.8021513,1.366063,0.2563233,0.3481942,1.472105,0.2808119,320.1722,96.20788,145.6507,True
3,1.466669,-0.646578,0.3552614,-0.2317499,-1.271665,-4.688637,-1.929144,0.494065,1.305298,0.437772,-1.685745,-0.01050026,0,5.9,-0.4173073,-0.07069452,0.6076487,-0.3869062,1.22754,1.172242,0.656711,1.35894,0.3850155,-0.1156491,0.2686269,-0.06839018,-1.214464,0.3602122,0.0947313,0.8014492,1.366151,0.2563744,0.3481711,1.475325,0.2811661,320.6097,96.18348,145.8361,True
3,1.47778,-0.6454612,0.3210694,-0.2475079,-1.272859,-4.692674,-1.920923,0.4928758,1.307189,0.4374557,-1.685947,-0.01839572,0,5.9,-0.4171014,-0.1347029,0.6264908,-0.3874782,1.205308,1.197329,0.6558032,1.359491,0.3843808,-0.114589,0.2771518,-0.06943815,-1.214822,0.3637987,0.09467831,0.8006313,1.366247,0.2563863,0.3481066,1.478495,0.2812707,321.0212,96.1655,145.9375,True
3,1.488891,-0.64546,0.2919877,-0.2643672,-1.272656,-4.695574,-1.912842,0.4916617,1.309197,0.4366996,-1.685583,0.03329666,0.3,6.2,-0.4254935,-0.1486506,0.6435122,-0.3868034,1.18471,1.221418,0.6546907,1.360052,0.3836625,-0.1285674,0.277204,-0.07990246,-1.215681,0.367329,0.09531108,0.799898,1.366264,0.2563946,0.348009,1.481645,0.2811989,321.4115,96.1521,145.9851,True
3,1.500003,-0.6571137,0.2470321,-0.2917603,-1.27239,-4.699999,-1.90392,0.4905638,1.310974,0.4363539,-1.6856,-0.001861661,0.3,6.2,-0.4274896,-0.1008332,0.6682785,-0.3835452,1.164942,1.244541,0.6535779,1.360657,0.3829274,-0.1553805,0.2719364,-0.09341234,-1.216827,0.3704653,0.09686636,0.7990937,1.366352,0.2563372,0.3479132,1.484763,0.2810545,321.8028,96.17832,145.9859,True
3,1.511114,-0.6730057,0.1989436,-0.3138142,-1.271799,-4.704513,-1.894781,0.48922,1.312836,0.4361181,-1.685344,0.02335411,0.3,6.2,-0.4359859,-0.06999061,0.6759548,-0.3809237,1.14605,1.267077,0.6524147,1.361202,0.3821745,-0.1680898,0.266607,-0.08686541,-1.217188,0.3734527,0.0981295,0.7982364,1.366388,0.2562268,0.3478177,1.487892,0.2808458,322.2098,96.20675,146.0673,True
3,1.522225,-0.6825402,0.1668682,-0.3285093,-1.271258,-4.708821,-1.885677,0.487941,1.314692,0.4357798,-1.684884,0.04181459,0.3,6.2,-0.4574586,-0.01346359,0.6604312,-0.3772671,1.130112,1.287686,0.6511771,1.361726,0.3813739,-0.1689785,0.2697781,-0.0729755,-1.217004,0.3769035,0.09880168,0.7973053,1.366416,0.2561705,0.3477583,1.490979,0.2804839,322.6241,96.22828,146.2104,True
3,1.533336,-0.6909904,0.1305977,-0.3357432,-1.27031,1.570179,-1.876521,0.4866657,1.31651,0.4354374,-1.684655,0.0206409,0,5.9,-0.4490646,0.02813832,0.6499254,-0.373911,1.113669,1.307659,0.6498489,1.362394,0.3805921,-0.1752363,0.2814771,-0.06327648,-1.217018,0.3806416,0.09964537,0.7963833,1.366488,0.2561796,0.3477911,1.493883,0.2800515,323.1188,96.36304,146.1543,True
3,1.544447,-0.6952167,0.1242145,-0.3335958,-1.27029,1.566036,-1.867681,0.4853479,1.318221,0.434906,-1.684646,0.0006586494,0,5.9,-0.4427774,0.03673956,0.6371389,-0.371618,1.096645,1.328149,0.6486609,1.362943,0.3798976,-0.1803744,0.3006248,-0.04930243,-1.216613,0.3849077,0.1003676,0.7953649,1.366548,0.2562373,0.3478524,1.496725,0.2796129,323.6572,96.50673,145.9957,True
3,1.555558,-0.6941863,0.1423405,-0.331585,-1.271373,1.561732,-1.858742,0.4840818,1.319926,0.4344852,-1.684608,0.003558609,0,5.9,-0.4334847,-0.003502756,0.5931734,-0.3720734,1.082145,1.346171,0.6473689,1.36342,0.3793237,-0.1844357,0.3091124,-0.03431294,-1.2161,0.3888552,0.101177,0.7943721,1.366687,0.256218,0.3479245,1.499567,0.2792155,324.1701,96.61049,145.8956,True
3,1.566669,-0.678339,0.2052288,-0.3277663,-1.274477,1.556827,-1.850186,0.482993,1.321464,0.4340949,-1.684944,-0.03071994,0,5.9,-0.4241599,-0.04269822,0.5545462,-0.3728069,1.068144,1.363693,0.6461649,1.364156,0.3786647,-0.1939233,0.3091092,-0.02672319,-1.215761,0.3925479,0.1023008,0.7934498,1.3668,0.2561767,0.3480092,1.502415,0.2788592,324.6664,96.68272,145.8957,True
3,1.577781,-0.6634564,0.2266504,-0.3140697,-1.276671,1.552885,-1.842156,0.4817779,1.323041,0.433733,-1.684948,-0.0001349815,0,5.9,-0.4229254,-0.06836022,0.5735785,-0.3729944,1.048383,1.386691,0.6448963,1.364777,0.3778791,-0.2022726,0.3048224,-0.01277336,-1.215105,0.3959878,0.1036598,0.7925065,1.366923,0.2560363,0.348094,1.505292,0.2785389,325.1566,96.722,145.9576,True
3,1.588892,-0.6517393,0.2405304,-0.3057178,-1.278114,1.548718,-1.834099,0.4805288,1.324483,0.4332666,-1.685485,-0.0491013,0,5.1,-0.4304744,-0.05766305,0.5640922,-0.3722119,1.032233,1.406838,0.6436267,1.36545,0.3770845,-0.2053874,0.2994917,-0.006345399,-1.21455,0.3994433,0.1047847,0.7915556,1.367133,0.2559097,0.3481841,1.508223,0.2783307,325.6187,96.76958,145.9887,True
3,1.600003,-0.6378664,0.2396207,-0.2865481,-1.279964,1.545473,-1.826581,0.4791964,1.326029,0.4328928,-1.68573,-0.0219537,0,5.1,-0.4292969,-0.03006026,0.5823383,-0.3705736,1.013295,1.429253,0.6423168,1.36604,0.3762221,-0.2107131,0.2803195,-0.005259603,-1.214311,0.4020741,0.1063299,0.7905217,1.367215,0.2557518,0.3483054,1.511196,0.2783797,326.07,96.79806,146.0603,True
3,1.611114,-0.6229229,0.2365535,-0.2716636,-1.281611,1.541999,-1.819063,0.4779464,1.32762,0.4326427,-1.685698,0.002964478,0,5.1,-0.42182,0.02954945,0.5953587,-0.3674203,0.9949343,1.450994,0.6409432,1.366647,0.3753595,-0.2149836,0.2739439,-0.006281868,-1.214079,0.4052214,0.1076684,0.7894826,1.367301,0.2556875,0.3484404,1.514162,0.2786867,326.546,96.74096,146.3112,True
3,1.622225,-0.6197225,0.2344469,-0.2684546,-1.283371,1.538444,-1.811214,0.4766387,1.329146,0.4322093,-1.685865,-0.01540797,0,5.1,-0.4123677,0.04987733,0.5804795,-0.3655615,0.9785966,1.470585,0.6396888,1.367164,0.3745675,-0.2182301,0.2782198,-0.01048275,-1.213927,0.4087361,0.1090058,0.7884213,1.36739,0.2556386,0.3485464,1.517048,0.2791373,327.039,96.65177,146.6768,True
3,1.633336,-0.6016097,0.2441703,-0.2547124,-1.285732,1.535046,-1.804173,0.4753306,1.330667,0.4318006,-1.685846,0.00185623,0,3.5,-0.398735,0.03725904,0.5525972,-0.3651897,0.964538,1.48788,0.6383617,1.367739,0.3738866,-0.2011933,0.3059095,-0.0127547,-1.213572,0.4134628,0.1090772,0.7871618,1.367467,0.2556379,0.3485717,1.519892,0.2796183,327.4868,96.54317,147.0317,True
3,1.644447,-0.5834953,0.2538651,-0.2452377,-1.288185,1.531561,-1.797334,0.4740874,1.332265,0.431545,-1.685434,0.03751638,0,3.5,-0.3883565,-0.00512287,0.5118091,-0.3663849,0.9519204,1.503787,0.6372186,1.368205,0.3731556,-0.1926155,0.3165647,-0.009620596,-1.212968,0.4177715,0.1093837,0.7861532,1.367623,0.2556174,0.3485028,1.522693,0.280066,327.8945,96.4806,147.3362,True
3,1.655559,-0.5643352,0.2624806,-0.2367862,-1.290768,1.528436,-1.790778,0.4729009,1.333506,0.4311097,-1.686058,-0.05738038,0,3.5,-0.3864436,-0.02413189,0.4797372,-0.3670848,0.9398296,1.519288,0.6360008,1.368637,0.3724411,-0.1829327,0.3005548,-0.00126433,-1.21241,0.4207106,0.1100533,0.785069,1.367782,0.2554746,0.3483452,1.525478,0.2804153,328.2695,96.45153,147.6111,True
3,1.66667,-0.5515505,0.2699964,-0.2294102,-1.293138,1.525309,-1.784316,0.4716973,1.334888,0.4306533,-1.686234,-0.01569379,0,3.5,-0.3811827,-0.03369002,0.4732425,-0.3675684,0.9257612,1.536661,0.6347628,1.369222,0.3717337,-0.1784673,0.2834698,0.01569188,-1.211299,0.423436,0.1109425,0.7840086,1.367985,0.2553401,0.3481287,1.528225,0.2806776,328.6209,96.44118,147.8115,True
3,1.677781,-0.5355625,0.2636635,-0.2251192,-1.295249,1.522328,-1.777986,0.4704968,1.33609,0.4302278,-1.686272,-0.00348684,0,3.5,-0.3416887,-0.004963353,0.4869485,-0.3666901,0.9092742,1.554568,0.6333816,1.369518,0.3709695,-0.1847275,0.2653387,0.02744597,-1.210325,0.4259281,0.1123737,0.7829199,1.368134,0.2551799,0.3478884,1.530873,0.2809142,328.9487,96.44092,147.9723,True
3,1.688892,-0.5227632,0.2444917,-0.2207237,-1.296592,1.520029,-1.771763,0.4693395,1.337033,0.4299891,-1.686208,0.005765708,0,6.7,-0.3332865,0.003616825,0.4751907,-0.3663966,0.8961599,1.570368,0.6320301,1.369919,0.3701329,-0.1814542,0.25787,0.03378371,-1.209432,0.428757,0.1132701,0.7819006,1.368248,0.2550611,0.3476676,1.533319,0.2811459,329.2623,96.41574,148.1888,True
3,1.700003,-0.5024433,0.2083487,-0.2151736,-1.297254,1.517586,-1.766159,0.4680561,1.338331,0.429518,-1.686135,0.006510949,0,6.7,-0.3070921,0.0007552207,0.4153234,-0.3664052,0.8892868,1.57928,0.6306591,1.3703,0.3695047,-0.1620028,0.2546157,0.054848,-1.207639,0.431721,0.1132991,0.7808032,1.368428,0.2549872,0.3474506,1.535643,0.281323,329.5778,96.39745,148.4057,True
3,1.711114,-0.4853213,0.1625404,-0.2169638,-1.297294,1.51563,-1.760702,0.4669542,1.3397,0.4293096,-1.685908,0.02063278,0,6.7,-0.3082961,-0.02896543,0.3938682,-0.3679716,0.8791701,1.592312,0.6294919,1.370848,0.3689649,-0.1405297,0.2662834,0.0673875,-1.206095,0.4351571,0.1130001,0.7796842,1.368556,0.2549202,0.3472692,1.537734,0.2814568,329.8986,96.37951,148.5895,True
3,1.722225,-0.4671873,0.148706,-0.2200809,-1.297983,1.512846,-1.755346,0.4657463,1.340973,0.4288137,-1.686404,-0.04564869,0,6.7,-0.3136609,-0.07791016,0.3819332,-0.3706571,0.8688083,1.605586,0.6282859,1.371303,0.368392,-0.1419126,0.2738255,0.04292567,-1.206031,0.4389489,0.1134443,0.7786276,1.368615,0.2548292,0.3471288,1.539581,0.2815152,330.2141,96.3502,148.7473,True
3,1.733337,-0.4437375,0.1327322,-0.2242077,-1.298689,1.510551,-1.750499,0.4645489,1.342327,0.4285362,-1.68632,0.007994603,0,6.7,-0.3042285,-0.07781476,0.3616212,-0.3718061,0.8594668,1.617384,0.6270669,1.371803,0.3678091,-0.1454336,0.2643058,0.01844195,-1.206349,0.4417927,0.1141577,0.7775939,1.368771,0.2547009,0.3469462,1.541429,0.2813765,330.5253,96.3521,148.8394,True
3,1.744448,-0.4149753,0.1327783,-0.225275,-1.299649,1.507908,-1.746203,0.4633207,1.343345,0.4277265,-1.686457,-0.01283002,0,4.8,-0.2968251,-0.07457647,0.3541265,-0.3726806,0.8494256,1.629698,0.6258045,1.372258,0.3671281,-0.1446216,0.239873,-0.0008003395,-1.206601,0.444039,0.1147836,0.7765224,1.36894,0.2544761,0.3467287,1.543288,0.2810528,330.8123,96.39285,148.8368,True
3,1.755559,-0.3936819,0.1403568,-0.2136236,-1.30111,1.505525,-1.741756,0.4621725,1.34439,0.4272912,-1.686667,-0.01919372,0,4.8,-0.2915165,-0.0181756,0.3596869,-0.3716058,0.8382011,1.643191,0.6245245,1.372639,0.3664868,-0.1403753,0.2238898,-0.0008980408,-1.206399,0.4461018,0.1154723,0.775473,1.369074,0.2543023,0.3464541,1.545183,0.2805937,331.1258,96.46629,148.7794,True
3,1.76667,-0.3755451,0.1373324,-0.1923071,-1.302181,1.503869,-1.737687,0.4609595,1.345356,0.4265904,-1.687116,-0.04097234,0,4.8,-0.286156,0.01689893,0.3715231,-0.370859,0.8260106,1.65767,0.6233267,1.373179,0.3657238,-0.1239966,0.200362,0.03186247,-1.204577,0.4476025,0.1158342,0.7742127,1.369239,0.2540822,0.3461228,1.547054,0.2801042,331.435,96.5058,148.7505,True
3,1.777781,-0.3595258,0.1268551,-0.1709466,-1.303063,1.502351,-1.733635,0.4598279,1.34635,0.4261465,-1.686707,0.03756423,0,4.8,-0.2862077,0.01054862,0.3640322,-0.371315,0.8154562,1.670764,0.6221488,1.373589,0.3650773,-0.1282001,0.2142031,0.03515208,-1.20373,0.4505712,0.116333,0.7731444,1.369321,0.2539308,0.3457177,1.548765,0.2796232,331.7383,96.52879,148.8015,True
3,1.788892,-0.3552218,0.1120066,-0.1623322,-1.303536,1.500539,-1.729246,0.4586756,1.34732,0.4255321,-1.686613,0.007969767,0,10.4,-0.2723635,0.003095627,0.3649489,-0.3720969,0.8043752,1.683885,0.6210374,1.374048,0.3643079,-0.1261234,0.229137,0.02984838,-1.203162,0.4539884,0.1164832,0.7721519,1.369446,0.2537367,0.3452301,1.550328,0.2792078,331.9769,96.55083,148.8314,True
3,1.800003,-0.3391672,0.0779649,-0.1599906,-1.303007,1.498822,-1.725474,0.4576439,1.348283,0.4250133,-1.686392,0.02011615,0,10.4,-0.2671731,-0.009577759,0.3446048,-0.3730428,0.7956115,1.69487,0.61997,1.374422,0.3636668,-0.1274004,0.2302513,0.01388556,-1.203247,0.4569562,0.1169887,0.7712083,1.369568,0.2535467,0.3446696,1.551786,0.2788297,332.1547,96.5479,148.9035,True
3,1.811115,-0.3166881,0.02789599,-0.1682172,-1.301383,1.496602,-1.722071,0.4565981,1.349226,0.4245813,-1.68594,0.04100772,0,10.4,-0.2769286,-0.01581225,0.3201758,-0.373388,0.7869471,1.706458,0.6189541,1.374707,0.3626683,-0.1383648,0.2015573,-0.00843047,-1.204025,0.4583815,0.1183583,0.7702211,1.369693,0.2533717,0.3440653,1.553175,0.2784758,332.2997,96.56837,148.961,True
3,1.822226,-0.3017013,-0.007290497,-0.1775922,-1.299815,1.494353,-1.718568,0.4555524,1.350239,0.423979,-1.686339,-0.03688507,0,10.4,-0.2726899,-0.01685669,0.3169433,-0.3740926,0.7777635,1.717917,0.6178135,1.375097,0.3619616,-0.1383391,0.1877011,-0.005279772,-1.203855,0.4601091,0.1193362,0.7691941,1.369852,0.2531304,0.3434534,1.554534,0.2780943,332.435,96.61977,149.0307,True
3,1.833337,-0.2835175,-0.04569003,-0.1912054,-1.297606,1.491921,-1.71538,0.4545705,1.351156,0.4234278,-1.686728,-0.03541213,0,10.4,-0.2652393,0.005532943,0.3191543,-0.3736522,0.7667609,1.730955,0.6166439,1.3752,0.3612556,-0.1327224,0.1705931,0.01803884,-1.202616,0.4614299,0.1201187,0.7682797,1.36995,0.252795,0.3428904,1.555768,0.2776526,332.59,96.69972,149.0694,True
3,1.844448,-0.2653628,-0.07020955,-0.2017176,-1.295807,1.489369,-1.712317,0.453517,1.352164,0.4230249,-1.686484,0.02253686,0,6,-0.256722,0.03110468,0.3203048,-0.3730082,0.7560737,1.743427,0.6155953,1.375534,0.3606944,-0.1141774,0.1683571,0.05188919,-1.200636,0.4632086,0.1201056,0.7674021,1.369971,0.252594,0.342357,1.556845,0.277102,332.7954,96.80524,149.0545,True
3,1.855559,-0.2600299,-0.07447091,-0.2038257,-1.294559,1.487074,-1.708958,0.4524067,1.353094,0.4224157,-1.686623,-0.01314592,0,6,-0.2567434,0.01407816,0.3170184,-0.3740633,0.7471347,1.754791,0.6144446,1.375706,0.3601367,-0.1033462,0.1800286,0.06456453,-1.199208,0.4655718,0.1199919,0.7663831,1.370038,0.2524321,0.341812,1.557853,0.2763879,333.0059,96.91835,149.0017,True
3,1.86667,-0.2494013,-0.06055627,-0.1975424,-1.294104,1.484962,-1.705906,0.4512988,1.353805,0.4218304,-1.686607,0.001473203,0,6,-0.2408289,0.003490932,0.3051336,-0.3751377,0.7390894,1.764257,0.6133556,1.375977,0.3595634,-0.1047749,0.1992918,0.03480617,-1.199498,0.4688217,0.120013,0.7654781,1.370051,0.2522802,0.341242,1.558746,0.2755222,333.2249,97.06809,148.8553,True
3,1.877781,-0.2409147,-0.04022611,-0.187032,-1.294119,1.483131,-1.703014,0.4503587,1.354496,0.4212656,-1.686059,0.04998124,0,6,-0.2421808,-0.0175985,0.263485,-0.3763675,0.7358845,1.769975,0.6122621,1.376282,0.3589792,-0.1113805,0.2099999,0.01787372,-1.199564,0.471801,0.1204697,0.7646084,1.37012,0.2521055,0.3405998,1.559624,0.2745613,333.4462,97.22768,148.627,True
3,1.888893,-0.2271057,-0.0134425,-0.1691158,-1.294706,1.481681,-1.700574,0.4494287,1.355033,0.4208641,-1.686106,-0.004837453,0,6.3,-0.2382578,-0.02268426,0.2165533,-0.3770088,0.7345355,1.773732,0.6112263,1.376621,0.3585167,-0.1277543,0.2047787,-0.01282205,-1.200421,0.4742385,0.1214955,0.7638327,1.370226,0.251874,0.3398774,1.560526,0.2735754,333.6342,97.35926,148.4285,True
3,1.900004,-0.2058477,0.01767816,-0.1416397,-1.295831,1.480865,-1.69874,0.4485853,1.355444,0.4203537,-1.686065,0.003688506,0,6.3,-0.2257086,-0.01185977,0.1856233,-0.3769428,0.7314791,1.778592,0.6103051,1.376853,0.3579009,-0.1299178,0.1898746,-0.01390008,-1.200379,0.4760502,0.1224274,0.7629992,1.37033,0.2516084,0.3391165,1.561376,0.272673,333.7695,97.47337,148.2681,True
3,1.911115,-0.1888666,0.05836113,-0.118498,-1.297762,1.479774,-1.696943,0.4477304,1.355891,0.4198229,-1.686269,-0.01872587,0,6.3,-0.2215939,0.003144532,0.168632,-0.3767595,0.7272444,1.785007,0.6094561,1.376758,0.3568578,-0.121333,0.1568257,-0.006637763,-1.200018,0.4767263,0.1232708,0.7622769,1.370345,0.2511604,0.3383759,1.562168,0.2719338,333.8439,97.5838,148.131,True
3,1.922226,-0.1782452,0.07872977,-0.1026614,-1.299232,1.478958,-1.695109,0.4468641,1.356312,0.4193232,-1.686562,-0.02679138,0,6.3,-0.2151041,0.009470142,0.1824664,-0.3769864,0.720439,1.79347,0.6086101,1.376886,0.3561809,-0.1083985,0.1429308,0.005942384,-1.199375,0.4778077,0.1236274,0.7614706,1.370387,0.2508926,0.3377095,1.562878,0.2714396,333.8949,97.64793,148.0561,True
3,1.933337,-0.1644306,0.1001745,-0.08790889,-1.30102,1.478018,-1.693451,0.4460036,1.356653,0.4188669,-1.686521,0.003860539,0,6.3,-0.2118218,0.006211244,0.1951979,-0.3776474,0.7137074,1.802104,0.6077096,1.377066,0.3556049,-0.09960388,0.1417967,0.02713503,-1.198101,0.4792986,0.1238705,0.7607068,1.370388,0.2507248,0.3371296,1.563572,0.2711865,333.9452,97.64397,148.108,True
3,1.944448,-0.1569999,0.1151537,-0.08055654,-1.302747,1.477131,-1.691745,0.445117,1.357049,0.4183466,-1.686218,0.027454,0,4.8,-0.2085036,-0.02155067,0.2078112,-0.3795921,0.707269,1.810255,0.6067734,1.377262,0.3550103,-0.09850211,0.1694973,0.02719351,-1.197497,0.4823492,0.1237155,0.7599179,1.370467,0.2506256,0.3366016,1.564368,0.2711357,334.0309,97.60896,148.2558,True
3,1.955559,-0.1495519,0.1205173,-0.07740198,-1.304183,1.47618,-1.690102,0.4442244,1.357491,0.4178276,-1.686231,-0.001477859,0,4.8,-0.1894224,-0.02680685,0.1938021,-0.3807489,0.7032448,1.815346,0.6058254,1.377587,0.3547211,-0.1006953,0.1759054,0.02191216,-1.19717,0.4846562,0.1240668,0.7591392,1.370514,0.2504163,0.3361085,1.565236,0.271234,334.139,97.54623,148.4711,True
3,1.966671,-0.1399705,0.1323333,-0.06576798,-1.305952,1.475599,-1.688835,0.4432296,1.357951,0.4173024,-1.686028,0.01854986,0,4.8,-0.184432,-0.02230725,0.1490595,-0.3808171,0.7027684,1.817746,0.605057,1.377504,0.3540595,-0.09442126,0.1801917,0.01225087,-1.197225,0.4869922,0.1240101,0.7584854,1.370499,0.2502859,0.3356265,1.566134,0.2714297,334.2615,97.47026,148.7207,True
3,1.977782,-0.1335732,0.1302236,-0.06469393,-1.307255,1.474713,-1.68734,0.4424135,1.35833,0.4167809,-1.685949,0.00686786,0,4.8,-0.1780911,-0.03610843,0.1393567,-0.3820912,0.6998873,1.822118,0.6041043,1.378032,0.3537779,-0.09483241,0.1579026,-0.01764175,-1.198395,0.488206,0.1246586,0.7578882,1.370524,0.250037,0.33512,1.567076,0.2716386,334.3797,97.38986,148.9933,True
3,1.988893,-0.1303755,0.1280635,-0.07000657,-1.308446,1.473588,-1.685706,0.4415081,1.358698,0.4162898,-1.686096,-0.01350658,0,5.7,-0.1804802,-0.0540243,0.1019932,-0.3832587,0.701047,1.82311,0.6032408,1.378214,0.3532128,-0.09926819,0.1387635,-0.02935493,-1.198949,0.489259,0.1256146,0.757058,1.37058,0.2497282,0.3345662,1.56804,0.2717868,334.4933,97.31727,149.2463,True
3,2.000004,-0.1207881,0.1269979,-0.07320333,-1.309683,1.472506,-1.68444,0.4407774,1.359001,0.4157901,-1.685841,0.0233165,0,5.7,-0.1719943,-0.03909584,0.09882268,-0.3835676,0.6981174,1.82746,0.6023591,1.378319,0.3526423,-0.1015385,0.124944,-0.03895463,-1.199643,0.4903294,0.1264687,0.7563988,1.370624,0.2494552,0.3339494,1.568972,0.2718429,334.5867,97.24115,149.4691,True
3,2.011115,-0.1207923,0.130236,-0.06683023,-1.311124,1.471807,-1.682881,0.4400889,1.359267,0.4153121,-1.685627,0.01936839,0,5.7,-0.1643049,0.007587433,0.1362985,-0.3826531,0.6898328,1.836689,0.6015435,1.378452,0.3520536,-0.0874846,0.1270169,-0.02314537,-1.199097,0.491856,0.1264152,0.7556925,1.370579,0.2491801,0.3332891,1.569773,0.2717903,334.6546,97.2189,149.6348,True
3,2.022226,-0.1207946,0.1313013,-0.06683724,-1.312504,1.470872,-1.681324,0.4393174,1.359588,0.4148226,-1.685867,-0.02223038,0,5.7,-0.1470176,0.02126398,0.1703365,-0.38297,0.6812854,1.845547,0.6008979,1.378649,0.351526,-0.07337175,0.134409,-0.003069651,-1.198247,0.4936329,0.1261199,0.7549524,1.370582,0.248934,0.3325977,1.570439,0.2716231,334.7062,97.24168,149.7216,True
3,2.033337,-0.1261256,0.1334122,-0.06791164,-1.313935,1.469914,-1.679495,0.4386539,1.359919,0.4143455,-1.685419,0.04114271,0,5.7,-0.1353927,-0.01485482,0.1530151,-0.384561,0.6795026,1.848256,0.6001449,1.378777,0.3510444,-0.06241086,0.1556444,0.01922358,-1.196871,0.4961195,0.1254876,0.7541587,1.370601,0.2487295,0.3319187,1.570965,0.2713713,334.7166,97.28181,149.7475,True
3,2.044448,-0.1240092,0.1387221,-0.07114433,-1.315525,1.46881,-1.677934,0.4379223,1.360311,0.4138556,-1.685361,0.004814545,0,7.9,-0.1344313,-0.03820262,0.1358405,-0.3860753,0.6783639,1.850764,0.5993232,1.378901,0.3505342,-0.06557363,0.1631045,0.02141927,-1.196301,0.4983475,0.1255928,0.7535343,1.370842,0.2484324,0.331284,1.571444,0.2710556,334.7165,97.31455,149.7494,True
3,2.055559,-0.1239975,0.1334034,-0.07004276,-1.316714,1.467917,-1.676359,0.4371308,1.360689,0.413393,-1.685056,0.02788787,0,7.9,-0.1323942,-0.03068194,0.1241463,-0.3864326,0.6759328,1.854408,0.598515,1.379056,0.3500447,-0.0656807,0.1386216,0.01496295,-1.196262,0.4991484,0.1260477,0.7529118,1.370924,0.2481148,0.3307028,1.571971,0.2706953,334.7519,97.35049,149.7407,True
3,2.06667,-0.1293108,0.1269585,-0.07638454,-1.317777,1.46676,-1.674558,0.4364039,1.360989,0.4129474,-1.685301,-0.0226685,0,7.9,-0.1336069,-0.04121592,0.1027814,-0.3870926,0.6757234,1.856151,0.5978113,1.379375,0.3496079,-0.05823227,0.111973,0.0158602,-1.196021,0.4993719,0.1263161,0.7522418,1.37086,0.2478189,0.3301978,1.572593,0.2703286,334.8077,97.39028,149.7279,True
3,2.077781,-0.1282481,0.1269397,-0.07958122,-1.319067,1.465611,-1.672887,0.4357321,1.361319,0.412472,-1.685236,0.006187794,0,7.9,-0.1272183,-0.04653072,0.1016409,-0.3881168,0.6735036,1.859392,0.5970756,1.379602,0.349066,-0.06050566,0.106678,0.005222787,-1.196163,0.50051,0.1266546,0.7515523,1.370896,0.2475021,0.3297622,1.573315,0.2700019,334.9164,97.40805,149.7399,True
3,2.088892,-0.1207805,0.1280496,-0.07533429,-1.320452,1.464744,-1.671727,0.4350504,1.361588,0.4120376,-1.68504,0.01786683,0,7.9,-0.1057472,-0.01042928,0.1283009,-0.3877456,0.6669527,1.865934,0.5964148,1.379872,0.3485074,-0.07043145,0.1003606,-0.02023212,-1.197131,0.501628,0.1274221,0.7509195,1.370877,0.247205,0.3293751,1.574052,0.2697466,335.0562,97.39342,149.7994,True
3,2.100003,-0.1165063,0.1249122,-0.06785978,-1.321691,1.464104,-1.670411,0.4344811,1.36191,0.4115679,-1.685131,-0.00855775,0,8.4,-0.08964351,0.02569331,0.1496786,-0.3869941,0.6597398,1.873069,0.5957595,1.380105,0.3479896,-0.06397472,0.0971443,-0.01499782,-1.196991,0.5026525,0.1275572,0.750326,1.370893,0.2468886,0.3290217,1.574744,0.2695656,335.1884,97.3857,149.8855,True
3,2.111114,-0.1090147,0.1143375,-0.05820313,-1.322605,1.46373,-1.669408,0.4339123,1.362253,0.4111345,-1.685556,-0.03875885,0,8.4,-0.08968475,0.02679951,0.1432899,-0.3869307,0.6558129,1.877598,0.5950824,1.380264,0.347523,-0.04998381,0.09070452,-0.003477024,-1.196486,0.5034137,0.1273899,0.7497197,1.371028,0.246515,0.3286919,1.575409,0.2694482,335.2991,97.37891,149.984,True
3,2.122225,-0.1047458,0.1122571,-0.05180049,-1.323734,1.463228,-1.668228,0.4334384,1.362574,0.4106929,-1.685341,0.0199597,0,8.4,-0.08990885,0.006741583,0.1101468,-0.3875123,0.656845,1.877719,0.5944721,1.380484,0.3470457,-0.05105701,0.08218178,-0.003490518,-1.196518,0.5040645,0.1277694,0.7492549,1.371016,0.2461641,0.3283718,1.576026,0.26939,335.3889,97.34753,150.1047,True
3,2.133336,-0.09727354,0.1080987,-0.04753643,-1.325496,1.462202,-1.667184,0.4328659,1.363203,0.4112124,-1.685504,-0.01518867,0,8.4,-0.08035029,-0.00493966,0.1046882,-0.3881967,0.6547341,1.880282,0.5938956,1.380756,0.3465981,-0.05535444,0.05875058,-0.004570261,-1.196769,0.5038759,0.1286645,0.7487713,1.371122,0.2456882,0.3280543,1.576643,0.2693417,335.4407,97.30768,150.2459,True
3,2.144447,-0.09087941,0.1070721,-0.0464727,-1.326858,1.461438,-1.666171,0.4323285,1.363589,0.4108233,-1.685328,0.01625131,0,7.2,-0.09208177,-0.01452633,0.1025934,-0.3889936,0.6522791,1.884047,0.5934638,1.380989,0.3462362,-0.04551885,0.05016578,0.01552109,-1.195899,0.5041377,0.1288355,0.7482848,1.371163,0.2452707,0.3277435,1.577247,0.2692607,335.4809,97.26958,150.3807,True
3,2.155558,-0.0844966,0.1124513,-0.04438533,-1.328595,1.460723,-1.665278,0.4317729,1.363908,0.4104168,-1.685515,-0.01735872,0,7.2,-0.08878089,-0.0177918,0.1164013,-0.3898463,0.6481059,1.888795,0.592919,1.381268,0.345813,-0.04339541,0.04590399,0.01547825,-1.195743,0.5045369,0.1291431,0.7476516,1.371255,0.2449195,0.3274412,1.577864,0.2691682,335.545,97.30881,150.3356,True
3,2.166669,-0.07384587,0.1254595,-0.01573294,-1.330584,1.461071,-1.664885,0.4312008,1.364117,0.4099061,-1.685451,0.0060443,0,7.2,-0.08782481,0.00145505,0.1037025,-0.3893211,0.6457601,1.891902,0.5923688,1.381442,0.345434,-0.04795131,0.03638793,-0.006858269,-1.19653,0.5048861,0.1296547,0.7471609,1.371265,0.244637,0.3271264,1.578586,0.269251,335.6465,97.3643,150.1801,True
3,2.17778,-0.06426139,0.1308667,-0.006180909,-1.332172,1.461234,-1.664556,0.4306126,1.364293,0.4095047,-1.685487,-0.003444725,0,7.2,-0.08707773,0.00594037,0.06110683,-0.3888364,0.6477345,1.890978,0.5918166,1.381616,0.3449664,-0.05877656,0.02791011,-0.01952764,-1.197164,0.5050094,0.1306283,0.7466908,1.371355,0.2443223,0.3267917,1.579384,0.269483,335.7201,97.32498,150.3186,True
3,2.188891,-0.0514658,0.1288579,0.005523919,-1.333758,1.461255,-1.664363,0.4302102,1.364435,0.4090738,-1.685672,-0.01692358,0,7.2,-0.07123205,0.06993084,0.05067494,-0.3859645,0.6453478,1.893466,0.5913763,1.381665,0.34448,-0.06970017,0.0301123,-0.04068854,-1.198278,0.5056942,0.1315138,0.7462345,1.371397,0.2440424,0.3264371,1.580165,0.2697825,335.7608,97.22838,150.6243,True
3,2.200002,-0.03759929,0.123638,0.01726933,-1.335029,1.461797,-1.664462,0.4298127,1.364545,0.4085922,-1.685723,-0.004570367,0,22.8,-0.05616313,0.09006222,0.07410662,-0.3848673,0.639808,1.898702,0.5910099,1.381818,0.3439996,-0.05783766,0.04392332,-0.0301558,-1.198183,0.5067589,0.1314033,0.7458946,1.371384,0.2436795,0.3260712,1.580833,0.2700514,335.7731,97.08073,150.9766,True
3,2.211113,-0.01951965,0.1451142,0.03521303,-1.337528,1.462354,-1.664937,0.4295201,1.36453,0.4081299,-1.685803,-0.007401303,0,22.8,-0.048492,0.05585648,0.09730418,-0.3860534,0.6353271,1.903036,0.5909883,1.381915,0.3435941,-0.03708753,0.04592925,0.009001652,-1.196686,0.5072057,0.1309484,0.7455333,1.371303,0.243305,0.3256858,1.581332,0.2702146,335.7751,96.97425,151.2424,True
3,2.222224,0.0006737467,0.1707646,0.04142072,-1.340303,1.46274,-1.665686,0.4292078,1.364624,0.407599,-1.685884,-0.007364233,0,22.8,-0.04524513,0.03878649,0.1025157,-0.3866659,0.6325503,1.90608,0.5906619,1.382075,0.3432047,-0.0294387,0.02670318,0.02483457,-1.195929,0.506677,0.1311671,0.7452204,1.371318,0.2428772,0.3252992,1.581679,0.2702343,335.741,96.91779,151.4061,True
3,2.233335,0.02934777,0.2210242,0.06129754,-1.344511,1.463547,-1.667174,0.4288589,1.364517,0.4070263,-1.686149,-0.02425381,0,22.8,-0.03677183,0.01221124,0.08954202,-0.3878223,0.6312863,1.907019,0.5905007,1.382095,0.3425558,-0.03484292,-0.01163231,0.02160619,-1.195999,0.5050876,0.132321,0.7449527,1.371322,0.2422659,0.3249327,1.58191,0.2700975,335.6801,96.86324,151.4972,True
3,2.244446,0.04950183,0.2691569,0.08332895,-1.349189,1.464634,-1.668516,0.4285955,1.364364,0.4066687,-1.686353,-0.01855403,0,16.9,-0.04026829,-0.01633002,0.04360822,-0.3886825,0.6349367,1.904017,0.5902873,1.382228,0.3421054,-0.04686888,-0.03606037,-0.0006759465,-1.196921,0.5039732,0.1336246,0.7447859,1.371349,0.2418141,0.3246,1.582105,0.2698661,335.6205,96.81383,151.5308,True
3,2.255557,0.06543381,0.2980712,0.1012395,-1.353491,1.46595,-1.669996,0.4283091,1.364142,0.4061794,-1.686839,-0.04446909,0,16.9,-0.0414605,-0.008774248,0.02661476,-0.3882942,0.6352645,1.904155,0.5900031,1.382348,0.3415978,-0.0503283,-0.03813268,-0.02087997,-1.197916,0.5036311,0.1344348,0.7445861,1.371338,0.2413595,0.3242802,1.582373,0.2696163,335.5886,96.75704,151.5526,True
3,2.266668,0.07180558,0.3066354,0.1054329,-1.357212,1.4668,-1.671095,0.4280683,1.363896,0.4057467,-1.686487,0.03244649,0,16.9,-0.03941638,0.009378441,0.0149774,-0.3877957,0.6351473,1.904399,0.5896951,1.382493,0.3409622,-0.04752493,-0.02420237,-0.0517744,-1.199511,0.5041587,0.1347149,0.7443868,1.371347,0.240907,0.3239576,1.58266,0.2694998,335.5653,96.65284,151.5929,True
3,2.277779,0.07076284,0.2916775,0.09914539,-1.360032,1.467483,-1.671918,0.4277813,1.363751,0.4052634,-1.686342,0.01279887,0,16.9,-0.03089285,0.04983483,0.02044917,-0.3862127,0.6325875,1.90683,0.5895177,1.382467,0.3403497,-0.05170916,0.0002994873,-0.04739346,-1.199725,0.5050949,0.1350897,0.7442865,1.371395,0.2405028,0.3236236,1.582946,0.2696389,335.5096,96.50749,151.7077,True
3,2.28889,0.07190722,0.2467931,0.07813644,-1.361205,1.46757,-1.672801,0.4275768,1.363518,0.4048162,-1.685898,0.04045529,0,16.9,-0.02567809,0.07013392,0.006676372,-0.3849876,0.6320189,1.907306,0.5892587,1.382427,0.3399065,-0.05794323,0.02158361,-0.0366016,-1.199636,0.5060889,0.1355935,0.7440225,1.371386,0.2401698,0.3232714,1.583202,0.2700283,335.4377,96.33437,151.9731,True
3,2.300001,0.06987229,0.189045,0.04549486,-1.361376,1.467016,-1.673386,0.427405,1.363252,0.404309,-1.685497,0.03621766,0.9,30.2,-0.02686846,0.0436068,-0.01369899,-0.3851762,0.6347326,1.905168,0.5890563,1.382469,0.3393977,-0.05115761,0.05240197,-0.007847721,-1.198621,0.5077747,0.1354111,0.7439703,1.371424,0.2397914,0.3228924,1.583424,0.2705823,335.3628,96.18221,152.3267,True
3,2.311112,0.07739502,0.1473294,0.01806426,-1.361606,1.466299,-1.674322,0.4272062,1.363089,0.4038188,-1.685565,-0.00660062,0.9,30.2,-0.01854078,0.02884017,-0.04046028,-0.3850515,0.6376349,1.902548,0.5886967,1.382255,0.3390472,-0.05217675,0.07370251,-0.005643871,-1.198364,0.5093597,0.1354516,0.7438276,1.371364,0.2394073,0.322486,1.583611,0.2711567,335.2887,96.05256,152.7236,True
3,2.322223,0.081718,0.1152752,0.002293021,-1.361893,1.465827,-1.675374,0.426958,1.362843,0.4033816,-1.685352,0.01955271,0.9,30.2,-0.01440705,0.03638732,-0.05642926,-0.3839937,0.6396337,1.90077,0.5884223,1.382199,0.3385,-0.04565044,0.07154179,0.004920334,-1.197932,0.5100723,0.1355371,0.743721,1.371289,0.2389319,0.3220691,1.583609,0.2716017,335.2287,95.98061,153.0914,True
3,2.333334,0.09456424,0.08218366,-0.01135619,-1.361574,1.465149,-1.676764,0.4267853,1.362681,0.4029274,-1.68565,-0.02749075,0.9,30.2,-0.01118587,0.02572629,-0.05437854,-0.3838707,0.6410921,1.89944,0.5882537,1.38218,0.3380504,-0.03595566,0.0544624,0.01433708,-1.197461,0.5100608,0.1356175,0.7435669,1.371292,0.2384446,0.3216316,1.583424,0.2717687,335.1787,95.98145,153.3368,True
3,2.344445,0.1105747,0.06516125,-0.01231831,-1.361759,1.465066,-1.678445,0.4266975,1.362489,0.4026399,-1.685681,-0.002577506,0,34.9,0.002796054,0.0245909,-0.03956801,-0.3838041,0.6404879,1.899215,0.5881743,1.382201,0.3374665,-0.03264168,0.02140221,0.02592346,-1.196941,0.5089863,0.1363072,0.7434497,1.371273,0.2379415,0.3211539,1.58314,0.2716116,335.1395,96.02,153.409,True
3,2.355556,0.1169703,0.06955456,0.005759954,-1.362733,1.465633,-1.680045,0.4265944,1.36215,0.4022901,-1.685966,-0.02617395,0,34.9,0.01882818,0.03201713,-0.03112322,-0.3832161,0.640148,1.898852,0.5880839,1.38213,0.3369589,-0.0368882,0.006488116,0.02807036,-1.19658,0.5085867,0.137026,0.7433081,1.371216,0.2374587,0.3206257,1.582771,0.2711773,335.0918,96.06969,153.3565,True
3,2.366668,0.1191007,0.07498686,0.02063578,-1.363881,1.466176,-1.68154,0.4264721,1.361878,0.4018741,-1.685684,0.02543145,0,34.9,0.02094851,0.04905957,-0.02998559,-0.3820331,0.6400563,1.898702,0.5879437,1.382146,0.3364465,-0.03373643,0.004367659,0.02483015,-1.196389,0.5086437,0.1372652,0.7431637,1.37121,0.2370384,0.3200341,1.582334,0.270532,335.0194,96.15698,153.1908,True
3,2.377779,0.1105443,0.0952794,0.03116319,-1.365648,1.466677,-1.682615,0.4262877,1.361607,0.4015298,-1.684497,0.1072322,0,34.9,0.02306716,0.04587857,-0.03215435,-0.3814286,0.6410859,1.897439,0.5877808,1.382092,0.3360097,-0.01239728,0.002212042,0.02774537,-1.19597,0.508594,0.1368162,0.7429649,1.371173,0.2366066,0.3193802,1.581822,0.2698233,334.9016,96.22861,152.9525,True
3,2.38889,0.1052004,0.1048929,0.03750253,-1.367134,1.46723,-1.683708,0.4261415,1.36136,0.4011002,-1.682964,0.1379619,0,34.9,0.01139653,0.02348092,-0.02790875,-0.3818786,0.6412523,1.897626,0.587656,1.381868,0.3354671,-0.004970082,0.001149307,0.02552093,-1.19568,0.5085981,0.1366191,0.7428269,1.371166,0.2361732,0.3186569,1.581287,0.2691821,334.7505,96.24854,152.7686,True
3,2.400001,0.09350058,0.09523691,0.03118715,-1.367837,1.467325,-1.684428,0.4259008,1.361162,0.4006822,-1.680794,0.1957877,3.3,44.7,-0.001626965,0.01299985,-0.061965,-0.3813913,0.6465204,1.893233,0.5874941,1.381871,0.3349726,-0.001937638,-0.0009488353,0.01269404,-1.195951,0.5085689,0.1365152,0.7426614,1.371209,0.2357016,0.3178394,1.580833,0.2686801,334.5948,96.25876,152.6553,True
3,2.411112,0.08180232,0.08016278,0.01105059,-1.368116,1.466677,-1.684872,0.4257909,1.360966,0.400224,-1.678722,0.1862018,3.3,44.7,0.007917434,0.01623486,-0.06734324,-0.3807436,0.6484289,1.891009,0.5872927,1.381964,0.3344963,-0.01048561,0.001198157,0.01067978,-1.195865,0.5086924,0.1368923,0.7425282,1.371252,0.2352171,0.316921,1.58051,0.2683893,334.4204,96.25746,152.6154,True
3,2.422223,0.07756817,0.06087956,-0.003731028,-1.368077,1.46617,-1.685471,0.4256729,1.360765,0.3998003,-1.67616,0.2310497,3.3,44.7,0.006894026,0.03110858,-0.05980001,-0.3797721,0.6486666,1.890751,0.5871291,1.381982,0.333966,-0.0190223,0.01399967,0.008695947,-1.195708,0.5093669,0.1371291,0.7423935,1.371327,0.2348006,0.3159158,1.580288,0.2683124,334.2323,96.24067,152.6937,True
3,2.433334,0.07759649,0.03944093,-0.02276071,-1.367563,1.465348,-1.686172,0.425642,1.360661,0.399497,-1.673379,0.2502249,3.3,44.7,0.002763107,0.05548789,-0.0372698,-0.3785034,0.6461411,1.893412,0.5869515,1.382105,0.3334649,-0.02216753,0.02358153,0.01195887,-1.195398,0.5099519,0.1372569,0.7422265,1.371356,0.2343752,0.3148189,1.580102,0.2683843,334.0468,96.24559,152.8497,True
3,2.444445,0.0776288,0.02020321,-0.03222018,-1.367051,1.464753,-1.686901,0.4256311,1.360566,0.3991308,-1.67055,0.2543171,3.3,44.7,0.01143532,0.07987048,-0.01482362,-0.3771931,0.6427324,1.896048,0.5868774,1.382046,0.332994,-0.01556272,0.02779619,0.0278649,-1.194478,0.5103001,0.1370044,0.7421073,1.37145,0.2339797,0.3136495,1.579874,0.2685263,333.8372,96.29643,153.0141,True
3,2.455556,0.07873179,-0.001161039,-0.04059934,-1.366112,1.464137,-1.687683,0.4255184,1.360592,0.3987885,-1.667494,0.2749157,60.5,74.3,0.010366,0.03622155,-0.02038041,-0.3780197,0.6451102,1.893824,0.5867763,1.382076,0.3326225,-0.009022349,0.02562437,0.03949168,-1.193672,0.5103496,0.1368777,0.7420857,1.371443,0.2335601,0.3124245,1.579561,0.2686678,333.6008,96.36064,153.1424,True
3,2.466667,0.07238251,-0.02246121,-0.03513223,-1.365125,1.46395,-1.688321,0.4254171,1.360558,0.3984416,-1.663995,0.3149899,60.5,74.3,0.0146508,0.01383819,-0.0194706,-0.3786221,0.646443,1.892332,0.5866225,1.38217,0.3323865,-0.009044411,0.0192365,0.03841132,-1.193271,0.5102717,0.1370439,0.7419524,1.371454,0.2331197,0.3111483,1.579181,0.2687527,333.3405,96.45058,153.2085,True
3,2.477778,0.06388605,-0.02883287,-0.03081269,-1.364548,1.464009,-1.688727,0.4252759,1.360501,0.3980925,-1.660328,0.3300712,60.5,74.3,0.02841624,0.01071842,-0.03131022,-0.3782637,0.648276,1.889825,0.586548,1.382193,0.3319926,-0.01034,0.005434896,0.02134722,-1.193671,0.5098725,0.1373166,0.7417217,1.371421,0.2326794,0.3098186,1.578783,0.2687313,333.073,96.54081,153.2438,True
3,2.488889,0.05747957,-0.02026862,-0.0223422,-1.364607,1.464009,-1.689126,0.425284,1.360365,0.397686,-1.656201,0.371717,60.5,74.3,0.02518326,0.01179602,-0.03661003,-0.3780618,0.6499855,1.888022,0.5864491,1.38231,0.3316612,-0.006256215,-0.008382334,0.008470245,-1.19415,0.5093201,0.1374114,0.7415909,1.371527,0.2321932,0.308417,1.578395,0.2685673,332.8165,96.63142,153.2394,True
3,2.5,0.04892933,-0.007530808,-0.02668155,-1.364891,1.4635,-1.68933,0.4251577,1.360307,0.3973114,-1.651857,0.3912165,46.4,53.3,0.01779782,0.02984284,-0.0247469,-0.3771302,0.6489273,1.889092,0.5862535,1.382318,0.3311894,-0.00303766,-0.01265349,0.01054925,-1.193962,0.5089548,0.1374809,0.7413018,1.371572,0.2317417,0.3069572,1.577973,0.268262,332.5408,96.71267,153.1924,True
3,2.511111,0.04038577,0.0009684153,-0.02780011,-1.365148,1.463057,-1.689377,0.4251665,1.360118,0.3968964,-1.647685,0.3752643,46.4,53.3,0.007167004,0.06495038,-0.01700335,-0.3754216,0.6461763,1.891985,0.5861949,1.382211,0.3304815,-0.007073574,-0.009498578,0.02765519,-1.193099,0.5088453,0.1377307,0.7410976,1.371627,0.2312939,0.305469,1.577519,0.2678481,332.2279,96.7973,153.1023,True
3,2.522222,0.03718923,0.004179034,-0.02462575,-1.365245,1.462824,-1.68971,0.4249595,1.360113,0.3966234,-1.643349,0.3903866,46.4,53.3,0.0105044,0.09891297,0.006578773,-0.3736106,0.6424432,1.895231,0.5860166,1.382223,0.3301141,-0.01014114,-0.005266923,0.03729574,-1.192339,0.5087425,0.1379872,0.7409507,1.371689,0.23085,0.3040016,1.577046,0.2673918,331.9071,96.91241,152.9757,True
3,2.533333,0.02970266,0.01801172,-0.0247111,-1.365885,1.462469,-1.689682,0.424881,1.360117,0.3962624,-1.638827,0.4071245,46.4,53.3,0.009618904,0.07536952,0.02776672,-0.3738556,0.6398338,1.897551,0.5859018,1.382224,0.329756,0.0008132849,-0.006404098,0.06058779,-1.190919,0.5084309,0.1377118,0.7407702,1.371669,0.2304268,0.3025622,1.576606,0.2669701,331.6214,97.04731,152.8337,True
3,2.544444,0.02436741,0.02440518,-0.02154757,-1.366201,1.462366,-1.689784,0.4247927,1.360217,0.3959832,-1.634626,0.3775755,46.4,53.3,0.01174956,0.04024458,0.02228397,-0.3748069,0.6388765,1.898124,0.5858868,1.382028,0.3291757,0.01262259,-0.002177825,0.06683187,-1.190072,0.508307,0.1371219,0.740729,1.371718,0.2301152,0.3011778,1.576177,0.2666449,331.3568,97.16636,152.7165,True
3,2.555555,0.01157439,0.02968996,-0.0237042,-1.366641,1.461954,-1.689462,0.4247082,1.360298,0.395669,-1.629939,0.4224984,23.4,65,0.007365621,0.007325008,0.001899662,-0.3755739,0.6417106,1.895587,0.5857845,1.38203,0.3287628,0.0144175,-0.005313125,0.04122705,-1.190574,0.5080877,0.1370354,0.740805,1.371808,0.2296636,0.2998075,1.575852,0.2664388,331.1216,97.24545,152.6368,True
3,2.566666,0.001986678,0.03074891,-0.02157723,-1.366981,1.461687,-1.689129,0.4246582,1.360356,0.3954182,-1.625662,0.3846603,23.4,65,0.01909662,0.03818533,0.007305143,-0.3744836,0.6398895,1.896647,0.5856699,1.382171,0.3284979,0.01088282,-0.01376112,0.01568006,-1.191303,0.5077583,0.1371469,0.7407012,1.371909,0.2291541,0.2984549,1.575662,0.2663679,330.8584,97.30824,152.6194,True
3,2.577777,-0.003328099,0.02650422,-0.01728165,-1.367122,1.461648,-1.688915,0.4246278,1.360394,0.3951173,-1.621056,0.4150477,23.4,65,0.02668965,0.07322972,0.02979976,-0.3729342,0.6355092,1.900155,0.5855819,1.382216,0.3280838,0.006530267,-0.02332576,0.009318803,-1.191427,0.5071676,0.1374377,0.7405912,1.371922,0.2287028,0.2971401,1.575584,0.2664223,330.593,97.3584,152.6612,True
3,2.588888,-0.0128883,0.01696387,-0.006554362,-1.367018,1.462003,-1.688544,0.4246424,1.360432,0.3948905,-1.616782,0.3844875,23.4,65,0.02446107,0.09244931,0.02031845,-0.3714034,0.63467,1.900887,0.5855119,1.382349,0.3278205,-0.003832418,-0.03723148,0.0328544,-1.190371,0.5059897,0.138295,0.7404749,1.371965,0.2283139,0.2958866,1.575561,0.2665766,330.3391,97.4084,152.744,True
3,2.599999,-0.01288225,0.01376181,-0.007596836,-1.367068,1.461886,-1.688391,0.4245701,1.360486,0.3946149,-1.612703,0.3669334,14.7,48.6,0.02339865,0.08925247,0.02030964,-0.3706433,0.6333434,1.901907,0.58547,1.382382,0.3274617,0.001027722,-0.02883669,0.07863144,-1.187852,0.5056178,0.1382697,0.7401284,1.372041,0.2279279,0.2947264,1.575521,0.2667979,330.0948,97.43752,152.8589,True
3,2.61111,-0.01604592,0.001026067,0.00101479,-1.366659,1.46231,-1.688155,0.4245981,1.360702,0.3942373,-1.608355,0.3917083,14.7,48.6,0.0363149,0.06682251,0.03504845,-0.3710763,0.6294894,1.904557,0.585551,1.382242,0.3268914,0.01512987,-0.01078765,0.096608,-1.186147,0.5059372,0.137466,0.7399546,1.371976,0.2276189,0.2936693,1.575421,0.2670205,329.8601,97.4371,152.9998,True
3,2.622221,-0.01707254,-0.01711867,-0.002061639,-1.36575,1.462267,-1.687963,0.424526,1.360811,0.3938017,-1.604544,0.3424235,14.7,48.6,0.03313896,0.02953245,0.03486039,-0.3719866,0.6297832,1.904241,0.5855948,1.382394,0.3266771,0.02764717,-0.009671245,0.07620955,-1.186008,0.5059171,0.1368095,0.7398111,1.37207,0.2271147,0.292705,1.575272,0.2671721,329.6481,97.42947,153.1247,True
3,2.633332,-0.02344123,-0.03103686,-0.01048782,-1.364899,1.461963,-1.68743,0.4245605,1.360955,0.3934529,-1.600299,0.3824863,14.7,48.6,0.03104422,0.01673289,0.03799544,-0.372222,0.6289218,1.904759,0.585588,1.3824,0.3262811,0.03476451,-0.01813059,0.05052491,-1.186388,0.5054461,0.1363576,0.7397379,1.372089,0.2266984,0.2917803,1.575136,0.2671995,329.4698,97.43473,153.2151,True
3,2.644443,-0.03087391,-0.0482031,-0.02634558,-1.363708,1.461307,-1.686706,0.4245752,1.36112,0.3931653,-1.596335,0.3564912,14.7,48.6,0.01500384,0.02100551,0.03067794,-0.3720681,0.6285458,1.905484,0.5855314,1.382553,0.3259561,0.03735813,-0.04038392,0.005684944,-1.18799,0.5043113,0.1363214,0.7397614,1.3722,0.226217,0.290866,1.575047,0.2670419,329.2892,97.44016,153.2917,True
3,2.655554,-0.04260579,-0.04832658,-0.04124693,-1.363083,1.460476,-1.685646,0.4245564,1.361163,0.392796,-1.592,0.3905705,13.8,49.5,0.009712754,0.04653545,0.03829577,-0.3708079,0.6259168,1.907938,0.5854415,1.382568,0.3255732,0.02334095,-0.04460137,-0.006934229,-1.188617,0.5036995,0.1367198,0.7396322,1.372208,0.2258503,0.2899406,1.574901,0.2666787,329.1418,97.49418,153.292,True
3,2.666665,-0.04371173,-0.03023189,-0.04242999,-1.363209,1.459973,-1.685006,0.4245859,1.361258,0.3924751,-1.587814,0.3768104,13.8,49.5,0.00966931,0.05507286,0.03407824,-0.370157,0.6246019,1.909101,0.5853761,1.382699,0.3252289,0.01610897,-0.04038086,0.01021662,-1.187979,0.5032602,0.1369288,0.739512,1.372284,0.2254627,0.2889932,1.574684,0.266151,328.9857,97.61665,153.1531,True
3,2.677776,-0.05015957,-0.001440201,-0.03622202,-1.364108,1.459701,-1.684206,0.4245183,1.361401,0.3921709,-1.583499,0.3886333,13.8,49.5,0.003360959,0.03478673,0.04253835,-0.370654,0.6231578,1.910577,0.5853853,1.382797,0.3248756,0.01329291,-0.01808491,0.03801129,-1.186608,0.5035639,0.1367365,0.7393421,1.372293,0.2251232,0.2880204,1.574405,0.2655368,328.8318,97.78244,152.9256,True
3,2.688887,-0.05337597,0.01141401,-0.02351874,-1.364561,1.459846,-1.683515,0.4245059,1.361575,0.3919616,-1.579712,0.3401879,13.8,49.5,0.003513508,0.01976572,0.06163663,-0.3714929,0.6199116,1.913612,0.585387,1.382872,0.3245556,0.01982367,-6.91507E-06,0.04756617,-1.185677,0.5040906,0.1361088,0.7392127,1.372357,0.2248094,0.2870249,1.574108,0.2649314,328.6574,97.94289,152.6827,True
3,2.699998,-0.05660859,0.0317113,-0.01406182,-1.365606,1.459908,-1.682822,0.4244665,1.361688,0.3916667,-1.575311,0.3965762,12.3,44.3,0.005677968,0.0101594,0.06689015,-0.3718071,0.6179078,1.91556,0.5853758,1.382968,0.3242648,0.02283335,0.02027996,0.03160525,-1.185738,0.5051988,0.1353,0.7392806,1.372382,0.2244518,0.286006,1.573884,0.2644386,328.4587,98.06132,152.4688,True
3,2.711109,-0.06195788,0.04452421,-0.006675184,-1.366419,1.460117,-1.681997,0.424518,1.361811,0.3913765,-1.57097,0.3905258,12.3,44.3,0.00246333,0.01336338,0.06480033,-0.3717869,0.6159994,1.917427,0.5854021,1.38305,0.3239009,0.01402272,0.006496205,0.01037482,-1.186404,0.5048406,0.1355972,0.7392998,1.372362,0.2240429,0.2849548,1.573806,0.2641431,328.2438,98.12632,152.3383,True
3,2.72222,-0.06515189,0.04340165,-0.01305514,-1.36663,1.459741,-1.68116,0.4246411,1.361933,0.3909833,-1.566557,0.3971732,12.3,44.3,0.003525641,0.02400862,0.06697623,-0.3713911,0.6133742,1.919933,0.5854747,1.383013,0.3235581,-0.003206266,-0.0158282,-0.002241696,-1.186834,0.5038092,0.1365898,0.7393532,1.372379,0.2236841,0.2839022,1.573818,0.2640754,328.016,98.15149,152.3212,True
3,2.733331,-0.06726428,0.03378864,-0.01618637,-1.366639,1.459453,-1.680294,0.4247469,1.362102,0.3906376,-1.561892,0.4200548,12.3,44.3,0.002427079,0.02403026,0.06271742,-0.3713102,0.6118392,1.921339,0.5855031,1.383025,0.3232028,-0.00638037,-0.02222286,-8.730171E-05,-1.186816,0.5032983,0.1369632,0.7393423,1.372382,0.2233183,0.2828636,1.573877,0.2642204,327.7825,98.14502,152.4201,True
3,2.744442,-0.0682832,0.008142062,-0.027739,-1.365754,1.458789,-1.679366,0.4248984,1.362411,0.3903041,-1.557287,0.4142452,12.3,44.3,-0.002837207,0.01758151,0.07124758,-0.3718007,0.6091741,1.924133,0.5855463,1.383227,0.3227358,-0.006336296,-0.0190414,0.003116165,-1.186659,0.5031533,0.1370535,0.7393218,1.372383,0.223052,0.2818613,1.573932,0.264512,327.5363,98.12939,152.6118,True
3,2.755553,-0.07569065,-0.02072188,-0.04032497,-1.364414,1.458083,-1.678111,0.4249991,1.362721,0.3899536,-1.552378,0.4419358,9.6,59.6,-0.00811661,0.0186107,0.07768319,-0.371919,0.6061355,1.927233,0.5857019,1.383258,0.3223996,-0.0063162,-0.0009294262,0.003167931,-1.186496,0.5038309,0.1368266,0.7392765,1.372375,0.2227252,0.280893,1.573943,0.2648386,327.3081,98.14712,152.8258,True
3,2.766664,-0.0777702,-0.04637353,-0.05187156,-1.362977,1.457315,-1.677085,0.42505,1.363006,0.389631,-1.547354,0.4520811,9.6,59.6,-0.006024428,0.01649731,0.07446463,-0.3721086,0.6040274,1.929423,0.5857842,1.38337,0.3219442,-0.005189046,0.007577949,0.007439079,-1.186201,0.5041501,0.1367328,0.7392825,1.372394,0.2223744,0.2799282,1.573928,0.2650998,327.0933,98.18288,152.9972,True
3,2.777775,-0.07774735,-0.05811288,-0.05498668,-1.361887,1.456772,-1.676124,0.4251326,1.363282,0.3893037,-1.541877,0.4934524,9.6,59.6,-0.01027731,0.01862582,0.07556318,-0.3719712,0.601897,1.931635,0.5858688,1.383404,0.3215852,-0.008434888,0.000130936,0.004265686,-1.186267,0.5038059,0.1370969,0.739234,1.372399,0.2220132,0.2789303,1.573901,0.2652044,326.8943,98.26384,153.0922,True
3,2.788886,-0.07771751,-0.07521167,-0.06339374,-1.360417,1.455962,-1.675062,0.4253339,1.363658,0.3890584,-1.536816,0.4548382,9.6,59.6,-0.006005719,0.02074503,0.07874013,-0.3720511,0.5989958,1.934437,0.5861022,1.383569,0.3211911,-0.01913486,-0.008373257,0.001179642,-1.186484,0.5034263,0.1377648,0.7392998,1.372425,0.2216341,0.2778776,1.573835,0.2651003,326.7062,98.37787,153.0987,True
3,2.799997,-0.07025234,-0.08160188,-0.06548621,-1.359246,1.455322,-1.674335,0.4256285,1.363955,0.3887606,-1.531491,0.4793941,6.9,62.3,-0.008098327,0.02284568,0.0840935,-0.3721336,0.5957794,1.937596,0.586262,1.383695,0.3207967,-0.02021412,-0.008368463,0.0001265677,-1.186542,0.5033669,0.1380434,0.7394639,1.372465,0.2212446,0.2767585,1.573687,0.2647963,326.5145,98.51155,153.0067,True
3,2.811108,-0.07024559,-0.08477134,-0.06226689,-1.358233,1.454901,-1.673407,0.425885,1.36429,0.3885498,-1.52598,0.4960687,6.9,62.3,0.005944096,0.04825936,0.113952,-0.3717783,0.5884244,1.943959,0.5866332,1.383786,0.3203614,-0.02136697,-0.0115443,-0.006260267,-1.186867,0.5031874,0.1384077,0.7395872,1.372466,0.2208512,0.2755719,1.57346,0.2643435,326.2763,98.66872,152.826,True
3,2.822219,-0.06810648,-0.08795758,-0.06010884,-1.357007,1.454561,-1.672627,0.426187,1.364547,0.3882608,-1.52072,0.4729493,6.9,62.3,-0.002637237,0.03337502,0.1043518,-0.3724122,0.5866684,1.945946,0.5869123,1.383879,0.3199136,-0.01494553,-0.02328024,-0.003176888,-1.186856,0.5024011,0.1386394,0.7396393,1.372459,0.2204919,0.2743484,1.573173,0.2638108,325.9828,98.88157,152.5663,True
3,2.83333,-0.06490397,-0.09329821,-0.06326864,-1.355735,1.453922,-1.67183,0.4264624,1.364901,0.3879406,-1.514758,0.5371802,6.9,62.3,-0.003702015,0.009964317,0.1010337,-0.3732218,0.5849106,1.947609,0.5870154,1.383924,0.3195834,-0.006295003,-0.03184156,0.007341171,-1.186501,0.5015976,0.1387081,0.7397592,1.372446,0.2200212,0.2731336,1.572822,0.2632821,325.6686,99.09646,152.2895,True
3,2.844441,-0.06597068,-0.09440619,-0.06858698,-1.354509,1.453102,-1.670887,0.4267269,1.365183,0.3875866,-1.508932,0.5239425,6.9,62.3,-0.009146035,-0.000622239,0.08503625,-0.3738748,0.5844553,1.948429,0.5872489,1.38404,0.3190935,-0.008435886,-0.02651142,0.006319309,-1.186462,0.5014886,0.1389712,0.7398942,1.372486,0.2196069,0.2719342,1.572462,0.2628233,325.3565,99.27901,152.0504,True
3,2.855552,-0.06382809,-0.1019488,-0.08238731,-1.353011,1.451864,-1.670073,0.42694,1.365475,0.3872824,-1.502913,0.5416792,8.7,75.2,-0.01548675,0.004661322,0.09256344,-0.3740271,0.58119,1.951848,0.5874064,1.384094,0.3186815,-0.01724521,-0.02431154,-0.01593022,-1.187375,0.5014479,0.1394905,0.7400476,1.372491,0.219182,0.2707551,1.572096,0.2624533,325.062,99.44094,151.8881,True
3,2.866663,-0.06490795,-0.09773518,-0.08986911,-1.352032,1.450746,-1.66909,0.427229,1.365771,0.3869505,-1.496597,0.5686505,8.7,75.2,-0.02074304,0.01098043,0.1043596,-0.3744202,0.576712,1.956583,0.5876427,1.384119,0.3182781,-0.03129553,-0.03810639,-0.03070499,-1.188382,0.5006539,0.1405329,0.7402273,1.372466,0.2187774,0.269559,1.571775,0.2621626,324.7917,99.60889,151.7678,True
3,2.877774,-0.05958888,-0.09564187,-0.09734303,-1.350923,1.449529,-1.668373,0.4274356,1.365981,0.3866863,-1.490475,0.5506073,8.7,75.2,-0.02079591,0.03018089,0.09913177,-0.3738439,0.5736248,1.959562,0.5878248,1.384249,0.3178768,-0.04071815,-0.03919778,-0.01779839,-1.188164,0.5001006,0.1414884,0.740414,1.372452,0.2183778,0.2683299,1.571468,0.2619527,324.5414,99.78593,151.6678,True
3,2.888885,-0.06278452,-0.09778227,-0.09839799,-1.349702,1.448414,-1.667282,0.427624,1.36629,0.3864095,-1.483755,0.6052492,8.7,75.2,-0.01649297,0.04505977,0.1066352,-0.3734833,0.5689823,1.963944,0.5879804,1.384356,0.3174825,-0.04904262,-0.02644467,-0.003810298,-1.187778,0.5001819,0.1421406,0.7405235,1.372479,0.2180433,0.2670362,1.571148,0.2618279,324.2934,99.9782,151.5591,True
3,2.899997,-0.06277683,-0.09884541,-0.09732775,-1.348396,1.447445,-1.666439,0.4277107,1.366641,0.3861663,-1.477261,0.5839579,8.7,75.2,-0.01008902,0.04186761,0.1086941,-0.373568,0.5654845,1.967243,0.5881288,1.384399,0.317189,-0.05332254,-0.01685272,-0.005858021,-1.187896,0.5002751,0.1428221,0.7406718,1.372383,0.217675,0.2656686,1.570811,0.2617995,324.0073,100.1629,151.4636,True
3,2.911108,-0.06278402,-0.09133245,-0.08885495,-1.34756,1.446799,-1.665636,0.4278952,1.366867,0.3859138,-1.469962,0.6576793,5.4,80.1,0.005783953,0.02918301,0.09252843,-0.3738077,0.5642392,1.967813,0.5882769,1.384474,0.3168809,-0.0512083,-0.005134642,-0.007984336,-1.188039,0.500608,0.1431803,0.7408377,1.372379,0.2172434,0.2642124,1.570415,0.2618696,323.7137,100.3429,151.3922,True
3,2.922219,-0.06386626,-0.08171155,-0.0835886,-1.346929,1.446131,-1.664747,0.42813,1.367091,0.3856444,-1.462931,0.632131,5.4,80.1,0.01211971,0.01218893,0.08386087,-0.3744149,0.5633923,1.968382,0.588562,1.384587,0.3163633,-0.04907122,-0.01473011,-0.006972564,-1.188131,0.5000073,0.1438176,0.7410034,1.372325,0.2168372,0.2626275,1.570027,0.2619941,323.3874,100.5255,151.3382,True
3,2.93333,-0.05643399,-0.06670316,-0.07411867,-1.346806,1.445407,-1.66421,0.4285632,1.367233,0.3854678,-1.455473,0.6714768,5.4,80.1,0.01953186,0.001583904,0.07629078,-0.3748927,0.5621579,1.969075,0.5888926,1.384644,0.3159957,-0.05015451,-0.03283946,-0.007009866,-1.188369,0.499023,0.1447929,0.7412415,1.372239,0.216393,0.2609156,1.569625,0.2621457,323.028,100.7003,151.2908,True
3,2.944441,-0.05323141,-0.06773187,-0.07199683,-1.346125,1.444503,-1.663578,0.4288517,1.36746,0.3851974,-1.447716,0.6982203,5.4,80.1,0.01522257,0.006925553,0.07209617,-0.3750098,0.5600722,1.971173,0.5891574,1.384735,0.3155866,-0.05127309,-0.03922362,-0.01020912,-1.188688,0.4983612,0.1457351,0.7415417,1.372272,0.2159221,0.259131,1.569127,0.2623211,322.6064,100.8653,151.2508,True
3,2.955552,-0.04682076,-0.07303052,-0.06983431,-1.345049,1.443885,-1.663216,0.4292055,1.367608,0.384866,-1.440079,0.6867766,3.6,74,0.01324809,0.03237226,0.09568018,-0.3745608,0.5542343,1.976469,0.5895745,1.384844,0.3151627,-0.05134408,-0.04240368,-0.0155424,-1.189114,0.4978455,0.1464922,0.7417618,1.372219,0.215445,0.2573242,1.568525,0.2625169,322.1294,101.0567,151.1779,True
3,2.966663,-0.04255064,-0.07944828,-0.07833497,-1.344095,1.442515,-1.662602,0.4295156,1.367742,0.3846242,-1.431771,0.7479977,3.6,74,0.008999266,0.0387409,0.09894672,-0.3745358,0.5503767,1.980177,0.5898889,1.384916,0.3148003,-0.0491555,-0.04560985,-0.01132089,-1.189203,0.4972604,0.1471,0.7419765,1.372168,0.215131,0.2555478,1.567814,0.2627626,321.6453,101.2682,151.0805,True
3,2.977774,-0.03299735,-0.06448735,-0.07417654,-1.343799,1.441854,-1.662346,0.4298639,1.367878,0.3842926,-1.423419,0.7513399,3.6,74,0.01976375,0.0610355,0.1160168,-0.3738918,0.5446447,1.984855,0.590092,1.384924,0.3143709,-0.04366677,-0.04990356,0.001381554,-1.188827,0.4965434,0.1476329,0.7421073,1.372178,0.2146671,0.2537608,1.56707,0.2630226,321.1949,101.473,151.0232,True
3,2.988885,-0.02981944,-0.05054294,-0.06363264,-1.343919,1.441251,-1.662039,0.4301363,1.368005,0.3840919,-1.414466,0.8060904,3.6,74,0.03562628,0.06857777,0.1020891,-0.3732527,0.5418074,1.986636,0.5904037,1.385009,0.3140216,-0.04151332,-0.05416838,0.003472127,-1.188846,0.4958107,0.14832,0.7423253,1.372137,0.2142465,0.2519548,1.566241,0.2632574,320.7733,101.6766,150.9776,True
3,2.999996,-0.02561867,-0.01524736,-0.04362292,-1.344985,1.441401,-1.661923,0.430344,1.368058,0.3838799,-1.405452,0.8108223,3.6,74,0.03866065,0.04528097,0.07636258,-0.3734556,0.5424797,1.985413,0.5905426,1.385112,0.3137109,-0.03500378,-0.06271981,0.01295487,-1.188483,0.4947472,0.1488382,0.742488,1.372149,0.2137804,0.2500761,1.565351,0.2634726,320.3505,101.9092,150.8673,True
3,3.011107,-0.02780337,0.01365111,-0.02571101,-1.346371,1.441401,-1.661445,0.4306068,1.368207,0.3836861,-1.395947,0.8557977,1.8,56,0.03209589,0.02623396,0.0507434,-0.3736687,0.5436409,1.984213,0.5908229,1.385176,0.3133774,-0.02754838,-0.07338107,0.01389871,-1.188383,0.4934768,0.1494305,0.7426955,1.372098,0.2133222,0.2481061,1.564432,0.2636983,319.8766,102.1058,150.7468,True
3,3.022218,-0.0278392,0.03613534,-0.0109516,-1.347723,1.441505,-1.661174,0.4308901,1.36831,0.3834198,-1.386271,0.8706847,1.8,56,0.03421633,0.02093809,0.04754891,-0.373862,0.5404028,1.986634,0.5914652,1.384449,0.3124089,-0.02119418,-0.08616698,0.01165501,-1.188512,0.4919166,0.1500076,0.7428067,1.372094,0.2128499,0.246031,1.563503,0.2639908,319.3681,102.2699,150.6263,True
3,3.033329,-0.02784783,0.04146095,-0.01098601,-1.348304,1.441313,-1.660858,0.4312739,1.368424,0.3831637,-1.376081,0.9175885,1.8,56,0.0374918,0.01982293,0.05816328,-0.3739888,0.5378782,1.988485,0.5918658,1.384567,0.3119364,-0.01377738,-0.08723041,0.008358447,-1.188734,0.4908523,0.1502553,0.7429965,1.372018,0.2123523,0.2438582,1.562581,0.2643976,318.8071,102.3755,150.5681,True
3,3.04444,-0.02570095,0.02645874,-0.02580826,-1.34805,1.440429,-1.660378,0.4316252,1.368471,0.3827894,-1.366218,0.8872447,1.8,56,0.03545478,0.03996783,0.07318515,-0.3736447,0.5341983,1.991597,0.5920918,1.384974,0.3120518,-0.01163947,-0.07871221,0.008351293,-1.188722,0.4902655,0.1505432,0.7433403,1.371984,0.2118509,0.2416164,1.561705,0.2649354,318.1927,102.4884,150.5628,True
3,3.055551,-0.02245978,0.0007721744,-0.04481521,-1.347071,1.439386,-1.660081,0.4319293,1.368606,0.38254,-1.35611,0.9097316,3.3,52.6,0.03650152,0.04744155,0.07107962,-0.3731174,0.5317113,1.99342,0.5923888,1.385186,0.3116701,-0.02229315,-0.07763825,0.008490917,-1.188769,0.4893825,0.1515317,0.7435794,1.371896,0.2114062,0.2393843,1.560805,0.2655882,317.5658,102.6109,150.6249,True
3,3.066662,-0.02029353,-0.02383984,-0.06169818,-1.345887,1.438272,-1.65961,0.4322736,1.368755,0.3822186,-1.345826,0.9256039,3.3,52.6,0.04180606,0.05490387,0.07001123,-0.3727062,0.5292616,1.995218,0.5926403,1.385506,0.311377,-0.03085564,-0.07869092,0.005405955,-1.188894,0.4883272,0.1525413,0.7437656,1.371914,0.2109258,0.2372147,1.559805,0.2662942,316.9715,102.7764,150.716,True
3,3.077773,-0.01918845,-0.04093037,-0.06904079,-1.344806,1.437416,-1.659369,0.4325076,1.368946,0.3820002,-1.335657,0.9149381,3.3,52.6,0.04931623,0.05168832,0.07633024,-0.3726402,0.5259357,1.997496,0.5928053,1.385656,0.3111246,-0.02863746,-0.07764719,0.01177342,-1.188647,0.4873888,0.1530473,0.7439275,1.371922,0.2104757,0.2350892,1.558676,0.2669643,316.4414,103.0057,150.7659,True
3,3.088884,-0.0181055,-0.04946707,-0.0711192,-1.343895,1.436605,-1.65904,0.4328259,1.369114,0.3817708,-1.325041,0.9557923,3.3,52.6,0.05570067,0.04211805,0.07410169,-0.3728181,0.5238097,1.998645,0.5930789,1.385706,0.3107939,-0.02003204,-0.07767019,0.01805266,-1.188387,0.4864338,0.1533224,0.7440974,1.371957,0.2100203,0.2329506,1.55744,0.2675412,315.9367,103.275,150.7212,True
3,3.099995,-0.02021997,-0.05690014,-0.06680352,-1.343027,1.436165,-1.658601,0.4332165,1.369257,0.3815811,-1.314637,0.9360269,3.3,52.6,0.0577507,0.03154574,0.06124421,-0.372736,0.5231809,1.998495,0.5932713,1.385608,0.3103576,-0.01468322,-0.07128769,0.01906725,-1.188224,0.4857736,0.153494,0.7442589,1.371916,0.2095633,0.2307553,1.556138,0.2679939,315.4102,103.5688,150.5934,True
3,3.111106,-0.02340763,-0.06226198,-0.06996121,-1.341989,1.435362,-1.658022,0.4335842,1.369437,0.3813863,-1.304055,0.9526376,3.3,52.3,0.05884179,0.02939943,0.06442083,-0.37285,0.5208777,1.999953,0.5935641,1.385715,0.3099978,-0.01576605,-0.06276004,0.01697279,-1.18821,0.4853007,0.1538727,0.7444582,1.371916,0.2091172,0.2284848,1.554798,0.268339,314.8554,103.8695,150.3936,True
3,3.122217,-0.02548755,-0.09004652,-0.0825602,-1.339885,1.434146,-1.65739,0.4339599,1.369672,0.3811681,-1.293422,0.9572124,3.3,52.3,0.05148475,0.05061667,0.08055735,-0.3722412,0.5161515,2.004028,0.5939016,1.385626,0.3095958,-0.02426503,-0.06808537,0.01919869,-1.1881,0.4842488,0.1547997,0.7446572,1.371931,0.2086437,0.2261937,1.553395,0.2686196,314.2504,104.1901,150.1457,True
3,3.133328,-0.02864587,-0.111407,-0.08880919,-1.337759,1.433123,-1.656678,0.4343738,1.369833,0.3808527,-1.282991,0.9386811,3.3,52.3,0.0526012,0.05804251,0.08803582,-0.3718092,0.5123684,2.006906,0.5943497,1.385655,0.3092444,-0.02631382,-0.07236195,0.02560615,-1.187773,0.483154,0.1555206,0.7448928,1.371945,0.2082036,0.2239481,1.551934,0.2688688,313.6191,104.5321,149.872,True
3,3.144439,-0.02648504,-0.1285231,-0.09935206,-1.335546,1.431791,-1.656157,0.4348127,1.370117,0.3806181,-1.272738,0.9227071,3.3,52.3,0.04408401,0.04631296,0.08803968,-0.3721725,0.5099022,2.009058,0.5947401,1.385606,0.308805,-0.02420371,-0.07449193,0.02450959,-1.187646,0.4821619,0.1561449,0.7451252,1.371893,0.2078109,0.2217669,1.55047,0.2691042,313.0242,104.9265,149.571,True
3,3.15555,-0.01793077,-0.1434546,-0.1045836,-1.333356,1.43064,-1.656014,0.4352326,1.370325,0.3803489,-1.262379,0.9324344,3.3,52.3,0.04302082,0.03780311,0.08692569,-0.37227,0.5077104,2.010632,0.5950651,1.385632,0.3084452,-0.01807148,-0.07976888,0.005230979,-1.188432,0.4811911,0.156584,0.7454118,1.371852,0.2073414,0.2196708,1.548994,0.269324,312.4816,105.3675,149.2555,True
3,3.166661,-0.01901227,-0.1338608,-0.1025111,-1.332047,1.429705,-1.655549,0.4356267,1.370656,0.3801794,-1.252544,0.8846977,4.2,51.2,0.05049058,0.03459486,0.08898379,-0.3725746,0.5049453,2.012443,0.595343,1.385908,0.3080544,-0.02035242,-0.07760556,-0.006451365,-1.188961,0.480401,0.1571936,0.7456567,1.371854,0.2068701,0.2176752,1.547507,0.2695159,311.953,105.8024,148.9434,True
3,3.177772,-0.01798373,-0.1146342,-0.09517874,-1.331357,1.428957,-1.655188,0.4360123,1.370838,0.3799582,-1.242957,0.862495,4.2,51.2,0.04943728,0.04842679,0.09224999,-0.3720825,0.5013339,2.015302,0.5956159,1.385844,0.3076682,-0.02361485,-0.07545532,-0.01172599,-1.189319,0.4796641,0.1578261,0.7458524,1.371878,0.2064195,0.2157666,1.546048,0.2696933,311.4498,106.2483,148.5959,True
3,3.188883,-0.01588347,-0.09859589,-0.08569672,-1.330639,1.428376,-1.65492,0.4363911,1.370983,0.3796186,-1.23278,0.9167067,4.2,51.2,0.0387871,0.05586477,0.09450103,-0.3717666,0.4974255,2.018986,0.5960183,1.385943,0.3072612,-0.0224255,-0.06482794,-0.00319018,-1.189109,0.4792147,0.1581531,0.7460959,1.371803,0.2058821,0.2139278,1.544611,0.2698855,310.9702,106.662,148.2469,True
3,3.199994,-0.01379604,-0.07186259,-0.0709573,-1.330693,1.428094,-1.65479,0.4367442,1.371051,0.3794243,-1.223079,0.8727719,4.2,51.2,0.032409,0.04838647,0.09451643,-0.3722678,0.4946365,2.021295,0.5967496,1.385038,0.3063648,-0.02755884,-0.06592327,0.01178724,-1.18857,0.4783668,0.158917,0.7463742,1.371813,0.2054188,0.2121132,1.543276,0.2701401,310.4734,107.0196,147.9244,True
3,3.211105,-0.01063055,-0.05582073,-0.06147348,-1.330363,1.427747,-1.65462,0.4372263,1.37129,0.3791916,-1.213531,0.8593562,6.3,47.2,0.03776609,0.04943447,0.09874344,-0.372279,0.490836,2.024239,0.5971373,1.385003,0.3059387,-0.03384194,-0.07660379,0.02036846,-1.188232,0.4767794,0.1600062,0.7466285,1.371689,0.2050972,0.2103568,1.541997,0.2704961,309.9802,107.3033,147.7234,True
3,3.222216,-0.01490737,-0.04511379,-0.05195478,-1.330196,1.427464,-1.654252,0.4376327,1.371521,0.3789794,-1.204197,0.83989,6.3,47.2,0.04948173,0.05794107,0.09868021,-0.3721022,0.4880546,2.0258,0.5973715,1.385914,0.3061574,-0.03283153,-0.0808529,0.01607854,-1.188411,0.4757277,0.160656,0.7468776,1.371645,0.2046695,0.208672,1.540726,0.2709338,309.498,107.5474,147.6113,True
3,3.233327,-0.01809958,-0.04615708,-0.04768172,-1.329612,1.427132,-1.653834,0.4379926,1.371766,0.3787487,-1.194968,0.830778,6.3,47.2,0.04623181,0.05266884,0.09014773,-0.3718551,0.4859443,2.027336,0.5977649,1.386055,0.3058484,-0.02547879,-0.07551273,0.007474747,-1.188704,0.4749885,0.1609614,0.7470921,1.371505,0.204267,0.2070597,1.539447,0.2714486,309.0014,107.761,147.5221,True
3,3.244438,-0.02553497,-0.0579101,-0.04972797,-1.328462,1.426613,-1.653141,0.4384401,1.372008,0.3783832,-1.185712,0.833308,6.3,47.2,0.03553054,0.02499086,0.08049184,-0.3729342,0.4857312,2.027539,0.598115,1.386337,0.305975,-0.02333208,-0.07338542,0.008520029,-1.188648,0.4742008,0.1614533,0.7473276,1.371508,0.2038968,0.2055045,1.538205,0.2720035,308.4856,108.0152,147.4116,True
3,3.255549,-0.03187555,-0.0857069,-0.06232098,-1.326536,1.425702,-1.652407,0.4389306,1.37227,0.3780906,-1.176775,0.8042689,6.3,47.2,0.02487757,0.0186077,0.07946582,-0.3731126,0.4835951,2.029542,0.5984566,1.386475,0.3057022,-0.02776316,-0.07761207,-0.004224274,-1.189322,0.47315,0.1623263,0.7476578,1.371461,0.2034707,0.2039896,1.537037,0.2725646,307.9926,108.2723,147.3072,True
3,3.26666,-0.03292006,-0.09746768,-0.06756507,-1.324954,1.424956,-1.651815,0.4393921,1.372499,0.3778024,-1.167809,0.807156,6.6,43.5,0.03013483,0.0367541,0.07313111,-0.3724958,0.4807923,2.031701,0.5988187,1.386568,0.3054638,-0.03100626,-0.0807955,-0.00738636,-1.189655,0.4721253,0.1632028,0.7479348,1.371417,0.2030084,0.2025213,1.535918,0.2730848,307.5353,108.5325,147.2275,True
3,3.277771,-0.04033594,-0.1188593,-0.0780703,-1.322855,1.423888,-1.650915,0.4398465,1.372785,0.3774977,-1.159229,0.7720323,6.6,43.5,0.02911631,0.04736061,0.08065625,-0.372377,0.4769287,2.034959,0.5992533,1.386579,0.3046899,-0.03095732,-0.08825987,-0.00314625,-1.189737,0.4708465,0.1640126,0.7483971,1.371475,0.2025373,0.2011354,1.534786,0.2734997,307.1059,108.8555,147.1075,True
3,3.288882,-0.04351495,-0.1274075,-0.08013894,-1.321048,1.423115,-1.650128,0.4403499,1.373039,0.3772888,-1.150819,0.7567065,6.6,43.5,0.02915613,0.05584927,0.08709261,-0.3720761,0.4728582,2.038434,0.599733,1.386681,0.3043551,-0.02663422,-0.09254213,0.002116075,-1.189685,0.4695292,0.1646854,0.7487,1.371473,0.2021325,0.1998465,1.533598,0.2737804,306.7186,109.2546,146.8623,True
3,3.299993,-0.04564087,-0.129523,-0.07692273,-1.3195,1.422553,-1.649404,0.4408709,1.373257,0.3770523,-1.142157,0.7799359,6.6,43.5,0.02924485,0.04833083,0.09664097,-0.3726029,0.4694987,2.041081,0.6002022,1.386835,0.3037877,-0.02324817,-0.09791064,0.01697338,-1.18919,0.4680771,0.1653458,0.749069,1.371492,0.2016299,0.1986202,1.532367,0.2739399,306.3557,109.6479,146.5541,True
3,3.311104,-0.04777129,-0.1295195,-0.0747866,-1.317955,1.421956,-1.648646,0.4414198,1.373573,0.3768516,-1.133926,0.7406358,7.2,57.1,0.03463067,0.05255217,0.1051458,-0.3726215,0.4650582,2.044653,0.6006688,1.386935,0.3034401,-0.02210946,-0.1085758,0.02332228,-1.189019,0.4664931,0.1661544,0.7494193,1.371518,0.2011237,0.1974191,1.531122,0.2740034,305.9997,110.0888,146.1575,True
3,3.322215,-0.04988979,-0.1337742,-0.07262275,-1.316252,1.421373,-1.647909,0.4419869,1.373914,0.3767169,-1.125875,0.7246491,7.2,57.1,0.04209757,0.06107181,0.1051834,-0.3727057,0.4595688,2.048774,0.6015652,1.386245,0.3025899,-0.02207501,-0.1117816,0.02651272,-1.188811,0.4649831,0.1670279,0.7497705,1.371439,0.2005899,0.1962693,1.52986,0.2740268,305.6281,110.5224,145.7284,True
3,3.333326,-0.0477297,-0.1465606,-0.07360569,-1.314134,1.420645,-1.647294,0.4425257,1.374244,0.3764992,-1.117934,0.7146915,7.2,57.1,0.04105362,0.0546681,0.1072876,-0.3729256,0.455999,2.051681,0.6020303,1.386322,0.3021967,-0.01674462,-0.1256391,0.02747238,-1.188757,0.4629661,0.1677368,0.7501683,1.371409,0.2000868,0.1953666,1.528909,0.2740144,305.3277,110.7543,145.4835,True
3,3.344437,-0.05197297,-0.1561834,-0.07673137,-1.311935,1.419866,-1.646366,0.4430973,1.374659,0.3762667,-1.110164,0.6992375,7.2,57.1,0.03255071,0.05143484,0.1073626,-0.3736271,0.4520736,2.055025,0.6028491,1.386158,0.3018165,-0.01470525,-0.1341428,0.02102857,-1.189051,0.4611401,0.1685352,0.7505268,1.371357,0.1996439,0.1951526,1.528708,0.2740001,305.3005,110.8468,145.3914,True
3,3.355548,-0.05408091,-0.172245,-0.08833976,-1.309393,1.418661,-1.64532,0.4437172,1.374969,0.3760543,-1.102645,0.6765361,7.2,57.1,0.04431921,0.04715846,0.1136385,-0.3738503,0.4479948,2.057936,0.6033408,1.38621,0.3014157,-0.009481855,-0.1415839,0.01348425,-1.189445,0.4592251,0.1691725,0.7508485,1.37129,0.1991804,0.1952236,1.528675,0.2740161,305.4166,110.753,145.4854,True
3,3.366659,-0.05832938,-0.1829682,-0.09679078,-1.306858,1.41742,-1.644176,0.4443426,1.375263,0.3758335,-1.09478,0.7083591,12.3,66.5,0.0431527,0.05041274,0.101929,-0.3735275,0.445864,2.059662,0.6038163,1.386819,0.3017409,-0.008430637,-0.1447739,0.01239725,-1.1896,0.4574566,0.1698852,0.7512044,1.37125,0.1988075,0.1953619,1.528632,0.274039,305.5846,110.6614,145.5909,True
3,3.37777,-0.06684178,-0.1894561,-0.1084595,-1.304481,1.416027,-1.642865,0.4449666,1.375589,0.3756452,-1.087249,0.6776096,12.3,66.5,0.04746469,0.03973957,0.1071702,-0.3740436,0.4423789,2.062261,0.6043518,1.386963,0.3014443,-0.005152032,-0.139462,0.01875518,-1.189468,0.456062,0.1704261,0.7516304,1.371195,0.1983531,0.1954764,1.528605,0.2740198,305.7396,110.6372,145.6375,True
3,3.388881,-0.06576771,-0.193744,-0.1126924,-1.302112,1.414788,-1.641889,0.4455783,1.375895,0.3755105,-1.079758,0.6743177,12.3,66.5,0.05176076,0.03226444,0.110292,-0.3746753,0.4391791,2.064467,0.6048007,1.387354,0.3014305,-0.01372962,-0.1309205,0.01463363,-1.18958,0.454826,0.1714389,0.7519993,1.371165,0.1978629,0.195068,1.527373,0.2742195,305.8172,111.3365,145.0516,True
3,3.399992,-0.06151705,-0.1927321,-0.1222895,-1.299941,1.41321,-1.640901,0.4462308,1.37621,0.375344,-1.072289,0.6723285,12.3,66.5,0.05278063,0.03868925,0.1049876,-0.3744431,0.4360427,2.066772,0.6054044,1.387566,0.3011343,-0.02552025,-0.1244995,0.008415878,-1.189856,0.4536081,0.1725502,0.7523649,1.371091,0.1973646,0.1940321,1.52565,0.2744319,305.3194,111.8528,144.5454,True
3,3.411103,-0.06045502,-0.1906019,-0.1223028,-1.297811,1.412001,-1.639979,0.4468633,1.37655,0.3751299,-1.065288,0.6295387,32.3,66.7,0.05609008,0.0524435,0.1231477,-0.3744777,0.42989,2.071895,0.6059581,1.387792,0.3006535,-0.02992484,-0.1329886,-0.002202837,-1.19055,0.4518114,0.1736533,0.7527652,1.371011,0.1967974,0.1924685,1.523556,0.2746973,304.6402,112.8227,143.6634,True
3,3.422215,-0.05408683,-0.1799296,-0.1213122,-1.296073,1.410757,-1.639256,0.4475338,1.376942,0.3749378,-1.05802,0.6541688,32.3,66.7,0.05932891,0.06092791,0.1274711,-0.3748815,0.4239381,2.076311,0.6067208,1.387013,0.2995014,-0.03311911,-0.1478949,-6.669387E-05,-1.190742,0.4496032,0.175089,0.7531673,1.370891,0.1961656,0.1903258,1.52142,0.2751005,303.6912,113.9154,142.7508,True
3,3.433326,-0.04662851,-0.1799089,-0.1202527,-1.293965,1.409559,-1.638667,0.4481363,1.37725,0.3747618,-1.050515,0.6755559,32.3,66.7,0.06356896,0.06095588,0.1242362,-0.3747872,0.4201985,2.078906,0.6073995,1.387172,0.2991395,-0.02753048,-0.1586091,0.02113068,-1.190225,0.4472763,0.176105,0.7536949,1.370884,0.1956122,0.194999,1.525254,0.2754095,304.1266,112.9451,143.7681,True
3,3.444437,-0.04452015,-0.1681612,-0.1160713,-1.292386,1.408469,-1.637935,0.4487746,1.377614,0.3745673,-1.043153,0.6622502,32.3,66.7,0.0646372,0.05242845,0.1220441,-0.3753443,0.4173309,2.080696,0.6079348,1.38776,0.2993629,-0.03064277,-0.1586211,0.02863697,-1.189882,0.4453832,0.1774358,0.7540594,1.370799,0.1949847,0.1954986,1.525805,0.2758419,305.9389,112.0065,145.0042,True
3,3.455548,-0.04772832,-0.1628546,-0.1182338,-1.290688,1.407141,-1.636928,0.4494635,1.377925,0.3744073,-1.035654,0.6749007,32.3,66.7,0.06784558,0.05136662,0.123071,-0.3754333,0.4134508,2.083391,0.6085821,1.38787,0.299078,-0.02864213,-0.1660552,0.01900367,-1.190358,0.443187,0.1784715,0.7545495,1.370793,0.1944275,0.1944114,1.524916,0.2763806,305.745,112.3148,144.8783,True
3,3.466659,-0.04985678,-0.1617869,-0.1171775,-1.288831,1.405912,-1.63602,0.4501241,1.37825,0.374325,-1.027786,0.7084739,21.3,54.7,0.06569999,0.05881985,0.1220532,-0.3753448,0.4095132,2.086426,0.6091267,1.388311,0.2990003,-0.0276632,-0.1713598,0.01258691,-1.190778,0.4410634,0.1795125,0.7549853,1.37061,0.1940722,0.191923,1.522629,0.2770296,304.8176,113.2545,144.108,True
3,3.47777,-0.05198739,-0.1639499,-0.1214227,-1.28683,1.404505,-1.63494,0.4508349,1.378568,0.3742085,-1.019817,0.717344,21.3,54.7,0.06570444,0.0715984,0.1242376,-0.3748122,0.4046712,2.090218,0.6097165,1.388405,0.2987571,-0.02230342,-0.1767049,0.01569709,-1.190912,0.4386367,0.1805019,0.7554247,1.370605,0.1935713,0.188648,1.519312,0.277763,303.3783,114.7321,142.79,True
3,3.488881,-0.05091716,-0.1671498,-0.1214017,-1.284687,1.403262,-1.634042,0.4514965,1.378862,0.3741004,-1.01223,0.6825691,21.3,54.7,0.06576669,0.07794471,0.133867,-0.3748128,0.3984852,2.095266,0.6102592,1.388533,0.2984138,-0.02331959,-0.1713856,0.01999796,-1.190712,0.4367771,0.1816713,0.7557276,1.370742,0.1931343,0.1852005,1.515481,0.2785496,301.7765,116.5881,141.0812,True
3,3.499992,-0.04769335,-0.1799828,-0.1298382,-1.282136,1.401675,-1.633252,0.4521168,1.379153,0.3740196,-1.004581,0.6886717,21.3,54.7,0.06571801,0.0747976,0.1263875,-0.3746141,0.3948854,2.09783,0.6107118,1.388614,0.2981269,-0.02425812,-0.1575553,0.03179095,-1.189871,0.4353782,0.1829917,0.7560419,1.370651,0.1924531,0.1820479,1.511693,0.2793488,300.2936,118.5478,139.2545,True
3,3.511103,-0.04447713,-0.1917177,-0.132965,-1.27946,1.400109,-1.632385,0.4526756,1.379496,0.3738928,-0.9972447,0.6599888,21.3,54.7,0.06996974,0.05883929,0.1230755,-0.3751648,0.3918294,2.099751,0.611227,1.388715,0.2979546,-0.01982786,-0.1320247,0.04246227,-1.189123,0.4344905,0.1833328,0.7564464,1.370606,0.1920862,0.1937458,1.521873,0.2796327,302.5484,115.9519,142.1658,True
3,3.522214,-0.04128049,-0.1927918,-0.1350943,-1.27718,1.398569,-1.631571,0.453318,1.379774,0.3737748,-0.9900637,0.6460425,15.6,57.8,0.07313447,0.04822995,0.1166012,-0.3754865,0.3890286,2.101325,0.6118603,1.388742,0.2977743,-0.01672755,-0.1160249,0.03394276,-1.189186,0.4337119,0.1837022,0.756817,1.370546,0.1916695,0.195683,1.523604,0.2800178,305.9595,112.9814,145.325,True
3,3.533325,-0.0381024,-0.1842765,-0.1372839,-1.275315,1.396992,-1.630809,0.4538829,1.380012,0.3736959,-0.9826436,0.668057,15.6,57.8,0.06762571,0.02068581,0.08879919,-0.3759702,0.3897082,2.10015,0.6123228,1.38878,0.2975485,-0.03297257,-0.1106273,0.0171685,-1.189163,0.432643,0.1857078,0.7571775,1.370543,0.1908391,0.1947955,1.52294,0.2803842,306.125,112.9949,145.3699,True
3,3.544436,-0.03494797,-0.1651079,-0.1395461,-1.274014,1.395309,-1.630023,0.4544797,1.380284,0.3736775,-0.9753641,0.6550685,15.6,57.8,0.06659359,0.02917527,0.09524579,-0.3760714,0.385655,2.103296,0.612867,1.388788,0.2971997,-0.03940779,-0.1169974,0.01081602,-1.189907,0.4310976,0.1863819,0.7577257,1.370194,0.1914456,0.1914151,1.519963,0.280953,304.9879,113.8918,144.58,True
