loc,t,aDotUA,bDotUA,gDotUA,aUA,bUA,gUA,xUA,yUA,zUA,qE,qDotE,emgA,emgB,aDotSH,bDotSH,gDotSH,aSH,bSH,gSH,xSH,ySH,zSH,aDotUB,bDotUB,gDotUB,aUB,bUB,gUB,xUB,yUB,zUB,xHand,yHand,zHand,aHand,bHand,gHand,enable
0,0,-0.7037134,-0.3789377,-0.4197378,-1.375997,-4.106504,2.97248,0.6454726,1.127005,0.4786,-1.603355,0.4288462,0,10.9,-0.2220832,-0.01308552,0.2600576,-0.7946138,-4.408837,0.1741774,0.690432,1.315268,0.4128721,-0.1186109,-0.08377959,-0.1991867,-0.9812822,0.2762838,-0.005638178,0.8094139,1.38577,0.2504284,0.4946453,0.9752265,0.2941173,304.533,229.9795,355.0626,True
0,0.01111111,-0.713352,-0.368447,-0.4400427,-1.371156,-4.101754,2.979693,0.6449025,1.127999,0.478061,-1.598342,0.4514495,0,10.9,-0.2103763,-0.07373019,0.2458553,-0.7929109,-4.413456,0.1793636,0.6912551,1.315918,0.4124796,-0.1092407,-0.1029203,-0.2142751,-0.9840124,0.274137,-0.003540406,0.8101789,1.385662,0.2498081,0.494176,0.976571,0.2930875,304.4055,228.2939,356.0875,True
0,0.02222222,-0.7134261,-0.3472158,-0.4497645,-1.366561,-4.097679,2.986654,0.6443497,1.129078,0.4776018,-1.593549,0.4312088,0,10.9,-0.2016789,-0.128109,0.2594019,-0.7902233,-4.418788,0.1849616,0.6921703,1.316585,0.4119203,-0.09970945,-0.1167624,-0.2176424,-0.9865164,0.2721707,-0.001641572,0.8109585,1.385446,0.2491019,0.4936398,0.978127,0.2918905,304.1317,227.4292,356.5799,True
0,0.03333334,-0.709247,-0.3206069,-0.454208,-1.361921,-4.094111,2.993569,0.6438576,1.130056,0.4770441,-1.58866,0.4403462,0,10.9,-0.1789808,-0.1729957,0.2973981,-0.7863234,-4.424582,0.1903279,0.6931071,1.317317,0.411514,-0.09343679,-0.1263204,-0.2252147,-0.9892498,0.2703793,0.0003310309,0.8116928,1.385377,0.2484753,0.4930599,0.979755,0.2906067,303.7968,226.6741,357.0584,True
0,0.04444445,-0.6934871,-0.2492069,-0.4578939,-1.356815,-4.092985,3.000437,0.6434084,1.13119,0.4765556,-1.584432,0.3798268,0,10.4,-0.1542209,-0.1848364,0.3323304,-0.7820575,-4.429302,0.1945705,0.6940302,1.318131,0.4111748,-0.08504185,-0.1401515,-0.233891,-0.9921212,0.2679621,0.002298042,0.8124444,1.385222,0.2478583,0.492509,0.9813631,0.2893033,303.4915,225.8661,357.6076,True
0,0.05555556,-0.6638206,-0.190404,-0.4402112,-1.352533,-4.092098,3.006696,0.6430642,1.132425,0.4761233,-1.580099,0.3900494,0,10.4,-0.1498934,-0.1848684,0.340831,-0.7784931,-4.43313,0.198773,0.6949822,1.318914,0.4106278,-0.0828699,-0.1454785,-0.2307409,-0.9945575,0.2660463,0.004175837,0.813219,1.385135,0.2472873,0.4919961,0.9829032,0.2880609,303.2418,225.0917,358.1135,True
0,0.06666667,-0.6437576,-0.1241916,-0.424693,-1.348185,-4.092384,3.013301,0.6425744,1.133663,0.4756613,-1.576305,0.3408017,0,10.4,-0.1659031,-0.1891289,0.3355954,-0.77544,-4.437349,0.204171,0.6960206,1.319826,0.4101715,-0.08604419,-0.15827,-0.2275347,-0.9969735,0.2634754,0.006784669,0.8140682,1.385002,0.2466216,0.4914425,0.9843208,0.2869189,303.0591,224.3602,358.5811,True
0,0.07777778,-0.620393,-0.08777438,-0.4047229,-1.344446,-4.091849,3.019323,0.6422386,1.134987,0.475137,-1.573166,0.2819582,0,10.4,-0.1881272,-0.1903235,0.3570535,-0.771277,-4.441833,0.2103271,0.6971939,1.320722,0.4096935,-0.08932012,-0.1731525,-0.2328663,-0.9998742,0.2608163,0.00930402,0.8150493,1.384733,0.2458436,0.4907568,0.9856623,0.2860058,302.9778,223.713,358.9883,True
0,0.08888889,-0.602361,-0.05568871,-0.3932402,-1.340261,-4.091681,3.025455,0.6418993,1.136159,0.4746814,-1.569758,0.30734,0,9.7,-0.1834604,-0.1895159,0.4156171,-0.7652796,-4.446795,0.2157563,0.6984288,1.321553,0.409157,-0.08208704,-0.2167958,-0.2469391,-1.003199,0.256157,0.01250993,0.8159798,1.384564,0.2450237,0.4899174,0.9870102,0.2854011,302.9539,223.2131,359.3642,True
0,0.1,-0.5928277,-0.03862138,-0.3912233,-1.336097,-4.091083,3.031767,0.6415637,1.137326,0.4742198,-1.567198,0.2297655,0,9.7,-0.1619317,-0.1917582,0.447417,-0.7598259,-4.451828,0.2204578,0.6996217,1.322396,0.4086251,-0.06317231,-0.2529813,-0.26436,-1.007023,0.2514525,0.01506497,0.8169184,1.384546,0.2441649,0.4888145,0.988416,0.2850487,302.9543,222.8305,359.7843,True
0,0.1111111,-0.5811639,-0.02592199,-0.4062333,-1.331077,-4.090392,3.037808,0.6412878,1.138415,0.4736373,-1.56465,0.2295489,0,9.7,-0.1297802,-0.2152545,0.4694592,-0.7547004,-4.45845,0.2254944,0.7008873,1.323074,0.408071,-0.0483374,-0.2753507,-0.2688878,-1.01027,0.2470376,0.01748898,0.8177779,1.384434,0.2432606,0.4875905,0.9899636,0.2848919,302.91,222.4981,0.3194104,True
0,0.1222222,-0.5641735,-0.008839473,-0.4084993,-1.326353,-4.090365,3.043574,0.6410711,1.139457,0.4731393,-1.56216,0.2244907,0,9.7,-0.08941755,-0.2459884,0.4466652,-0.7515009,-4.465284,0.2302359,0.7019772,1.323502,0.4075246,-0.03974518,-0.2753662,-0.2636823,-1.013137,0.2435695,0.01953216,0.8186567,1.384219,0.2423527,0.4862983,0.9916426,0.284815,302.782,222.1122,0.9528175,True
0,0.1333333,-0.5535666,-0.005764946,-0.4319753,-1.320721,-4.089787,3.049336,0.6410192,1.140595,0.4726229,-1.560489,0.1498742,0,9.7,-0.07466024,-0.256512,0.420947,-0.7484942,-4.471092,0.2348644,0.7031532,1.324033,0.4069729,-0.036405,-0.272203,-0.2530725,-1.015766,0.2402414,0.0216531,0.8195654,1.384036,0.2414923,0.4849953,0.9934352,0.2846956,302.6002,221.6656,1.65192,True
0,0.1444445,-0.5397684,0.007001862,-0.4405996,-1.315526,-4.089853,3.054826,0.6409434,1.141518,0.472192,-1.559312,0.1054525,0,9,-0.0655545,-0.2583126,0.3505642,-0.7476995,-4.475821,0.2386893,0.7040954,1.324381,0.4063942,-0.04363185,-0.2562635,-0.236948,-1.017898,0.2375589,0.0237751,0.8203729,1.383817,0.2407417,0.483739,0.9953038,0.2844475,302.3773,221.1079,2.410054,True
0,0.1555556,-0.5238568,0.03368996,-0.4386637,-1.3108,-4.09064,3.060139,0.6409638,1.14236,0.4719515,-1.557795,0.1370265,0,9,-0.0754551,-0.244286,0.3091448,-0.7462023,-4.479517,0.2427298,0.7050425,1.324858,0.4058735,-0.05309057,-0.2349657,-0.2282362,-1.020202,0.2355077,0.02579618,0.8212085,1.383515,0.2400386,0.4826231,0.9972273,0.2840964,302.1268,220.5157,3.135272,True
0,0.1666667,-0.5058267,0.06467981,-0.4314373,-1.30619,-4.091945,3.065427,0.6410888,1.143187,0.4715743,-1.556947,0.07560883,0,9,-0.093878,-0.2249503,0.2678107,-0.7452238,-4.482602,0.2467083,0.7059057,1.325153,0.4053071,-0.05729434,-0.2008791,-0.2259507,-1.022656,0.2342996,0.02719753,0.8220372,1.383263,0.2393608,0.4817143,0.9991698,0.283664,301.8785,219.8092,3.901886,True
0,0.1777778,-0.4920616,0.09027171,-0.4337417,-1.301305,-4.093481,3.070819,0.6411035,1.144107,0.4713948,-1.556238,0.06362195,0,9,-0.08857378,-0.1940681,0.2711181,-0.7421873,-4.485492,0.2496085,0.7068861,1.325541,0.404731,-0.05729154,-0.177443,-0.2269507,-1.025291,0.2328842,0.02855867,0.8229585,1.383078,0.2386751,0.4809579,1.001068,0.2831808,301.5984,219.0968,4.577108,True
0,0.1888889,-0.4665787,0.1256033,-0.4180302,-1.297048,-4.0958,3.07574,0.6412647,1.144852,0.4711237,-1.555431,0.07261117,0,9,-0.07992789,-0.1739168,0.2935219,-0.7385782,-4.488824,0.2526834,0.707742,1.325902,0.4041319,-0.06264055,-0.1529279,-0.2300042,-1.027971,0.2320153,0.02987188,0.8238074,1.382814,0.2380338,0.4803165,1.002871,0.2827407,301.3166,218.4646,5.148126,True
0,0.2,-0.4389901,0.1727017,-0.3970739,-1.293083,-4.099154,3.080502,0.6415546,1.145695,0.4707999,-1.554515,0.08268741,0,8.6,-0.07234657,-0.171864,0.3126591,-0.7350618,-4.493107,0.2564978,0.7086624,1.32636,0.403513,-0.06378922,-0.1326607,-0.2373929,-1.030939,0.2311657,0.03103461,0.8247651,1.382655,0.2373738,0.4796992,1.004541,0.2823703,301.0999,217.8672,5.706937,True
0,0.2111111,-0.4188275,0.2069779,-0.3781496,-1.289358,-4.102489,3.085387,0.6417179,1.146425,0.4704928,-1.554394,0.009810545,0,8.6,-0.06699701,-0.1580378,0.3190767,-0.731826,-4.496466,0.2595735,0.7095153,1.326699,0.4029493,-0.06597027,-0.1241245,-0.2416004,-1.033784,0.2300385,0.03241041,0.8256176,1.382405,0.2367322,0.4790229,1.006096,0.282123,300.9559,217.2808,6.259296,True
0,0.2222222,-0.3881368,0.2882746,-0.3425025,-1.286439,-4.108539,3.090362,0.6421291,1.147008,0.4701765,-1.554174,0.0196685,0,8.6,-0.07562155,-0.122864,0.3118398,-0.7287884,-4.497988,0.261875,0.7104238,1.327004,0.4023612,-0.07119226,-0.1177436,-0.234059,-1.03622,0.2288517,0.03399046,0.8264419,1.382126,0.2360399,0.4782542,1.007567,0.2820421,300.8273,216.844,6.761317,True
0,0.2333333,-0.3797174,0.3299744,-0.3236135,-1.283154,-4.113482,3.095768,0.6426134,1.147693,0.4698629,-1.553409,0.06937247,0,8.6,-0.07359867,-0.08766864,0.3045239,-0.725754,-4.498764,0.2632966,0.7113953,1.327201,0.4017558,-0.07325925,-0.1081622,-0.2297409,-1.03863,0.2279643,0.0353279,0.8273954,1.381811,0.2354052,0.4773797,1.008985,0.2821448,300.7163,216.5298,7.247879,True
0,0.2444444,-0.3799088,0.4025534,-0.3027846,-1.280206,-4.120592,3.101963,0.6432202,1.148137,0.4696736,-1.553427,-0.002686084,0,7.5,-0.05359459,-0.01936987,0.2844526,-0.7228885,-4.496549,0.2615546,0.7123142,1.327216,0.4012229,-0.07321803,-0.09325425,-0.2275677,-1.041094,0.2274487,0.03639343,0.8281778,1.381513,0.2348869,0.4763424,1.010359,0.2823856,300.5986,216.2975,7.717193,True
0,0.2555556,-0.3928491,0.4558638,-0.2903195,-1.277297,-4.127596,3.10894,0.6438217,1.148428,0.4695511,-1.552207,0.1113563,0,7.5,-0.03015916,0.003018752,0.2886529,-0.7194508,-4.496865,0.2613365,0.7133781,1.32726,0.4006085,-0.07428391,-0.07940123,-0.2275131,-1.043643,0.2271218,0.0375503,0.8290464,1.381322,0.2343912,0.4751783,1.01173,0.2828187,300.443,216.2024,8.147759,True
0,0.2666667,-0.4249578,0.5090867,-0.2821047,-1.27428,-4.135421,3.11706,0.6446902,1.14873,0.4695671,-1.55149,0.06422208,0,7.5,0.003932342,-0.02992687,0.2818779,-0.7169933,-4.500059,0.2625083,0.7144461,1.327296,0.4001894,-0.06013776,-0.06775537,-0.2063633,-1.045205,0.2268161,0.03792714,0.8298266,1.381039,0.2338574,0.4739757,1.013129,0.2834271,300.2933,216.09,8.663796,True
0,0.2777778,-0.4612828,0.5474187,-0.2684661,-1.271551,-4.142914,3.125675,0.6457123,1.148914,0.4695091,-1.550339,0.1046368,0,7.5,0.02511005,-0.1117598,0.2462047,-0.7166274,-4.506526,0.2664801,0.7155349,1.327315,0.399827,-0.05795394,-0.07203681,-0.2021385,-1.047307,0.2256647,0.03907416,0.8306201,1.380787,0.2332749,0.4726965,1.014574,0.2841862,300.0865,215.9795,9.189395,True
0,0.2888889,-0.4858261,0.5687632,-0.2515281,-1.269232,-4.150189,3.133995,0.6466931,1.149252,0.4696238,-1.549164,0.1064118,0,7.5,0.04515189,-0.177584,0.2031571,-0.7168665,-4.51279,0.2700837,0.7166365,1.32739,0.3995385,-0.04965144,-0.0922413,-0.2172246,-1.050291,0.2238429,0.04024223,0.8314358,1.380482,0.2326741,0.4713566,1.016082,0.2850755,299.8402,215.8683,9.747194,True
0,0.3,-0.4986458,0.5934088,-0.2250459,-1.267506,-4.157985,-3.140938,0.6477082,1.149656,0.4696367,-1.548437,0.06564523,0,8.4,0.06738414,-0.2104495,0.1762252,-0.716646,-4.517992,0.2725604,0.7177554,1.327452,0.3992336,-0.03601071,-0.123115,-0.230278,-1.053354,0.2211697,0.04162867,0.8322879,1.380104,0.2320604,0.4700507,1.017722,0.2860972,299.5804,215.7705,10.35289,True
0,0.3111111,-0.4826896,0.6127662,-0.2049513,-1.265898,-4.165972,-3.133767,0.6485077,1.150125,0.4696493,-1.548655,-0.02044267,0,8.4,0.09808414,-0.2507232,0.139612,-0.7173949,-4.524229,0.2751133,0.7189891,1.327574,0.3989904,-0.02013549,-0.1422847,-0.2369406,-1.056358,0.2186885,0.04252935,0.8331139,1.379798,0.2314303,0.4688423,1.019543,0.287156,299.3048,215.6978,10.98065,True
0,0.3222222,-0.4528346,0.619471,-0.1720078,-1.265205,-4.173529,-3.127549,0.6493696,1.150498,0.4696374,-1.548964,-0.02793013,0,8.4,0.1118617,-0.268741,0.1255951,-0.7173352,-4.529656,0.2775294,0.720239,1.32768,0.3986626,-0.0009734631,-0.1806461,-0.2362424,-1.059013,0.2152311,0.04353762,0.8338879,1.379464,0.2308171,0.4677734,1.021592,0.2881688,299.0125,215.6416,11.55157,True
0,0.3333333,-0.4272487,0.6196914,-0.1475532,-1.264379,-4.18058,-3.12136,0.6504107,1.150915,0.4695892,-1.550125,-0.105925,0,8.4,0.1120838,-0.3008139,0.1510174,-0.7160846,-4.537091,0.2818951,0.7215918,1.327895,0.3983893,0.003262192,-0.1998262,-0.237418,-1.061783,0.2121366,0.04487027,0.8347313,1.379125,0.2301908,0.4667629,1.023868,0.2890325,298.6774,215.5816,12.07048,True
0,0.3444445,-0.4005451,0.6006606,-0.1378757,-1.263339,-4.186953,-3.115894,0.6512764,1.151319,0.4694693,-1.550955,-0.07511,9.3,5.1,0.1135493,-0.3330034,0.2030687,-0.7135407,-4.545758,0.2871953,0.7228583,1.328041,0.3980319,0.01174185,-0.232854,-0.238693,-1.064647,0.2080157,0.04646071,0.8355541,1.37883,0.2295241,0.4657538,1.026315,0.2897358,298.2511,215.4376,12.60343,True
0,0.3555556,-0.3823422,0.5709057,-0.1334469,-1.262038,-4.192547,-3.110439,0.652194,1.151622,0.4694242,-1.550712,0.02264255,9.3,5.1,0.1117077,-0.3480945,0.242431,-0.7110448,-4.55371,0.2920635,0.7241467,1.328224,0.3977017,0.02340034,-0.2584236,-0.242124,-1.067684,0.2039791,0.04774116,0.8364085,1.378548,0.2289104,0.4648697,1.028812,0.2903556,297.7234,215.2794,13.15187,True
0,0.3666667,-0.3780385,0.5559908,-0.1354848,-1.260672,-4.198523,-3.104579,0.6530583,1.151963,0.4693179,-1.55097,-0.02397316,9.3,5.1,0.105376,-0.3438855,0.2520814,-0.7091337,-4.560481,0.2962346,0.7253723,1.328369,0.3973839,0.03289551,-0.2818524,-0.2476468,-1.070789,0.1997053,0.04911535,0.8372027,1.378307,0.2282453,0.4641929,1.031214,0.2909095,297.2054,215.0608,13.7565,True
0,0.3777778,-0.3673376,0.538962,-0.1375153,-1.259266,-4.204351,-3.099003,0.6541083,1.152264,0.4692826,-1.55056,0.03748725,9.3,5.1,0.1106372,-0.3193564,0.2478946,-0.7074592,-4.565541,0.2986794,0.7266176,1.328379,0.397047,0.03509924,-0.2936037,-0.2413048,-1.07334,0.1955762,0.05069887,0.8378763,1.378034,0.2276201,0.4636851,1.03338,0.2913671,296.7443,214.7412,14.39512,True
0,0.3888889,-0.3523825,0.5262413,-0.1342573,-1.258111,-4.210063,-3.093812,0.6551186,1.152436,0.4691601,-1.550039,0.04720831,9.3,5.1,0.1147465,-0.2947723,0.2309312,-0.7062783,-4.569963,0.3006344,0.7277936,1.328456,0.3967705,0.04493424,-0.290467,-0.2233174,-1.075351,0.1921155,0.05151565,0.8385892,1.377781,0.2270064,0.463338,1.035222,0.2917488,296.3799,214.3997,14.96791,True
0,0.4,-0.3417307,0.5305769,-0.1279058,-1.257192,-4.216482,-3.088451,0.6561608,1.152627,0.4691164,-1.550084,-0.004655579,17.4,3,0.1400255,-0.2753949,0.1935572,-0.7061057,-4.573878,0.3012815,0.7290378,1.328329,0.3965383,0.05685371,-0.2884034,-0.2085516,-1.077303,0.1885381,0.05223684,0.8392817,1.377538,0.226325,0.4630672,1.03675,0.2920797,296.1423,214.1398,15.40274,True
0,0.4111111,-0.3342827,0.5381068,-0.1205064,-1.256448,-4.223224,-3.082869,0.6571665,1.1528,0.4690034,-1.55031,-0.02071879,17.4,3,0.1483122,-0.2794841,0.1583267,-0.7064679,-4.579075,0.3032659,0.7302381,1.328338,0.3962598,0.06227723,-0.2745777,-0.2021881,-1.079467,0.1856557,0.05274364,0.8399426,1.377298,0.2257257,0.4629095,1.03803,0.2924455,295.9785,213.9564,15.7616,True
0,0.4222222,-0.3257838,0.5553073,-0.1003935,-1.256346,-4.23031,-3.077349,0.6582509,1.152832,0.4689615,-1.550237,0.006805603,17.4,3,0.1480336,-0.2867588,0.1167517,-0.707587,-4.58424,0.3055868,0.7314917,1.328286,0.3960228,0.07093844,-0.2724929,-0.1916467,-1.081494,0.1822619,0.05336469,0.8406507,1.377075,0.2251682,0.462794,1.039111,0.2928517,295.8479,213.8573,16.04843,True
0,0.4333333,-0.3119468,0.5639636,-0.08769327,-1.256015,-4.237272,-3.072089,0.6593781,1.152966,0.4689178,-1.549962,0.02500658,17.4,3,0.1437618,-0.2888908,0.1146426,-0.7072402,-4.58978,0.3084263,0.7328613,1.328293,0.3958106,0.07843786,-0.2757125,-0.1885499,-1.083567,0.178644,0.05395005,0.8414762,1.376881,0.2245238,0.4626496,1.040074,0.2933338,295.7513,213.8508,16.24817,True
0,0.4444444,-0.29811,0.5736773,-0.0749923,-1.256094,-4.244338,-3.067058,0.6604495,1.152971,0.4687977,-1.549973,-0.00138007,16.2,2.2,0.1523323,-0.2867814,0.1220504,-0.7066581,-4.595111,0.3105166,0.734105,1.328241,0.3955939,0.0880527,-0.2767913,-0.1865527,-1.085726,0.1752459,0.05421823,0.8421434,1.376675,0.2239847,0.4623977,1.04101,0.2939039,295.6577,213.9174,16.4155,True
0,0.4555556,-0.2821289,0.580213,-0.06121258,-1.256296,-4.251348,-3.062278,0.6614714,1.152939,0.4685841,-1.550078,-0.009583785,16.2,2.2,0.1683375,-0.2782716,0.1283769,-0.7058703,-4.600179,0.3120801,0.7355218,1.328191,0.3953466,0.09442939,-0.2693388,-0.1876818,-1.087973,0.1722818,0.05441477,0.8427808,1.376474,0.2234077,0.4620833,1.042002,0.2946082,295.5231,214.0493,16.58204,True
0,0.4666667,-0.2629336,0.5803664,-0.0463264,-1.256769,-4.258115,-3.057861,0.6625059,1.152867,0.4684429,-1.550215,-0.01257838,16.2,2.2,0.1811607,-0.2772195,0.1346853,-0.705179,-4.605546,0.3137587,0.7368427,1.328049,0.3951473,0.1030567,-0.2640401,-0.1803263,-1.089931,0.1692588,0.05440172,0.8434418,1.376267,0.2228742,0.4617382,1.043096,0.2954406,295.3586,214.1681,16.8268,True
0,0.4777778,-0.2501214,0.5794212,-0.03462392,-1.257247,-4.264783,-3.053572,0.6634928,1.152778,0.4682548,-1.550314,-0.00907879,16.2,2.2,0.1853963,-0.27932,0.1314504,-0.7048716,-4.610616,0.3155691,0.7381157,1.327933,0.3949881,0.1116609,-0.2640672,-0.1750983,-1.091626,0.1659891,0.05430159,0.8440824,1.37604,0.2223454,0.4613211,1.044281,0.2963314,295.1298,214.2938,17.12472,True
0,0.4888889,-0.2319601,0.5689157,-0.01966774,-1.258038,-4.270929,-3.049699,0.6645721,1.15258,0.4681036,-1.550444,-0.01187135,16.2,2.2,0.1853137,-0.2984256,0.1153843,-0.7053936,-4.616901,0.3182952,0.7393708,1.32773,0.3948166,0.1190602,-0.2629959,-0.1794574,-1.093954,0.1628555,0.05415139,0.8446995,1.37585,0.2218421,0.4608525,1.045519,0.2972225,294.852,214.4108,17.46129,True
0,0.5,-0.2212511,0.5583829,-0.006826445,-1.258903,-4.27712,-3.04571,0.6656299,1.152447,0.4680128,-1.55038,0.005863447,16.8,1.8,0.1840279,-0.2908324,0.0856013,-0.7062778,-4.621294,0.3196534,0.7406058,1.327563,0.3945849,0.1297053,-0.262995,-0.1806744,-1.096245,0.1597127,0.05370584,0.8452485,1.375654,0.2213206,0.4604152,1.046757,0.2980946,294.5465,214.5089,17.80328,True
0,0.5111111,-0.2105168,0.5414801,0.009257361,-1.26009,-4.282881,-3.04198,0.666658,1.152271,0.4679019,-1.550444,-0.006149582,16.8,1.8,0.1828377,-0.2832984,0.06859747,-0.7069862,-4.625588,0.3208494,0.7417421,1.327448,0.3944297,0.140509,-0.2608865,-0.1701643,-1.097957,0.1568185,0.05304777,0.8457853,1.375484,0.2208769,0.4600492,1.047933,0.2989176,294.2374,214.5882,18.14148,True
0,0.5222223,-0.2030017,0.5266521,0.01893291,-1.261163,-4.288505,-3.03823,0.6677672,1.152019,0.4677207,-1.550178,0.02427508,16.8,1.8,0.1976668,-0.2917248,0.05460741,-0.7079082,-4.630584,0.321977,0.7428753,1.327123,0.3943577,0.1502429,-0.257728,-0.1596335,-1.099547,0.1537786,0.05242592,0.8463023,1.375311,0.220386,0.459849,1.048992,0.2996906,293.9388,214.6793,18.42568,True
0,0.5333334,-0.1912593,0.524615,0.027447,-1.262223,-4.294525,-3.034695,0.6689116,1.151692,0.4675915,-1.550115,0.005454814,16.8,1.8,0.2051088,-0.3034137,0.05023783,-0.7087029,-4.636298,0.3238175,0.7440462,1.326866,0.3942177,0.157824,-0.2588145,-0.1501475,-1.101009,0.1507506,0.05187758,0.8468255,1.37511,0.2199175,0.4597854,1.049909,0.3003924,293.6942,214.8149,18.60284,True
0,0.5444446,-0.1859337,0.5311141,0.041246,-1.263816,-4.300865,-3.030882,0.6700802,1.151309,0.4674301,-1.549909,0.01874111,17.7,2.7,0.217866,-0.3161499,0.04370075,-0.7096893,-4.642219,0.3254351,0.7452436,1.326596,0.3940973,0.1631899,-0.2630887,-0.1470362,-1.102705,0.1473861,0.0514086,0.8473189,1.374922,0.219444,0.4598228,1.050681,0.3009995,293.4819,214.9937,18.70983,True
0,0.5555557,-0.1784736,0.5408438,0.05927491,-1.26569,-4.307342,-3.027234,0.6713195,1.15094,0.4672225,-1.55009,-0.01684555,17.7,2.7,0.2221257,-0.3289201,0.04148667,-0.7105841,-4.648372,0.3275454,0.7463787,1.326375,0.3938558,0.1663952,-0.2652167,-0.1470755,-1.104403,0.1441533,0.05081125,0.8478243,1.374796,0.219065,0.4599519,1.051315,0.3015072,293.293,215.1496,18.81183,True
0,0.5666668,-0.1699621,0.553785,0.08048061,-1.267956,-4.313829,-3.023715,0.6725241,1.150503,0.4671121,-1.549803,0.02629417,17.7,2.7,0.227356,-0.3490788,0.02431698,-0.7123114,-4.654894,0.3298677,0.7474402,1.326078,0.3937867,0.1696639,-0.264169,-0.1417899,-1.105908,0.1410157,0.05022455,0.8482687,1.374634,0.2186542,0.4601465,1.051825,0.3019621,293.1124,215.3008,18.86562,True
0,0.577778,-0.1625158,0.5624082,0.09213486,-1.27014,-4.320467,-3.020174,0.6736958,1.150073,0.4670091,-1.549855,-0.005004808,17.7,2.7,0.2314752,-0.3436593,0.005138971,-0.7139828,-4.659794,0.3309073,0.7486066,1.32583,0.3937416,0.1697036,-0.2631161,-0.1385768,-1.107295,0.1378458,0.04981949,0.8485017,1.374452,0.2182307,0.4603502,1.05225,0.3024058,292.9449,215.5792,18.79005,True
0,0.5888891,-0.155031,0.5625668,0.1123665,-1.272855,-4.32679,-3.016836,0.674863,1.149619,0.4669125,-1.549878,-0.002076076,17.7,2.7,0.2323723,-0.3307811,-0.01611517,-0.7158646,-4.664131,0.3316312,0.7497335,1.325464,0.3936574,0.1687277,-0.2599374,-0.1321622,-1.10869,0.1347719,0.04934465,0.8489009,1.374313,0.2178178,0.4605613,1.05264,0.3028803,292.7862,215.9379,18.65393,True
0,0.6000003,-0.1389815,0.5499867,0.1337478,-1.275779,-4.332575,-3.014138,0.675952,1.149199,0.4669297,-1.549783,0.008534736,17.7,2.2,0.2311689,-0.3104686,-0.03198981,-0.7174796,-4.667733,0.3318482,0.7507682,1.325049,0.393687,0.1721165,-0.2546359,-0.1193931,-1.109512,0.132053,0.04839842,0.8494158,1.374124,0.2174976,0.4607562,1.05303,0.3034191,292.6135,216.3152,18.50402,True
0,0.6111114,-0.1293605,0.5436741,0.1401784,-1.278235,-4.338449,-3.011325,0.6770527,1.148829,0.4669387,-1.549766,0.001454673,17.7,2.2,0.2333139,-0.3147415,-0.02989196,-0.7188948,-4.672883,0.3331527,0.7518386,1.324733,0.3935797,0.1817806,-0.2557186,-0.1141772,-1.110466,0.128968,0.0474341,0.8498634,1.374117,0.2170253,0.4609,1.053445,0.3040435,292.43,216.7048,18.36254,True
0,0.6222225,-0.1197277,0.532034,0.1476992,-1.280823,-4.343861,-3.008774,0.6781505,1.148308,0.4667985,-1.550124,-0.03280319,17.7,2.2,0.2365442,-0.3168856,-0.02459321,-0.7200607,-4.677954,0.334338,0.7528749,1.324413,0.3935633,0.1945868,-0.2621261,-0.1122379,-1.111761,0.1255646,0.04638934,0.8502274,1.373998,0.2166297,0.4610133,1.053903,0.3047581,292.2249,217.1679,18.18201,True
0,0.6333337,-0.1133116,0.5246279,0.1509314,-1.283228,-4.34954,-3.006031,0.679325,1.147843,0.4666982,-1.549941,0.01699423,17.7,2.2,0.2354536,-0.316868,-0.02777967,-0.7215798,-4.682649,0.3353524,0.7538066,1.323981,0.3934648,0.1978489,-0.2631833,-0.1090726,-1.112803,0.1225559,0.04521462,0.8506777,1.373723,0.2162635,0.4611339,1.054395,0.3055544,292.0038,217.6288,18.02018,True
0,0.6444448,-0.09835404,0.5140759,0.1595035,-1.285961,-4.354702,-3.004003,0.6804281,1.147304,0.4665504,-1.549906,0.002857739,17.7,2.2,0.2289933,-0.3200251,-0.03840286,-0.723485,-4.687441,0.3366587,0.7547358,1.323647,0.393398,0.194967,-0.2675079,-0.08560694,-1.11316,0.1191217,0.04466148,0.850942,1.373618,0.2158861,0.4612514,1.054895,0.306402,291.7766,218.0323,17.94769,True
0,0.655556,-0.08874388,0.5098654,0.1616459,-1.288482,-4.3602,-3.001849,0.6815314,1.146856,0.4663448,-1.549671,0.02142681,29.9,2.4,0.2288383,-0.3273721,-0.0618743,-0.726097,-4.692098,0.3376952,0.7556752,1.323361,0.3933709,0.1877355,-0.2621975,-0.06952029,-1.113531,0.1164478,0.04398504,0.8510795,1.373538,0.2154565,0.46138,1.055359,0.3072406,291.5289,218.435,17.91095,True
0,0.6666671,-0.06743746,0.5110388,0.1680012,-1.29129,-4.365799,-3.000178,0.6826516,1.14636,0.4661663,-1.550093,-0.03889569,29.9,2.4,0.2319054,-0.329412,-0.08108053,-0.7287623,-4.696577,0.3383959,0.7565787,1.323075,0.3932946,0.1679256,-0.2452344,-0.04037578,-1.112502,0.1137162,0.0437592,0.8516083,1.373238,0.215101,0.461555,1.055768,0.3080407,291.2986,218.8598,17.8384,True
0,0.6777782,-0.05357486,0.5089785,0.171194,-1.294038,-4.371333,-2.99853,0.6837062,1.145965,0.4660034,-1.549983,0.01040338,29.9,2.4,0.2349918,-0.3261408,-0.09599795,-0.7312859,-4.700642,0.3387837,0.757445,1.322722,0.393177,0.1541427,-0.2366972,-0.03591973,-1.113024,0.1113775,0.04354055,0.8518615,1.373199,0.2145865,0.4617752,1.056093,0.3087569,291.0787,219.3275,17.69853,True
0,0.6888894,-0.03221355,0.4941653,0.176591,-1.296865,-4.376135,-2.997611,0.6846982,1.145582,0.4657865,-1.550324,-0.03143843,29.9,2.4,0.217881,-0.294192,-0.09893309,-0.7331182,-4.702964,0.3387418,0.7582049,1.32255,0.3930564,0.150724,-0.2398418,-0.05185918,-1.114182,0.1084162,0.04330753,0.8519452,1.373201,0.2142372,0.4620231,1.056329,0.3093768,290.9028,219.8103,17.49806,True
0,0.7000005,-0.0193898,0.4792911,0.1766778,-1.299544,-4.380762,-2.996545,0.6856225,1.145186,0.4655821,-1.550205,0.0110359,20.4,1.4,0.1956961,-0.2368681,-0.05910916,-0.7325419,-4.704017,0.3382321,0.7589399,1.322367,0.3929281,0.1652362,-0.2482469,-0.08191178,-1.116144,0.1057362,0.04209472,0.8523408,1.373221,0.213906,0.4623104,1.056481,0.3099377,290.7477,220.3192,17.22083,True
0,0.7111117,-0.0118572,0.4505175,0.1715291,-1.301783,-4.384545,-2.995614,0.6865315,1.144786,0.4653778,-1.550538,-0.03065033,20.4,1.4,0.1841796,-0.1784802,-0.01721906,-0.7312753,-4.704569,0.3370664,0.759707,1.322138,0.3927672,0.182064,-0.250346,-0.09812456,-1.117866,0.1026509,0.04080362,0.8525305,1.373179,0.2135775,0.4625995,1.056568,0.3104618,290.6285,220.8717,16.8804,True
0,0.7222228,-0.01497133,0.418473,0.1589612,-1.303575,-4.38804,-2.994406,0.6874422,1.144301,0.4652109,-1.550202,0.03091287,20.4,1.4,0.1874891,-0.1657737,0.001997974,-0.7310926,-4.706969,0.3366654,0.7605467,1.321878,0.3925993,0.2118182,-0.2492558,-0.1038715,-1.119463,0.1001381,0.03852422,0.8527366,1.373134,0.2132072,0.4628943,1.056594,0.3109497,290.5163,221.4277,16.54269,True
0,0.7333339,-0.01385463,0.3928371,0.1463424,-1.305265,-4.391665,-2.993218,0.688418,1.143859,0.4651222,-1.549906,0.02656826,20.4,1.4,0.1949458,-0.1817304,-0.001321182,-0.7321195,-4.710632,0.3369634,0.7614695,1.321496,0.3924847,0.2229678,-0.2451187,-0.06672107,-1.118966,0.09713041,0.03715935,0.8528786,1.373042,0.2128267,0.4631854,1.056553,0.3113961,290.4127,221.9441,16.24176,True
0,0.7444451,-0.01807868,0.3746309,0.1336837,-1.306839,-4.395116,-2.991978,0.6893517,1.143414,0.4649663,-1.549411,0.04499667,20.4,1.4,0.2203987,-0.2380266,-0.02944656,-0.7349973,1.566607,0.3380236,0.7621318,1.321104,0.3923628,0.2246616,-0.2314014,-0.02089261,-1.117706,0.09471107,0.03566772,0.8529259,1.373008,0.2124035,0.4635183,1.056444,0.3117946,290.3184,222.3513,16.03635,True
0,0.7555562,-0.01593286,0.3660813,0.1273495,-1.308692,-4.399018,-2.990841,0.6903195,1.143003,0.464838,-1.549341,0.005974961,19.2,1,0.2350902,-0.2751043,-0.07019068,-0.7383795,1.561743,0.338475,0.7627828,1.320853,0.3922153,0.2143697,-0.2091096,0.004889162,-1.116841,0.09268653,0.03454626,0.8527788,1.372911,0.212014,0.4639162,1.056271,0.3121532,290.2428,222.6727,15.87063,True
0,0.7666674,-0.007394321,0.3597012,0.1252492,-1.310557,-4.402676,-2.990115,0.6912252,1.142649,0.4646516,-1.549195,0.01333873,19.2,1,0.2306346,-0.2717903,-0.09784395,-0.7413068,1.558646,0.3383093,0.763397,1.320577,0.3920448,0.2026815,-0.2027123,0.007176975,-1.11699,0.09044388,0.03366236,0.8527377,1.372906,0.2116721,0.4643823,1.056069,0.3125081,290.1905,222.9996,15.66579,True
0,0.7777785,0.006466307,0.3533083,0.1178054,-1.312063,-4.406404,-2.989727,0.692067,1.142262,0.4644296,-1.54936,-0.01520845,19.2,1,0.2188452,-0.2451587,-0.1019017,-0.7429516,1.556721,0.3377978,0.7639343,1.320401,0.3918746,0.1918505,-0.1940914,-0.006529748,-1.117874,0.08908926,0.03250228,0.8532307,1.373055,0.2113099,0.4648515,1.055873,0.31286,290.1543,223.368,15.42135,True
0,0.7888896,0.02138116,0.3511924,0.1124739,-1.31373,-4.410224,-2.989486,0.6928756,1.141942,0.464257,-1.549671,-0.02834126,19.2,1,0.1997487,-0.2239529,-0.08569539,-0.7439151,1.554356,0.337965,0.7645177,1.320165,0.3916709,0.1755164,-0.1790833,-0.03291463,-1.119359,0.08760095,0.03182983,0.8532948,1.373076,0.2110755,0.4652947,1.055728,0.3132326,290.1156,223.8023,15.12641,True
0,0.8000008,0.03096648,0.3522562,0.1071237,-1.315303,-4.414169,-2.989198,0.6936461,1.141578,0.4640753,-1.549971,-0.02729183,8.4,0.9,0.1891667,-0.2112395,-0.07278114,-0.744892,1.5518,0.3380843,0.7650912,1.319934,0.3915117,0.160322,-0.154521,-0.05501099,-1.120732,0.08643728,0.03099653,0.8533354,1.372884,0.2108943,0.465678,1.055645,0.3136188,290.0542,224.2135,14.88817,True
0,0.8111119,0.03949831,0.3480103,0.1050099,-1.316981,-4.417864,-2.988971,0.6944349,1.141267,0.4638891,-1.550053,-0.007363729,8.4,0.9,0.1733614,-0.1868889,-0.04167423,-0.7448121,1.549969,0.3380648,0.7655248,1.319764,0.3913984,0.1507142,-0.1427894,-0.05699146,-1.121615,0.08514033,0.03020211,0.8535037,1.372844,0.2106571,0.4659912,1.055596,0.3140243,289.9671,224.5391,14.73828,True
0,0.8222231,0.05333947,0.3501364,0.09858894,-1.31852,-4.421732,-2.989121,0.6951348,1.140925,0.4637101,-1.549914,0.01263143,8.4,0.9,0.1585712,-0.1603831,-0.01801667,-0.7445293,1.548412,0.3379314,0.7659603,1.319638,0.3912251,0.137118,-0.1300721,-0.03865911,-1.121485,0.08364816,0.02980237,0.8535557,1.372748,0.2103696,0.4662462,1.055555,0.3144787,289.8684,224.8709,14.57545,True
0,0.8333342,0.05655334,0.3437427,0.09649691,-1.320093,-4.425319,-2.988968,0.6958896,1.140626,0.4635599,-1.549774,0.01259335,8.4,0.9,0.1479457,-0.1274276,-0.005009778,-0.7443141,1.547794,0.3372164,0.7662715,1.31963,0.3910546,0.1320034,-0.129062,-0.02261124,-1.121338,0.08183814,0.02929717,0.8536025,1.372701,0.2100518,0.4664498,1.055493,0.3149999,289.7711,225.2405,14.3968,True
0,0.8444453,0.06190453,0.3395131,0.09865383,-1.321904,-4.428878,-2.989072,0.6964805,1.140383,0.4634347,-1.550067,-0.02695614,8.4,0.9,0.1361367,-0.09864815,-0.01225715,-0.7446981,1.547778,0.3360992,0.7666483,1.31951,0.3908932,0.1301982,-0.1184759,0.0008828705,-1.120528,0.08074331,0.02839329,0.8536493,1.372688,0.2098048,0.466632,1.055396,0.3155802,289.6939,225.6638,14.19442,True
0,0.8555565,0.06513583,0.3299461,0.09977713,-1.323542,-4.432173,-2.989122,0.697198,1.140165,0.4633064,-1.549613,0.04169748,6,3.6,0.1360745,-0.08903748,-0.01861116,-0.7454619,1.546865,0.3352576,0.7671691,1.319367,0.3907745,0.1260687,-0.1120826,0.01051789,-1.120508,0.07998538,0.02749234,0.8540606,1.372795,0.2094624,0.4667989,1.055245,0.3162094,289.6278,226.0902,13.99861,True
0,0.8666676,0.06839611,0.3043331,0.09141845,-1.324614,-4.434576,-2.989421,0.6977807,1.139975,0.4632006,-1.549708,-0.009073592,6,3.6,0.1316789,-0.08682687,-0.03774708,-0.7467882,1.546179,0.3344496,0.767557,1.319269,0.390636,0.1163933,-0.1109894,0.004258757,-1.120717,0.07871572,0.02713894,0.8541344,1.372787,0.2092299,0.4669651,1.055042,0.3168662,289.5996,226.5871,13.73112,True
0,0.8777788,0.06846996,0.2744379,0.08096725,-1.325528,-4.436612,-2.989665,0.698288,1.139834,0.463115,-1.549521,0.01706885,6,3.6,0.1263655,-0.09217332,-0.03559832,-0.7474295,1.544509,0.3345617,0.7678858,1.319163,0.3904669,0.1098422,-0.1130986,-0.007381653,-1.121301,0.07699731,0.02685452,0.8541776,1.372715,0.2090082,0.467103,1.054814,0.3175188,289.5962,227.1416,13.4021,True
0,0.8888899,0.06855796,0.235965,0.06204429,-1.325768,-4.437967,-2.990091,0.6987444,1.139744,0.4630325,-1.549456,0.005742779,6,3.6,0.1232237,-0.09434187,-0.02812919,-0.747838,1.542984,0.3344342,0.7682846,1.319073,0.390311,0.1032204,-0.1098456,-0.02432961,-1.12219,0.075821,0.02647289,0.8543096,1.3727,0.2088053,0.4672913,1.05458,0.3181503,289.6046,227.6473,13.13045,True
0,0.900001,0.06227373,0.1921239,0.03996883,-1.325602,-4.438744,-2.990483,0.6992355,1.139594,0.4629052,-1.549252,0.01856438,6,3.6,0.1115976,-0.09123667,-0.01311686,-0.7477698,1.541384,0.3348456,0.7685934,1.319032,0.3902586,0.09999952,-0.1055937,-0.02640925,-1.12265,0.07444427,0.02604252,0.8543741,1.372716,0.2086644,0.4675108,1.054341,0.3186986,289.6214,228.0141,12.96569,True
0,0.9111122,0.05277719,0.1557858,0.02531873,-1.325742,-4.439517,-2.990635,0.6995924,1.139571,0.4628832,-1.549209,0.003784196,5.7,27,0.110544,-0.08912037,-0.009906745,-0.7481331,1.54018,0.3346052,0.7690288,1.319051,0.3901811,0.09900342,-0.1056052,-0.02107458,-1.122769,0.07319152,0.02556022,0.8544465,1.372723,0.2084525,0.4677436,1.054108,0.319125,289.6483,228.2863,12.84478,True
0,0.9222233,0.04856692,0.1322465,0.01162962,-1.325544,-4.440284,-2.99085,0.700032,1.139478,0.4628277,-1.549011,0.0181357,5.7,27,0.1063326,-0.08277288,-0.001326738,-0.7480804,1.539074,0.3343942,0.7694106,1.318982,0.3900502,0.09385914,-0.1120074,-0.007187182,-1.122561,0.0719931,0.02522253,0.8546602,1.372887,0.208266,0.46802,1.053879,0.3194131,289.6743,228.4038,12.83823,True
0,0.9333345,0.04324856,0.1279197,0.004204236,-1.325567,-4.441697,-2.99092,0.7005408,1.139396,0.462745,-1.548748,0.02377177,5.7,27,0.1106074,-0.08490711,0.0007592682,-0.748442,1.537667,0.3340786,0.7696881,1.318834,0.3898938,0.1024236,-0.1141594,-0.003065026,-1.122732,0.0705016,0.02460494,0.8547094,1.372828,0.2080569,0.4683587,1.053644,0.319554,289.7053,228.4383,12.85404,True
0,0.9444456,0.043252,0.1257752,0.002087668,-1.325697,-4.443011,-2.991095,0.7010193,1.139313,0.4627087,-1.548804,-0.005214852,5.7,27,0.1148349,-0.09232943,-0.005695039,-0.7490918,1.536056,0.3338797,0.7700602,1.318749,0.3897791,0.1056938,-0.1109815,0.002227034,-1.122518,0.06925577,0.02388562,0.8547282,1.372844,0.2078378,0.4687056,1.053434,0.3195687,289.7509,228.4844,12.7899,True
0,0.9555568,0.03895444,0.1363995,-0.002238445,-1.325848,-4.44516,-2.990856,0.7015045,1.139253,0.4627275,-1.548849,-0.003996073,52.1,20.6,0.1222492,-0.104001,-0.0132593,-0.7500032,1.534195,0.3337505,0.7704436,1.318617,0.389756,0.1057634,-0.1141571,0.007524498,-1.122516,0.06830076,0.02314926,0.8548745,1.372844,0.2075903,0.4690895,1.053258,0.3195194,289.7821,228.4724,12.76156,True
0,0.9666679,0.03678928,0.1481112,-0.002312442,-1.326122,-4.447241,-2.990685,0.7020004,1.139165,0.4627297,-1.548951,-0.00935306,52.1,20.6,0.124346,-0.1167479,-0.02078831,-0.7510396,1.532023,0.3338725,0.7708048,1.318563,0.3896658,0.1057056,-0.1141444,0.003263725,-1.122659,0.06693482,0.02256736,0.8549159,1.372847,0.2073791,0.4694937,1.053132,0.3194787,289.7964,228.4733,12.71573,True
0,0.977779,0.03249741,0.1587738,0.0008189064,-1.326569,-4.449357,-2.990346,0.7024723,1.139103,0.462738,-1.548768,0.01689379,52.1,20.6,0.1275528,-0.1188869,-0.0186918,-0.7516096,1.530166,0.333815,0.7711362,1.318523,0.3895459,0.1014447,-0.1216155,0.003305937,-1.122573,0.06486821,0.02240304,0.8547696,1.372881,0.2071199,0.4698793,1.053051,0.3195058,289.7948,228.4807,12.66419,True
0,0.9888902,0.03249679,0.1608831,-0.001324557,-1.32675,-4.451109,-2.990434,0.7029175,1.139003,0.4627588,-1.548816,-0.004582966,52.1,20.6,0.1244214,-0.1125475,-0.007988486,-0.7516703,1.528579,0.3337053,0.7714564,1.318474,0.3894372,0.09723337,-0.1237608,0.006564692,-1.122283,0.06313236,0.02212421,0.8546853,1.372929,0.2069137,0.4701847,1.053025,0.3196696,289.7857,228.5136,12.61216,True
0,1.000001,0.03249484,0.1619423,-0.002399249,-1.326936,-4.453048,-2.990361,0.7034444,1.13888,0.4628112,-1.548693,0.01128065,52.1,20.6,0.120236,-0.09344703,0.005979605,-0.7512788,1.527579,0.3331053,0.7716776,1.318456,0.3893626,0.09514137,-0.1194795,0.008727837,-1.122241,0.06216564,0.02143924,0.854839,1.373003,0.2067194,0.4704051,1.053051,0.3200036,289.7591,228.6144,12.56549,True
0,1.011112,0.03248507,0.1640615,-0.004543498,-1.327117,-4.455069,-2.990233,0.7038922,1.138818,0.4628167,-1.549038,-0.03164299,82.9,14.9,0.1224238,-0.09241682,0.01448943,-0.7512618,1.525951,0.3328152,0.7719444,1.318357,0.3892593,0.09302074,-0.1184229,0.008769839,-1.122047,0.06055016,0.02103631,0.8547859,1.373058,0.2065353,0.470544,1.053124,0.3204913,289.7194,228.7724,12.54224,True
0,1.022224,0.03568863,0.1619521,-0.003469702,-1.327362,-4.45689,-2.990311,0.7044188,1.138774,0.4628522,-1.548973,0.006303758,82.9,14.9,0.1246011,-0.08925152,0.02194606,-0.7510844,1.524475,0.3324357,0.7721807,1.318272,0.3891532,0.09091903,-0.113079,0.009875981,-1.121935,0.05964935,0.020358,0.8547992,1.373029,0.2062995,0.4706683,1.053207,0.3210976,289.657,228.8914,12.60787,True
0,1.033335,0.04100858,0.1662394,-0.002442004,-1.327639,-4.458982,-2.990491,0.7049342,1.138603,0.4628503,-1.548928,0.00401537,82.9,14.9,0.1224505,-0.09350078,0.01768355,-0.751437,1.522697,0.3323886,0.7724417,1.318152,0.3890445,0.08561347,-0.1120401,0.01102813,-1.121666,0.05787209,0.02025813,0.8546673,1.373017,0.2061234,0.4708109,1.053266,0.3217825,289.5995,229.0378,12.6629,True
0,1.044446,0.04525349,0.1737368,0.001764439,-1.328138,-4.461154,-2.990607,0.7054218,1.13845,0.4628732,-1.549083,-0.01417255,82.9,14.9,0.1223513,-0.09024268,0.003849475,-0.7521257,1.521642,0.3318147,0.7726669,1.31805,0.3889465,0.08355826,-0.1077934,0.01639567,-1.121338,0.05669164,0.01991991,0.8546327,1.373043,0.2059505,0.4709434,1.053294,0.3224861,289.5726,229.2403,12.66899,True
0,1.055557,0.05270248,0.1823343,0.009149663,-1.32876,-4.463512,-2.990952,0.7058771,1.138304,0.462769,-1.549259,-0.01595436,91.3,12.6,0.1201823,-0.08702865,-0.00144729,-0.7525736,1.520502,0.331351,0.772892,1.317896,0.3888602,0.07829256,-0.1025023,0.02074991,-1.12096,0.05519641,0.01988183,0.8545587,1.373092,0.2057076,0.4711218,1.053287,0.3231713,289.551,229.4486,12.66515,True
0,1.066668,0.05694629,0.1887454,0.0101672,-1.329244,-4.465836,-2.991174,0.7063317,1.138173,0.4627669,-1.549205,0.00499914,91.3,12.6,0.1221962,-0.08162743,-0.01741687,-0.7535073,1.519884,0.3303824,0.773105,1.317801,0.3887713,0.07718967,-0.09610176,0.01759185,-1.120831,0.05419852,0.0194709,0.8544911,1.37313,0.2055721,0.4713211,1.053218,0.3238012,289.5152,229.6443,12.64932,True
0,1.077779,0.07187365,0.1899247,0.01973018,-1.330136,-4.468011,-2.991973,0.7066866,1.138086,0.4628267,-1.549929,-0.0655924,91.3,12.6,0.1168341,-0.07948882,-0.02163367,-0.7541385,1.518838,0.3300794,0.7734555,1.317648,0.3886998,0.07502736,-0.08865532,0.01551845,-1.120681,0.05307174,0.01930339,0.8544272,1.373097,0.2054653,0.4715037,1.053098,0.324351,289.5067,229.9103,12.54249,True
0,1.08889,0.07187382,0.1877976,0.01974294,-1.330633,-4.470028,-2.992196,0.7070719,1.138011,0.46279,-1.550887,-0.08585596,91.3,12.6,0.1157761,-0.07949506,-0.02056116,-0.7546067,1.517706,0.3296711,0.7736921,1.317557,0.3886123,0.06862861,-0.08545701,0.01455898,-1.120451,0.05203657,0.01914866,0.8544441,1.373084,0.2053509,0.4716578,1.052975,0.3248011,289.5294,230.1921,12.40465,True
0,1.100002,0.08041799,0.1835736,0.02082166,-1.331122,-4.471988,-2.992978,0.7075157,1.137903,0.462786,-1.553005,-0.1914198,91.3,12.6,0.1126359,-0.08060353,-0.01202308,-0.754775,1.516332,0.3296043,0.7738829,1.317694,0.3885899,0.06432776,-0.0779921,0.0114397,-1.120502,0.051254,0.01894519,0.8545882,1.373196,0.2052262,0.4718069,1.05292,0.3251694,289.5744,230.4323,12.25283,True
0,1.111113,0.08575396,0.181436,0.01762825,-1.331457,-4.473968,-2.993726,0.7079495,1.13774,0.4627297,-1.554638,-0.1457708,100,8.9,0.1105666,-0.0817095,-0.003491336,-0.7548613,1.514902,0.3294367,0.7740798,1.317675,0.3885064,0.06109199,-0.0758428,0.008291369,-1.120534,0.05047755,0.01867195,0.8546035,1.373212,0.2050605,0.4719547,1.053005,0.3254791,289.5934,230.6565,12.0933,True
0,1.122224,0.09107818,0.1846824,0.02292641,-1.332207,-4.476142,-2.994402,0.7084121,1.137604,0.4627233,-1.557959,-0.3000785,100,8.9,0.1116136,-0.07850204,-0.005612014,-0.7552123,1.513855,0.3288807,0.7742355,1.317682,0.3885207,0.05680468,-0.07263768,0.006228088,-1.120544,0.04968114,0.01853161,0.8545924,1.373236,0.2049329,0.4721147,1.05329,0.3257282,289.5805,230.7836,12.04639,True
0,1.133335,0.09427635,0.1879162,0.02610101,-1.332987,-4.478455,-2.995093,0.7088888,1.137446,0.4628005,-1.561538,-0.3216795,100,8.9,0.1105285,-0.06997707,-0.006631514,-0.7555068,1.513211,0.328164,0.7743914,1.317642,0.3884711,0.05359779,-0.07369939,0.005206454,-1.120471,0.0486686,0.01840804,0.8545294,1.373332,0.2048399,0.4723426,1.053816,0.3259306,289.489,230.7751,12.13364,True
0,1.144446,0.1006553,0.1932752,0.02818786,-1.333717,-4.4808,-2.995884,0.7093356,1.137299,0.4628291,-1.565787,-0.382407,100,8.9,0.1115681,-0.06144373,-0.007665526,-0.755731,1.512815,0.3272572,0.7745464,1.317496,0.3883746,0.05359625,-0.07583001,0.005200163,-1.120426,0.04764901,0.01825304,0.8544866,1.373358,0.2047544,0.4726157,1.054585,0.3260837,289.3257,230.6803,12.29438,True
0,1.155557,0.1060044,0.1880005,0.03354529,-1.334574,-4.482677,-2.9968,0.7098185,1.137263,0.4628811,-1.570897,-0.4600244,92.2,5.7,0.1115547,-0.05931421,-0.008721901,-0.7560885,1.511923,0.3266719,0.7747854,1.317387,0.3883924,0.05474438,-0.07160439,0.01159602,-1.120029,0.04666511,0.01810284,0.854332,1.373212,0.2045946,0.4729202,1.055611,0.3262059,289.1085,230.559,12.45507,True
0,1.166668,0.1092127,0.1837487,0.03356893,-1.335221,-4.484571,-2.997688,0.710255,1.137131,0.4629257,-1.576891,-0.5395146,92.2,5.7,0.1083487,-0.05718327,-0.009755729,-0.756408,1.511207,0.3260945,0.7749659,1.317314,0.38835,0.0526507,-0.06948653,0.01377247,-1.119672,0.04574951,0.01788366,0.8542119,1.373254,0.2045245,0.4732315,1.0569,0.3263222,288.838,230.357,12.68739,True
0,1.17778,0.1124498,0.1688355,0.03259031,-1.335644,-4.48591,-2.9987,0.7107002,1.136971,0.4629302,-1.583512,-0.5959129,92.2,5.7,0.1062068,-0.06250167,-0.01188988,-0.7568043,1.510047,0.3258945,0.7751727,1.317237,0.3883145,0.04948482,-0.0737519,0.01593188,-1.11947,0.04465788,0.01786209,0.854219,1.373276,0.2043021,0.4735328,1.058449,0.3264379,288.5263,230.092,13.00376,True
0,1.188891,0.1156783,0.1560508,0.03053975,-1.336086,-4.487231,-2.999742,0.7110816,1.136898,0.4629936,-1.590827,-0.6582679,92.2,5.7,0.105155,-0.06251094,-0.009751465,-0.7570392,1.509142,0.3254441,0.7752976,1.317219,0.3882864,0.05265179,-0.07374829,0.01376387,-1.11932,0.04372657,0.01758672,0.8541675,1.373244,0.2042155,0.4738611,1.060251,0.326539,288.1726,229.7528,13.41513,True
0,1.200002,0.1188933,0.1464419,0.02527153,-1.336356,-4.488623,-3.000764,0.7115159,1.13678,0.4630814,-1.598937,-0.7298999,92.2,5.7,0.1041285,-0.06360192,-0.00441334,-0.7570429,1.508026,0.3251419,0.77545,1.317234,0.3882143,0.05374406,-0.08228309,0.01585903,-1.11904,0.04234732,0.01749537,0.8539752,1.373179,0.2041774,0.4742044,1.062273,0.3265932,287.7525,229.2479,14.00266,True
0,1.211113,0.1178377,0.1421484,0.02103835,-1.33665,-4.490064,-3.001741,0.7119224,1.136621,0.4630945,-1.607772,-0.7951686,96.1,4.8,0.1062628,-0.06679325,-0.004441729,-0.7573583,1.506897,0.3247461,0.7755603,1.317205,0.3881755,0.0526288,-0.08014657,0.01162359,-1.119004,0.04132387,0.017322,0.8538373,1.373207,0.2041125,0.4745908,1.064472,0.3265621,287.2957,228.5952,14.72174,True
0,1.222224,0.1178221,0.1474748,0.02100324,-1.337144,-4.491881,-3.00263,0.7123582,1.136489,0.4631696,-1.617174,-0.8461522,96.1,4.8,0.1051511,-0.0635731,-0.009743351,-0.7577711,1.506233,0.3241919,0.7756678,1.317142,0.3882139,0.05056534,-0.06630592,0.01594627,-1.118784,0.04107114,0.0169425,0.85385,1.373203,0.2040465,0.4750182,1.066824,0.326435,286.8291,227.8161,15.51374,True
0,1.233335,0.1220702,0.1560438,0.02626355,-1.337846,-4.493872,-3.003715,0.7128037,1.136338,0.4632652,-1.627177,-0.9002441,96.1,4.8,0.1008774,-0.05718055,-0.009684857,-0.7579756,1.50587,0.3235008,0.7758152,1.317128,0.3882167,0.04840846,-0.06417387,0.01386071,-1.118586,0.04022904,0.01682425,0.853752,1.373217,0.2040179,0.4755033,1.069303,0.326232,286.343,226.8903,16.42075,True
0,1.244446,0.1199079,0.1688489,0.03044332,-1.33863,-4.496142,-3.004433,0.7132846,1.13623,0.4633605,-1.637769,-0.9533513,96.1,4.8,0.09667971,-0.05936716,-7.580779E-05,-0.7579362,1.504586,0.3235613,0.775924,1.317045,0.3882644,0.04622785,-0.07375059,0.01066574,-1.118606,0.03895592,0.01693584,0.8536828,1.373222,0.203985,0.4760187,1.071892,0.3259642,285.843,225.8636,17.41082,True
0,1.255558,0.1198773,0.1816606,0.03355536,-1.339432,-4.498644,-3.005205,0.7137548,1.136196,0.4635074,-1.649078,-1.018151,96.1,4.8,0.09356793,-0.06687581,0.0116355,-0.7576853,1.503024,0.3238449,0.7761319,1.31712,0.38837,0.04192457,-0.08013731,0.007507876,-1.118675,0.0376017,0.01714144,0.8536851,1.373277,0.2039256,0.4765681,1.074593,0.3256778,285.3381,224.7718,18.44204,True
0,1.266669,0.1166772,0.1870338,0.04204682,-1.340494,-4.500834,-3.005889,0.7142426,1.136074,0.4636154,-1.660287,-1.008162,76,5.1,0.09784061,-0.07007054,0.01265734,-0.757803,1.501729,0.3235645,0.7763054,1.317104,0.3883805,0.04187318,-0.07160243,0.003272132,-1.118789,0.03705096,0.01693744,0.8536071,1.373263,0.2038822,0.4771562,1.077403,0.3254227,284.8192,223.6073,19.54636,True
0,1.27778,0.1155708,0.2019696,0.04514415,-1.341384,-4.503575,-3.00646,0.714807,1.135955,0.4637141,-1.672204,-1.072867,76,5.1,0.09891112,-0.07752246,0.0126202,-0.7579825,1.500277,0.3235371,0.7764897,1.317083,0.3882468,0.03864963,-0.07267121,0.001185849,-1.118809,0.03595747,0.01707619,0.8535779,1.373122,0.2038174,0.4777617,1.080335,0.3252341,284.3082,222.3713,20.73709,True
0,1.288891,0.1123695,0.2040527,0.03873663,-1.341834,-4.505961,-3.00719,0.7152442,1.135791,0.4637997,-1.684216,-1.08081,76,5.1,0.1010125,-0.08601227,0.006175661,-0.7585029,1.498685,0.3234995,0.7766975,1.31706,0.3882759,0.03434763,-0.07372857,-0.001946532,-1.11883,0.03490472,0.01727246,0.8534683,1.37313,0.203774,0.4783776,1.083408,0.3251419,283.7843,221.0173,22.07609,True
0,1.300002,0.1134314,0.2062004,0.04085171,-1.342687,-4.508321,-3.007936,0.7157305,1.135703,0.4639201,-1.69664,-1.118248,76,5.1,0.1063208,-0.09343807,0.001848876,-0.7589487,1.497035,0.3233381,0.7768393,1.317,0.3882289,0.03966668,-0.07266608,-0.002018213,-1.118905,0.03404851,0.01712812,0.853416,1.373114,0.2037387,0.4790273,1.08661,0.3251373,283.2186,219.5234,23.6085,True
0,1.311113,0.1155641,0.2062078,0.04084925,-1.34345,-4.510609,-3.008808,0.716215,1.135613,0.4640274,-1.709374,-1.146213,82.3,3.9,0.107376,-0.09236568,0.0007816851,-0.7592704,1.495713,0.3230862,0.7770448,1.316961,0.3882267,0.04078045,-0.07056394,0.001174402,-1.118741,0.03298818,0.01705302,0.8532565,1.373191,0.2037549,0.4797108,1.089918,0.3252044,282.631,217.7177,25.48736,True
0,1.322224,0.1230199,0.2040476,0.03340267,-1.343935,-4.512794,-3.009992,0.7166666,1.135574,0.4642146,-1.722236,-1.157536,82.3,3.9,0.1063117,-0.08704329,0.001878623,-0.7594302,1.494642,0.3227416,0.7771736,1.316941,0.3884921,0.03765208,-0.07696911,0.006524834,-1.118521,0.03179907,0.01723278,0.8531971,1.373182,0.2037253,0.4804018,1.093289,0.3253053,282.0448,215.6019,27.68055,True
0,1.333336,0.1208986,0.1997635,0.03024011,-1.344491,-4.514941,-3.010773,0.717128,1.135492,0.4643767,-1.735345,-1.179934,82.3,3.9,0.1042663,-0.0785903,0.01684589,-0.7589647,1.493529,0.3225229,0.7773343,1.31696,0.3885195,0.03760912,-0.08229297,0.003312245,-1.118646,0.03047748,0.01735342,0.8532565,1.373255,0.2036121,0.4811398,1.096699,0.3254225,281.4761,213.3981,29.95719,True
0,1.344447,0.1166247,0.1996879,0.02065839,-1.34469,-4.517214,-3.011414,0.7176174,1.13542,0.4645123,-1.748768,-1.208396,82.3,3.9,0.1042755,-0.08178325,0.01789763,-0.7590265,1.492164,0.3223826,0.7775192,1.316946,0.3885913,0.03323166,-0.08439557,-0.005157994,-1.119016,0.02933645,0.01762267,0.8532172,1.373221,0.2035813,0.4819401,1.100124,0.3255306,280.9379,210.9496,32.47028,True
0,1.355558,0.1081086,0.196435,0.01641683,-1.344853,-4.51931,-3.011904,0.7181355,1.135278,0.4645522,-1.761626,-1.156474,82.3,3.9,0.09903298,-0.09355286,0.02747166,-0.7588693,1.489839,0.3230838,0.7777569,1.317014,0.388479,0.03416133,-0.08436755,-0.01476177,-1.119564,0.02835294,0.01770283,0.8533368,1.373163,0.2034483,0.4828117,1.103535,0.3256237,280.4365,208.134,35.32171,True
0,1.366669,0.09956516,0.2017085,0.01213206,-1.34515,-4.521776,-3.012164,0.7186178,1.135186,0.4647067,-1.774827,-1.188213,75.7,2.8,0.1012123,-0.1116812,0.03163758,-0.7590073,1.486984,0.3240071,0.7780197,1.316978,0.3885181,0.03518393,-0.08862468,-0.01797552,-1.119753,0.02701005,0.01778486,0.8532935,1.373127,0.2034152,0.4837351,1.106919,0.3256909,279.9699,205.0319,38.45153,True
0,1.37778,0.09314603,0.2069701,0.004646059,-1.345253,-4.524372,-3.012378,0.7190539,1.135144,0.4649246,-1.788107,-1.194913,75.7,2.8,0.1012036,-0.1201954,0.02947098,-0.7592587,1.484628,0.324658,0.7781649,1.316878,0.3887169,0.04051305,-0.0875713,-0.01804469,-1.119988,0.02582627,0.01765063,0.8531749,1.373063,0.2034664,0.4847117,1.110276,0.3257233,279.5502,201.5869,41.93439,True
0,1.388891,0.08245978,0.2175914,0.00352614,-1.345676,-4.527267,-3.012294,0.7194803,1.135199,0.4651604,-1.801519,-1.20704,75.7,2.8,0.09792929,-0.1233423,0.017761,-0.7599176,1.482692,0.3250907,0.7782911,1.316894,0.3887861,0.03941245,-0.08437126,-0.02121142,-1.120267,0.0247919,0.01760802,0.8531131,1.373015,0.2034771,0.4857443,1.113611,0.325702,279.1774,197.8521,45.69565,True
0,1.400002,0.07708412,0.2335409,0.001297332,-1.346033,-4.530483,-3.012288,0.719898,1.135186,0.4653347,-1.815023,-1.215484,75.7,2.8,0.09891033,-0.1286084,0.004945666,-0.7607874,1.480705,0.325466,0.7785695,1.316968,0.3888762,0.04153834,-0.07265431,-0.02228063,-1.120694,0.02429109,0.01727379,0.8531636,1.373006,0.2034655,0.4867962,1.116956,0.3256517,278.867,193.8463,49.6707,True
0,1.411114,0.06745498,0.2452001,-0.004094942,-1.346206,-4.533667,-3.012006,0.7202495,1.135275,0.4654579,-1.828273,-1.192142,77.8,3,0.0924852,-0.132857,-0.0003560781,-0.7614995,1.478537,0.3262575,0.7787527,1.316996,0.3889611,0.03710092,-0.06089503,-0.03602846,-1.121459,0.02395354,0.01713211,0.8531402,1.37301,0.2035148,0.4878364,1.120349,0.3256257,278.6219,189.5934,53.85678,True
0,1.422225,0.05464108,0.2536571,-0.008395135,-1.346382,-4.536824,-3.011483,0.7205714,1.135345,0.4656248,-1.841823,-1.219881,77.8,3,0.08186642,-0.1371549,0.003959265,-0.7618356,1.476127,0.3274527,0.7789726,1.317016,0.388917,0.03168762,-0.05874274,-0.04234866,-1.122234,0.02328109,0.01729164,0.8531333,1.373076,0.2033815,0.4888401,1.123836,0.3256798,278.415,185.1272,58.27736,True
0,1.433336,0.04291696,0.252559,-0.009443741,-1.346563,-4.539733,-3.010865,0.720881,1.135393,0.4657164,-1.854934,-1.179463,77.8,3,0.07659161,-0.1371937,0.01145276,-0.761933,1.473888,0.328396,0.779063,1.317131,0.3889899,0.03049351,-0.05445264,-0.05191054,-1.123139,0.0227643,0.01725063,0.8532101,1.373008,0.2033734,0.4898107,1.127421,0.3258436,278.2424,180.2113,63.21634,True
0,1.444447,0.03118603,0.2513847,-0.02113896,-1.346299,-4.542606,-3.010196,0.7210314,1.135539,0.4658964,-1.868001,-1.175857,77.8,3,0.06713066,-0.1330367,0.03071692,-0.7613583,1.471457,0.3297161,0.7791463,1.31713,0.3889503,0.02505448,-0.05335928,-0.06035685,-1.124103,0.02214658,0.01740296,0.8531716,1.373011,0.2033892,0.4907414,1.1311,0.3261021,278.1292,174.9732,68.53241,True
0,1.455558,0.01736011,0.2438686,-0.02426969,-1.346245,-4.545246,-3.009409,0.7212244,1.135563,0.466028,-1.881152,-1.183585,77.8,3,0.04911796,-0.1129054,0.04904196,-0.7604465,1.470097,0.3307217,0.7790772,1.31736,0.3891177,0.02610233,-0.04589989,-0.06248197,-1.124872,0.02180303,0.01714357,0.8531674,1.372999,0.2034786,0.4916741,1.13485,0.3264366,278.0738,169.4596,74.1575,True
0,1.466669,0.001380395,0.2394979,-0.0338074,-1.345852,-4.547919,-3.008256,0.7212397,1.135709,0.4661779,-1.894387,-1.191143,71.6,3.6,0.03425178,-0.08528616,0.06205124,-0.7593908,1.469507,0.3313079,0.7791263,1.317428,0.3891661,0.02711465,-0.03949635,-0.06673843,-1.125778,0.0215784,0.01690175,0.8531343,1.372992,0.203527,0.4926261,1.138647,0.3267934,278.0944,163.7968,79.94913,True
0,1.47778,-0.01672699,0.2340614,-0.04332158,-1.345554,-4.550558,-3.006895,0.7212678,1.135873,0.4664242,-1.907497,-1.179704,71.6,3.6,0.02358462,-0.06187906,0.06435964,-0.7586462,1.469175,0.3315923,0.7791117,1.317577,0.3892643,0.0227155,-0.03520531,-0.07732283,-1.127055,0.02127027,0.0168911,0.8531436,1.373013,0.2036388,0.4935843,1.14247,0.3271317,278.2205,158.1194,85.7331,True
0,1.488891,-0.03801588,0.2232935,-0.05280333,-1.345046,-4.552999,-3.005214,0.7211987,1.136071,0.4665711,-1.920392,-1.160122,71.6,3.6,-0.001050629,-0.03947587,0.04971347,-0.7584539,1.469631,0.3321601,0.7790123,1.317618,0.3893402,0.01851739,-0.02775832,-0.07297797,-1.127658,0.0211728,0.01689083,0.8531078,1.373018,0.203758,0.4945784,1.146275,0.3274231,278.425,152.581,91.36119,True
0,1.500003,-0.05397996,0.2125261,-0.06336062,-1.34431,-4.555192,-3.003552,0.7209696,1.136217,0.4667246,-1.933287,-1.160478,71.6,3.6,-0.01392585,-0.02985634,0.03812104,-0.7585348,1.469477,0.3328064,0.7788732,1.31761,0.3894441,0.01750771,-0.009656509,-0.06972213,-1.128414,0.02173459,0.01647351,0.8531178,1.372954,0.2038426,0.4955441,1.150073,0.3276357,278.7249,147.5168,96.4707,True
0,1.511114,-0.06461494,0.2017785,-0.07498719,-1.343484,-4.557482,-3.002028,0.7207831,1.136407,0.4669116,-1.945934,-1.137887,76,3.7,-0.01727289,-0.02657009,0.01685219,-0.7591159,1.46947,0.3331591,0.7787458,1.317658,0.3895538,0.01319818,-0.002188712,-0.07389557,-1.129294,0.02192394,0.01634622,0.8530716,1.372926,0.2039404,0.4965132,1.153858,0.3277913,279.0911,142.9484,101.0522,True
0,1.522225,-0.08906265,0.1782013,-0.08545272,-1.342348,-4.558885,-2.999862,0.7202811,1.13666,0.4670002,-1.958784,-1.156739,76,3.7,-0.02589676,-0.0360923,-0.000180746,-0.7599404,1.468743,0.334178,0.7785614,1.317732,0.3895981,0.009963676,0.005275908,-0.07703441,-1.130377,0.02225697,0.0162088,0.853066,1.37288,0.2040453,0.4974535,1.157648,0.3278718,279.5247,138.7416,105.2752,True
0,1.533336,-0.1018093,0.1653635,-0.08854534,-1.341558,-4.560544,-2.998051,0.7199954,1.136835,0.4670601,-1.971754,-1.167506,76,3.7,-0.03653634,-0.03824234,0.0009472887,-0.7600369,1.468031,0.3354177,0.7783861,1.317811,0.3896544,0.006756276,0.005285563,-0.07805723,-1.131272,0.02235457,0.01614861,0.8530569,1.3728,0.2040462,0.4983791,1.161424,0.3278758,280.0286,134.8581,109.1544,True
0,1.544447,-0.1251756,0.1397081,-0.09154148,-1.340558,-4.561357,-2.995676,0.7194961,1.137079,0.4671528,-1.983653,-1.069686,76,3.7,-0.05992082,-0.02340495,0.01182563,-0.7594137,1.46824,0.3368062,0.778096,1.317896,0.3897073,-0.001733541,0.009546237,-0.07579941,-1.132012,0.02263474,0.01634941,0.8530298,1.372771,0.2041583,0.4993106,1.165162,0.32782,280.5815,131.3722,112.6196,True
0,1.555558,-0.145387,0.1300524,-0.09252267,-1.339609,-4.562678,-2.993184,0.7189911,1.137274,0.4672034,-1.996625,-1.168605,76,3.7,-0.07911414,0.009574059,0.01636344,-0.7587128,1.469843,0.3371722,0.7777652,1.317964,0.3897765,-0.01031844,0.02023507,-0.08099142,-1.13321,0.02351718,0.01635074,0.853145,1.372691,0.2043252,0.5001882,1.168884,0.3276579,281.1522,128.2966,115.6724,True
0,1.566669,-0.1634936,0.1246442,-0.09672511,-1.338603,-4.5641,-2.990417,0.7183675,1.137525,0.4673083,-2.008512,-1.068444,91.3,3.6,-0.09301081,0.03832617,0.01445575,-0.7581679,1.47168,0.3372273,0.7773465,1.318072,0.3898408,-0.01677441,0.03410643,-0.08619028,-1.134282,0.02449309,0.01636512,0.8530926,1.372633,0.2044957,0.5011552,1.172546,0.3274176,281.7377,125.535,118.3982,True
0,1.577781,-0.1741538,0.1278096,-0.09674051,-1.337665,-4.565846,-2.987787,0.7178715,1.137785,0.4673138,-2.020977,-1.122343,91.3,3.6,-0.1154669,0.05857085,0.006179463,-0.7579415,1.473424,0.337961,0.7769756,1.318194,0.3898859,-0.02538259,0.04053614,-0.09245817,-1.135635,0.02544331,0.01659043,0.8531562,1.372718,0.2046311,0.5021569,1.176186,0.3270653,282.3513,123.0765,120.7848,True
0,1.588892,-0.1912186,0.1373895,-0.09038952,-1.337214,-4.567859,-2.984647,0.7172,1.138049,0.4673793,-2.033239,-1.103308,91.3,3.6,-0.135836,0.07778835,-0.009576147,-0.7580193,1.475707,0.3383615,0.7765174,1.318309,0.3899431,-0.03708093,0.04906452,-0.09120813,-1.136548,0.02637368,0.01701733,0.8531281,1.372691,0.2047739,0.5031805,1.179831,0.3266255,283.0175,120.8799,122.8634,True
0,1.600003,-0.2061418,0.1426783,-0.09039687,-1.33661,-4.569848,-2.981532,0.7164154,1.138362,0.4674957,-2.045881,-1.138208,91.3,3.6,-0.1507804,0.08204754,-0.01264973,-0.7578408,1.477291,0.3393533,0.7761128,1.318402,0.3900476,-0.04125717,0.04906813,-0.08476999,-1.13737,0.02727703,0.01723065,0.8531746,1.372638,0.2048655,0.5042048,1.183511,0.3261516,283.7119,118.9239,124.6772,True
0,1.611114,-0.2157467,0.1522569,-0.08831228,-1.336083,-4.572066,-2.978455,0.715663,1.138697,0.4675877,-2.057864,-1.077733,91.3,3.6,-0.1689576,0.09377341,-0.01993043,-0.7578185,1.479468,0.3402774,0.775672,1.318502,0.3901086,-0.05184197,0.05439508,-0.07929131,-1.138141,0.02829063,0.0178794,0.8531581,1.372588,0.2050245,0.5052658,1.187226,0.3257081,284.4261,117.1251,126.3432,True
0,1.622225,-0.229609,0.1553916,-0.09151055,-1.335294,-4.574096,-2.974932,0.7147875,1.139043,0.4676507,-2.070204,-1.110888,76.9,3.6,-0.1742671,0.1022667,-0.01559528,-0.7573817,1.481391,0.3409664,0.775269,1.318708,0.3902011,-0.06144757,0.06506841,-0.08126431,-1.139135,0.02963153,0.01828819,0.853043,1.372495,0.2050543,0.5062766,1.191027,0.3253365,285.1624,115.3862,127.9512,True
0,1.633336,-0.2477273,0.1563763,-0.09574981,-1.334453,-4.576101,-2.971091,0.7138139,1.139373,0.4677343,-2.082755,-1.129739,76.9,3.6,-0.1795392,0.1064832,-0.007017873,-0.7567122,1.483143,0.3418742,0.7748051,1.318869,0.3902795,-0.06680863,0.06192814,-0.08229338,-1.140473,0.03104327,0.01884639,0.8531595,1.372408,0.2051318,0.5072354,1.194916,0.3250771,285.9229,113.7535,129.4841,True
0,1.644447,-0.2701184,0.1626962,-0.09682725,-1.333681,-4.57838,-2.96674,0.7128479,1.139763,0.4678214,-2.09482,-1.085059,76.9,3.6,-0.18475,0.1042817,0.008982461,-0.75573,1.484482,0.3430804,0.7742825,1.31899,0.3904181,-0.0680054,0.05876146,-0.09187523,-1.141828,0.03168416,0.01938755,0.8531415,1.372344,0.205313,0.5081849,1.198863,0.324954,286.7031,112.2195,130.9787,True
0,1.655559,-0.2882504,0.1647055,-0.1074651,-1.332542,-4.58062,-2.962414,0.7118601,1.140239,0.4679096,-2.107089,-1.104133,76.9,3.6,-0.1878742,0.0925267,0.01640799,-0.7551425,1.485144,0.3447323,0.7738181,1.319201,0.3905895,-0.07444791,0.05988455,-0.09500767,-1.143361,0.03318059,0.01993562,0.8531398,1.372375,0.2054596,0.509116,1.202862,0.3249287,287.511,110.7692,132.44,True
0,1.66667,-0.2978932,0.1870976,-0.1001424,-1.332187,-4.583645,-2.958071,0.7108795,1.140627,0.4680429,-2.119362,-1.104148,57.8,2.3,-0.1878388,0.1020829,0.02390843,-0.7541444,1.48692,0.345547,0.7733068,1.319342,0.3907199,-0.08092042,0.07162824,-0.1012721,-1.144604,0.03461297,0.02050101,0.8530666,1.372364,0.2056987,0.5100453,1.2069,0.32496,288.3364,109.4215,133.8136,True
0,1.677781,-0.3160547,0.207274,-0.101316,-1.331576,-4.58682,-2.953315,0.7097395,1.141045,0.4681995,-2.132168,-1.152878,57.8,2.3,-0.1825929,0.124492,0.01651281,-0.7535419,1.489865,0.3452045,0.7728008,1.319448,0.3908708,-0.08293775,0.0780344,-0.09377307,-1.14542,0.03635428,0.02062299,0.8531363,1.372493,0.2058606,0.5110058,1.210988,0.3250159,289.1619,108.2337,135.037,True
0,1.688892,-0.3341885,0.2168026,-0.1024211,-1.330936,-4.589724,-2.948437,0.7085756,1.141426,0.4683256,-2.14522,-1.174932,57.8,2.3,-0.1965858,0.1362769,-0.002514586,-0.7535281,1.492799,0.3456501,0.7723205,1.319552,0.3910296,-0.07736111,0.07796866,-0.07572164,-1.145391,0.03716708,0.02082672,0.8528571,1.372594,0.2060809,0.5120442,1.215129,0.3250736,290.0128,107.1864,136.1044,True
0,1.700003,-0.3501983,0.2284928,-0.1003497,-1.330473,-4.592915,-2.943328,0.7073724,1.141837,0.4684014,-2.157768,-1.128616,57.8,2.3,-0.2104671,0.1330943,-0.008828763,-0.7533667,1.494833,0.346828,0.7717429,1.319659,0.3912144,-0.07075566,0.07472032,-0.05985399,-1.145713,0.03789492,0.02106001,0.8526138,1.372486,0.2064457,0.513161,1.21932,0.3251627,290.9157,106.1483,137.134,True
0,1.711114,-0.3619335,0.2337631,-0.1046304,-1.329757,-4.596,-2.938279,0.7062244,1.142219,0.4685035,-2.170355,-1.13288,57.8,2.3,-0.2104033,0.1224088,-0.001419511,-0.7527829,1.49608,0.3482395,0.7712171,1.319773,0.3913698,-0.06210031,0.0693588,-0.05037983,-1.145723,0.0385181,0.02107785,0.8523263,1.372388,0.2066767,0.5142961,1.223557,0.3252845,291.8757,105.1283,138.1528,True
0,1.722225,-0.3832794,0.2421466,-0.1163761,-1.328716,-4.599305,-2.932538,0.7049156,1.142657,0.4685581,-2.182909,-1.129753,33.8,1.8,-0.2061154,0.09898306,-0.002615158,-0.7526525,1.496476,0.349999,0.7706511,1.319877,0.3915627,-0.05360599,0.07149027,-0.05261888,-1.146322,0.03944648,0.02098251,0.8521589,1.372381,0.2069488,0.5154557,1.227792,0.3254253,292.8538,104.1434,139.157,True
0,1.733337,-0.3907616,0.2517189,-0.1164332,-1.32808,-4.602746,-2.927241,0.703703,1.142987,0.4686568,-2.195581,-1.140598,33.8,1.8,-0.2082374,0.08301094,-0.004802831,-0.7526456,1.497036,0.3519285,0.7700349,1.319965,0.3917034,-0.05791595,0.07464775,-0.05678223,-1.146686,0.03963995,0.02163845,0.8516637,1.372021,0.2072735,0.5166403,1.231989,0.3255681,293.8273,103.2519,140.0863,True
0,1.744448,-0.4014097,0.2495506,-0.1174705,-1.327351,-4.605794,-2.921612,0.7023798,1.143345,0.4686627,-2.207538,-1.075231,33.8,1.8,-0.2146707,0.06386814,-0.01443165,-0.7531025,1.497313,0.3543882,0.7694196,1.319966,0.3918245,-0.06447534,0.08108208,-0.0694591,-1.147846,0.04090043,0.02204112,0.85145,1.37196,0.2075982,0.5178789,1.236095,0.3256978,294.8094,102.4815,140.9017,True
0,1.755559,-0.3982751,0.2751899,-0.1080567,-1.327358,-4.609896,-2.916398,0.7011571,1.143713,0.4686894,-2.220354,-1.154541,33.8,1.8,-0.2264359,0.07772531,-0.01855323,-0.7529422,1.499535,0.3556513,0.7686902,1.319962,0.3920467,-0.06667067,0.09383086,-0.07574047,-1.148246,0.04163027,0.02237668,0.8510072,1.371735,0.2080073,0.5191175,1.240127,0.325782,295.8004,101.829,141.5808,True
0,1.76667,-0.4038682,0.3775789,-0.0874197,-1.328763,-4.617646,-2.909916,0.6999038,1.14399,0.4687104,-2.232208,-1.065978,22.8,4.4,-0.2339391,0.09051749,-0.02270604,-0.7528037,1.501755,0.3569006,0.7679928,1.319967,0.3922093,-0.06978828,0.1023394,-0.07034591,-1.148818,0.04319954,0.02261849,0.8507646,1.371678,0.2083595,0.5204047,1.244029,0.3258514,296.7823,101.2011,142.219,True
0,1.777781,-0.4092535,0.4042864,-0.07373954,-1.329651,-4.623078,-2.903939,0.6986911,1.144269,0.4687843,-2.24475,-1.129897,22.8,4.4,-0.2522388,0.09700176,-0.04918897,-0.7537391,1.504272,0.3584192,0.7670748,1.31985,0.3924193,-0.06851834,0.1235626,-0.05644292,-1.148787,0.04483205,0.02260518,0.8504916,1.37166,0.2087905,0.5216826,1.247826,0.3258806,297.738,100.6258,142.7975,True
0,1.788892,-0.4125662,0.4544854,-0.05275944,-1.331411,-4.629852,-2.897617,0.6973847,1.144539,0.4688902,-2.256065,-1.017316,22.8,4.4,-0.2555726,0.08324787,-0.0715998,-0.7550104,1.505658,0.3604147,0.7662326,1.31982,0.3926039,-0.07039851,0.1437424,-0.03930246,-1.148428,0.04714368,0.02239932,0.8504796,1.371538,0.2091799,0.5228956,1.251552,0.3259446,298.7118,100.2084,143.187,True
0,1.800003,-0.4105005,0.4843911,-0.04230608,-1.332743,-4.635979,-2.891844,0.6960268,1.144835,0.4689677,-2.26724,-1.005882,22.8,4.4,-0.2588194,0.06092507,-0.08339708,-0.7562222,1.50623,0.3629193,0.7654579,1.319911,0.392832,-0.07562453,0.149019,-0.03176822,-1.148611,0.04864663,0.02284167,0.8505023,1.371833,0.2094402,0.5239299,1.255276,0.3262281,299.7027,99.89794,143.5237,True
0,1.811115,-0.4083799,0.490831,-0.03595909,-1.333993,-4.641655,-2.886083,0.6947148,1.145119,0.4690552,-2.278173,-0.9840168,22.8,4.4,-0.2748317,0.0524098,-0.08971725,-0.7572267,1.507223,0.365811,0.7646321,1.319886,0.3930547,-0.08083148,0.156457,-0.02315187,-1.148461,0.05085373,0.02302862,0.8503977,1.371735,0.209851,0.5248708,1.258928,0.3267946,300.6283,99.50996,144.026,True
0,1.822226,-0.4116121,0.5036245,-0.0339103,-1.335192,-4.647676,-2.879918,0.6933827,1.145341,0.4694586,-2.289124,-0.9861221,18.9,18.4,-0.3100203,0.06410143,-0.09261838,-0.7577679,1.509554,0.36874,0.763716,1.319933,0.3932531,-0.09145138,0.1724268,-0.02083141,-1.148581,0.05341223,0.02343848,0.8502823,1.371788,0.2100973,0.5256746,1.262541,0.3276458,301.5248,99.11723,144.6291,True
0,1.833337,-0.4200733,0.4800881,-0.04867706,-1.335215,-4.652781,-2.873779,0.6919148,1.145491,0.4696305,-2.299127,-0.8998759,18.9,18.4,-0.319671,0.07476777,-0.09889624,-0.7585466,1.511899,0.3710292,0.7628044,1.319869,0.3934405,-0.101099,0.1905494,-0.02597467,-1.14898,0.0563172,0.02372264,0.8501259,1.371693,0.2105241,0.526383,1.266048,0.3287244,302.3852,98.71632,145.3459,True
0,1.844448,-0.4231635,0.4363043,-0.063298,-1.334998,-4.656547,-2.867992,0.690378,1.145785,0.4697664,-2.308417,-0.8356404,18.9,18.4,-0.3218454,0.07159159,-0.1052803,-0.7595165,1.513408,0.3736229,0.7617332,1.319686,0.3936157,-0.114071,0.2108415,-0.04065504,-1.149862,0.05970248,0.02406858,0.8499039,1.371675,0.2109654,0.5270545,1.269365,0.3299453,303.2119,98.362,146.036,True
0,1.855559,-0.4230744,0.3989363,-0.07584071,-1.334615,-4.660106,-2.862367,0.6888564,1.146122,0.4698861,-2.31735,-0.8039394,18.9,18.4,-0.3293955,0.07695112,-0.1169254,-0.760766,1.515588,0.3760613,0.7606298,1.319663,0.3938732,-0.125841,0.2289574,-0.04470615,-1.150417,0.06295393,0.02462519,0.8497329,1.371763,0.2113943,0.5277018,1.272455,0.331252,304.0423,98.0652,146.6656,True
0,1.86667,-0.417594,0.341378,-0.0882837,-1.333475,-4.662762,-2.857136,0.6871883,1.14661,0.4701519,-2.325987,-0.7775275,18.9,18.4,-0.3273362,0.1046598,-0.1210733,-0.7613828,1.518994,0.3772786,0.7594824,1.319804,0.394094,-0.1331349,0.2385064,-0.03286614,-1.150408,0.06605585,0.02509417,0.8494914,1.371842,0.2118413,0.5282865,1.275319,0.3324672,304.8468,97.7654,147.3292,True
0,1.877781,-0.4067891,0.2859759,-0.09858951,-1.332502,-4.665008,-2.852508,0.6856143,1.146889,0.4702106,-2.334224,-0.7415013,15,24.5,-0.328397,0.1621329,-0.1090844,-0.7607069,1.52443,0.3770021,0.7582673,1.319904,0.3942842,-0.1383086,0.2437974,-0.02106,-1.150155,0.06917694,0.02565636,0.8492206,1.371896,0.212254,0.5287868,1.277997,0.3334042,305.567,97.48116,147.9167,True
0,1.888893,-0.3864271,0.2412761,-0.1004495,-1.331749,-4.66655,-2.848495,0.6840514,1.147336,0.4703283,-2.341961,-0.6965243,15,24.5,-0.3303944,0.2152609,-0.07900399,-0.7591255,1.529869,0.3767832,0.757019,1.320038,0.3944869,-0.1466013,0.2437471,-0.00390359,-1.149577,0.07203051,0.02641403,0.8488748,1.371933,0.21275,0.5292137,1.280501,0.3339646,306.24,97.29652,148.2865,True
0,1.900004,-0.3596841,0.2073231,-0.09174675,-1.331315,-4.668081,-2.844993,0.6824256,1.14773,0.4704206,-2.349373,-0.6675983,15,24.5,-0.3335521,0.242907,-0.06820846,-0.7582366,1.534974,0.3768533,0.7558435,1.320099,0.3946629,-0.1592744,0.2479934,0.003735633,-1.149248,0.07516506,0.02727556,0.8485537,1.372018,0.2133427,0.5295865,1.282816,0.3341304,306.8967,97.17902,148.4473,True
0,1.911115,-0.3490284,0.2095367,-0.08431844,-1.331393,-4.670814,-2.840721,0.6809154,1.148096,0.4705482,-2.355787,-0.5776191,15,24.5,-0.3388351,0.256702,-0.05852258,-0.7574078,1.539573,0.3775334,0.7546043,1.320162,0.3948565,-0.1656293,0.2607715,0.005985292,-1.149106,0.07881266,0.0278556,0.8482264,1.372036,0.2138715,0.5299465,1.28485,0.3339483,307.5229,97.06747,148.4931,True
0,1.922226,-0.3191894,0.2150743,-0.0652063,-1.332194,-4.673357,-2.837596,0.6793792,1.148317,0.4707255,-2.361351,-0.501081,12,41.1,-0.3472691,0.2640881,-0.04457592,-0.756203,1.543893,0.3785526,0.7533369,1.320274,0.3949707,-0.1816529,0.2767668,0.003054011,-1.14902,0.08280287,0.02897999,0.8478957,1.372081,0.2143297,0.5302202,1.286645,0.3334907,308.0974,96.97757,148.4041,True
0,1.933337,-0.2968199,0.2248096,-0.05250074,-1.333016,-4.676184,-2.834418,0.6779361,1.148563,0.4708989,-2.365174,-0.3430527,12,41.1,-0.3525444,0.2746883,-0.034907,-0.7550749,1.548484,0.3792895,0.7521496,1.320357,0.3951759,-0.1860412,0.2703972,-0.005431467,-1.149304,0.08575858,0.03005537,0.8476266,1.372129,0.2148283,0.5303228,1.288219,0.3328947,308.6464,96.94909,148.1891,True
0,1.944448,-0.2851257,0.2387688,-0.04089004,-1.333884,-4.67925,-2.830918,0.6764634,1.148806,0.4710515,-2.369833,-0.4211766,12,41.1,-0.3546471,0.2885009,-0.02844041,-0.7538354,1.553463,0.3796011,0.7509576,1.320394,0.3953822,-0.1818668,0.2704134,-0.01188021,-1.149552,0.08906183,0.03059147,0.8472921,1.372163,0.2153015,0.5301948,1.289614,0.3323609,309.1427,97.01498,147.8802,True
0,1.955559,-0.2605959,0.2400346,-0.02174666,-1.335135,-4.681835,-2.828273,0.6749967,1.149035,0.4711769,-2.373014,-0.2856211,12,41.1,-0.3440171,0.3225964,-0.02624147,-0.7524591,1.560079,0.3781545,0.7496262,1.320426,0.395556,-0.1786335,0.2672014,-0.008733986,-1.149382,0.09211461,0.03123861,0.8469241,1.372173,0.2157898,0.5298256,1.290827,0.3320819,309.5602,97.05382,147.6565,True
0,1.966671,-0.2403411,0.2423117,-0.007941045,-1.336286,-4.684389,-2.825654,0.6736845,1.149201,0.4712741,-2.375321,-0.2072118,12,41.1,-0.3301991,0.3215691,-0.03166484,-0.7516703,1.564991,0.3777268,0.7484013,1.320487,0.3957553,-0.177512,0.2682479,-0.004489862,-1.149263,0.09529004,0.03191639,0.8465354,1.372232,0.2163336,0.5291829,1.291906,0.3321497,309.8818,97.09905,147.5608,True
0,1.977782,-0.2254314,0.2466586,-0.001591772,-1.337409,-4.687177,-2.822975,0.6724784,1.149334,0.471307,-2.37822,-0.262058,7.5,48.3,-0.3099856,0.3163054,-0.03715085,-0.7509645,1.569983,0.3768367,0.7472069,1.32066,0.3959677,-0.1774893,0.2756933,-0.002334516,-1.149071,0.09885507,0.03255209,0.8461558,1.372331,0.216886,0.5282637,1.292927,0.3325723,310.1107,97.13792,147.6131,True
0,1.988893,-0.2126485,0.2466911,-0.001610309,-1.338218,-4.689828,-2.820382,0.6712414,1.149451,0.471401,-2.380162,-0.1743345,7.5,48.3,-0.2908672,0.3078605,-0.04797336,-0.7506098,-4.7084,0.3759342,0.7459073,1.320678,0.3961785,-0.1891266,0.2916604,0.003193996,-1.148766,0.1029452,0.03344691,0.8457551,1.372385,0.2174757,0.527149,1.29389,0.3333097,310.2455,97.1141,147.847,True
0,2.000004,-0.1945387,0.2489122,0.003689691,-1.339463,-4.692575,-2.818178,0.670137,1.149592,0.4715838,-2.381701,-0.1384841,7.5,48.3,-0.2707216,0.3005089,-0.06412354,-0.7505955,-4.703412,0.3746554,0.7447757,1.320825,0.3963563,-0.1975119,0.300153,0.01292087,-1.148172,0.1068163,0.03432468,0.8453747,1.372427,0.2180514,0.5259541,1.294751,0.3342697,310.3132,97.08257,148.1969,True
0,2.011115,-0.1774231,0.225536,0.008099854,-1.340353,-4.693882,-2.816522,0.6689898,1.149672,0.4716024,-2.38307,-0.1232822,7.5,48.3,-0.2612071,0.2995031,-0.07484317,-0.7504287,-4.698389,0.3735914,0.7436762,1.320917,0.3965416,-0.1953767,0.2959472,0.01393319,-1.147988,0.1110914,0.03469593,0.8452914,1.372629,0.2185185,0.5247608,1.295519,0.3353236,310.3681,97.07448,148.5757,True
0,2.022226,-0.1570379,0.1776861,0.01264672,-1.340683,-4.694172,-2.815389,0.6679081,1.149836,0.4716897,-2.384598,-0.1380657,8.4,48.5,-0.2484798,0.2963661,-0.08453625,-0.7505214,-4.693413,0.3722036,0.7426704,1.321036,0.396733,-0.1847891,0.2778852,0.009467155,-1.148036,0.1144492,0.0349737,0.8450428,1.372726,0.2190056,0.5236191,1.296224,0.3363573,310.4324,97.08175,148.8942,True
0,2.033337,-0.1451854,0.1329928,0.01720266,-1.341229,-4.694026,-2.814195,0.6668169,1.150071,0.4719143,-2.385781,-0.1064921,8.4,48.5,-0.2366641,0.2952594,-0.07076998,-0.749585,-4.688797,0.3710777,0.7417059,1.32117,0.3969958,-0.1689841,0.2587351,-0.002523154,-1.148357,0.1169544,0.03537317,0.8447316,1.372674,0.2195325,0.5225736,1.296892,0.3373098,310.4935,97.04848,149.1965,True
0,2.044448,-0.130147,0.09257766,0.02064655,-1.341488,-4.693697,-2.813358,0.6657274,1.150252,0.4720359,-2.386471,-0.06231984,8.4,48.5,-0.225862,0.276018,-0.05281893,-0.7486929,-4.68551,0.370806,0.7407743,1.321257,0.3971956,-0.1594841,0.2449349,-0.009105071,-1.148833,0.1200201,0.0355492,0.844421,1.372774,0.2200191,0.5216444,1.297495,0.3380666,310.5596,96.911,149.558,True
0,2.055559,-0.1193876,0.05638259,0.02194647,-1.341682,-4.692897,-2.812625,0.6648402,1.150231,0.4720941,-2.386095,0.03426902,8.4,48.5,-0.2064952,0.2344141,-0.03501884,-0.7480159,-4.684129,0.3712835,0.7399864,1.321328,0.3973751,-0.1478587,0.2332232,-0.0146249,-1.149087,0.1224279,0.03598117,0.8441139,1.372742,0.2204683,0.5208139,1.297997,0.3385335,310.6347,96.76985,149.8025,True
0,2.06667,-0.1044053,0.03088614,0.02528839,-1.341928,-4.692459,-2.811882,0.6641775,1.150209,0.4721868,-2.385597,0.04423983,8.4,48.5,-0.1797747,0.1928847,-0.03112164,-0.7479147,-4.682941,0.3714724,0.7390671,1.32144,0.3975828,-0.1468518,0.2278849,-0.01894005,-1.149671,0.124719,0.03670022,0.8436522,1.372734,0.2209604,0.5200138,1.298414,0.3387087,310.7244,96.6592,149.8817,True
0,2.077781,-0.09585701,0.02774784,0.03170135,-1.342669,-4.692384,-2.811252,0.663379,1.15018,0.4722235,-2.384243,0.1220262,8.7,44.9,-0.1606193,0.164189,-0.04097043,-0.7483786,-4.681323,0.3713776,0.7382526,1.321452,0.3978209,-0.1500569,0.2246869,-0.01890703,-1.14979,0.1273583,0.03750796,0.8432944,1.372719,0.2214506,0.5192149,1.298662,0.3386423,310.8195,96.56759,149.8847,True
0,2.088892,-0.0756062,0.02890499,0.0369933,-1.343334,-4.692525,-2.811139,0.662714,1.150088,0.4722869,-2.382402,0.1656519,8.7,44.9,-0.1425819,0.1600069,-0.05282945,-0.7486455,-4.678451,0.3702819,0.7374293,1.321423,0.3980672,-0.1478995,0.2150888,-0.01681935,-1.149691,0.1295487,0.03813194,0.8426666,1.372626,0.221941,0.5184396,1.298609,0.3384086,310.8564,96.51209,149.8182,True
0,2.100003,-0.05964872,0.04395822,0.05179054,-1.344689,-4.693095,-2.810899,0.6620805,1.15003,0.4724033,-2.380241,0.1942499,8.7,44.9,-0.12676,0.1601337,-0.07637605,-0.7494961,-4.675152,0.3687304,0.7366734,1.321377,0.3983264,-0.1403643,0.2001458,-0.009504108,-1.14945,0.1313823,0.03881877,0.8422837,1.372662,0.2223229,0.5176247,1.298308,0.3380828,310.8354,96.54477,149.6335,True
0,2.111114,-0.0426051,0.05154009,0.06343898,-1.346017,-4.693503,-2.810986,0.6612828,1.149887,0.4724755,-2.377932,0.2071527,8.7,44.9,-0.1225932,0.1580796,-0.09132896,-0.7502737,-4.671981,0.3676111,0.7358003,1.321355,0.39856,-0.1370394,0.1915769,-0.00107276,-1.149394,0.1330423,0.03931491,0.8418457,1.372485,0.2227998,0.5166456,1.297893,0.3377562,310.7847,96.60828,149.4102,True
0,2.122225,-0.01066439,0.07312872,0.09202008,-1.348342,-4.694354,-2.811793,0.6607823,1.149761,0.4725778,-2.374583,0.3017589,8.1,44.4,-0.1194025,0.1421221,-0.09568262,-0.7510226,-4.669987,0.3673272,0.7350782,1.321252,0.3987503,-0.1253062,0.1755755,0.0008615362,-1.149202,0.1344505,0.0397104,0.8413811,1.372529,0.2231615,0.5154679,1.297368,0.3375469,310.6783,96.70143,149.1777,True
0,2.133336,0.007423052,0.08923751,0.1046824,-1.350326,-4.695181,-2.81232,0.6602466,1.149515,0.4725759,-2.371082,0.3147206,8.1,44.4,-0.1066027,0.1325493,-0.09474614,-0.7514642,-4.667815,0.3665681,0.7344099,1.321311,0.3988862,-0.1072122,0.164906,0.0005897433,-1.149113,0.136036,0.03973729,0.8409724,1.372547,0.2235029,0.5140324,1.296806,0.3375573,310.5152,96.78808,149.0079,True
0,2.144447,0.01486714,0.09461636,0.1088952,-1.351922,-4.695966,-2.812473,0.6597306,1.149383,0.4726129,-2.367782,0.2960887,8.1,44.4,-0.09054468,0.1261244,-0.08423156,-0.751609,-4.665939,0.365741,0.7337762,1.321242,0.3990986,-0.1030405,0.1617227,-0.005868431,-1.149305,0.1378764,0.04002491,0.8405852,1.372538,0.223902,0.5123366,1.296202,0.3378412,310.2767,96.83727,148.9626,True
0,2.155558,0.02446283,0.09573086,0.1131454,-1.353652,-4.696452,-2.813022,0.659268,1.149099,0.4726663,-2.363112,0.4211839,8.1,44.4,-0.08200221,0.1229293,-0.08217974,-0.7520341,-4.663733,0.3647599,0.7331041,1.321151,0.3993466,-0.0998216,0.1563854,-0.003795432,-1.149187,0.1395507,0.04037911,0.8401644,1.372547,0.224277,0.5104643,1.295504,0.3384466,309.9354,96.86983,149.0563,True
0,2.166669,0.03194248,0.09048659,0.1216888,-1.355495,-4.696831,-2.813478,0.6587444,1.148849,0.4727387,-2.357995,0.4609619,8.1,44.4,-0.0734767,0.1154803,-0.08226838,-0.7525076,-4.661866,0.3640722,0.7324048,1.321156,0.3995285,-0.09339212,0.1553496,-0.0006298665,-1.148293,0.1420858,0.04025102,0.8394803,1.37246,0.2246449,0.5084611,1.294693,0.3393065,309.5461,96.894,149.2895,True
0,2.17778,0.0447661,0.07774809,0.122824,-1.357025,-4.696856,-2.814425,0.6582243,1.14863,0.4728007,-2.353415,0.4114077,8.1,40.4,-0.07664336,0.1090735,-0.08014585,-0.7529518,-4.660063,0.3636672,0.7317267,1.321066,0.3997023,-0.08049636,0.1446592,0.008754864,-1.14782,0.1434714,0.04029922,0.8390237,1.372425,0.2250147,0.5063841,1.293804,0.3403046,309.1159,96.93145,149.5588,True
0,2.188891,0.05438009,0.06710941,0.1207483,-1.358359,-4.696868,-2.815312,0.6578062,1.14843,0.4728222,-2.348311,0.4597462,8.1,40.4,-0.07878602,0.112269,-0.08117995,-0.7533215,-4.65771,0.3629178,0.7311441,1.320966,0.3998907,-0.07088185,0.1372159,0.01181464,-1.147328,0.1453468,0.04016393,0.8386085,1.372496,0.2253547,0.5043256,1.292817,0.3413476,308.6759,96.93827,149.8452,True
0,2.200002,0.0650717,0.05110399,0.1144577,-1.359502,-4.696337,-2.816535,0.6573291,1.148156,0.4727464,-2.343533,0.4293637,8.1,40.4,-0.07349214,0.1122994,-0.08654237,-0.7539329,-4.655388,0.36182,0.7305323,1.320847,0.4001455,-0.06129679,0.1297487,0.01165928,-1.147214,0.1465946,0.03997644,0.8381686,1.372411,0.2257185,0.5022876,1.2918,0.3423347,308.2415,96.92125,150.1237,True
0,2.211113,0.07470952,0.03190161,0.1071155,-1.360347,-4.695715,-2.817859,0.6568192,1.147987,0.4726501,-2.338198,0.4805643,8.1,40.4,-0.06291263,0.09531865,-0.09947242,-0.7552235,-4.654079,0.3613185,0.7298914,1.320689,0.4003398,-0.04537228,0.1201788,0.008221939,-1.147187,0.1480181,0.03944514,0.8377818,1.372252,0.2260597,0.5003014,1.290757,0.3431827,307.8162,96.90704,150.3664,True
0,2.222224,0.07898676,0.02334991,0.1007738,-1.361202,-4.695385,-2.818958,0.6562867,1.147798,0.4726324,-2.332976,0.469608,8.1,40.4,-0.05975064,0.07832114,-0.108089,-0.7564464,-4.652844,0.3609723,0.7292985,1.320601,0.4005518,-0.04541364,0.1180689,0.006085977,-1.147102,0.1496321,0.03944568,0.8375615,1.37235,0.2263505,0.4984022,1.28967,0.3438325,307.4056,96.90874,150.557,True
0,2.233335,0.0790344,0.007355956,0.09981476,-1.362116,-4.694475,-2.820066,0.6556995,1.147607,0.472558,-2.327549,0.4884997,7.8,57.5,-0.05653628,0.06554073,-0.1081667,-0.7574179,-4.65178,0.3607433,0.7286518,1.320485,0.4007082,-0.04001996,0.107393,0.01130642,-1.146794,0.1504287,0.03934048,0.8371047,1.372335,0.2266424,0.4965848,1.288527,0.3442284,307.0282,96.89632,150.7022,True
0,2.244446,0.0779806,0.0009441944,0.09665777,-1.362944,-4.694076,-2.820946,0.6552515,1.147378,0.4725254,-2.321782,0.5192974,7.8,57.5,-0.05431708,0.06442128,-0.0954028,-0.7577609,-4.650533,0.3603683,0.728056,1.320398,0.4008887,-0.02828732,0.09567591,0.01324772,-1.14649,0.1514058,0.03892316,0.8368403,1.372352,0.2269039,0.4947979,1.287351,0.3443545,306.6814,96.9353,150.7038,True
0,2.255557,0.07584861,0.00200418,0.09772109,-1.364052,-4.693659,-2.821817,0.6547207,1.14712,0.472472,-2.315993,0.5210824,7.8,57.5,-0.05419713,0.0643331,-0.0783564,-0.7577497,-4.649613,0.3602538,0.7274863,1.320343,0.4009891,-0.02298683,0.08395753,0.01207909,-1.146347,0.1519866,0.03881504,0.8363898,1.372365,0.2271576,0.4930087,1.286138,0.3442803,306.3515,97.0192,150.5689,True
0,2.266668,0.07051445,0.008411675,0.1030141,-1.365414,-4.693489,-2.822521,0.6541535,1.14679,0.4724956,-2.310168,0.5242915,7.8,57.5,-0.05735646,0.06218062,-0.07408355,-0.7581705,-4.648361,0.3600261,0.7268875,1.320236,0.4011545,-0.02304181,0.08077598,0.008876127,-1.146284,0.1529812,0.03879107,0.8361193,1.372459,0.2274094,0.4912113,1.284881,0.344085,306.0028,97.10149,150.3906,True
0,2.277779,0.06728661,0.01904242,0.1008262,-1.366674,-4.693694,-2.823143,0.6536038,1.146625,0.472611,-2.304424,0.5169511,10.5,65.5,-0.05949273,0.04940706,-0.07839322,-0.7591932,-4.647752,0.3602122,0.7262553,1.320185,0.4013593,-0.02204514,0.07652758,0.003521834,-1.14643,0.1537149,0.03860731,0.8357085,1.372464,0.2277546,0.4894304,1.283555,0.3438711,305.6411,97.23593,150.1578,True
0,2.28889,0.0608055,0.04884309,0.09957334,-1.368114,-4.694852,-2.823328,0.6529554,1.146448,0.4726567,-2.298559,0.527941,10.5,65.5,-0.06476445,0.03659804,-0.0741528,-0.7598372,-4.647463,0.3607744,0.7256412,1.32,0.4015789,-0.0177784,0.07227332,0.004529526,-1.146147,0.154601,0.03835272,0.8353063,1.372438,0.228055,0.4876339,1.282204,0.3437254,305.2875,97.35994,149.941,True
0,2.300001,0.05218948,0.0796738,0.09406094,-1.36957,-4.696355,-2.823333,0.6522303,1.14629,0.4726884,-2.292768,0.5211371,10.5,65.5,-0.07539091,0.03763602,-0.07087864,-0.7602494,-4.646511,0.3611843,0.7249888,1.319903,0.4019105,-0.01124585,0.07223488,0.01509738,-1.145559,0.1553857,0.03796789,0.8348172,1.372429,0.2283323,0.4857883,1.280864,0.3437337,304.9321,97.47779,149.7485,True
0,2.311112,0.04149421,0.0945579,0.09397785,-1.371029,-4.697487,-2.823204,0.651528,1.146087,0.4727342,-2.286608,0.5547266,10.5,65.5,-0.08921188,0.03971797,-0.0654458,-0.760537,-4.645607,0.3620594,0.7243211,1.319738,0.4020817,-0.002613328,0.07220173,0.02349544,-1.145095,0.1561959,0.03743233,0.8344988,1.372389,0.2286329,0.4838346,1.279619,0.3439555,304.5744,97.63094,149.5776,True
0,2.322223,0.03292048,0.111557,0.09174852,-1.372438,-4.698806,-2.82307,0.650882,1.145913,0.4727688,-2.280423,0.5566429,10.5,65.5,-0.09768023,0.0290328,-0.06010953,-0.7609823,-4.645355,0.3631827,0.7236603,1.319562,0.4023423,0.01656895,0.07112622,0.02431156,-1.144622,0.157066,0.03628397,0.8339746,1.372388,0.2289224,0.4817212,1.278512,0.344432,304.2411,97.78864,149.5015,True
0,2.333334,0.02008658,0.1242291,0.08102904,-1.373468,-4.700297,-2.822561,0.6500551,1.145746,0.472795,-2.274046,0.5741047,13.5,67.1,-0.09661903,0.01413625,-0.06444519,-0.7619325,-4.645424,0.3641369,0.7229848,1.319396,0.4024971,0.01844424,0.07118015,0.005106214,-1.145253,0.1579063,0.03566052,0.8335146,1.372313,0.2291842,0.4794699,1.277502,0.3451689,303.9052,97.89118,149.578,True
0,2.344445,0.01258863,0.1380573,0.08094721,-1.37495,-4.701969,-2.822122,0.6492804,1.145609,0.472796,-2.267801,0.5619147,13.5,67.1,-0.09768882,0.001365639,-0.06769093,-0.762887,-4.645539,0.3653367,0.7222836,1.319232,0.4027009,0.02351996,0.07016364,-0.01307902,-1.146004,0.1587192,0.03498595,0.8330897,1.372338,0.2294908,0.4771715,1.27649,0.3461182,303.5308,97.9277,149.7979,True
0,2.355556,-0.002452189,0.175197,0.0658133,-1.376186,-4.704948,-2.821006,0.6483101,1.145582,0.472811,-2.261122,0.6015449,13.5,67.1,-0.1039929,-0.004020259,-0.05595079,-0.7631256,-4.645679,0.3668089,0.7216567,1.319034,0.4029129,0.02445874,0.06699497,-0.02269231,-1.146579,0.1594154,0.03432282,0.8325964,1.372273,0.2298367,0.4748638,1.275446,0.3471869,303.1514,97.97038,150.0678,True
0,2.366668,-0.007831797,0.1889626,0.05507438,-1.377204,-4.707346,-2.820289,0.6473921,1.145637,0.4728396,-2.254651,0.5820115,13.5,67.1,-0.1124829,0.009783357,-0.04837385,-0.7631602,-4.644724,0.36766,0.7209324,1.31883,0.4031162,0.02456172,0.0786978,-0.01519527,-1.146322,0.1608894,0.03352307,0.8320366,1.372272,0.2302055,0.4725105,1.274396,0.3482682,302.7908,98.03658,150.3176,True
0,2.377779,-0.02491916,0.197337,0.04119563,-1.377971,-4.709598,-2.819007,0.6463201,1.145544,0.4728801,-2.24752,0.6424779,14.4,62.9,-0.1232177,0.01833297,-0.05892166,-0.7639853,-4.643529,0.3684667,0.7201754,1.318537,0.4033089,0.02794763,0.08504535,-0.001372583,-1.145856,0.1620946,0.03261946,0.8315132,1.372205,0.2305377,0.4700818,1.27337,0.3493028,302.4434,98.14015,150.5011,True
0,2.38889,-0.0344619,0.1791724,0.03706405,-1.37866,-4.710787,-2.818079,0.645174,1.145461,0.4729164,-2.240875,0.5973703,14.4,62.9,-0.1392433,0.01088353,-0.0663021,-0.7649669,-4.64329,0.3704359,0.7193931,1.31834,0.4034748,0.03870142,0.09460355,0.005965041,-1.145559,0.1635482,0.03129188,0.8310087,1.372222,0.2308347,0.4675,1.272433,0.3502754,302.1129,98.33961,150.5673,True
0,2.400001,-0.04611973,0.1545778,0.02978321,-1.379014,-4.711508,-2.817061,0.6438879,1.145528,0.4729366,-2.23329,0.683629,14.4,62.9,-0.1478506,0.01093172,-0.07902729,-0.7661898,-4.642374,0.371711,0.7185687,1.318177,0.4036679,0.04507404,0.08927579,0.004798669,-1.145529,0.1644282,0.03022528,0.8304342,1.372247,0.2311084,0.4648481,1.2715,0.3511932,301.7766,98.53275,150.6176,True
0,2.411112,-0.0535199,0.133156,0.0171571,-1.379105,-4.712211,-2.816299,0.6426249,1.145447,0.4728897,-2.22624,0.6339018,14.4,62.9,-0.1457297,0.02052119,-0.0789948,-0.7667496,-4.641258,0.3723789,0.7177181,1.318054,0.4038088,0.05154643,0.08712386,0.01110126,-1.145107,0.1654235,0.02908598,0.8298732,1.372241,0.2313836,0.4621696,1.27049,0.3520404,301.4504,98.67601,150.6955,True
0,2.422223,-0.06730588,0.09993332,-0.007110516,-1.378191,1.570736,-2.815015,0.641318,1.145549,0.4728715,-2.218842,0.6661668,14.4,62.9,-0.1499313,0.04389706,-0.06607974,-0.7665797,-4.639328,0.3727153,0.7168279,1.317938,0.4039066,0.05057251,0.07857458,0.01854385,-1.144654,0.165943,0.0283885,0.8294023,1.372126,0.2315552,0.4594721,1.269389,0.3527626,301.0983,98.76257,150.7977,True
0,2.433334,-0.08317976,0.0593201,-0.01960704,-1.377435,-4.711935,-2.813761,0.6401359,1.145631,0.4729633,-2.211609,0.6505115,14.4,56.9,-0.1594149,0.06190215,-0.04675867,-0.7659896,-4.637759,0.3737028,0.7159327,1.31774,0.404032,0.03885819,0.06792711,0.01972628,-1.144526,0.1663894,0.02826599,0.8289526,1.372126,0.2319112,0.456724,1.268223,0.3533021,300.7316,98.88136,150.8371,True
0,2.444445,-0.09804667,0.03785909,-0.03649286,-1.376438,-4.711998,-2.812317,0.6389148,1.145755,0.4730136,-2.20336,0.7434725,14.4,56.9,-0.1613314,0.07666288,-0.01259254,-0.7645344,-4.636472,0.3746127,0.7150364,1.317616,0.404099,0.01532468,0.07222415,0.01259635,-1.144645,0.1674404,0.0284383,0.8284856,1.372078,0.2322364,0.4539675,1.266925,0.3536457,300.3692,99.07527,150.7687,True
0,2.455556,-0.118267,0.02602074,-0.04384136,-1.375753,-4.71192,-2.810344,0.637698,1.14584,0.4729743,-2.195354,0.7203545,14.4,56.9,-0.161261,0.08513495,-0.0008376464,-0.7638143,-4.635072,0.3753023,0.7141273,1.317472,0.4041834,0.0003465824,0.09675187,0.006477235,-1.14474,0.1694753,0.02799435,0.8279599,1.372084,0.2326071,0.4512044,1.265517,0.3537782,299.9636,99.38027,150.5116,True
0,2.466667,-0.1257202,0.02602151,-0.04063684,-1.37555,1.570805,-2.808648,0.6365021,1.145885,0.4730132,-2.18743,0.7130747,14.4,56.9,-0.1688168,0.09902492,-0.01244227,-0.7637552,-4.632723,0.3757347,0.7132321,1.317331,0.4043081,-0.009335365,0.1074275,-0.0008144877,-1.144881,0.1710124,0.02777597,0.8273985,1.372013,0.2329547,0.4485105,1.264018,0.3537445,299.5166,99.73407,150.1155,True
0,2.477778,-0.1449298,0.03875413,-0.03856346,-1.375452,1.569981,-2.806213,0.6352746,1.145936,0.4730296,-2.179043,0.7556142,14.4,56.9,-0.1667312,0.1022453,-0.01882988,-0.7637115,-4.631029,0.3762439,0.712324,1.317156,0.404376,-0.01782746,0.1042249,0.001422244,-1.144749,0.172032,0.02778076,0.8268251,1.372018,0.2331955,0.4458623,1.262523,0.3536045,299.0913,100.1448,149.6378,True
0,2.488889,-0.1502996,0.05690442,-0.03015315,-1.37579,1.568788,-2.804141,0.6340605,1.145966,0.4731154,-2.171544,0.6739888,13.2,53.5,-0.1615041,0.1012421,-0.03271773,-0.7640556,-4.629348,0.3767137,0.7113338,1.316938,0.4044762,-0.02084896,0.103119,0.01424442,-1.144134,0.1731611,0.02760393,0.826322,1.372029,0.2334862,0.4432641,1.261103,0.3534288,298.692,100.5346,149.1713,True
0,2.5,-0.1567378,0.07610925,-0.02174567,-1.3763,1.567528,-2.801899,0.6328991,1.146009,0.4732614,-2.1631,0.7611433,13.2,53.5,-0.1520282,0.1066469,-0.04874215,-0.7646127,-4.627045,0.3763936,0.7103831,1.316819,0.4046097,-0.02054808,0.1051786,0.03662014,-1.14294,0.1744493,0.02730193,0.8256962,1.372036,0.233835,0.4407212,1.259787,0.3533227,298.3467,100.8911,148.7374,True
0,2.511111,-0.1599558,0.09108404,-0.01118491,-1.377031,1.566149,-2.799812,0.6317061,1.145908,0.4733505,-2.155632,0.6711023,13.2,53.5,-0.1478403,0.1056299,-0.05942467,-0.7651091,-4.625067,0.3765164,0.7094434,1.316709,0.4047184,-0.02790854,0.1040902,0.04417652,-1.142189,0.175597,0.0274239,0.825039,1.372072,0.2340941,0.4381991,1.258616,0.3533695,298.0409,101.2192,148.3635,True
0,2.522222,-0.1621526,0.122081,0.006723255,-1.378425,1.564175,-2.797534,0.6306821,1.145927,0.4734883,-2.147677,0.7163455,13.2,53.5,-0.1372036,0.1056523,-0.06269657,-0.7654958,-4.623183,0.3762458,0.708506,1.316678,0.4048467,-0.03221152,0.1062286,0.04103854,-1.1419,0.1768906,0.02739967,0.824482,1.37213,0.2343757,0.435712,1.257567,0.3536555,297.761,101.4865,148.092,True
0,2.533333,-0.1568609,0.1456909,0.03212854,-1.380429,1.562361,-2.795608,0.6297277,1.146019,0.4734666,-2.13996,0.6942919,12,49.3,-0.1328543,0.1119851,-0.04884705,-0.7649845,-4.621257,0.3761435,0.7076297,1.316717,0.4049206,-0.03446512,0.1147782,0.03150417,-1.141822,0.1785792,0.02712909,0.8239172,1.37219,0.2346587,0.4332692,1.256595,0.354222,297.4963,101.6652,147.9879,True
0,2.544444,-0.1526466,0.1702832,0.04368214,-1.382121,1.560017,-2.793734,0.628893,1.145987,0.4735477,-2.132,0.71658,12,49.3,-0.1274564,0.1438791,-0.0327623,-0.7639421,-4.617773,0.3748564,0.706733,1.316733,0.4049919,-0.04430895,0.1190977,0.01247095,-1.142282,0.1801453,0.02730406,0.8233854,1.372243,0.2349813,0.4308607,1.255649,0.3550549,297.2323,101.7618,148.0493,True
0,2.555555,-0.151568,0.169266,0.05221193,-1.383563,1.558701,-2.791766,0.6281219,1.146071,0.4734197,-2.124384,0.6849399,12,49.3,-0.1145806,0.1693891,-0.01462975,-0.7626148,-4.614193,0.3730881,0.7058765,1.316809,0.4051208,-0.07120027,0.1170401,-0.006348468,-1.142934,0.1815639,0.02842205,0.8228399,1.372366,0.2353499,0.428459,1.254752,0.3561249,296.8967,101.8212,148.2236,True
0,2.566666,-0.1483555,0.1639657,0.05437324,-1.384761,1.557297,-2.789907,0.6276237,1.146125,0.4733825,-2.116733,0.6886207,12,49.3,-0.09416039,0.2065484,0.0194905,-0.7600608,-4.610198,0.3705464,0.7050507,1.316975,0.4052343,-0.08499856,0.1212957,-0.002956526,-1.142803,0.1831383,0.02907826,0.8223215,1.372399,0.235673,0.426089,1.253903,0.3573573,296.5226,101.8297,148.5333,True
0,2.577777,-0.1472531,0.1501073,0.05340139,-1.385752,1.556381,-2.788116,0.6271334,1.146138,0.4733262,-2.108722,0.7214708,12,49.3,-0.08441783,0.2320084,0.0461702,-0.7576011,-4.606334,0.368263,0.7043432,1.317165,0.4053264,-0.08163693,0.1340428,0.008755084,-1.142251,0.18524,0.02901967,0.8218133,1.372467,0.235992,0.4238235,1.253021,0.3586717,296.1577,101.8344,148.9013,True
0,2.588888,-0.1408397,0.1448218,0.05770096,-1.387141,1.55537,-2.78659,0.6265545,1.146048,0.4734392,-2.101186,0.6778995,11.7,45.6,-0.07693458,0.237321,0.05146773,-0.7559708,-4.602944,0.3664611,0.7036102,1.317228,0.4054711,-0.06643099,0.1361001,0.02984943,-1.141366,0.1868901,0.02851233,0.8213447,1.37255,0.2363653,0.421702,1.252096,0.3599076,295.7579,101.816,149.3084,True
0,2.599999,-0.1311971,0.1321561,0.07161963,-1.388676,1.554793,-2.785346,0.6262225,1.145955,0.4735131,-2.093642,0.6790687,11.7,45.6,-0.07066768,0.2065539,0.02572161,-0.7560134,-4.600841,0.3654273,0.703094,1.317358,0.4057515,-0.0685607,0.1158471,0.03088305,-1.141014,0.1873847,0.02918798,0.820942,1.372567,0.2365823,0.4198228,1.251078,0.3609623,295.3631,101.8649,149.586,True
0,2.61111,-0.1183844,0.1269291,0.08122285,-1.390245,1.554014,-2.78435,0.6258262,1.145836,0.4735813,-2.086452,0.6466342,11.7,45.6,-0.05587713,0.1800468,0.002065644,-0.7562983,-4.598886,0.3641513,0.7026209,1.317383,0.4059114,-0.06855381,0.1019925,0.0319081,-1.140589,0.1880839,0.02962527,0.8205346,1.372615,0.2368386,0.4181436,1.250004,0.3617669,295.0281,101.9376,149.7177,True
0,2.622221,-0.08742973,0.1186435,0.1046784,-1.392449,1.553796,-2.784428,0.6258194,1.145595,0.4737003,-2.079259,0.6472538,11.7,45.6,-0.02620444,0.135489,-0.03029634,-0.7575383,-4.598058,0.3628719,0.7022467,1.317358,0.4061007,-0.06559795,0.08606005,0.01477559,-1.140982,0.1885766,0.03002581,0.8202389,1.37257,0.2370219,0.4165957,1.248889,0.3623546,294.7385,101.9808,149.7426,True
0,2.633332,-0.05552519,0.1670893,0.1693096,-1.397397,1.551953,-2.784413,0.6257576,1.145423,0.4738097,-2.072164,0.6383494,12,40.9,0.01528074,0.1079167,-0.04561947,-0.7583975,-4.597011,0.3605781,0.7020011,1.317347,0.4062767,-0.06563153,0.06902357,0.01259354,-1.14093,0.1889205,0.03056403,0.819947,1.372623,0.2372627,0.4151704,1.247714,0.3627802,294.4412,102.0165,149.7203,True
0,2.644443,-0.02896479,0.1937967,0.1691014,-1.400095,1.54982,-2.784605,0.6256534,1.145204,0.4738481,-2.065884,0.5640055,12,40.9,0.02378024,0.08665325,-0.05322922,-0.7590424,-4.596261,0.3595539,0.7017365,1.317312,0.4064627,-0.05383474,0.06153848,0.01880187,-1.140525,0.1893609,0.03062715,0.8195883,1.372608,0.2374675,0.4138384,1.246468,0.3631131,294.1225,102.07,149.6502,True
0,2.655554,-0.01199553,0.2237341,0.1784778,-1.403433,1.547324,-2.784568,0.6257726,1.144793,0.4739225,-2.058997,0.620236,12,40.9,0.02907964,0.03772514,-0.06732763,-0.7605663,-4.597229,0.3598138,0.7016124,1.317261,0.4067006,-0.04726188,0.05297379,0.0325385,-1.13967,0.189739,0.03078801,0.819338,1.372701,0.2376995,0.4126634,1.245105,0.3634664,293.7356,102.0674,149.5791,True
0,2.666665,-0.007731648,0.2216113,0.1774163,-1.40603,1.545739,-2.784275,0.6257844,1.144525,0.4739268,-2.052175,0.6137571,12,40.9,0.03989432,-0.01877229,-0.05593273,-0.7614851,-4.599981,0.3609281,0.7014625,1.317216,0.4069028,-0.04184854,0.0540681,0.03884639,-1.139226,0.1912388,0.03046656,0.8193622,1.372949,0.2378378,0.4114314,1.243805,0.3639967,293.3389,101.9657,149.6528,True
0,2.677776,0.003988348,0.211949,0.1604249,-1.407958,1.544266,-2.784451,0.6260175,1.144084,0.4739425,-2.045058,0.6408365,12,40.9,0.05485297,-0.0315448,-0.05289453,-0.762152,-4.600633,0.3602165,0.7013174,1.317161,0.4070239,-0.01934602,0.04976376,0.0491828,-1.138337,0.1917005,0.02987108,0.8192006,1.373004,0.238106,0.4101484,1.242486,0.3647655,293.0131,101.9835,149.7449,True
0,2.688887,0.01251369,0.2065755,0.1487244,-1.409871,1.542596,-2.784567,0.6261557,1.143794,0.4739838,-2.037803,0.6534995,12.3,32,0.05692297,-0.03043665,-0.06142693,-0.7631437,-4.600329,0.3593448,0.7011402,1.316999,0.4072282,-0.009710047,0.04975682,0.05329879,-1.137818,0.192462,0.02951848,0.8189212,1.372957,0.2382855,0.408875,1.241067,0.3658054,292.6592,101.9401,149.9815,True
0,2.699998,0.0252805,0.1894294,0.1275227,-1.411115,1.541721,-2.785109,0.6262959,1.143587,0.4741244,-2.031518,0.5647451,12.3,32,0.05035371,-0.0292725,-0.08694059,-0.7649366,-4.599936,0.3587638,0.7009892,1.316893,0.4073739,0.002092779,0.04866605,0.05952863,-1.136911,0.1929892,0.02887399,0.8187931,1.372969,0.2384501,0.4076054,1.239567,0.3670158,292.2439,101.838,150.379,True
0,2.711109,0.04241291,0.1595245,0.1095873,-1.412091,1.54114,-2.786055,0.6263979,1.14332,0.4742098,-2.02494,0.5923126,12.3,32,0.04281093,-0.01006827,-0.09532949,-0.7660029,-4.598461,0.357507,0.7008743,1.316707,0.4075077,0.01269793,0.04441717,0.0561759,-1.136412,0.1935086,0.02822471,0.8186564,1.37302,0.2385724,0.4064454,1.237921,0.3682817,291.8063,101.8026,150.748,True
0,2.72222,0.06165593,0.1296647,0.0959027,-1.412859,1.540767,-2.787174,0.6265957,1.143114,0.4742877,-2.01882,0.5503811,12.3,32,0.03527101,-0.0004493669,-0.1048236,-0.7672988,-4.597306,0.3565861,0.7008398,1.31656,0.4076333,0.01676487,0.0370077,0.04225109,-1.136342,0.1938779,0.02780447,0.8184165,1.372971,0.2387021,0.4052989,1.236243,0.3695015,291.3424,101.8403,151.0115,True
0,2.733331,0.07987843,0.08489855,0.08445831,-1.413327,1.541423,-2.788742,0.626678,1.14296,0.4743695,-2.012961,0.5269465,12.6,25.2,0.031104,-0.004774109,-0.09203126,-0.7679513,-4.597312,0.3563578,0.7008069,1.316462,0.4077575,0.02716786,0.03066101,0.02398024,-1.13664,0.1940299,0.02711284,0.8183608,1.372931,0.238822,0.4041856,1.234563,0.3705885,290.8828,101.9106,151.1939,True
0,2.744442,0.08526695,0.05713026,0.07078026,-1.413569,1.541689,-2.789863,0.6268064,1.142813,0.4744508,-2.007028,0.5340641,12.6,25.2,0.03761127,-0.009105681,-0.07504763,-0.7682602,-4.59763,0.3560186,0.7008109,1.316427,0.4078536,0.03030089,0.02534423,0.01965778,-1.136582,0.1941579,0.0266649,0.8183246,1.372991,0.2389176,0.4031348,1.232865,0.3714731,290.4479,101.9895,151.3174,True
0,2.755553,0.09493089,0.01975807,0.05397969,-1.413209,1.542862,-2.791404,0.6268715,1.142727,0.4745014,-2.001337,0.5119137,12.6,25.2,0.03462034,-0.008177681,-0.04519563,-0.7678255,-4.597948,0.3559112,0.7009008,1.316387,0.4079242,0.03875336,0.0189599,0.01419526,-1.136631,0.1941479,0.02586063,0.8183021,1.372883,0.238925,0.4021687,1.231142,0.3721131,290.0172,102.1015,151.3457,True
0,2.766664,0.1024638,-0.004795687,0.04343843,-1.413104,1.543317,-2.792902,0.6268811,1.142605,0.4745657,-1.995112,0.5609879,12.6,25.2,0.0357464,-0.01566867,-0.03884625,-0.7683156,-4.598474,0.3557546,0.7009653,1.316249,0.4080212,0.03981462,0.008308711,0.01415546,-1.136395,0.1938942,0.02546301,0.8181012,1.372849,0.2389898,0.4012633,1.229404,0.3724723,289.6051,102.2432,151.2643,True
0,2.777775,0.1068055,-0.04647953,0.02028459,-1.411949,1.545101,-2.79449,0.6269413,1.142559,0.4745779,-1.989723,0.484332,12.6,25.2,0.03791325,-0.02633274,-0.03571235,-0.7688173,-4.599205,0.3558071,0.7010473,1.316196,0.4081109,0.04519122,-0.008754153,0.01829128,-1.136083,0.1931169,0.02506248,0.8180779,1.372814,0.2390914,0.4004043,1.227666,0.3725716,289.2068,102.5131,150.984,True
0,2.788886,0.1047069,-0.0582145,0.01823362,-1.411776,1.546067,-2.795725,0.6270549,1.142425,0.4746156,-1.984421,0.4772568,13.5,36.4,0.03791577,-0.03165624,-0.03681095,-0.7695662,-4.599633,0.3556747,0.7011133,1.31603,0.4083099,0.04416312,-0.01729424,0.02147775,-1.135739,0.1924895,0.02489416,0.8179684,1.372887,0.2391748,0.3995818,1.225947,0.3724371,288.8341,102.8759,150.5402,True
0,2.799997,0.1046952,-0.05719323,0.01183918,-1.411573,1.546648,-2.796973,0.6271867,1.14232,0.4746585,-1.979097,0.4793639,13.5,36.4,0.04645829,-0.04123664,-0.03584631,-0.7701809,-4.600533,0.3555078,0.7012022,1.315962,0.408392,0.04304812,-0.0279372,0.01826548,-1.135667,0.1917535,0.02474982,0.8179169,1.372866,0.2391574,0.3987805,1.224252,0.3721554,288.484,103.2843,150.0084,True
0,2.811108,0.1014588,-0.04441797,0.01175801,-1.411654,1.5467,-2.797953,0.6274699,1.142174,0.4746919,-1.973828,0.4745125,13.5,36.4,0.05283879,-0.03803122,-0.0358823,-0.7707582,-4.600656,0.3549269,0.7013279,1.315856,0.4085591,0.04086807,-0.04070706,0.01506856,-1.135528,0.1908901,0.02469869,0.81787,1.372838,0.2391441,0.3980632,1.222543,0.3717614,288.1304,103.7415,149.4089,True
0,2.822219,0.09927998,-0.02414351,0.01802044,-1.412197,1.546445,-2.798967,0.6276516,1.142137,0.4746771,-1.969007,0.4335781,13.5,36.4,0.05392699,-0.03379935,-0.03054409,-0.7710299,-4.601047,0.3547008,0.7014459,1.315826,0.4086573,0.04200609,-0.04606465,0.02037744,-1.134961,0.1898932,0.02454396,0.8176956,1.372812,0.2391291,0.3974144,1.220863,0.3713545,287.7772,104.2048,148.769,True
0,2.83333,0.09601105,0.00788399,0.03060311,-1.413281,1.545698,-2.799835,0.6278616,1.14198,0.4746857,-1.964099,0.4420318,13.5,36.4,0.04871175,-0.02642411,-0.01236877,-0.7706506,-4.60119,0.3544747,0.7016037,1.315763,0.4086943,0.0452488,-0.05992971,0.02455256,-1.134627,0.1886341,0.02451386,0.8177193,1.372747,0.2391083,0.3968274,1.219243,0.3710442,287.4374,104.6925,148.1225,True
0,2.844441,0.09279848,0.01749237,0.03480496,-1.413924,1.545378,-2.80078,0.6279911,1.141841,0.4747529,-1.959664,0.3989524,12,28.6,0.04874986,-0.0317791,-0.007067841,-0.7708307,-4.60204,0.3546225,0.7016295,1.31575,0.4087744,0.04527254,-0.06634247,0.026675,-1.13414,0.1873755,0.02455914,0.8176527,1.372779,0.2390857,0.3962977,1.217725,0.3709232,287.0982,105.1498,147.56,True
0,2.855552,0.07998931,0.02812928,0.0390112,-1.41463,1.545013,-2.801162,0.6282233,1.141772,0.4747279,-1.955694,0.3574593,12,28.6,0.05735257,-0.03288028,0.003520395,-0.7706384,-4.602768,0.35412,0.7017805,1.315741,0.4086809,0.04739315,-0.06207985,0.02559137,-1.133937,0.1867737,0.02419162,0.8176315,1.372768,0.239032,0.3957526,1.216406,0.3710371,286.7674,105.4816,147.198,True
0,2.866663,0.06720379,0.03022299,0.03901168,-1.415125,1.544761,-2.801518,0.628522,1.141758,0.4748094,-1.952334,0.3023307,12,28.6,0.06901301,-0.04133199,-0.007250466,-0.771285,-4.603397,0.3533804,0.7019907,1.31573,0.4087148,0.04522461,-0.05994152,0.0224454,-1.133579,0.1860655,0.0240068,0.817755,1.372759,0.2389526,0.3952302,1.215287,0.3714089,286.4805,105.6345,147.1017,True
0,2.877774,0.05334597,0.02907226,0.03264555,-1.415394,1.544565,-2.801593,0.6288303,1.141611,0.4748883,-1.948913,0.3086894,12,28.6,0.07642362,-0.05512774,-0.01695007,-0.7721479,-4.60458,0.3531072,0.7021742,1.315697,0.408741,0.0441811,-0.06740268,0.02456631,-1.133277,0.1849946,0.02401559,0.8177482,1.372748,0.238781,0.3947656,1.21435,0.3719816,286.2312,105.6623,147.2168,True
0,2.888885,0.04056841,0.02474274,0.027368,-1.415635,1.544467,-2.801672,0.6290016,1.14149,0.4749842,-1.946384,0.2272941,11.7,37.6,0.07747506,-0.05086687,-0.01799915,-0.7724493,-4.605161,0.352675,0.7024378,1.315732,0.408741,0.04106504,-0.07488701,0.03098019,-1.132737,0.1836031,0.02427658,0.8178626,1.372868,0.2387133,0.3944174,1.213591,0.3726584,285.9842,105.6588,147.4181,True
0,2.899997,0.02992561,0.01828639,0.02209895,-1.415693,1.544556,-2.80167,0.6292492,1.141445,0.475055,-1.944048,0.210543,11.7,37.6,0.08069248,-0.03491147,-0.01155825,-0.7723178,-4.604957,0.3515122,0.7026547,1.315701,0.4087598,0.03907185,-0.06639011,0.04061953,-1.13199,0.183106,0.02409814,0.8178625,1.372853,0.2386556,0.394255,1.212997,0.3733516,285.791,105.6501,147.624,True
0,2.911108,0.02458321,0.01713066,0.01039323,-1.415475,1.544343,-2.80175,0.6294944,1.141391,0.4750683,-1.942282,0.1588008,11.7,37.6,0.07851831,-0.04126826,-0.02009657,-0.7730517,-4.605547,0.3510454,0.7028686,1.315681,0.4087353,0.04006382,-0.06104413,0.03529898,-1.131748,0.1826233,0.02386405,0.8179011,1.372818,0.2385898,0.3942654,1.212553,0.373978,285.6945,105.5644,147.8784,True
0,2.922219,0.02349134,0.02027285,0.001851615,-1.415282,1.544069,-2.801844,0.6298518,1.141379,0.4750996,-1.940713,0.1413442,11.7,37.6,0.07534626,-0.05726004,-0.01907974,-0.7736377,-4.607086,0.3514824,0.7030449,1.315698,0.4087751,0.04625466,-0.05886725,0.02030633,-1.132015,0.1820679,0.02338016,0.8181093,1.372878,0.238502,0.394351,1.212266,0.3744698,285.6619,105.4062,148.1586,True
0,2.93333,0.01707882,0.02339865,-0.005619289,-1.415145,1.543605,-2.801716,0.6301,1.141372,0.4751046,-1.939583,0.1014329,11.7,37.6,0.07753984,-0.07751311,-0.0138585,-0.7740946,-4.608992,0.3519351,0.7032871,1.315679,0.4087894,0.04298621,-0.05884705,0.01502174,-1.132051,0.1813724,0.02332317,0.8181686,1.37288,0.2382836,0.3945006,1.212094,0.3747826,285.6568,105.2937,148.3555,True
0,2.944441,0.01705651,0.03190256,-0.008870803,-1.415187,1.54284,-2.801895,0.6303364,1.141251,0.4751914,-1.93855,0.09303942,11.1,36.3,0.07967342,-0.08177224,-0.01389189,-0.774614,-4.61029,0.351933,0.7034866,1.31567,0.4088259,0.04081438,-0.05669889,0.01186251,-1.131994,0.1808667,0.02314553,0.8182623,1.372872,0.2381654,0.394711,1.211983,0.3749111,285.6775,105.3008,148.3837,True
0,2.955552,0.01917338,0.03832429,-0.004651445,-1.415504,1.542318,-2.802078,0.6305981,1.141298,0.4752333,-1.937069,0.1335604,11.1,36.3,0.07752174,-0.06579402,-0.01380923,-0.7748132,-4.61039,0.3512182,0.7036831,1.315681,0.4087806,0.03455567,-0.05352337,0.02154221,-1.131489,0.1803916,0.02316444,0.818323,1.372882,0.2381554,0.3949733,1.211883,0.3748948,285.7125,105.3694,148.289,True
0,2.966663,0.0212843,0.04578269,-0.005766501,-1.415695,1.541537,-2.802306,0.6308842,1.1413,0.4752896,-1.935751,0.1180567,11.1,36.3,0.06906351,-0.03392263,0.002371247,-0.7740499,-4.609818,0.3503588,0.7038466,1.315726,0.4087679,0.03148675,-0.05993666,0.03116024,-1.130747,0.179467,0.02328588,0.8183522,1.372896,0.2380891,0.3951886,1.211769,0.3747978,285.7767,105.445,148.1372,True
0,2.977774,0.02339832,0.05328647,0.000575643,-1.416205,1.540836,-2.802466,0.6311311,1.141368,0.4753833,-1.933764,0.1790885,11.1,36.3,0.06062014,-0.00737581,0.01959106,-0.7730097,-4.609086,0.3494771,0.7040526,1.315776,0.4088259,0.02725071,-0.06313317,0.0333395,-1.130349,0.178607,0.02351332,0.8184098,1.372919,0.2379663,0.3953247,1.211562,0.3747212,285.8268,105.4907,147.9901,True
0,2.988885,0.0244501,0.05861843,0.0005372036,-1.416461,1.540005,-2.802647,0.6314803,1.141468,0.4754133,-1.931552,0.1989461,10.5,34.2,0.05857893,-0.003181487,0.03347621,-0.7722038,-4.609505,0.3491591,0.7042743,1.315818,0.4088106,0.01660741,-0.05246383,0.03351915,-1.129917,0.1785318,0.02371252,0.8185314,1.372952,0.2378986,0.3953416,1.211232,0.3747287,285.7916,105.5548,147.8592,True
0,2.999996,0.02017079,0.06176073,-0.0058663,-1.416503,1.539194,-2.802584,0.6317171,1.141462,0.4755034,-1.928939,0.2353136,10.5,34.2,0.05219632,-0.007451005,0.03350218,-0.7719556,-4.610023,0.3491266,0.704479,1.315768,0.408761,0.01438667,-0.04604823,0.02610482,-1.129999,0.1782311,0.02367284,0.8186291,1.372943,0.2378533,0.3952439,1.210751,0.3748672,285.6898,105.7098,147.6811,True
0,3.011107,0.01591536,0.0596049,-0.0090423,-1.416569,1.538475,-2.802557,0.6319093,1.141488,0.4755249,-1.926226,0.2441044,10.5,34.2,0.04895595,-0.01700583,0.02496048,-0.7722064,-4.610759,0.3492152,0.7046008,1.315723,0.4087515,0.0110483,-0.04707083,0.01550007,-1.130112,0.1777508,0.02384088,0.8186344,1.372906,0.2378044,0.3950278,1.210142,0.375159,285.5054,105.895,147.5239,True
0,3.022218,0.0116704,0.0510291,-0.015373,-1.416298,1.538105,-2.802483,0.6321064,1.141534,0.4755859,-1.923065,0.2848243,10.5,34.2,0.04570735,-0.02868584,0.0153433,-0.7725804,-4.611647,0.3495026,0.7047397,1.315783,0.4087625,0.01107963,-0.04387959,0.01764007,-1.129846,0.1773434,0.02388669,0.8186615,1.373003,0.2377174,0.3947503,1.209409,0.3755908,285.287,106.1563,147.3549,True
0,3.033329,0.007426609,0.04138995,-0.02275706,-1.415992,1.537706,-2.802343,0.632237,1.141632,0.4756658,-1.920002,0.2754743,10.5,34.2,0.04562313,-0.02543587,0.003636384,-0.7730305,-4.611648,0.3490243,0.7048824,1.315775,0.408752,0.009068489,-0.03217632,0.0262215,-1.129253,0.1775202,0.02383023,0.8186931,1.372919,0.2376659,0.3943958,1.208586,0.3761266,285.0678,106.4192,147.218,True
0,3.04444,0.004251369,0.03175882,-0.02801712,-1.41553,1.537529,-2.802246,0.6324168,1.141725,0.4757178,-1.916728,0.2948292,10.5,29,0.04449202,-0.01688838,-0.003770577,-0.7732057,-4.611531,0.3485258,0.7050656,1.315785,0.4087172,-0.002612293,-0.02257675,0.02854041,-1.128846,0.1777644,0.02412744,0.8187773,1.372935,0.2375963,0.3939693,1.207708,0.3767068,284.8258,106.6594,147.1312,True
0,3.055551,0.004287348,0.01572127,-0.03644006,-1.414713,1.537668,-2.802353,0.6325984,1.141788,0.4757309,-1.913372,0.3020661,10.5,29,0.04125997,-0.003030322,-0.00688344,-0.773244,-4.610846,0.3476256,0.7052118,1.315887,0.4086986,-0.003617142,-0.01833067,0.03282527,-1.128371,0.1775952,0.02428031,0.8188845,1.372911,0.2375915,0.3935083,1.206797,0.377264,284.5663,106.9652,146.974,True
0,3.066662,0.007501147,0.009315286,-0.03960098,-1.414139,1.537602,-2.802579,0.6327384,1.141991,0.4757814,-1.909997,0.3036452,10.5,29,0.03811492,0.0001209322,0.001676245,-0.772885,-4.610976,0.347452,0.7052941,1.315995,0.4086583,-0.00580521,-0.02256294,0.02858545,-1.128151,0.1773711,0.02447658,0.818869,1.372919,0.2375188,0.3930267,1.205897,0.3777511,284.3027,107.3359,146.7265,True
0,3.077773,0.004325978,-0.0003054363,-0.04272816,-1.413494,1.537773,-2.802491,0.6328877,1.142055,0.4757402,-1.906688,0.2976102,10.5,29,0.03296181,-0.002125148,0.02620429,-0.7718245,-4.611716,0.3477468,0.7054337,1.316149,0.4085953,-0.005920894,-0.0268029,0.02004702,-1.128305,0.1768046,0.02475408,0.8189343,1.372892,0.2373643,0.3926018,1.205003,0.37813,284.0568,107.7263,146.4429,True
0,3.088884,0.002199014,-0.002463425,-0.04591027,-1.41283,1.53766,-2.802444,0.633157,1.142258,0.475755,-1.903299,0.3049293,10.5,29,0.02988056,-0.003278811,0.04433648,-0.7707481,-4.61249,0.3482078,0.7055644,1.316263,0.4085093,-0.00485527,-0.02785795,0.02003008,-1.12806,0.1766047,0.02483318,0.8190596,1.37297,0.2372572,0.3922482,1.204117,0.3783638,283.837,108.1602,146.0738,True
0,3.099995,0.006462572,-0.005682425,-0.05121194,-1.412157,1.537634,-2.802661,0.6332798,1.14234,0.4758434,-1.89934,0.3569005,10.8,34.5,0.0278099,-0.0001243763,0.05288633,-0.7698996,-4.612809,0.3480842,0.70567,1.316371,0.4084864,-0.005942206,-0.02572146,0.01791789,-1.127964,0.176371,0.02494796,0.8191466,1.372914,0.2371471,0.3919183,1.20327,0.3784638,283.6388,108.6014,145.6449,True
0,3.111106,0.005395172,-0.003559242,-0.05228927,-1.411621,1.537343,-2.802719,0.6333407,1.142288,0.4759357,-1.895718,0.3255774,10.8,34.5,0.0256545,-0.00330694,0.04862571,-0.7696344,-4.613235,0.3481766,0.7057452,1.316474,0.4084468,-0.008010611,-0.01721047,0.02223326,-1.127555,0.1764987,0.02507952,0.8191328,1.372926,0.237076,0.3916329,1.202439,0.3784474,283.4558,109.0442,145.1864,True
0,3.122217,0.007511972,0.0006967376,-0.05337797,-1.411133,1.537101,-2.802841,0.6334286,1.142396,0.4759529,-1.892265,0.3104914,10.8,34.5,0.02878528,0.006322034,0.04012413,-0.7693564,-4.612728,0.3472895,0.7057897,1.316519,0.4083669,-0.01857141,-0.0172126,0.02876417,-1.127076,0.1764071,0.02560869,0.8193363,1.372989,0.2369716,0.3913918,1.201633,0.3783658,283.289,109.6006,144.5703,True
0,3.133328,0.002179885,0.00175101,-0.05337729,-1.410609,1.536807,-2.802585,0.6335851,1.142512,0.4758837,-1.88841,0.347321,10.8,34.5,0.02123017,0.02021536,0.02745519,-0.7692157,-4.611797,0.3465215,0.705892,1.316573,0.4083006,-0.01639886,-0.01722601,0.03192993,-1.126626,0.1761415,0.02583479,0.8193899,1.373008,0.2368956,0.3911396,1.200832,0.3782902,283.1867,110.0783,144.0009,True
0,3.144439,0.00112047,0.000701369,-0.05124237,-1.410101,1.536571,-2.802555,0.633677,1.142605,0.4758945,-1.884647,0.3384994,11.7,28.6,0.02010063,0.02344406,0.01895722,-0.7691209,-4.611379,0.3460474,0.7060491,1.316627,0.4082227,-0.01418678,-0.01084333,0.03724691,-1.126052,0.1763665,0.02572986,0.8194932,1.373097,0.2368009,0.3908187,1.200001,0.3782877,283.0876,110.4563,143.5488,True
0,3.15555,-0.002091719,0.006023527,-0.0502009,-1.409759,1.536216,-2.802318,0.633791,1.142649,0.4759481,-1.880459,0.3774292,11.7,28.6,0.02000638,0.03095814,0.006203838,-0.7693079,-4.610383,0.3450527,0.7061142,1.316658,0.4081573,-0.01628536,-0.007653746,0.03941392,-1.125542,0.1763533,0.02596902,0.8195397,1.373126,0.2367876,0.3904174,1.199134,0.3783798,282.9176,110.8823,143.1187,True
0,3.166661,-0.001027198,0.007107919,-0.04808069,-1.409349,1.535883,-2.802315,0.6338949,1.14276,0.4759328,-1.876802,0.3285967,11.7,28.6,0.01682219,0.03946217,0.009458053,-0.7688525,-4.609496,0.3443142,0.7060927,1.316678,0.4081247,-0.01625509,-0.01085261,0.04153517,-1.125023,0.1761342,0.02619698,0.8196604,1.373132,0.2367072,0.3899758,1.198235,0.378552,282.6979,111.4184,142.6363,True
0,3.177772,-0.006348569,0.007130646,-0.04167377,-1.409218,1.535825,-2.802008,0.6339634,1.142858,0.4759586,-1.87279,0.3614638,11.7,28.6,0.01902632,0.04580742,0.02118834,-0.7679949,-4.608765,0.34345,0.7061694,1.316747,0.4081612,-0.008832693,-0.01937602,0.0392782,-1.124704,0.1754999,0.02628913,0.8197014,1.373175,0.2366333,0.3895209,1.197311,0.3787944,282.4796,111.974,142.1352,True
0,3.188883,-0.005282428,0.009262989,-0.04169123,-1.408795,1.535491,-2.802046,0.6340128,1.143023,0.4759552,-1.86913,0.3289586,11.7,28.6,0.01372268,0.0383323,0.02332227,-0.7676407,-4.608745,0.3434932,0.7062615,1.316833,0.4081118,-0.01313325,-0.01829328,0.0361438,-1.124388,0.1753906,0.02659379,0.8197961,1.373184,0.2365582,0.3890688,1.196373,0.3791042,282.257,112.4922,141.6767,True
0,3.199994,-0.004202771,0.007193869,-0.03208726,-1.408796,1.535556,-2.801979,0.6341045,1.14302,0.4758871,-1.865046,0.3682448,12.3,32.8,0.01587435,0.02554475,0.02432078,-0.7673553,-4.609092,0.3435201,0.7063906,1.31688,0.4079964,-0.01324932,-0.01933633,0.02761922,-1.124352,0.1750698,0.02688328,0.8198504,1.373256,0.2363925,0.3886147,1.195447,0.3794537,282.0257,112.9946,141.2555,True
0,3.211105,-0.009510361,0.005076986,-0.02780691,-1.408607,1.535482,-2.801787,0.6341813,1.143198,0.4758883,-1.861741,0.2966681,12.3,32.8,0.02117661,0.005351273,0.01673652,-0.767621,-4.609737,0.3435888,0.7065043,1.316929,0.4079814,-0.01120772,-0.02464155,0.02118479,-1.124311,0.1746223,0.02711444,0.8198643,1.373234,0.236244,0.3881469,1.19457,0.3798055,281.7851,113.4736,140.8655,True
0,3.222216,-0.008439837,0.004036633,-0.02353753,-1.408505,1.535522,-2.801681,0.6342862,1.143229,0.4758868,-1.858047,0.3329468,12.3,32.8,0.024405,-0.006380379,0.01985966,-0.7674591,-4.610533,0.3438897,0.7065099,1.316967,0.4079585,-0.01119388,-0.0246445,0.02224978,-1.124025,0.1743023,0.02738635,0.8199031,1.37326,0.2361455,0.3876961,1.193746,0.3801297,281.5733,113.9519,140.4835,True
0,3.233327,-0.008451687,0.008317412,-0.0203627,-1.40854,1.53526,-2.801484,0.6343816,1.143276,0.4758723,-1.854437,0.3249947,12.3,32.8,0.02549681,-0.003199589,0.02412429,-0.7670804,-4.610576,0.34358,0.7065717,1.316999,0.4078059,-0.01003075,-0.02572341,0.02968859,-1.12342,0.1740675,0.02757703,0.8198445,1.373312,0.2361376,0.3873115,1.192947,0.3803926,281.3716,114.2978,140.221,True
0,3.244438,-0.009545932,0.02221084,-0.01299443,-1.408878,1.534602,-2.801253,0.6345347,1.143307,0.4758582,-1.851451,0.2684548,13.5,38.9,0.02121409,0.01064561,0.02421473,-0.7666282,-4.609834,0.3429968,0.7064997,1.317015,0.407758,-0.01322909,-0.02252605,0.02974499,-1.123048,0.1738892,0.02795653,0.8197843,1.373324,0.2361083,0.3869725,1.192213,0.3805766,281.1777,114.7578,139.8098,True
0,3.255549,-0.01170126,0.03074208,-0.009850681,-1.409051,1.534079,-2.800898,0.6346518,1.143299,0.475863,-1.848435,0.2716018,13.5,38.9,0.01581133,0.0245308,0.01578626,-0.7665073,-4.608608,0.3421097,0.7065261,1.317075,0.4077625,-0.01112158,-0.01826033,0.02759648,-1.122836,0.1737996,0.02800846,0.8198065,1.373341,0.2361033,0.3867126,1.191533,0.3806899,281.0255,115.1682,139.4142,True
0,3.26666,-0.01065573,0.04143657,-0.004594279,-1.409446,1.533299,-2.800767,0.6347045,1.143301,0.4759088,-1.845481,0.2658264,13.5,38.9,0.01261858,0.0309056,0.01797085,-0.7660151,-4.608096,0.3417336,0.7066454,1.3171,0.4077313,-0.007957824,-0.01505366,0.02543763,-1.122536,0.1738144,0.02803163,0.8199114,1.373425,0.2360969,0.3864936,1.190918,0.3807646,280.9,115.5271,139.0422,True
0,3.277771,-0.01276163,0.03293486,-0.000267894,-1.409691,1.533312,-2.800485,0.6347793,1.143315,0.4759583,-1.842359,0.2811619,13.5,38.9,0.01360365,0.02670304,0.00515426,-0.766404,-4.607623,0.3411709,0.7067278,1.317092,0.4077649,-0.006966699,-0.01504021,0.02009637,-1.122516,0.1735761,0.02822125,0.8199815,1.37336,0.2360604,0.3863035,1.190354,0.380854,280.7965,115.8131,138.7386,True
0,3.288882,-0.01382178,0.02973401,-0.001307892,-1.409776,1.53302,-2.800209,0.6349367,1.14336,0.476001,-1.839628,0.2453325,13.5,38.9,0.0156999,0.01394107,-0.001303597,-0.7667134,-4.608116,0.3413951,0.7069174,1.317123,0.4077203,-0.005930645,-0.01609065,0.01794587,-1.122419,0.1734707,0.02830434,0.82002,1.373379,0.236022,0.3860998,1.189828,0.3809903,280.7129,116.0479,138.4938,True
0,3.299993,-0.01592927,0.02119886,-0.002315311,-1.409705,1.53304,-2.799958,0.6349831,1.143394,0.4760072,-1.836394,0.2915906,14.1,41.6,0.01570311,-0.006278001,-0.005656695,-0.7671853,-4.609003,0.3418114,0.7070082,1.317214,0.4077439,-0.001696163,-0.01502242,0.01575978,-1.122306,0.1733023,0.02822951,0.8200516,1.373352,0.2359395,0.385853,1.189315,0.3812043,280.6245,116.1977,138.3517,True
0,3.311104,-0.01485476,0.01478551,-0.00653827,-1.409463,1.532975,-2.799762,0.6351124,1.143405,0.4760063,-1.833435,0.2660847,14.1,41.6,0.02103564,-0.01267352,-0.004653772,-0.7672908,-4.609618,0.3419597,0.7071178,1.317204,0.4077241,-0.004863133,-0.01821168,0.01792697,-1.121997,0.1730967,0.02846466,0.8200502,1.373295,0.2358942,0.3856075,1.188771,0.3814746,280.501,116.3494,138.2464,True
0,3.322215,-0.01163466,0.005196837,-0.007548037,-1.409218,1.533196,-2.799741,0.6350795,1.143558,0.4759135,-1.830317,0.2807208,14.1,41.6,0.0221524,-0.01482623,0.001721407,-0.7670943,-4.609946,0.341866,0.7070904,1.317175,0.4076791,-0.01018645,-0.01395072,0.01800986,-1.12181,0.1730381,0.02879436,0.8201103,1.373229,0.2357779,0.3853759,1.18818,0.3817742,280.3671,116.6244,138.0449,True
0,3.333326,-0.008438822,0.0009101795,-0.01284999,-1.408895,1.533199,-2.799648,0.635126,1.143544,0.47592,-1.827157,0.2842352,14.1,41.6,0.01791832,-0.0084575,0.007102083,-0.7668546,-4.609775,0.341682,0.7071133,1.317165,0.4076209,-0.01022804,-0.009675479,0.01483704,-1.121603,0.1731469,0.02886121,0.8201778,1.373225,0.2357197,0.3851265,1.187539,0.3820622,280.2339,116.932,137.8212,True
0,3.344437,-0.006299916,-0.002289433,-0.01496351,-1.408639,1.533169,-2.79967,0.6351703,1.143612,0.4759235,-1.823952,0.2883829,14.1,41.6,0.01153818,-0.002085043,0.009305947,-0.7666181,-4.609616,0.3415861,0.707104,1.317162,0.4075677,-0.01564209,-0.005397452,0.008532216,-1.121704,0.1731535,0.02926388,0.8201228,1.373132,0.2357047,0.3848538,1.186837,0.3823054,280.0853,117.3193,137.5144,True
0,3.355548,-0.005222986,-0.008693222,-0.01705254,-1.408315,1.533391,-2.799628,0.6351694,1.143665,0.475903,-1.820482,0.3123987,14.1,54.7,-0.001314597,0.007526626,0.0009070118,-0.7668418,-4.608842,0.3413925,0.707046,1.317206,0.4075122,-0.01566452,0.0009978339,0.006421117,-1.121685,0.1733511,0.02929237,0.8201053,1.373161,0.235635,0.3844967,1.186096,0.3824655,279.9266,117.7945,137.1005,True
0,3.366659,-0.0009286183,-0.01828069,-0.01912775,-1.407904,1.533753,-2.799928,0.6350806,1.143749,0.4758921,-1.817066,0.3072397,14.1,54.7,-0.003414807,0.01495439,0.006282106,-0.7664918,-4.608483,0.3411773,0.7070459,1.317231,0.4074543,-0.0146058,0.002072231,0.006407621,-1.121649,0.1735585,0.02943086,0.8201486,1.373241,0.2355728,0.384129,1.185267,0.3825602,279.7744,118.384,136.5214,True
0,3.37777,0.001230481,-0.03107962,-0.02224372,-1.407361,1.534364,-2.800059,0.6350193,1.143803,0.4757388,-1.81337,0.3328542,14.1,54.7,-0.009807305,0.02559366,0.008503428,-0.7660807,-4.607615,0.3408561,0.7070188,1.317273,0.4074135,-0.01564646,0.002059689,0.008554474,-1.121443,0.1734489,0.02974724,0.8201321,1.373192,0.2354927,0.3837432,1.184364,0.3826161,279.6006,119.0932,135.7988,True
0,3.388881,0.003374036,-0.03427636,-0.02329193,-1.406914,1.534717,-2.80029,0.6349084,1.143857,0.4757085,-1.810009,0.3019618,14.1,54.7,-0.00762898,0.03515172,0.01599099,-0.7654383,-4.606905,0.3401983,0.7069662,1.317291,0.4073312,-0.01874607,-0.005417431,0.0160321,-1.120992,0.1730566,0.0302346,0.8201137,1.373175,0.2354405,0.3833159,1.18341,0.3826406,279.4099,119.8839,134.9969,True
0,3.399992,0.003367546,-0.03644288,-0.02860333,-1.40629,1.535006,-2.800276,0.6348276,1.143898,0.4756844,-1.806108,0.3515884,18.9,66.2,-0.01077124,0.03830528,0.02454901,-0.7646995,-4.60645,0.3401102,0.7069174,1.317302,0.4072394,-0.01875774,0.0009871572,0.01498481,-1.120885,0.173474,0.03027375,0.8201019,1.373263,0.235343,0.3828394,1.182416,0.3826307,279.2137,120.7052,134.182,True
0,3.411103,0.0001672579,-0.03432865,-0.02967228,-1.405941,1.535219,-2.800232,0.6346616,1.14397,0.4756653,-1.802334,0.3393606,18.9,66.2,-0.006523861,0.04045594,0.02239588,-0.764405,-4.605721,0.339471,0.7068276,1.317324,0.4071548,-0.02089375,0.01270615,0.01398146,-1.120749,0.1739984,0.03030544,0.8201084,1.373226,0.2353349,0.3823398,1.181374,0.3825652,279.0166,121.6056,133.2926,True
0,3.422215,0.001231278,-0.03433248,-0.03073895,-1.405453,1.535448,-2.800309,0.63454,1.144043,0.4756501,-1.798072,0.3840701,18.9,66.2,-0.01405564,0.03091326,0.009622818,-0.7646857,-4.605552,0.3397666,0.7067847,1.317367,0.4070938,-0.01983459,0.01271979,0.01395627,-1.12074,0.1743733,0.03041303,0.8202302,1.373294,0.2352774,0.3818155,1.180285,0.3824723,278.8326,122.6333,132.2314,True
0,3.433326,0.001222384,-0.0300704,-0.0297028,-1.405049,1.535606,-2.800386,0.6343302,1.144169,0.4755566,-1.793859,0.3789098,18.9,66.2,-0.02044988,0.02239428,0.007497168,-0.764658,-4.605565,0.3402196,0.7066909,1.317393,0.4070132,-0.01987924,0.003135668,0.01072762,-1.120815,0.1739454,0.03075312,0.8202505,1.373234,0.2351756,0.3812648,1.17916,0.3823935,278.647,123.797,131.0131,True
0,3.444437,-0.00410159,-0.03115598,-0.03075759,-1.404526,1.535793,-2.800205,0.6342237,1.144267,0.4755459,-1.789698,0.3743843,18.9,66.2,-0.02692141,0.0277482,-0.002018912,-0.7647805,-4.604852,0.3403227,0.7067296,1.317492,0.4069374,-0.02092534,0.01272491,0.01182686,-1.120743,0.1745268,0.03078667,0.8203142,1.373282,0.2351558,0.3806588,1.178032,0.382365,278.4453,125.0041,129.7604,True
0,3.455548,-0.003025363,-0.03541172,-0.03073019,-1.404082,1.536154,-2.800255,0.6339213,1.144452,0.4754531,-1.785214,0.4036627,24.9,88,-0.03449376,0.02143468,-0.02010877,-0.7655534,-4.604284,0.3405259,0.7066426,1.317466,0.4068108,-0.01556579,0.02549541,0.01392225,-1.120511,0.1752918,0.03046949,0.820329,1.373252,0.23511,0.3800249,1.1769,0.3824032,278.2382,126.2479,128.5092,True
0,3.466659,-0.005146765,-0.03649699,-0.03285293,-1.403508,1.536424,-2.800307,0.6336693,1.144603,0.4754171,-1.780236,0.4483153,24.9,88,-0.04197057,0.01823935,-0.02326828,-0.7658559,-4.604054,0.3410894,0.7064538,1.317556,0.4067345,-0.01452876,0.02656525,0.01178574,-1.120361,0.1756183,0.03044153,0.8201983,1.373151,0.2350793,0.3793536,1.175766,0.3825014,278.0295,127.5257,127.2575,True
0,3.47777,-0.011496,-0.05357387,-0.03592825,-1.4027,1.537276,-2.800076,0.6332567,1.144916,0.4752924,-1.77552,0.4239531,24.9,88,-0.04833497,0.01927866,-0.01896182,-0.7658282,-4.603642,0.3415419,0.7063434,1.317643,0.4066935,-0.01556878,0.02336838,0.01391915,-1.120181,0.1758337,0.03058747,0.8201941,1.37318,0.235033,0.3786747,1.174621,0.3826516,277.8179,128.884,125.9395,True
0,3.488881,-0.01571254,-0.07065503,-0.04007464,-1.40172,1.538352,-2.799972,0.6329745,1.145273,0.4751766,-1.770389,0.4619607,24.9,88,-0.04934911,0.01924456,-0.01149598,-0.7656215,-4.603417,0.3419411,0.7061366,1.31778,0.40658,-0.0166634,0.02230998,0.01180001,-1.120118,0.1760741,0.03070092,0.8201928,1.37318,0.2349467,0.3779175,1.173485,0.3828212,277.609,130.2487,124.6293,True
0,3.499992,-0.01778703,-0.09306414,-0.04631695,-1.400534,1.539688,-2.799937,0.6326406,1.145631,0.4750588,-1.764587,0.5227178,25.7,100,-0.0599027,0.03300368,0.005677336,-0.764798,-4.602491,0.3422511,0.7059996,1.317945,0.406471,-0.01458716,0.0233897,0.007511773,-1.120193,0.176474,0.03056217,0.8202401,1.37319,0.2348473,0.3771054,1.172323,0.3829911,277.4016,131.7193,123.2191,True
0,3.511103,-0.03479995,-0.1102073,-0.05363702,-1.399221,1.54106,-2.799175,0.6321787,1.146021,0.4748585,-1.759004,0.5020574,25.7,100,-0.07247426,0.05838703,0.04316565,-0.762626,-4.601345,0.3427251,0.7059147,1.31804,0.4063606,-0.01892507,0.01381558,0.002214362,-1.12037,0.1762252,0.03100479,0.820254,1.373208,0.2347879,0.3762107,1.171148,0.3831001,277.1688,133.5386,121.4726,True
