loc,t,aDotUA,bDotUA,gDotUA,aUA,bUA,gUA,xUA,yUA,zUA,qE,qDotE,emgA,emgB,aDotSH,bDotSH,gDotSH,aSH,bSH,gSH,xSH,ySH,zSH,aDotUB,bDotUB,gDotUB,aUB,bUB,gUB,xUB,yUB,zUB,xHand,yHand,zHand,aHand,bHand,gHand,enable
3,0,-0.2645808,0.01050583,-0.2096624,-1.355913,-4.088444,3.080004,0.6240339,1.136648,0.4801738,-1.45546,0.03236924,0,10.9,-0.07274678,-0.1240004,0.1350889,-0.7572826,-4.448915,0.2521878,0.6884025,1.323302,0.4239912,-0.05620947,-0.07338016,-0.159662,-1.06088,0.239126,0.07227446,0.8141088,1.378763,0.2588477,0.4694242,0.9763326,0.2937728,304.7956,227.9364,356.9058,True
3,0.01111111,-0.2358805,0.0264904,-0.2183466,-1.353132,-4.088865,3.081848,0.6239784,1.137002,0.4799979,-1.454871,0.05315729,0,10.9,-0.07693692,-0.07932297,0.1533807,-0.7549071,-4.448816,0.2531654,0.6887635,1.323472,0.4237151,-0.05398203,-0.06594113,-0.1522118,-1.062358,0.2388175,0.07307554,0.8144289,1.378597,0.2585793,0.4699329,0.9771737,0.29319,304.9705,225.6482,358.1477,True
3,0.02222222,-0.2220803,0.04140557,-0.2238032,-1.350349,-4.089633,3.084032,0.6239449,1.13736,0.4797487,-1.454314,0.05003124,0,10.9,-0.08113055,-0.05487816,0.1684012,-0.7526711,-4.449452,0.2546634,0.6890664,1.323652,0.4234443,-0.05292171,-0.04994866,-0.1543106,-1.064169,0.2390452,0.0734127,0.8148146,1.378379,0.2583747,0.4702729,0.9776652,0.2925519,305.0168,225.0124,358.3014,True
3,0.03333334,-0.2008206,0.05851576,-0.2218219,-1.347957,-4.090605,3.085845,0.6239399,1.137762,0.4796424,-1.454327,-0.001965937,0,10.9,-0.08536475,-0.05170706,0.1737652,-0.7507787,-4.451028,0.2569258,0.6894332,1.323789,0.4232438,-0.0498179,-0.03287888,-0.1617579,-1.066228,0.2395081,0.07375092,0.8152533,1.37824,0.2581925,0.470338,0.9778933,0.2920236,305.0943,224.7298,358.2966,True
3,0.04444445,-0.1827776,0.08414158,-0.2209666,-1.345352,-4.092225,3.087607,0.6238875,1.138167,0.4796126,-1.453558,0.07001462,0,10.9,-0.09594243,-0.05495418,0.1865979,-0.7485757,-4.452985,0.2597855,0.6897209,1.323917,0.4230473,-0.04561476,-0.01794878,-0.167093,-1.068193,0.2400258,0.07387103,0.8156033,1.378045,0.2580352,0.470146,0.9779606,0.2917111,305.1863,224.472,358.4354,True
3,0.05555556,-0.1625766,0.1001961,-0.2157765,-1.343159,-4.093513,3.089157,0.6237789,1.138504,0.4794998,-1.453424,0.01134381,0,10.2,-0.08951111,-0.04965322,0.1940394,-0.7463408,-4.454505,0.2616622,0.6900368,1.324005,0.4228444,-0.04130448,-0.01583058,-0.162885,-1.069912,0.2400909,0.07429261,0.8160771,1.377918,0.2578835,0.4697293,0.9779875,0.2916619,305.3085,224.2801,358.6363,True
3,0.06666667,-0.1466139,0.1077019,-0.2147897,-1.340688,-4.094759,3.090545,0.6236857,1.138918,0.4794714,-1.453194,0.02070109,0,10.2,-0.07899106,-0.04104755,0.1716396,-0.7452702,-4.455291,0.2627224,0.6903243,1.324124,0.4226749,-0.0401375,-0.01478347,-0.1554375,-1.071365,0.2401551,0.07465906,0.8164034,1.377775,0.2577689,0.4691704,0.9781058,0.2919193,305.4223,224.1575,358.8459,True
3,0.07777778,-0.1327342,0.09923847,-0.2115553,-1.33843,-4.095429,3.091746,0.6235858,1.139191,0.4794543,-1.452914,0.02509741,0,10.2,-0.08448628,-0.04414097,0.141831,-0.7448169,-4.456359,0.2646122,0.6906387,1.324204,0.422549,-0.03883588,-0.01377309,-0.1373434,-1.07232,0.240124,0.07515787,0.8167402,1.377675,0.2576027,0.4684381,0.9783606,0.2924411,305.492,224.0773,359.0949,True
3,0.08888889,-0.1199572,0.09182508,-0.2125689,-1.335906,-4.096056,3.092807,0.6234834,1.139623,0.4794011,-1.452677,0.02127024,0,10.2,-0.08353029,-0.04620403,0.1226416,-0.7442161,-4.457559,0.2664192,0.6909401,1.324334,0.4224689,-0.03540958,-0.01912416,-0.1193011,-1.073199,0.2402471,0.07545854,0.8168511,1.377505,0.2574863,0.4675453,0.9787523,0.2931224,305.5039,224.0397,359.4055,True
3,0.1,-0.1050049,0.08542519,-0.2168421,-1.333212,-4.096608,3.093708,0.6235039,1.139989,0.4792945,-1.452379,0.02678061,0,10.3,-0.08465911,-0.05148954,0.1109107,-0.7436281,-4.458975,0.2684546,0.6912818,1.324424,0.4223707,-0.03755915,-0.02444535,-0.1203546,-1.074614,0.2398412,0.0761435,0.8171753,1.377358,0.2573414,0.4665897,0.9792715,0.2938887,305.4549,223.9759,359.7898,True
3,0.1111111,-0.1007154,0.07585847,-0.2146506,-1.33093,-4.096991,3.094835,0.6235696,1.140364,0.4792414,-1.45218,0.01772858,0,10.3,-0.07293657,-0.06426635,0.1107927,-0.7427524,-4.46107,0.2704515,0.6916434,1.32454,0.4223478,-0.0376306,-0.02761906,-0.1256928,-1.076278,0.2396206,0.07664231,0.8175868,1.377241,0.2571998,0.4656568,0.9798591,0.2946335,305.3613,223.8983,0.1959435,True
3,0.1222222,-0.09536406,0.07165268,-0.2082419,-1.328758,-4.097498,3.095809,0.6235986,1.140673,0.4792225,-1.452033,0.0131794,0,10.3,-0.06758282,-0.0685389,0.1150081,-0.7416312,-4.462922,0.2723868,0.691989,1.324657,0.4222701,-0.03659589,-0.03719728,-0.1278706,-1.077847,0.2389605,0.07723354,0.8179055,1.377078,0.257045,0.4648284,0.980477,0.2952792,305.2749,223.7799,0.6081402,True
3,0.1333333,-0.09002922,0.07065674,-0.1986648,-1.326692,-4.098022,3.096917,0.6236874,1.141005,0.4791815,-1.451512,0.0473285,0,10.3,-0.06220379,-0.08027482,0.1213251,-0.7405015,-4.465329,0.2745929,0.6924633,1.324697,0.4220207,-0.02597336,-0.03930169,-0.1290973,-1.079485,0.2390167,0.07730677,0.8181636,1.376967,0.2568898,0.4641847,0.9810836,0.2957874,305.1841,223.6237,0.9969005,True
3,0.1444445,-0.08362211,0.07289773,-0.18591,-1.32492,-4.098894,3.097836,0.6237857,1.141223,0.4791973,-1.451436,0.006446618,0,10.3,-0.04941487,-0.08026872,0.1223074,-0.7395332,-4.467056,0.2760065,0.6928385,1.32477,0.4219732,-0.01739573,-0.04571301,-0.1249796,-1.080941,0.2383744,0.07747082,0.8185277,1.376799,0.256747,0.4637501,0.9816466,0.2961279,305.1068,223.4653,1.293554,True
3,0.1555556,-0.08147764,0.07831216,-0.1731597,-1.323458,-4.09982,3.098778,0.6238644,1.141416,0.4793055,-1.451133,0.02754921,9.6,6.9,-0.03130411,-0.07280274,0.1232956,-0.738346,-4.468418,0.2767589,0.6931908,1.3248,0.4219303,-0.008793838,-0.04681707,-0.1187004,-1.082038,0.237701,0.07767216,0.8188862,1.376812,0.2565684,0.4634835,0.9821326,0.2962953,305.0422,223.2889,1.510392,True
3,0.1666667,-0.076152,0.0847878,-0.1636288,-1.321822,-4.100973,3.099697,0.6239673,1.141628,0.4793775,-1.45122,-0.008307477,9.6,6.9,-0.01745978,-0.07385135,0.1221435,-0.7373595,-4.470095,0.2777666,0.6934978,1.324853,0.4219041,-0.005488269,-0.05536346,-0.1102485,-1.083042,0.2368745,0.07796697,0.8191123,1.376753,0.256427,0.4633478,0.9825374,0.2963253,305,223.099,1.667996,True
3,0.1777778,-0.07511078,0.09656143,-0.1541254,-1.320396,-4.102219,3.100896,0.6242326,1.141764,0.4794841,-1.451082,0.0126586,9.6,6.9,-0.005758367,-0.08128761,0.1177921,-0.73651,-4.472253,0.2790508,0.6938323,1.324851,0.4218566,0.007601276,-0.05756493,-0.08698358,-1.08315,0.2363241,0.0777209,0.8191907,1.376533,0.2562943,0.4632902,0.982859,0.2962905,304.9545,222.9177,1.757293,True
3,0.1888889,-0.070855,0.1083993,-0.1382353,-1.319255,-4.103733,3.101882,0.6244721,1.141882,0.4796524,-1.451007,0.006584512,9.6,6.9,0.01013115,-0.1025179,0.0984507,-0.7365217,-4.475098,0.2805014,0.6941097,1.324808,0.4217219,0.01640356,-0.06190209,-0.06581063,-1.083335,0.2354116,0.07767455,0.8194005,1.376379,0.2560163,0.4632596,0.9831043,0.2962742,304.9253,222.7626,1.803938,True
3,0.2,-0.0612815,0.1202213,-0.1266081,-1.318232,-4.105416,3.10268,0.6246963,1.141902,0.4796753,-1.45063,0.03434605,9.6,6.9,0.02066305,-0.1130836,0.07598098,-0.7368535,-4.477419,0.2816508,0.6944364,1.324784,0.4216652,0.02389657,-0.06936474,-0.06273918,-1.084016,0.2344968,0.07756723,0.819615,1.376312,0.2558029,0.4632174,0.9832954,0.2963476,304.9144,222.6205,1.877137,True
3,0.2111111,-0.0559851,0.1341302,-0.1192601,-1.316972,-4.107276,3.103636,0.624975,1.142044,0.4797227,-1.450773,-0.01342364,72.8,3.5,0.03017481,-0.1268756,0.06095829,-0.7372131,-4.480118,0.2830567,0.6947605,1.324784,0.4216568,0.03025005,-0.07893714,-0.06498773,-1.084976,0.2334546,0.07751716,0.8197649,1.376266,0.2556775,0.4631682,0.983466,0.2965631,304.9095,222.5294,1.962322,True
3,0.2222222,-0.04750361,0.1555431,-0.1077031,-1.316016,-4.10981,3.104522,0.6252922,1.142141,0.4798014,-1.45093,-0.01417631,72.8,3.5,0.03865836,-0.1343013,0.05342141,-0.7373947,-4.482756,0.2843526,0.6950603,1.324722,0.421577,0.03764158,-0.08745199,-0.06937443,-1.085991,0.2321424,0.07746949,0.8198763,1.376193,0.2554944,0.4630554,0.9836225,0.2969077,304.8992,222.5055,2.046577,True
3,0.2333333,-0.04543312,0.186538,-0.09300546,-1.315331,-4.112877,3.105717,0.6255485,1.142248,0.4798331,-1.45073,0.01826465,72.8,3.5,0.05245458,-0.1374563,0.0437415,-0.7376732,-4.485191,0.2851817,0.6953604,1.324638,0.4215169,0.0450865,-0.08638183,-0.06947867,-1.086922,0.2313749,0.07725298,0.8198972,1.376174,0.2552948,0.462837,0.9837485,0.297332,304.8897,222.5266,2.162194,True
3,0.2444444,-0.0444308,0.2175383,-0.07830434,-1.314752,-4.116407,3.107061,0.625895,1.1423,0.479995,-1.450845,-0.01081525,72.8,3.5,0.06195995,-0.1416577,0.02876027,-0.7382794,-4.487568,0.2859431,0.6956527,1.32456,0.4214311,0.04194642,-0.08105969,-0.06622722,-1.087645,0.2306424,0.07712115,0.8199184,1.376097,0.2551117,0.4625545,0.9838798,0.2978363,304.9055,222.5572,2.294469,True
3,0.2555556,-0.0455762,0.2538651,-0.0615045,-1.31446,-4.120382,3.10868,0.626249,1.142285,0.4801512,-1.450595,0.02291325,75.4,3.2,0.08106115,-0.1415985,0.01586779,-0.7389398,-4.489687,0.2859939,0.695887,1.324513,0.4213815,0.04202652,-0.07787652,-0.06088106,-1.088067,0.2298726,0.07695018,0.8200047,1.375937,0.2549841,0.4621968,0.9840402,0.2984101,304.9142,222.6448,2.385038,True
3,0.2666667,-0.04668315,0.277381,-0.04887853,-1.314149,-4.124195,3.110137,0.6265408,1.142271,0.4803178,-1.450459,0.01222706,75.4,3.2,0.09169953,-0.144778,0.01260066,-0.7393239,-4.492191,0.2865079,0.6960926,1.324385,0.4213302,0.04214065,-0.07897282,-0.05130238,-1.088481,0.2288595,0.07710517,0.8200188,1.37597,0.2547436,0.4617337,0.9842454,0.2990304,304.9052,222.7827,2.447983,True
3,0.2777778,-0.04462288,0.3094324,-0.03631634,-1.314017,-4.128932,3.111755,0.6268591,1.142213,0.4804957,-1.450231,0.02072822,75.4,3.2,0.09700151,-0.1447589,0.008309048,-0.7398192,-4.494522,0.2869508,0.6962311,1.324244,0.4212425,0.04759019,-0.08326959,-0.04180011,-1.088717,0.2276553,0.07693446,0.8199921,1.375889,0.2545736,0.4612111,0.9845182,0.299726,304.8503,222.9384,2.512952,True
3,0.2888889,-0.04574192,0.3350612,-0.0268988,-1.313905,-4.133633,3.113433,0.6271888,1.142144,0.480674,-1.45029,-0.005589503,75.4,3.2,0.1011662,-0.1308557,-0.006578453,-0.7405937,-4.49583,0.2867282,0.6963761,1.324126,0.4211345,0.0465549,-0.08008767,-0.03963796,-1.089083,0.2266696,0.07694059,0.8200516,1.375753,0.2543349,0.4606162,0.9848454,0.3004739,304.7623,223.123,2.582023,True
3,0.3,-0.04580159,0.3585261,-0.02279757,-1.31367,-4.138666,3.115213,0.6274214,1.142068,0.4808774,-1.450832,-0.04884495,75.4,3.2,0.1085773,-0.1084604,-0.01186766,-0.7410251,-4.496401,0.2857018,0.6965281,1.323979,0.4210353,0.03910049,-0.07795033,-0.03953187,-1.089588,0.2258064,0.07716376,0.8199815,1.375621,0.2541306,0.4599544,0.9852242,0.3012422,304.6693,223.3096,2.662141,True
3,0.3111111,-0.05226173,0.3776804,-0.02609013,-1.313456,-4.14394,3.117507,0.6276294,1.142152,0.4812274,-1.451836,-0.09025469,85.9,3.7,0.1203447,-0.08612333,-0.000135934,-0.7406597,-4.496924,0.2843984,0.6967063,1.323785,0.420959,0.04110019,-0.07790691,-0.04913328,-1.090327,0.2251281,0.07696642,0.8197699,1.375412,0.2539787,0.4592198,0.9856783,0.3020184,304.5683,223.5246,2.724764,True
3,0.3222222,-0.05870327,0.3872061,-0.03572113,-1.312788,-4.149009,3.11976,0.6278248,1.142168,0.4814553,-1.453553,-0.1545315,85.9,3.7,0.1289297,-0.07976736,0.0115561,-0.7403364,-4.498109,0.283531,0.6968666,1.32364,0.4208844,0.05169475,-0.08216067,-0.05354959,-1.091133,0.2240649,0.07645536,0.8196251,1.375276,0.2538269,0.4584174,0.9862436,0.3027794,304.4569,223.7304,2.801813,True
3,0.3333333,-0.06833272,0.3902366,-0.0559674,-1.311389,-4.153531,3.121988,0.627857,1.142269,0.4816015,-1.455584,-0.1820776,85.9,3.7,0.131122,-0.07768208,0.02326513,-0.74002,-4.499682,0.2832682,0.6971147,1.323421,0.4210005,0.05489279,-0.09281678,-0.05255348,-1.091636,0.2225722,0.07646575,0.8194194,1.375079,0.2536254,0.4575269,0.986972,0.3035123,304.3389,223.9026,2.875741,True
3,0.3444445,-0.07899097,0.3772661,-0.08035897,-1.309746,-4.157477,3.124234,0.6278354,1.142368,0.4816852,-1.458801,-0.2898871,85.9,3.7,0.1333203,-0.1043466,0.03167965,-0.7400163,-4.502973,0.2841691,0.6973566,1.323349,0.4210103,0.05799517,-0.1077087,-0.05903615,-1.092618,0.2208488,0.07644977,0.8192862,1.374871,0.2534454,0.4565446,0.987959,0.3042309,304.2033,224.045,2.968175,True
3,0.3555556,-0.08964053,0.3643144,-0.1004947,-1.307906,-4.16113,3.126531,0.6277597,1.142564,0.4817836,-1.462659,-0.3471166,85.9,3.7,0.1291175,-0.1310105,0.03906744,-0.7400317,-4.506701,0.2856954,0.6975662,1.323305,0.4210098,0.06100859,-0.1193928,-0.07189313,-1.093896,0.2189996,0.07654271,0.8191803,1.374641,0.2532239,0.4554231,0.9892418,0.3048794,303.9946,224.0925,3.19029,True
3,0.3666667,-0.1098681,0.3384963,-0.1290613,-1.305394,-4.164073,3.129297,0.627765,1.142707,0.4817662,-1.46717,-0.4057544,85.9,3.7,0.131332,-0.1715211,0.04850236,-0.7400781,-4.511651,0.2878217,0.6977136,1.323194,0.4208248,0.06488105,-0.1470159,-0.09866798,-1.096045,0.2162391,0.07707907,0.8191081,1.374417,0.2528028,0.4541471,0.9908327,0.3053982,303.7114,224.0097,3.550516,True
3,0.3777778,-0.1332994,0.3212039,-0.1555379,-1.302759,-4.16711,3.132364,0.6274807,1.143004,0.4818428,-1.472468,-0.4767917,85.9,3.7,0.1388204,-0.1907024,0.0515871,-0.7402523,-4.515907,0.2891761,0.6978875,1.323106,0.420723,0.06138039,-0.1693158,-0.1200007,-1.098288,0.2134931,0.0777659,0.8189315,1.374119,0.2524464,0.4527796,0.9927423,0.3057568,303.3496,223.8393,3.983221,True
3,0.3888889,-0.1556885,0.3156925,-0.1746446,-1.300203,-4.170697,3.135755,0.6273443,1.14315,0.4818525,-1.478049,-0.5014955,85.9,3.7,0.1473814,-0.1928494,0.05793018,-0.7399492,-4.519252,0.2897583,0.6979363,1.323013,0.4205084,0.06658152,-0.1852828,-0.1286397,-1.10004,0.2106863,0.07809773,0.818696,1.373824,0.252053,0.4514091,0.9949763,0.3059483,302.9085,223.5765,4.489159,True
3,0.4,-0.1951452,0.3164861,-0.1980234,-1.297189,-4.174304,3.14027,0.6269792,1.143513,0.4819229,-1.484678,-0.5967028,85.9,3.7,0.1484779,-0.1939329,0.06324662,-0.7397527,-4.522702,0.2906361,0.6979825,1.323002,0.420332,0.07386161,-0.2065579,-0.1405241,-1.102219,0.2074832,0.07848869,0.8184574,1.373536,0.2516136,0.4500726,0.9975052,0.3059289,302.4163,223.1653,5.083778,True
3,0.4111111,-0.2175589,0.319494,-0.2161281,-1.294055,-4.1781,-3.138732,0.6268151,1.143949,0.4820471,-1.4922,-0.676882,77.2,7.7,0.144266,-0.1630874,0.07616267,-0.7388285,-4.524338,0.2904332,0.6979892,1.322961,0.4201915,0.08544458,-0.2235865,-0.1492551,-1.10436,0.2043208,0.07862477,0.8182573,1.37328,0.2512705,0.4487012,1.000323,0.3056868,301.8838,222.6525,5.671452,True
3,0.4222222,-0.2602446,0.3298521,-0.2427625,-1.29046,-4.182397,-3.133157,0.6261975,1.144564,0.4820874,-1.499465,-0.6523869,77.2,7.7,0.14109,-0.1386108,0.08265999,-0.7379449,-4.525819,0.2900731,0.698001,1.322989,0.4200194,0.09721161,-0.2342572,-0.1451832,-1.106029,0.2012552,0.07849508,0.8179736,1.37314,0.2509356,0.447289,1.003424,0.305281,301.2821,222.0734,6.276299,True
3,0.4333333,-0.2847888,0.3371439,-0.2566226,-1.287214,-4.186556,-3.128074,0.6256676,1.144994,0.4821553,-1.50871,-0.8333456,77.2,7.7,0.1293692,-0.1024192,0.08711538,-0.7369531,-4.526251,0.2893772,0.6979998,1.323114,0.4198494,0.09729017,-0.2374783,-0.1387975,-1.10749,0.1982623,0.07882664,0.8177096,1.372889,0.2506287,0.4457907,1.006837,0.3047699,300.6794,221.3911,6.94333,True
3,0.4444444,-0.3071983,0.344462,-0.2683573,-1.283839,-4.190962,-3.122633,0.6249199,1.145676,0.4821672,-1.51711,-0.754,77.2,7.7,0.1165953,-0.08965608,0.09042993,-0.7360173,-4.527514,0.2894622,0.6980025,1.323213,0.4196429,0.0974697,-0.2417865,-0.1249645,-1.108642,0.1950943,0.07917152,0.8174273,1.37265,0.2501519,0.4442453,1.010607,0.3042537,300.0425,220.6009,7.707309,True
3,0.4555556,-0.3381485,0.3602809,-0.2790655,-1.280509,-4.195839,-3.116478,0.6240628,1.146404,0.482096,-1.527576,-0.9434413,70.7,7.6,0.09214815,-0.07479496,0.1023431,-0.7345845,-4.528637,0.2901911,0.6980588,1.323335,0.4193985,0.1039299,-0.2449976,-0.1186921,-1.110278,0.192207,0.07919415,0.8169006,1.372537,0.2496784,0.4424195,1.014737,0.3036959,299.3708,219.7154,8.577732,True
3,0.4666667,-0.3712281,0.3804093,-0.2823433,-1.27739,-4.201104,-3.109843,0.6232989,1.147114,0.4820743,-1.537932,-0.9312735,70.7,7.6,0.07846953,-0.08023135,0.1311698,-0.7324631,-4.531316,0.2917149,0.6980166,1.323476,0.4191549,0.1123368,-0.2428508,-0.1273182,-1.1122,0.1893539,0.078959,0.8167551,1.372226,0.2491791,0.4404038,1.01923,0.3031763,298.5862,218.7701,9.579534,True
3,0.4777778,-0.4139348,0.4025341,-0.3005363,-1.273574,-4.206737,-3.10208,0.6224424,1.14783,0.4819329,-1.548284,-0.9310917,70.7,7.6,0.07224052,-0.09524477,0.157785,-0.7303437,-4.534813,0.2937256,0.698059,1.323661,0.4189208,0.1153293,-0.246005,-0.1422862,-1.114553,0.1862924,0.07893024,0.8165748,1.372089,0.248673,0.4381879,1.024053,0.302691,297.7664,217.7679,10.69617,True
3,0.4888889,-0.4619738,0.4267616,-0.3208728,-1.269473,-4.212654,-3.093729,0.6216903,1.148529,0.4818401,-1.559165,-0.9790971,70.7,7.6,0.05965672,-0.0911195,0.1930327,-0.7273748,-4.537574,0.2955028,0.6981624,1.323799,0.4187784,0.1130183,-0.2459591,-0.1561039,-1.116952,0.1834379,0.07897124,0.8163174,1.371937,0.2483401,0.4358069,1.029184,0.302242,296.9101,216.6902,11.94525,True
3,0.5,-0.5185372,0.448799,-0.3464981,-1.265123,-4.218856,-3.084319,0.620787,1.149332,0.4817421,-1.569744,-0.9509413,70.7,7.6,0.05549122,-0.07946882,0.2112084,-0.7246392,-4.539613,0.2965584,0.6981995,1.323931,0.4185402,0.1129047,-0.2459318,-0.1646255,-1.119319,0.1805696,0.07896486,0.8160878,1.371769,0.2478986,0.4333783,1.034594,0.3018562,295.9977,215.4879,13.37212,True
3,0.5111111,-0.5579848,0.4560667,-0.3571346,-1.261197,-4.224624,-3.075174,0.6199147,1.150033,0.4815896,-1.580947,-1.008355,73.1,6.7,0.05012947,-0.08264124,0.2048358,-0.7230211,-4.541916,0.2978562,0.6980966,1.324004,0.4183273,0.1119782,-0.2384992,-0.1549992,-1.12081,0.1780837,0.07879175,0.8158596,1.371567,0.2475095,0.4309136,1.040231,0.3014894,295.066,214.0523,15.05896,True
3,0.5222223,-0.6113045,0.4696946,-0.3677942,-1.25719,-4.230883,-3.064723,0.6189361,1.150875,0.4814489,-1.591888,-0.9836266,73.1,6.7,0.04471385,-0.08578408,0.1888758,-0.7218477,-4.544122,0.2992016,0.6981187,1.324109,0.4181306,0.1098952,-0.2182628,-0.1527766,-1.122539,0.1763258,0.07841092,0.8156934,1.371362,0.2470932,0.4285015,1.046062,0.3011518,294.1355,212.3894,16.95766,True
3,0.5333334,-0.6603583,0.4844189,-0.3742053,-1.253383,-4.237288,-3.053863,0.6178862,1.151612,0.4812608,-1.603985,-1.089592,73.1,6.7,0.02859953,-0.0952915,0.1644323,-0.7213555,-4.546499,0.3012323,0.6981115,1.324182,0.4178166,0.1098653,-0.2075993,-0.1559324,-1.12445,0.174338,0.0780205,0.8153929,1.371204,0.2467182,0.4261104,1.05207,0.3007964,293.227,210.5637,19.00865,True
3,0.5444446,-0.6934388,0.5045713,-0.3742885,-1.249852,-4.24431,-3.042931,0.6169423,1.152376,0.4810836,-1.614986,-0.9883687,73.1,6.7,0.01462799,-0.1026788,0.1421142,-0.7210492,-4.548864,0.3033519,0.6981502,1.324266,0.4176326,0.1108265,-0.1990532,-0.1644438,-1.126765,0.1723505,0.07761224,0.8152878,1.371009,0.2463689,0.4238201,1.058224,0.3003982,292.3071,208.5792,21.22388,True
3,0.5555557,-0.759229,0.5730737,-0.3610299,-1.2468,-4.252984,-3.0302,0.6160728,1.153162,0.4807844,-1.626709,-1.055244,73.1,6.7,-0.02158934,-0.06650625,0.1477769,-0.7192079,-4.549111,0.3050574,0.6984843,1.324259,0.4174058,0.1194047,-0.1692972,-0.1633201,-1.128865,0.1711745,0.07673819,0.815311,1.370885,0.2460778,0.4215817,1.064511,0.2998969,291.4242,206.383,23.61692,True
3,0.5666668,-0.7991806,0.6162862,-0.3514418,-1.244657,-4.262608,-3.016801,0.6153457,1.153891,0.4805675,-1.639047,-1.110906,55.7,5.9,-0.03215023,-0.01759893,0.1714457,-0.7162215,-4.548311,0.3052044,0.6987463,1.324175,0.4171767,0.1377452,-0.1543922,-0.1465647,-1.129999,0.1702033,0.07482071,0.8155036,1.370805,0.245827,0.4194153,1.070934,0.2992912,290.5526,203.9228,26.24209,True
3,0.577778,-0.8633095,0.6949865,-0.3444172,-1.24247,-4.273984,-3.00145,0.6146038,1.15447,0.4803357,-1.649947,-0.9790643,55.7,5.9,-0.05208147,0.02052856,0.2302883,-0.7113756,-4.547947,0.3061266,0.699319,1.323984,0.4169161,0.173124,-0.1544788,-0.12999,-1.130978,0.1683826,0.07249897,0.8155959,1.370577,0.2455318,0.4173916,1.077483,0.2986538,289.6952,201.208,29.09516,True
3,0.5888891,-0.9306812,0.7928879,-0.3332436,-1.240946,-4.286886,-2.984974,0.6138963,1.155123,0.4801369,-1.661533,-1.043058,55.7,5.9,-0.04778854,-0.03059964,0.2300775,-0.7097569,-4.552196,0.3097182,0.6995426,1.323993,0.4168007,0.1931447,-0.1608441,-0.1451948,-1.133337,0.1662578,0.07077564,0.8155084,1.370042,0.2453198,0.4154439,1.084188,0.2980307,288.8762,198.3116,32.12863,True
3,0.6000003,-0.9873775,0.885515,-0.3178041,-1.240016,-4.30054,-2.968023,0.6132457,1.155657,0.4798977,-1.672168,-0.9553598,55.7,5.9,-0.02975643,-0.1668378,0.19966,-0.7106059,-4.562056,0.3168978,0.7001169,1.323884,0.416779,0.2085153,-0.1575159,-0.1912011,-1.137198,0.1647567,0.06855989,0.8156911,1.369751,0.2450805,0.4135781,1.091088,0.2975234,288.0621,195.0782,35.51371,True
3,0.6111114,-1.01732,0.9377288,-0.3042593,-1.239283,-4.313529,-2.951785,0.6124498,1.156383,0.4795904,-1.683434,-1.013942,50.3,5.1,-0.01707289,-0.2519574,0.1726571,-0.7113527,-4.570651,0.3231794,0.7005522,1.323783,0.4165308,0.1940659,-0.1466675,-0.2367417,-1.140761,0.164194,0.06726479,0.8152294,1.369586,0.2448323,0.4116559,1.098222,0.2971865,287.2933,191.3861,39.38307,True
3,0.6222225,-1.046184,0.9857401,-0.2821615,-1.239445,-4.327027,-2.934889,0.6116804,1.15716,0.4792812,-1.695156,-1.055035,50.3,5.1,-0.01417309,-0.3539951,0.1083576,-0.714826,-4.581113,0.3311007,0.7011266,1.323669,0.4166393,0.1690817,-0.1412006,-0.273685,-1.145159,0.1629237,0.06670845,0.8153813,1.369306,0.2446179,0.4096391,1.105664,0.2971232,286.5697,187.315,43.70957,True
3,0.6333337,-1.058985,1.003919,-0.267353,-1.239487,-4.339479,-2.918958,0.6109782,1.157922,0.4789889,-1.707425,-1.104871,50.3,5.1,-0.01134068,-0.4272396,0.03670691,-0.7188724,-4.589925,0.3378665,0.7016513,1.32356,0.41658,0.1605036,-0.135833,-0.2778138,-1.148315,0.1619665,0.06567302,0.8158427,1.369236,0.2444346,0.4075719,1.113422,0.2973913,285.8727,182.8223,48.60784,True
3,0.6444448,-1.072818,1.010432,-0.2449844,-1.24032,-4.351697,-2.902692,0.6100178,1.159007,0.478806,-1.718524,-0.9978307,50.3,5.1,-0.02878976,-0.453615,-0.03679483,-0.723371,-4.596498,0.3437116,0.7021735,1.323523,0.416595,0.1607069,-0.1167045,-0.2639055,-1.150746,0.1614189,0.06407246,0.8160113,1.369087,0.2443984,0.405531,1.121437,0.2979497,285.2397,177.8873,54.07425,True
3,0.655556,-1.085501,0.98601,-0.2288198,-1.240831,-4.362461,-2.886857,0.6089984,1.159954,0.4784241,-1.730404,-1.070367,50.3,5.1,-0.05553025,-0.4386577,-0.05363256,-0.7258845,-4.602017,0.3493378,0.7026,1.323544,0.4165556,0.1535022,-0.09118453,-0.2456252,-1.152917,0.1614929,0.06271691,0.8163694,1.368968,0.244292,0.4036231,1.129627,0.2987429,284.6903,172.5266,60.05466,True
3,0.6666671,-1.10561,0.9487695,-0.2157488,-1.241367,-4.372505,-2.870864,0.6081064,1.160766,0.478056,-1.741169,-0.967719,75.7,5,-0.07561702,-0.4217316,-0.02469018,-0.726422,-4.608218,0.355426,0.703159,1.323522,0.4164755,0.1506366,-0.07527399,-0.2231588,-1.15464,0.1612047,0.06109931,0.8166238,1.368833,0.2442641,0.4019869,1.137856,0.2996824,284.285,166.7384,66.46613,True
3,0.6777782,-1.124681,0.9125161,-0.2122782,-1.241682,-4.382314,-2.854502,0.6070972,1.161839,0.4775918,-1.752035,-0.9780833,75.7,5,-0.1114146,-0.3528048,0.05778953,-0.7237417,-4.61226,0.360947,0.703492,1.323758,0.4162693,0.1508096,-0.07105598,-0.2103657,-1.156631,0.1606118,0.05965428,0.8168668,1.368726,0.2441244,0.400522,1.146081,0.3005987,284.0387,160.7905,72.99006,True
3,0.6888894,-1.147997,0.8676887,-0.2151388,-1.241698,-4.391409,-2.838214,0.6062326,1.162803,0.4772632,-1.762361,-0.9287939,75.7,5,-0.1492131,-0.2679831,0.1637746,-0.7189118,-4.615304,0.3660259,0.7039039,1.323902,0.4159896,0.1445109,-0.07213373,-0.2038947,-1.158804,0.1597987,0.05847929,0.817217,1.368715,0.2439771,0.3993103,1.154171,0.3013569,283.9702,154.5621,79.78719,True
3,0.7000005,-1.162826,0.835667,-0.2180939,-1.241861,-4.400572,-2.821723,0.6051298,1.163836,0.4768538,-1.772399,-0.9030185,75.7,5,-0.2021212,-0.2000919,0.23463,-0.7142428,-4.618019,0.3721134,0.7040976,1.324162,0.4157073,0.1329233,-0.07002348,-0.1941451,-1.16067,0.1591497,0.05766116,0.8175138,1.368554,0.2438347,0.3984469,1.162003,0.3018581,284.1049,148.4848,86.34668,True
3,0.7111117,-1.17871,0.8058214,-0.2157319,-1.242369,-4.409678,-2.805114,0.6040626,1.164979,0.4764292,-1.78256,-0.9144912,76,4.1,-0.2232506,-0.1629447,0.2711063,-0.7108132,-4.621332,0.3778267,0.7044297,1.3243,0.415477,0.1114936,-0.05823,-0.2044822,-1.163399,0.159322,0.05697221,0.8179168,1.368342,0.2437043,0.3978884,1.169578,0.3020163,284.452,142.9988,92.16525,True
3,0.7222228,-1.181777,0.7621661,-0.2111692,-1.242723,-4.417561,-2.78917,0.6028119,1.166099,0.4759114,-1.792577,-0.9014379,76,4.1,-0.2307257,-0.1107595,0.2745284,-0.7077308,-4.622288,0.3813535,0.7045151,1.324517,0.4152274,0.08883595,-0.03682461,-0.2275502,-1.166693,0.1598903,0.05644996,0.8182536,1.368129,0.243638,0.3976809,1.176894,0.3018785,284.9808,138.048,97.2783,True
3,0.7333339,-1.188083,0.73449,-0.2067038,-1.243354,-4.425613,-2.773228,0.6016801,1.167221,0.4755423,-1.802493,-0.892317,76,4.1,-0.2457904,-0.05850086,0.2534966,-0.7054602,-4.622033,0.3842808,0.7046369,1.324577,0.4150612,0.07376733,-0.01970471,-0.2400869,-1.169827,0.1607368,0.05577565,0.8185751,1.367947,0.2436097,0.3976353,1.184065,0.3014619,285.6346,133.6391,101.7108,True
3,0.7444451,-1.184745,0.6822757,-0.2095514,-1.243262,-4.432201,-2.757962,0.6002501,1.168554,0.4751256,-1.812804,-0.9283615,76,4.1,-0.2546089,-0.04022525,0.2046038,-0.704837,-4.622427,0.3877563,0.7047507,1.32474,0.4149721,0.05455509,0.002715196,-0.2440123,-1.172464,0.161941,0.05534928,0.8187484,1.367639,0.2436574,0.3976977,1.191185,0.3008735,286.3663,129.6989,105.6286,True
3,0.7555562,-1.16969,0.6441038,-0.1922673,-1.24411,-4.43893,-2.743133,0.5987749,1.170023,0.4745467,-1.822922,-0.9104845,76,4.1,-0.2783239,-0.06030037,0.1535327,-0.7053073,-4.624345,0.3931156,0.7048051,1.324897,0.4148285,0.03459999,0.03356388,-0.2244688,-1.174269,0.1635909,0.05496791,0.8191113,1.367449,0.2437098,0.3978873,1.198279,0.3002058,287.1788,126.0419,109.2552,True
3,0.7666674,-1.161097,0.6196254,-0.1963662,-1.244527,-4.446201,-2.728046,0.5974686,1.171274,0.4740539,-1.833143,-0.9200934,75.7,3.9,-0.2783849,-0.07837272,0.1417498,-0.7046649,-4.627426,0.3986249,0.704889,1.325099,0.4146507,0.02728726,0.05486662,-0.2157674,-1.176207,0.16528,0.05406936,0.8193951,1.367162,0.2436624,0.3982493,1.205344,0.2995831,288.0673,122.7137,112.5432,True
3,0.7777785,-1.15144,0.5919189,-0.2015212,-1.244634,-4.452748,-2.713338,0.5959616,1.172634,0.4734857,-1.843618,-0.9433148,75.7,3.9,-0.3146188,-0.07519478,0.1398378,-0.7036114,-4.629365,0.4049067,0.7049032,1.325253,0.4144185,0.01969272,0.0740868,-0.2273228,-1.179053,0.1670429,0.05343207,0.8197592,1.366945,0.2436981,0.3986655,1.212448,0.2989817,289.0012,119.7134,115.5162,True
3,0.7888896,-1.143922,0.5652506,-0.2119901,-1.244689,-4.45928,-2.698732,0.5946141,1.17403,0.4730449,-1.853526,-0.8912169,75.7,3.9,-0.3421851,-0.0731713,0.1634399,-0.7014063,-4.632092,0.411758,0.7048681,1.325523,0.4142118,0.01532203,0.08262788,-0.2357567,-1.181872,0.1682713,0.05296495,0.8200529,1.366683,0.2437899,0.3991249,1.219603,0.2984391,289.9705,116.9247,118.3181,True
3,0.8000008,-1.136402,0.5364255,-0.2235364,-1.244284,-4.465389,-2.684349,0.5931417,1.175408,0.4723847,-1.863584,-0.9054679,75.7,3.9,-0.3836439,-0.04876076,0.1818779,-0.6988412,-4.633324,0.4182846,0.7048142,1.325752,0.4139228,0.009810582,0.09653012,-0.2505535,-1.185108,0.1701516,0.05234523,0.8204397,1.366444,0.2438784,0.3997185,1.226699,0.2980463,291.0331,114.3514,120.9581,True
3,0.8111119,-1.128804,0.4852735,-0.2317198,-1.243643,-4.470459,-2.670405,0.5916314,1.176879,0.4717999,-1.87374,-0.9140774,71,3.3,-0.3963508,-0.03604376,0.1969149,-0.6964017,-4.63517,0.4245404,0.7047613,1.326059,0.4135928,-0.006332129,0.1104299,-0.2630689,-1.18821,0.17209,0.05233564,0.8207422,1.366151,0.2439835,0.4004117,1.233711,0.2977701,292.1318,112.0475,123.3537,True
3,0.8222231,-1.127677,0.4607467,-0.2358177,-1.243175,-4.475787,-2.656209,0.5901683,1.178319,0.4712052,-1.884002,-0.923565,71,3.3,-0.399478,-0.004139662,0.2130246,-0.6933811,-4.635508,0.4292859,0.7046804,1.326304,0.4132814,-0.01920514,0.1264457,-0.271373,-1.191434,0.1743185,0.05206373,0.8211092,1.365913,0.2440143,0.4012497,1.240594,0.2976028,293.2375,110.0231,125.5013,True
3,0.8333342,-1.115786,0.3957598,-0.2449798,-1.241575,-4.479358,-2.643171,0.5886464,1.17993,0.4705634,-1.894383,-0.9344517,71,3.3,-0.3993778,0.04371616,0.235567,-0.6894429,-4.634699,0.4329756,0.7044479,1.326512,0.4128964,-0.01920523,0.133912,-0.2713466,-1.194283,0.1764544,0.05152151,0.8215696,1.365791,0.2440031,0.4021851,1.247357,0.2974252,294.355,108.2066,127.4791,True
3,0.8444453,-1.10709,0.317854,-0.2678927,-1.23876,-4.481866,-2.630469,0.5871128,1.181479,0.4698796,-1.904591,-0.9183493,71,3.3,-0.399369,0.06929272,0.2367597,-0.6863802,-4.634091,0.4369025,0.704318,1.326662,0.412497,-0.02123342,0.1370857,-0.2638513,-1.196847,0.1783081,0.05114947,0.8218675,1.365595,0.243993,0.4032603,1.253974,0.2971548,295.468,106.5877,129.2235,True
3,0.8555565,-1.098357,0.2389973,-0.2790919,-1.23585,-4.483727,-2.618117,0.5855901,1.18297,0.469276,-1.915609,-0.9925677,71,3.3,-0.4047442,0.07461983,0.2325163,-0.6837773,-4.634399,0.4418019,0.7040769,1.326812,0.4121649,-0.02201577,0.1444877,-0.2435656,-1.198622,0.1805011,0.05053881,0.8221539,1.365437,0.2440231,0.4045064,1.260446,0.2967387,296.58,105.1636,130.7325,True
3,0.8666676,-1.091809,0.1728631,-0.2956933,-1.232658,-4.485613,-2.605699,0.584052,1.184653,0.4687505,-1.92628,-0.9600449,76.3,3.2,-0.4228368,0.06500326,0.2347136,-0.6812888,-4.635953,0.4482987,0.7038223,1.327049,0.4117799,-0.02166325,0.1529296,-0.2179646,-1.19996,0.1827437,0.04987062,0.8225507,1.365323,0.2440898,0.4060024,1.266727,0.2960901,297.7136,103.8851,132.0584,True
3,0.8777788,-1.078904,0.1259975,-0.2996606,-1.229603,-4.487257,-2.593658,0.5824868,1.186219,0.4681289,-1.937197,-0.9826586,76.3,3.2,-0.4398854,0.05328055,0.2326388,-0.6789703,-4.637506,0.4549747,0.7035385,1.327274,0.4114382,-0.02993762,0.1603348,-0.1997187,-1.201455,0.1849904,0.04966529,0.822773,1.365177,0.2441463,0.4078306,1.272723,0.2951337,298.8981,102.7395,133.1496,True
3,0.8888899,-1.063918,0.1004722,-0.3027142,-1.22699,-4.48967,-2.581668,0.5811548,1.187593,0.4675972,-1.948093,-0.98044,76.3,3.2,-0.4378194,0.06502621,0.2230836,-0.6765271,-4.637578,0.4597607,0.7032664,1.327462,0.4111001,-0.03937057,0.1635159,-0.1888756,-1.202359,0.1872251,0.04949671,0.8233167,1.365023,0.2442408,0.4099897,1.278422,0.2938541,300.1052,101.7353,133.9229,True
3,0.900001,-1.031869,0.06968807,-0.2993627,-1.224121,-4.491159,-2.570876,0.5795959,1.189147,0.4669771,-1.95946,-1.023532,76.3,3.2,-0.4368355,0.06827216,0.2092402,-0.6745105,-4.637637,0.4645956,0.7029444,1.327678,0.4107461,-0.04986057,0.1709437,-0.1769929,-1.203782,0.1896204,0.04957208,0.8235539,1.364878,0.2443206,0.4123821,1.283934,0.2922842,301.33,100.889,134.3915,True
3,0.9111122,-1.003047,0.05276845,-0.2939662,-1.221655,-4.49306,-2.560113,0.5780554,1.190795,0.4663813,-1.970979,-1.036914,76.3,3.2,-0.4507768,0.07684082,0.1944384,-0.6724812,-4.637172,0.4697294,0.7025143,1.327925,0.410382,-0.05927558,0.1804955,-0.1651426,-1.205531,0.1920873,0.04955397,0.8233075,1.364714,0.2444119,0.4149856,1.289275,0.2905509,302.5831,100.094,134.7358,True
3,0.9222233,-0.9646474,0.03369726,-0.2938884,-1.21888,-4.494734,-2.55009,0.5765412,1.192286,0.4656923,-1.983134,-1.094986,73.4,2.8,-0.4710112,0.09386486,0.1978103,-0.6696641,-4.636418,0.4750818,0.7020766,1.328161,0.4100261,-0.06016501,0.188975,-0.1523187,-1.206691,0.1946718,0.04933639,0.8235137,1.364559,0.2444737,0.4177791,1.294441,0.2888248,303.8535,99.34035,135.0198,True
3,0.9333345,-0.9422529,0.03170294,-0.2843288,-1.216696,-4.496817,-2.539629,0.5752416,1.193879,0.4649761,-1.99466,-1.037033,73.4,2.8,-0.4730414,0.1044405,0.2170394,-0.6662228,-4.636723,0.4806231,0.7016644,1.328438,0.4095685,-0.06540479,0.1900288,-0.1458551,-1.208035,0.1970894,0.04935503,0.8238281,1.364411,0.2445326,0.4205994,1.299543,0.2871377,305.1198,98.58411,135.3056,True
3,0.9444456,-0.9114193,0.06708746,-0.262244,-1.215951,-4.499807,-2.529521,0.5737708,1.195173,0.4645643,-2.00663,-1.078011,73.4,2.8,-0.4740992,0.1150816,0.2192181,-0.6632826,-4.63632,0.4855619,0.7012661,1.328671,0.4092102,-0.08236223,0.2006739,-0.1402736,-1.209348,0.1998452,0.04982908,0.8240658,1.364223,0.2445321,0.4233654,1.304605,0.2855703,306.3683,97.8546,135.6136,True
3,0.9555568,-0.853182,0.2726213,-0.140129,-1.22476,-4.507515,-2.519498,0.5724102,1.196467,0.4641783,-2.01774,-0.9990769,73.4,2.8,-0.4837283,0.1310731,0.2140036,-0.660367,-4.63522,0.4903401,0.7006985,1.328999,0.4088314,-0.1036287,0.2081525,-0.1378338,-1.21066,0.2028116,0.05061125,0.8244102,1.364076,0.2445943,0.4260917,1.309535,0.2841925,307.5783,97.15396,135.987,True
3,0.9666679,-0.7968779,0.3679829,-0.08225733,-1.229311,-4.512816,-2.51083,0.5710862,1.197606,0.4639902,-2.029766,-1.083424,67.4,2.4,-0.4966311,0.127948,0.1927583,-0.658531,-4.634385,0.4956476,0.7001238,1.32934,0.4084945,-0.1228286,0.2167017,-0.1407501,-1.212197,0.2057339,0.05142005,0.8245922,1.363994,0.2447259,0.428779,1.314344,0.2830453,308.7377,96.53322,136.3183,True
3,0.977779,-0.7725316,0.4492803,-0.04235783,-1.234668,-4.519009,-2.501013,0.5697265,1.1988,0.4636676,-2.042918,-1.185535,67.4,2.4,-0.4924598,0.1429143,0.1789383,-0.6562471,-4.632529,0.4995291,0.6995114,1.329701,0.4080575,-0.1432552,0.2274212,-0.15536,-1.214249,0.2089562,0.0525676,0.824746,1.363837,0.2448168,0.4313197,1.319167,0.2822869,309.864,95.93648,136.5031,True
3,0.9888902,-0.7469407,0.4558922,-0.02114004,-1.237976,-4.523121,-2.492055,0.568249,1.200065,0.4629321,-2.054926,-1.080098,67.4,2.4,-0.4709543,0.1598382,0.2161652,-0.6517831,-4.63218,0.5037622,0.6987935,1.330041,0.4075434,-0.1582744,0.2306574,-0.1636664,-1.216101,0.2118475,0.05373247,0.8247514,1.363681,0.2449541,0.4334625,1.324383,0.2822895,310.8959,95.19192,136.955,True
3,1.000001,-0.7234263,0.4207318,-0.03159237,-1.239641,-4.526558,-2.483589,0.5668578,1.201339,0.4624519,-2.065413,-0.942382,67.4,2.4,-0.4643916,0.1512238,0.2448645,-0.6478086,-4.63303,0.5094254,0.6981024,1.330436,0.4070761,-0.1700139,0.2370664,-0.1656207,-1.217856,0.2150007,0.05494474,0.8247882,1.363548,0.2450805,0.4353428,1.329682,0.2831938,311.9312,94.3932,137.882,True
3,1.011112,-0.7105927,0.3918808,-0.05059052,-1.240849,-4.530241,-2.474833,0.5655174,1.202685,0.4619575,-2.076889,-1.0336,67.4,2.4,-0.479191,0.1426214,0.2609069,-0.6442064,-4.634187,0.5160274,0.6974174,1.330918,0.4065847,-0.1816968,0.24452,-0.1633113,-1.219402,0.2181908,0.0562393,0.8248363,1.363424,0.2451062,0.4369583,1.335063,0.2847403,312.9205,93.56752,139.1945,True
3,1.022224,-0.6891703,0.3256216,-0.08960733,-1.239834,-4.532864,-2.466936,0.5640769,1.203949,0.4613211,-2.088692,-1.062539,65.9,2.6,-0.4833124,0.1521158,0.2865318,-0.6396189,-4.634555,0.5219495,0.6966294,1.331261,0.406112,-0.1921453,0.2519374,-0.1482326,-1.220379,0.2215496,0.05759485,0.8247584,1.363377,0.2452776,0.438482,1.340348,0.2865071,313.8444,92.71201,140.7521,True
3,1.033335,-0.6687902,0.2476164,-0.1359911,-1.237701,-4.535208,-2.459306,0.562591,1.205396,0.4607356,-2.100086,-1.02495,65.9,2.6,-0.4875938,0.1425451,0.2801258,-0.6364369,-4.635129,0.5278002,0.6956496,1.331485,0.4056311,-0.1886308,0.2561122,-0.1237522,-1.220676,0.2247386,0.0585994,0.8245045,1.363294,0.2454031,0.4401408,1.34528,0.2881406,314.7399,91.98531,142.1246,True
3,1.044446,-0.6569791,0.1973996,-0.1623091,-1.235985,-4.537369,-2.45174,0.5610701,1.206813,0.4602966,-2.112203,-1.091361,65.9,2.6,-0.4951316,0.1425936,0.2652661,-0.6334733,-4.634975,0.5333273,0.6947852,1.331722,0.4051118,-0.1830344,0.2603016,-0.1035696,-1.220973,0.2279561,0.05932511,0.8243995,1.36322,0.2454927,0.4420369,1.349821,0.2893315,315.6578,91.40052,143.1982,True
3,1.055557,-0.6216657,0.1141233,-0.2055015,-1.232289,-4.538819,-2.445556,0.5594894,1.208276,0.4598243,-2.123963,-1.058384,65.9,2.6,-0.5155929,0.1437808,0.2270364,-0.6315756,-4.633691,0.5386398,0.6938137,1.332018,0.4046209,-0.1719891,0.2719021,-0.07490918,-1.220629,0.2313364,0.05965215,0.8241864,1.363165,0.2456775,0.4442408,1.353888,0.2898286,316.6471,90.915,143.9465,True
3,1.066668,-0.6056181,0.07675932,-0.2233852,-1.229955,-4.540674,-2.438703,0.5580092,1.209748,0.4593279,-2.135407,-1.029858,25.1,1.5,-0.5252175,0.1480561,0.2186008,-0.6287164,-4.633236,0.5441405,0.6929447,1.332303,0.4041667,-0.1708517,0.2771983,-0.06957933,-1.22109,0.2346034,0.06043165,0.8241447,1.363103,0.2457185,0.4467161,1.357521,0.289509,317.6817,90.56995,144.2164,True
3,1.077779,-0.5863653,0.03404311,-0.2465669,-1.226599,-4.542191,-2.43235,0.5563323,1.21126,0.458883,-2.14787,-1.123225,25.1,1.5,-0.5188299,0.1714897,0.220778,-0.6252042,-4.631511,0.5482271,0.6919397,1.332639,0.4037089,-0.1644187,0.2920999,-0.06748514,-1.221528,0.2385893,0.06065296,0.8239588,1.363063,0.2458596,0.4494119,1.360766,0.2884816,318.7359,90.31697,144.0978,True
3,1.08889,-0.5745835,0.007387623,-0.2560006,-1.223849,-4.543838,-2.425912,0.5548863,1.21274,0.4584064,-2.158668,-0.9702754,25.1,1.5,-0.5154389,0.1798803,0.2517163,-0.6205804,-4.6322,0.5539692,0.6910293,1.332985,0.4032714,-0.1581281,0.2995701,-0.07499514,-1.22234,0.2423041,0.06101941,0.8238916,1.362903,0.2459428,0.4522535,1.363626,0.2869038,319.8091,90.14871,143.7029,True
3,1.100002,-0.5628282,-0.01720361,-0.2739651,-1.220389,-4.5455,-2.419601,0.5532452,1.2143,0.4579837,-2.170141,-1.033421,25.1,1.5,-0.5110351,0.181923,0.2751634,-0.6161063,-4.633001,0.5600074,0.6900936,1.333349,0.4027462,-0.141209,0.3027827,-0.08479758,-1.223404,0.246008,0.0607033,0.8236504,1.362838,0.246098,0.4551128,1.366271,0.2850027,320.8613,90.0403,143.1328,True
3,1.111113,-0.5542852,-0.02893044,-0.2845668,-1.217408,-4.54784,-2.412953,0.5517188,1.215874,0.4576316,-2.181131,-0.9888356,25.1,1.5,-0.5034453,0.188229,0.2943296,-0.611662,-4.633572,0.5654408,0.6892017,1.333731,0.4022057,-0.1296134,0.3038584,-0.09346844,-1.224492,0.2495677,0.06065349,0.8234887,1.362859,0.246206,0.4579073,1.368773,0.2830275,321.8974,89.95044,142.5228,True
3,1.122224,-0.5457755,-0.02679005,-0.2888655,-1.214694,-4.550244,-2.40628,0.5501069,1.217409,0.4570971,-2.192096,-0.9870268,22.2,1.5,-0.4926512,0.1657978,0.3155009,-0.6073781,-4.635878,0.572439,0.6882519,1.334122,0.4016333,-0.1328761,0.3113348,-0.09872668,-1.225531,0.2536076,0.06092114,0.8232007,1.362867,0.2463472,0.4605926,1.371209,0.2812032,322.8832,89.8689,141.9716,True
3,1.133335,-0.5468664,-0.01505481,-0.286812,-1.212587,-4.55274,-2.399289,0.5485481,1.218983,0.4566238,-2.202593,-0.9445252,22.2,1.5,-0.4892753,0.1465182,0.3441728,-0.6028907,-4.639081,0.5804077,0.6871953,1.334611,0.4010916,-0.1371185,0.3070583,-0.09654502,-1.226204,0.2569811,0.06153021,0.8229949,1.362988,0.2463977,0.4631098,1.373656,0.279671,323.862,89.78387,141.5155,True
3,1.144446,-0.544802,0.01161352,-0.2827257,-1.211134,-4.555768,-2.39219,0.5468888,1.220544,0.4560921,-2.212945,-0.9317575,22.2,1.5,-0.4870306,0.1570934,0.3612822,-0.5976197,-4.640836,0.5870502,0.6861633,1.335062,0.4006743,-0.1433025,0.2888972,-0.07947494,-1.226315,0.2597218,0.06245646,0.8226501,1.363009,0.2465107,0.4654295,1.376184,0.2785352,324.812,89.68287,141.2146,True
3,1.155557,-0.5438366,0.06072821,-0.2692066,-1.210819,-4.559595,-2.384876,0.5451809,1.222176,0.4555869,-2.222719,-0.879279,22.2,1.5,-0.4763824,0.1634931,0.3612427,-0.5930258,-4.64179,0.5928234,0.6850748,1.335461,0.4001763,-0.1398483,0.2866891,-0.05929061,-1.226185,0.2629304,0.06294088,0.8222899,1.36306,0.2466431,0.467535,1.378848,0.2777945,325.7269,89.51855,141.1366,True
3,1.166668,-0.5460188,0.08527634,-0.2672461,-1.209879,-4.563398,-2.3774,0.5434872,1.223711,0.4552476,-2.232554,-0.8854394,22.2,1.5,-0.4743243,0.1497024,0.3473415,-0.5894188,-4.643432,0.5995071,0.6840532,1.335816,0.3995235,-0.1365612,0.2973131,-0.05290966,-1.226423,0.2668482,0.06308203,0.8218727,1.362949,0.2468104,0.4694486,1.381665,0.2774105,326.601,89.31642,141.2246,True
3,1.17778,-0.5524778,0.1194408,-0.2536149,-1.209918,-4.567062,-2.369739,0.5418376,1.225305,0.4547708,-2.242046,-0.8542404,9.6,0.9,-0.4775297,0.119891,0.3419275,-0.5862827,-4.646709,0.6076889,0.6829567,1.336293,0.3989961,-0.1418108,0.3036919,-0.04749222,-1.22654,0.27069,0.06352571,0.8214639,1.362992,0.2469285,0.4711763,1.384648,0.2773119,327.4841,89.10098,141.4224,True
3,1.188891,-0.5578512,0.146172,-0.250604,-1.209897,-4.571826,-2.361769,0.5402492,1.22681,0.4545355,-2.250959,-0.8019072,9.6,0.9,-0.4732515,0.09326462,0.3428674,-0.5829611,-4.650435,0.616028,0.6818029,1.336793,0.3984141,-0.1568257,0.311177,-0.05579823,-1.227288,0.2744864,0.06444264,0.8211709,1.363087,0.2469752,0.4727267,1.387748,0.2774661,328.3695,88.8884,141.6868,True
3,1.200002,-0.5653849,0.1771187,-0.2518988,-1.209981,-4.577206,-2.35315,0.5385727,1.228473,0.4540789,-2.259375,-0.7572362,9.6,0.9,-0.4839105,0.1007138,0.3429541,-0.5790458,-4.652461,0.6235113,0.6806046,1.337408,0.3977878,-0.1654162,0.3133319,-0.06100412,-1.22791,0.2783487,0.06528953,0.8207777,1.36314,0.2470469,0.4741521,1.390799,0.2778319,329.2174,88.67429,142.0026,True
3,1.211113,-0.5728272,0.1781954,-0.2497671,-1.209457,-4.580846,-2.345501,0.5368138,1.230363,0.4533379,-2.267744,-0.7534339,9.6,0.9,-0.4849129,0.1517741,0.3612567,-0.5733626,-4.652518,0.6290205,0.6794441,1.3381,0.3971667,-0.184839,0.3006122,-0.07782449,-1.228997,0.2814158,0.06701285,0.8202564,1.363218,0.2470899,0.4754888,1.393803,0.2782984,330.0181,88.47554,142.3396,True
3,1.222224,-0.5813284,0.1718061,-0.2465217,-1.208766,-4.584128,-2.33763,0.5351707,1.231999,0.4527538,-2.275205,-0.6708134,4.2,0.5,-0.475182,0.17725,0.3889897,-0.5674967,-4.654011,0.635174,0.6782433,1.338769,0.3965635,-0.1934346,0.2942446,-0.08305915,-1.22988,0.2847011,0.06828185,0.8197964,1.363297,0.2472236,0.4767667,1.396703,0.2788103,330.8463,88.34933,142.638,True
3,1.233335,-0.5866352,0.1621958,-0.2485747,-1.207933,-4.587378,-2.32988,0.5334641,1.233726,0.4521973,-2.282883,-0.69181,4.2,0.5,-0.4727629,0.191985,0.4401674,-0.5606124,-4.657527,0.64325,0.6770147,1.33932,0.3959734,-0.2137368,0.2942716,-0.08704605,-1.23067,0.2881674,0.07020519,0.8192813,1.363333,0.2473176,0.4779548,1.399667,0.2791915,331.6779,88.21588,142.9574,True
3,1.244446,-0.5908822,0.159018,-0.2442849,-1.207397,-4.59055,-2.322128,0.5317829,1.235425,0.4517117,-2.289477,-0.5927936,4.2,0.5,-0.4779588,0.1940361,0.4615168,-0.554868,-4.660771,0.6513906,0.6758946,1.34003,0.395366,-0.2200822,0.301726,-0.08373777,-1.23117,0.2920504,0.07155222,0.8187364,1.363439,0.2474983,0.479083,1.402645,0.2793029,332.4441,88.00306,143.2991,True
3,1.255558,-0.6015248,0.1525811,-0.2474209,-1.206581,-4.593863,-2.313981,0.5300698,1.237147,0.4511733,-2.29605,-0.5919024,4.2,0.5,-0.4939045,0.1908092,0.4669253,-0.549424,-4.664021,0.6601154,0.6746356,1.340637,0.3946927,-0.2242064,0.3155358,-0.07405227,-1.231431,0.2961222,0.07276981,0.8182241,1.363614,0.2476368,0.4802157,1.405367,0.2791513,333.1706,87.82014,143.5248,True
3,1.266669,-0.6015211,0.150453,-0.2474003,-1.205979,-4.597198,-2.306112,0.5283472,1.238859,0.4506776,-2.301691,-0.5076058,4.2,0.5,-0.499221,0.1929269,0.4690915,-0.5439464,-4.666888,0.6682854,0.6734151,1.341266,0.3940744,-0.2219722,0.3187056,-0.06661522,-1.231671,0.2999984,0.07383268,0.817688,1.363695,0.2477577,0.4813403,1.407818,0.2787336,333.91,87.70194,143.5623,True
3,1.27778,-0.6110718,0.1398016,-0.2441212,-1.205119,-4.600111,-2.298048,0.5265712,1.240531,0.4501183,-2.306219,-0.4070627,1.8,13.4,-0.5109129,0.2024889,0.4734589,-0.5380347,-4.669502,0.6765282,0.6720344,1.341882,0.3934157,-0.2258402,0.3367197,-0.03773323,-1.230736,0.3044591,0.07501459,0.8170219,1.363845,0.2478113,0.482404,1.410037,0.2781163,334.6543,87.62413,143.4586,True
3,1.288891,-0.6142621,0.1376628,-0.244101,-1.204447,-4.603328,-2.289985,0.5248152,1.242172,0.449631,-2.310668,-0.401068,1.8,13.4,-0.5173368,0.2056907,0.4703091,-0.5326418,-4.672147,0.68483,0.6707009,1.342536,0.3928318,-0.2331306,0.3441309,-0.02482463,-1.230287,0.3086063,0.07656002,0.8163858,1.36402,0.2478862,0.4833386,1.412117,0.2773548,335.3907,87.57909,143.283,True
3,1.300002,-0.6153428,0.1419001,-0.2473234,-1.20389,-4.606843,-2.281843,0.5229917,1.243888,0.4490914,-2.31397,-0.296462,1.8,13.4,-0.5226008,0.2141673,0.4820889,-0.5264888,-4.675293,0.6935508,0.66936,1.343159,0.3921847,-0.2458907,0.3537253,-0.02355842,-1.230142,0.3131511,0.07821251,0.8158039,1.364117,0.2480271,0.4840868,1.414112,0.2765393,336.094,87.54314,143.0918,True
3,1.311113,-0.6206982,0.1493474,-0.246286,-1.203713,-4.61031,-2.273413,0.5213063,1.24549,0.4484775,-2.31715,-0.2865448,1.8,13.4,-0.5290577,0.2120686,0.4725302,-0.5212104,-4.678128,0.7022324,0.6681425,1.343816,0.3915641,-0.2566029,0.3622747,-0.02872042,-1.23042,0.3177195,0.07985009,0.8153933,1.364077,0.248163,0.4846119,1.416048,0.275731,336.7379,87.50788,142.9296,True
3,1.322224,-0.6239041,0.1514418,-0.2494877,-1.203208,-4.613807,-2.265102,0.5194923,1.247265,0.4479456,-2.319866,-0.2444797,2.1,18.1,-0.5429366,0.1918415,0.4650795,-0.5166202,-4.682393,0.7124539,0.6667852,1.344444,0.3908913,-0.2631518,0.3601871,-0.04035944,-1.230957,0.3219607,0.08159899,0.8148506,1.364105,0.2483478,0.4849007,1.417964,0.2749878,337.3373,87.50908,142.7847,True
3,1.333336,-0.6228181,0.1450691,-0.2473131,-1.202583,-4.616976,-2.257091,0.5176913,1.249026,0.4472888,-2.321866,-0.1795112,2.1,18.1,-0.5492538,0.16944,0.4735649,-0.5115943,-4.688115,0.723729,0.6653886,1.345018,0.3902071,-0.2753647,0.358181,-0.07749053,-1.232791,0.3261704,0.08365655,0.8143616,1.364079,0.2484982,0.4849506,1.419931,0.2743361,337.8825,87.53264,142.6918,True
3,1.344447,-0.6281272,0.1397279,-0.2462109,-1.201864,-4.620129,-2.248727,0.515842,1.250802,0.4467204,-2.323949,-0.1878681,2.1,18.1,-0.5513649,0.1598445,0.4756752,-0.5065327,-4.693256,0.7344479,0.6640096,1.34558,0.3895226,-0.2831935,0.3721134,-0.1061083,-1.23454,0.3310635,0.08544406,0.8138219,1.364071,0.2487345,0.484814,1.421958,0.2737962,338.3605,87.56657,142.6674,True
3,1.355558,-0.6302331,0.1344429,-0.2397743,-1.201412,-4.623082,-2.240561,0.5140464,1.25252,0.4459505,-2.325853,-0.1715506,2.1,18.1,-0.5557094,0.1609566,0.461858,-0.5017401,-4.697045,0.7441139,0.6626972,1.346194,0.3887956,-0.2747026,0.3859657,-0.1093727,-1.235474,0.3362548,0.08651758,0.8132161,1.36412,0.2489722,0.4845383,1.424079,0.2733436,338.8148,87.58867,142.6915,True
3,1.366669,-0.6280926,0.1334113,-0.2344422,-1.201033,-4.626057,-2.232562,0.512315,1.254136,0.4452136,-2.326977,-0.1005263,2.1,18.1,-0.557945,0.1620841,0.4437615,-0.497332,-4.700332,0.753266,0.6613263,1.346766,0.3880785,-0.2660993,0.393397,-0.1030604,-1.235812,0.3412156,0.08761667,0.8125666,1.364171,0.2492316,0.4841731,1.426247,0.2729417,339.2517,87.58418,142.7667,True
3,1.37778,-0.6291885,0.1483508,-0.2302784,-1.201252,-4.629534,-2.224256,0.5105574,1.255701,0.4445231,-2.328326,-0.1218511,3.6,25.4,-0.5612664,0.1547042,0.421383,-0.4934582,-4.703774,0.7627059,0.6598908,1.347346,0.3873677,-0.263828,0.3922955,-0.09244014,-1.236085,0.3458714,0.0889573,0.8119283,1.364267,0.2494471,0.483764,1.428412,0.2725539,339.677,87.56854,142.8644,True
3,1.388891,-0.627096,0.1632748,-0.2282478,-1.201599,-4.633122,-2.215958,0.5088684,1.257335,0.4439187,-2.329601,-0.1149166,3.6,25.4,-0.5665255,0.1514554,0.4278717,-0.4882799,-4.710051,0.7745903,0.6584044,1.348159,0.3867073,-0.2688732,0.3975447,-0.06998292,-1.235666,0.3506776,0.09077837,0.8113545,1.364539,0.2496789,0.4833674,1.430536,0.2721266,340.0854,87.54224,142.9963,True
3,1.400002,-0.6197339,0.207031,-0.2189544,-1.203367,-4.637344,-2.207816,0.5071568,1.258837,0.443332,-2.330416,-0.07301934,3.6,25.4,-0.5729311,0.1535848,0.4194816,-0.483433,1.568027,0.7854272,0.6569595,1.348806,0.3860269,-0.2749519,0.4113294,-0.04748396,-1.234953,0.3560048,0.09226015,0.8107264,1.364654,0.2498524,0.4830205,1.432536,0.2716464,340.5101,87.53469,143.094,True
3,1.411114,-0.6155072,0.2230419,-0.2148094,-1.204369,-4.641128,-2.199767,0.5054922,1.260391,0.4426415,-2.331237,-0.07398885,3.6,25.4,-0.5782768,0.1631727,0.4195476,-0.4785897,1.564119,0.7956108,0.6555866,1.349451,0.3852186,-0.2833613,0.4176899,-0.0388356,-1.234735,0.3610306,0.09405965,0.8102213,1.364822,0.250067,0.4827258,1.434443,0.2711198,340.9722,87.56154,143.1105,True
3,1.422225,-0.6059204,0.2327515,-0.1999724,-1.205709,-4.644403,-2.192229,0.5038142,1.261886,0.4420822,-2.332287,-0.0950271,3.9,29.6,-0.5889002,0.1929737,0.4282443,-0.4727015,1.561092,0.8052291,0.6542093,1.349966,0.3844321,-0.2877375,0.4187853,-0.04729574,-1.235118,0.3660302,0.09578192,0.8096018,1.364865,0.2502646,0.4824785,1.436334,0.2705874,341.4619,87.6142,143.0546,True
3,1.433336,-0.5920501,0.2403826,-0.1766059,-1.207254,-4.647089,-2.185253,0.5021513,1.263308,0.441354,-2.332807,-0.04640635,3.9,29.6,-0.5793509,0.2142948,0.425066,-0.4672671,1.558478,0.8136623,0.6528674,1.350487,0.3836739,-0.2857154,0.4145523,-0.05479542,-1.23559,0.3709056,0.09735452,0.8090471,1.364892,0.2504983,0.4822401,1.43826,0.2701367,341.9768,87.65687,143.0286,True
3,1.444447,-0.5835191,0.2425942,-0.1670418,-1.208627,-4.650097,-2.177976,0.5005512,1.264701,0.440681,-2.333568,-0.06903204,3.9,29.6,-0.5762363,0.2132824,0.4080447,-0.4626656,1.55496,0.8229988,0.6515495,1.351168,0.383111,-0.2815111,0.4039057,-0.05807853,-1.235934,0.3753197,0.09893537,0.8084662,1.36495,0.2508256,0.4819878,1.440228,0.2697726,342.4637,87.65805,143.0767,True
3,1.455558,-0.5675128,0.2470415,-0.1447206,-1.210536,-4.652572,-2.171371,0.4990793,1.265977,0.4399705,-2.3343,-0.06616993,3.9,29.6,-0.5657375,0.1505604,0.3758011,-0.4608888,1.549107,0.8343457,0.6503214,1.351636,0.3825645,-0.2796337,0.3954536,-0.07623357,-1.236905,0.3799995,0.1005184,0.8078929,1.365021,0.2510767,0.4817054,1.442189,0.2695125,342.9109,87.61576,143.1776,True
3,1.466669,-0.5494216,0.2652911,-0.1288859,-1.212901,-4.655441,-2.164915,0.4976264,1.267079,0.4392722,-2.334417,-0.01000665,3.9,29.6,-0.556242,0.1229317,0.3575471,-0.4581052,1.543862,0.8449877,0.6490543,1.352098,0.3819394,-0.2905171,0.392334,-0.09314351,-1.238048,0.3848734,0.1025708,0.8074374,1.364917,0.2513642,0.4813765,1.444127,0.2693163,343.3265,87.54463,143.3542,True
3,1.47778,-0.5366722,0.2888653,-0.1130826,-1.215816,-4.658468,-2.158321,0.4962097,1.268202,0.438597,-2.335078,-0.0603128,3.9,30.4,-0.5509923,0.1059445,0.3425405,-0.455522,1.539081,0.8552079,0.6479217,1.352536,0.3813527,-0.2937962,0.3944876,-0.0994852,-1.238902,0.3897558,0.1043621,0.8069927,1.364909,0.2516572,0.4810025,1.446004,0.2691446,343.7049,87.50394,143.5392,True
3,1.488891,-0.5271239,0.310279,-0.10046,-1.218857,-4.661592,-2.15157,0.4948622,1.269432,0.4379809,-2.335558,-0.04323319,3.9,30.4,-0.5370755,0.1112255,0.3542016,-0.4515198,1.533505,0.8657399,0.6468887,1.352926,0.3808234,-0.2938523,0.3923764,-0.1026721,-1.239484,0.3945586,0.106177,0.8063699,1.365047,0.2519217,0.4806109,1.447785,0.2689902,344.0422,87.47507,143.7211,True
3,1.500003,-0.5111769,0.3403295,-0.0729855,-1.222938,-4.664296,-2.145467,0.4936187,1.270473,0.4374237,-2.335584,-0.002006881,3.9,30.4,-0.5285142,0.1218544,0.361651,-0.4474196,1.528393,0.8759414,0.6458955,1.353282,0.380213,-0.2736948,0.3795948,-0.1083094,-1.240493,0.3986974,0.1072058,0.8059397,1.365018,0.252249,0.4802004,1.449456,0.2688594,344.3884,87.47177,143.8871,True
3,1.511114,-0.4984098,0.3585863,-0.05501786,-1.226683,-4.666948,-2.139401,0.4923391,1.271469,0.4368517,-2.335134,0.0405952,3.9,30.4,-0.5157874,0.1176355,0.3519638,-0.444236,1.523788,0.885455,0.6448894,1.353668,0.3796277,-0.2482919,0.3689682,-0.1203977,-1.241814,0.4029428,0.1076841,0.8054614,1.365042,0.2525787,0.4797617,1.451136,0.26874,344.7442,87.48843,144.0197,True
3,1.522225,-0.4930947,0.3682418,-0.04656659,-1.230269,-4.669683,-2.133099,0.4910721,1.272526,0.4363062,-2.3348,0.02921823,2.1,24.1,-0.5094144,0.1059297,0.3476132,-0.4413843,1.518143,0.8960554,0.6438891,1.354109,0.3791587,-0.2347575,0.3658411,-0.1440257,-1.24376,0.4074551,0.1084176,0.8050412,1.36494,0.2529101,0.479286,1.4529,0.268658,345.0751,87.51538,144.1255,True
3,1.533336,-0.4856406,0.3790184,-0.03066719,-1.234191,-4.672046,-2.127176,0.4898247,1.273412,0.435724,-2.333582,0.1099451,2.1,24.1,-0.4775205,0.06233948,0.3312825,-0.4399004,1.511213,0.9066383,0.6430008,1.354378,0.3788106,-0.2308036,0.3616513,-0.1664678,-1.245886,0.4118801,0.1096189,0.8045712,1.364831,0.2532644,0.4787548,1.454691,0.2687079,345.3726,87.51774,144.2786,True
3,1.544447,-0.4813885,0.3897574,-0.01902875,-1.238228,-4.674482,-2.121173,0.4886301,1.274367,0.4352472,-2.331678,0.1717551,2.1,24.1,-0.4638412,0.02943386,0.3001774,-0.4390519,1.505963,0.9162458,0.6420391,1.354637,0.3784149,-0.2255192,0.3605978,-0.1697348,-1.247389,0.4163397,0.1104948,0.8041288,1.364847,0.2536716,0.4781276,1.456477,0.2688912,345.6642,87.49844,144.5101,True
3,1.555558,-0.4729035,0.4111603,-0.007464856,-1.242859,-4.677102,-2.115357,0.4876846,1.275085,0.4348953,-2.329884,0.1609059,2.1,24.1,-0.4533444,0.008239582,0.271275,-0.4383659,1.501303,0.9251286,0.6411232,1.354867,0.3780162,-0.2116424,0.3626961,-0.1667223,-1.248707,0.4207557,0.1110903,0.8037698,1.364923,0.2540283,0.4773808,1.458263,0.269165,345.9305,87.47929,144.7823,True
3,1.566669,-0.4697125,0.4186679,-5.953014E-05,-1.247052,-4.679456,-2.109565,0.4865758,1.275889,0.4343958,-2.327548,0.2105251,2.1,24.1,-0.4468931,0.01035048,0.2818912,-0.4359398,1.495237,0.935443,0.6402811,1.355182,0.3776417,-0.2006874,0.3540951,-0.1423904,-1.24901,0.4247661,0.1118802,0.8036095,1.364872,0.2543733,0.476508,1.460006,0.2695087,346.1471,87.46243,145.0729,True
3,1.577781,-0.4654666,0.4326122,0.01262517,-1.251897,-4.681798,-2.103802,0.48544,1.27671,0.4339707,-2.325225,0.208759,2.1,24.1,-0.4480088,0.01783329,0.2744673,-0.433936,1.490504,0.9446966,0.639393,1.355462,0.377255,-0.1778952,0.3497131,-0.1107468,-1.248763,0.4286878,0.1118469,0.8031965,1.364871,0.2547557,0.4755278,1.461714,0.2699111,346.2917,87.48862,145.3382,True
3,1.588892,-0.4590633,0.4369843,0.0275028,-1.256519,-4.683688,-2.09835,0.484348,1.277573,0.4334898,-2.322406,0.2539,2.1,24.1,-0.4545175,0.001934305,0.2531319,-0.4332111,1.486212,0.9538523,0.6387104,1.355824,0.377002,-0.165976,0.3432817,-0.09600146,-1.248899,0.4327599,0.1119668,0.8029639,1.364841,0.2551177,0.4744905,1.463344,0.2704042,346.3899,87.54626,145.6161,True
3,1.600003,-0.4494672,0.4391975,0.03705813,-1.261055,-4.685629,-2.093057,0.4832923,1.278357,0.4329779,-2.319463,0.2648282,2.1,24.1,-0.4374653,-0.02893759,0.25078,-0.4328084,1.479133,0.9645684,0.637886,1.35615,0.3766973,-0.1660879,0.34544,-0.1045161,-1.2499,0.4370215,0.1124658,0.8025948,1.364832,0.2555285,0.4734195,1.464991,0.2709171,346.513,87.5754,145.92,True
3,1.611114,-0.4388116,0.4413707,0.04022415,-1.265587,-4.68768,-2.087969,0.4822974,1.27924,0.4325607,-2.316517,0.2649152,2.1,24.1,-0.4258156,-0.03634205,0.2389651,-0.4320217,1.473855,0.9737088,0.6370465,1.356455,0.3763669,-0.1717363,0.3498118,-0.1289139,-1.251558,0.4418911,0.1131284,0.802166,1.364787,0.2560127,0.4723219,1.46671,0.271429,346.6439,87.58477,146.2191,True
3,1.622225,-0.4324197,0.4413874,0.04021724,-1.270099,-4.689808,-2.082733,0.4812606,1.280147,0.4321423,-2.313453,0.2755874,2.1,24.1,-0.4247788,-0.04058348,0.2336163,-0.4311583,1.468354,0.9833736,0.6362518,1.35684,0.3760431,-0.1739531,0.3455789,-0.1352875,-1.252785,0.4460442,0.1138211,0.8018303,1.36474,0.2563963,0.471209,1.468487,0.2719199,346.7492,87.5735,146.5426,True
3,1.633336,-0.4164363,0.429636,0.02960604,-1.273881,-4.692145,-2.077726,0.4803076,1.281048,0.431668,-2.31032,0.2817509,0.9,27.9,-0.444824,-0.04497631,0.2656797,-0.4295008,1.459621,0.9969155,0.6354649,1.3572,0.3757031,-0.1783319,0.323248,-0.1427479,-1.254117,0.4493994,0.1148992,0.8014331,1.364681,0.2567537,0.4700853,1.470249,0.2723781,346.8379,87.58056,146.8595,True
3,1.644447,-0.4164351,0.4264107,0.02536307,-1.277969,-4.694363,-2.072433,0.4792859,1.281975,0.431216,-2.306723,0.3241592,0.9,27.9,-0.4468775,-0.03862953,0.2795634,-0.4277218,1.452211,1.008705,0.634666,1.357567,0.3753121,-0.1793641,0.3051359,-0.1395957,-1.255174,0.4525762,0.1158848,0.801072,1.364646,0.2571111,0.4689546,1.472002,0.2728019,346.9295,87.61693,147.1261,True
3,1.655559,-0.4078683,0.4007684,0.01166973,-1.280948,-4.696434,-2.067615,0.4783715,1.283046,0.4307911,-2.303414,0.2972429,0.9,27.9,-0.462753,0.004951745,0.3021859,-0.4242586,1.445549,1.020447,0.6339319,1.358002,0.3748598,-0.1823605,0.2869938,-0.1236248,-1.25561,0.4556212,0.1170763,0.800808,1.36465,0.2574229,0.4678108,1.473744,0.2731982,347.0252,87.65733,147.3835,True
3,1.66667,-0.4057243,0.3932869,0.007465824,-1.28465,-4.698416,-2.062629,0.4775065,1.284074,0.4303789,-2.299476,0.3550936,0.9,27.9,-0.4627153,0.01662625,0.3107432,-0.4220663,1.438606,1.031889,0.6332251,1.358379,0.374541,-0.17362,0.2784216,-0.1067194,-1.255866,0.4589034,0.1177429,0.8005271,1.364636,0.2576959,0.4666491,1.475442,0.2735472,347.1224,87.70605,147.6369,True
3,1.677781,-0.4046043,0.3666012,-0.0008809716,-1.287173,-4.700201,-2.057733,0.4765143,1.285138,0.4299557,-2.29617,0.2967592,1.5,32.8,-0.4626263,0.02509163,0.3267527,-0.4194649,1.430534,1.044355,0.6324745,1.358846,0.3741846,-0.1701941,0.2794293,-0.08971563,-1.25592,0.4622582,0.118438,0.8001331,1.364671,0.25807,0.4654691,1.477134,0.2738351,347.2032,87.75465,147.8656,True
3,1.688892,-0.4077603,0.3473696,-0.007126585,-1.289911,-4.701814,-2.052749,0.4754938,1.286087,0.4296606,-2.292271,0.3514674,1.5,32.8,-0.4487879,0.01872112,0.3234543,-0.4178569,1.423157,1.055502,0.631726,1.359303,0.3740177,-0.170172,0.2815526,-0.08757655,-1.256419,0.4657086,0.1193376,0.7995769,1.364564,0.2584977,0.4642891,1.47883,0.2740393,347.2502,87.81361,148.0551,True
3,1.700003,-0.4119828,0.3302937,-0.01020105,-1.292541,-4.703458,-2.047652,0.4745126,1.287137,0.4293556,-2.288488,0.3402155,1.5,32.8,-0.4392689,0.0166398,0.3116713,-0.4162947,1.416814,1.065772,0.630961,1.359718,0.3737128,-0.1873226,0.2816004,-0.0958714,-1.257431,0.4691768,0.120842,0.7991284,1.364717,0.2589657,0.4631211,1.480523,0.2741897,347.2925,87.87587,148.2246,True
3,1.711114,-0.4183571,0.3228236,-0.01014848,-1.295478,-4.705219,-2.042257,0.4735772,1.288124,0.4290454,-2.28454,0.35552,1.5,32.8,-0.4244657,0.03374222,0.2956669,-0.414186,1.411841,1.074582,0.6301427,1.360185,0.3735161,-0.1926101,0.2762777,-0.09261769,-1.257967,0.4724515,0.1221635,0.7988304,1.364789,0.2593703,0.4619533,1.482135,0.2742951,347.3613,87.91976,148.3768,True
3,1.722225,-0.4226081,0.3196261,-0.009046346,-1.298596,-4.70682,-2.03707,0.4726397,1.289153,0.428793,-2.280593,0.3553031,1.5,32.8,-0.4139117,0.02955024,0.2785436,-0.4128837,1.406657,1.083486,0.629395,1.360518,0.3732133,-0.1891758,0.2708927,-0.07456403,-1.257741,0.4754392,0.123127,0.7984179,1.364855,0.2597196,0.4607754,1.483639,0.2743878,347.4337,87.96549,148.4844,True
3,1.733337,-0.4310769,0.2961292,-0.01526862,-1.300694,-4.708339,-2.031619,0.4717493,1.290165,0.4285133,-2.276482,0.3703066,2.7,42.1,-0.3990589,0.02001378,0.2667078,-0.4118685,1.400725,1.092847,0.6287726,1.360837,0.3730178,-0.1578524,0.2611696,-0.04198731,-1.25673,0.4780094,0.123005,0.7979202,1.364874,0.2599905,0.4596008,1.485133,0.2744717,347.4939,88.02736,148.5757,True
3,1.744448,-0.4310397,0.2801543,-0.01621687,-1.30313,-4.70969,-2.026509,0.4708596,1.291122,0.4283514,-2.27278,0.3328015,2.7,42.1,-0.3787445,-0.00557287,0.2750215,-0.4112155,1.392002,1.104252,0.62815,1.361253,0.3728216,-0.149166,0.2547449,-0.02933137,-1.256296,0.4809713,0.1235025,0.7974609,1.364823,0.2602131,0.4584546,1.486658,0.2745814,347.5422,88.10512,148.6661,True
3,1.755559,-0.4373811,0.2577392,-0.02031967,-1.30485,-4.710952,-2.021143,0.4700454,1.292092,0.4280152,-2.268666,0.3707977,2.7,42.1,-0.3510821,-0.05025089,0.2629817,-0.4119074,1.383755,1.114744,0.627674,1.361607,0.3725255,-0.1501702,0.2430097,-0.02403029,-1.256103,0.4833491,0.124449,0.797015,1.364879,0.2604384,0.4573581,1.488227,0.274752,347.5885,88.16258,148.7869,True
3,1.76667,-0.4363192,0.2555716,-0.02562533,-1.307214,1.570665,-2.016019,0.4692408,1.293031,0.4277647,-2.264943,0.3344661,2.7,42.1,-0.3458267,-0.05234928,0.2512151,-0.4115724,1.377919,1.123793,0.626973,1.362007,0.3723941,-0.1533228,0.2302199,-0.01976768,-1.255949,0.4856599,0.1256072,0.7966327,1.365031,0.2606852,0.4563227,1.48977,0.2749715,347.6371,88.20064,148.9339,True
3,1.777781,-0.4320879,0.2640693,-0.03101483,-1.309862,1.568723,-2.010932,0.4684253,1.29398,0.4274251,-2.260571,0.3940455,5.1,58.3,-0.3425747,-0.03427848,0.2629787,-0.4099862,1.370804,1.133959,0.6263155,1.362409,0.3721228,-0.1554017,0.2238155,-0.01549993,-1.255697,0.4879922,0.1266709,0.7961934,1.365105,0.2609422,0.4553452,1.491253,0.2752374,347.6976,88.21661,149.0972,True
3,1.788892,-0.4278496,0.2725817,-0.03212972,-1.312693,1.56713,-2.006009,0.4675924,1.29493,0.4271085,-2.256609,0.3558859,5.1,58.3,-0.3404102,-0.01407193,0.2736722,-0.4080975,1.363957,1.144095,0.6256242,1.362732,0.3717661,-0.1498757,0.2109835,0.0003629066,-1.254942,0.4900547,0.1275092,0.7957906,1.365142,0.2611904,0.4544227,1.492701,0.2754796,347.7672,88.22734,149.2836,True
3,1.800003,-0.4278714,0.2843349,-0.02688091,-1.315884,1.565484,-2.000874,0.4667425,1.295897,0.4268095,-2.252405,0.378444,5.1,58.3,-0.3446583,0.001888707,0.2780158,-0.4062391,1.357204,1.154267,0.6250029,1.363061,0.3714859,-0.1370061,0.2109537,0.00658658,-1.254319,0.4924945,0.1277998,0.7953303,1.365166,0.2614424,0.4535285,1.494138,0.2756881,347.8735,88.26513,149.4393,True
3,1.811115,-0.426812,0.2886362,-0.0205139,-1.318886,1.564138,-1.995809,0.4659955,1.296898,0.4264412,-2.248006,0.3959074,5.1,58.3,-0.3402908,-0.004542395,0.2960741,-0.4047984,1.348241,1.166215,0.6245298,1.363426,0.3709722,-0.122142,0.2120178,0.003193302,-1.254124,0.4950135,0.1279217,0.7947993,1.365188,0.2616489,0.4526138,1.495608,0.2758663,348.0009,88.3141,149.5774,True
3,1.822226,-0.4374793,0.2993109,-0.01311053,-1.322291,1.562704,-1.990277,0.4652644,1.297817,0.4261675,-2.243124,0.4397493,5.1,58.3,-0.3338457,-0.0130638,0.3034775,-0.4035435,1.339326,1.177932,0.6240422,1.363673,0.3706098,-0.1009033,0.2120254,-0.002416555,-1.254071,0.497592,0.127416,0.7943673,1.365217,0.2618487,0.4516296,1.497126,0.2760415,348.1143,88.35051,149.7007,True
3,1.833337,-0.4492034,0.3035633,-0.009924658,-1.325483,1.56127,-1.984606,0.4645501,1.298684,0.4259169,-2.238228,0.4404401,5.1,56,-0.3263474,-0.006700024,0.3119679,-0.4021245,1.330937,1.189039,0.6235412,1.363823,0.37044,-0.08397652,0.2024572,-0.0111992,-1.254308,0.4996771,0.1270504,0.7940961,1.365384,0.2620027,0.4505452,1.49872,0.2762391,348.1807,88.38613,149.8391,True
3,1.844448,-0.4598428,0.2992676,-0.009878963,-1.328277,1.559926,-1.978935,0.4638103,1.299586,0.4257331,-2.232777,0.4912465,5.1,56,-0.3157063,-0.003517345,0.3129625,-0.401055,1.322924,1.199725,0.6231081,1.363925,0.3704455,-0.0816619,0.1885559,0.003641988,-1.253492,0.5012991,0.1274496,0.7936211,1.365368,0.262181,0.4493706,1.500367,0.2764685,348.1807,88.42924,150.0043,True
3,1.855559,-0.4736528,0.2821667,-0.0129404,-1.330579,1.558639,-1.972795,0.4631081,1.300502,0.4254916,-2.227354,0.4879759,5.1,56,-0.3115253,-0.01517929,0.2979816,-0.400557,1.315565,1.20987,0.6226236,1.36412,0.3702424,-0.07735639,0.1746892,0.007799308,-1.253064,0.5028506,0.1277007,0.793206,1.36537,0.2623768,0.4481301,1.502,0.2767686,348.1447,88.4922,150.1769,True
3,1.86667,-0.4800174,0.2714915,-0.01285614,-1.332966,1.557533,-1.967028,0.4624736,1.301446,0.425281,-2.221867,0.4936864,5.1,56,-0.3010007,-0.03319506,0.2733597,-0.400737,1.309262,1.218634,0.6221361,1.364355,0.370095,-0.07632512,0.1672466,0.005627762,-1.252925,0.5046971,0.1279492,0.7929816,1.365323,0.2626288,0.4468596,1.503577,0.2771486,348.1005,88.55486,150.363,True
3,1.877781,-0.4842774,0.2671771,-0.01921291,-1.335378,1.556013,-1.961065,0.4618925,1.302287,0.4250116,-2.215741,0.5520806,5.1,56,-0.2723151,-0.06188957,0.2592237,-0.4015259,1.302258,1.227301,0.6216252,1.364536,0.3699424,-0.07139508,0.1534906,-0.02325036,-1.254038,0.5061379,0.1281252,0.7926335,1.365288,0.262867,0.4455846,1.505106,0.2775791,348.0619,88.59821,150.5646,True
3,1.888893,-0.4864364,0.2799864,-0.01503807,-1.338734,1.554523,-1.955183,0.461283,1.303196,0.4248478,-2.21021,0.4969763,4.2,57.4,-0.2573479,-0.0789364,0.2643943,-0.4017842,1.293617,1.237547,0.6210812,1.364643,0.3697131,-0.06111718,0.1439892,-0.05004992,-1.255288,0.507787,0.1281018,0.792318,1.365293,0.2629521,0.4443418,1.506627,0.2779932,348.0125,88.63209,150.7748,True
3,1.900004,-0.4928977,0.3044429,-0.01945174,-1.342526,1.552518,-1.948989,0.4606987,1.304003,0.4246223,-2.204175,0.5434521,4.2,57.4,-0.2392224,-0.1076812,0.2631187,-0.402932,1.284773,1.247679,0.6206868,1.36476,0.3694987,-0.04529221,0.1376241,-0.06093772,-1.256092,0.5093816,0.1276765,0.7920284,1.36519,0.2630994,0.4431618,1.50814,0.2783592,347.9654,88.66895,150.9756,True
3,1.911115,-0.4961488,0.3300371,-0.01428052,-1.346863,1.550877,-1.942981,0.460106,1.304714,0.4244907,-2.19799,0.556495,4.2,57.4,-0.2327473,-0.1194452,0.2779394,-0.4035158,1.274899,1.259377,0.6204872,1.365131,0.3692594,-0.04222918,0.1323275,-0.07058509,-1.257037,0.5109105,0.1275484,0.7916817,1.365135,0.2632523,0.4420406,1.509627,0.2786707,347.9524,88.73507,151.1371,True
3,1.922226,-0.498297,0.3407267,-0.007956117,-1.350826,1.54944,-1.937006,0.4594935,1.305503,0.4242887,-2.191312,0.6013983,4.2,57.4,-0.2294813,-0.1088365,0.2907443,-0.4031791,1.265195,1.270762,0.6201075,1.365332,0.3690059,-0.04437765,0.1323345,-0.07162566,-1.257696,0.5126131,0.1276903,0.7913636,1.365039,0.2634075,0.4409527,1.511153,0.2789817,347.9814,88.81351,151.2503,True
3,1.933337,-0.5047326,0.362084,0.002586246,-1.355526,1.548261,-1.930871,0.458894,1.306296,0.424154,-2.184691,0.5956304,5.1,50.5,-0.2273543,-0.07264958,0.2972385,-0.4019903,1.257061,1.280863,0.6197251,1.365471,0.3687046,-0.05290205,0.1291457,-0.07152274,-1.258319,0.5141388,0.1281646,0.7910132,1.365037,0.2635043,0.4398543,1.512695,0.2793692,348.0254,88.90026,151.3698,True
3,1.944448,-0.5100857,0.3738257,0.008935213,-1.359962,1.547152,-1.924721,0.4583933,1.307005,0.423981,-2.177808,0.6194884,5.1,50.5,-0.2177919,-0.03955588,0.3132228,-0.4005277,1.247897,1.291716,0.6193479,1.365636,0.3684351,-0.04742231,0.1269688,-0.05987938,-1.258364,0.5155519,0.1280967,0.790573,1.365101,0.2635319,0.4387136,1.514241,0.2799021,348.0502,88.95491,151.5319,True
3,1.955559,-0.5165061,0.3855343,0.009933256,-1.364448,1.545622,-1.918401,0.457841,1.307788,0.4237831,-2.170553,0.6532566,5.1,50.5,-0.2080949,-0.0428832,0.318525,-0.399904,1.238268,1.302549,0.6191176,1.365757,0.3682292,-0.03554977,0.1258541,-0.04832208,-1.258348,0.5170016,0.1276552,0.7901802,1.365065,0.2636654,0.4375081,1.515845,0.2805647,348.0458,88.97956,151.7547,True
3,1.966671,-0.5154661,0.3876399,0.007811598,-1.368604,1.54435,-1.912246,0.4574313,1.308583,0.4235046,-2.163343,0.6488079,5.1,50.5,-0.2006277,-0.07057196,0.320511,-0.4006891,1.228057,1.314276,0.6189653,1.365947,0.3680809,-0.03120893,0.136482,-0.04195195,-1.258379,0.5190126,0.1274381,0.7898712,1.365073,0.2637124,0.4362395,1.517525,0.2813622,347.9913,88.99281,152.0262,True
3,1.977782,-0.5122642,0.383366,0.004638784,-1.37249,1.542891,-1.906325,0.4569367,1.309467,0.4233272,-2.155995,0.6614056,5.1,50.5,-0.1996365,-0.1152489,0.3022358,-0.4027477,1.219312,1.324529,0.6186432,1.366167,0.3678505,-0.03981489,0.137576,-0.04822583,-1.258907,0.5207868,0.1276288,0.7895213,1.365083,0.263782,0.4349311,1.519231,0.2822658,347.907,89.00883,152.3624,True
3,1.988893,-0.5112067,0.3801656,0.003626242,-1.376581,1.541772,-1.900247,0.4565403,1.310386,0.4230876,-2.148735,0.6531565,4.8,47.4,-0.197441,-0.1163746,0.3149984,-0.403291,1.208768,1.336508,0.618358,1.366518,0.3674724,-0.04192726,0.1269216,-0.04610157,-1.25923,0.5219951,0.1278496,0.789242,1.365103,0.2638083,0.4336022,1.520981,0.2832105,347.8159,89.0341,152.7329,True
3,2.000004,-0.5037199,0.3673877,0.001567625,-1.379979,1.540538,-1.894673,0.4560251,1.311463,0.4228756,-2.141557,0.6456696,4.8,47.4,-0.1833539,-0.07390056,0.3598376,-0.4011221,1.194627,1.351112,0.6181203,1.366564,0.3669322,-0.03644916,0.1055681,-0.03346245,-1.259135,0.5224215,0.1279383,0.788864,1.365147,0.2638366,0.4322861,1.522751,0.2841253,347.7106,89.05516,153.1038,True
3,2.011115,-0.4972754,0.3461332,0.005986601,-1.383267,1.539935,-1.889135,0.4555271,1.312643,0.4227285,-2.13381,0.697781,4.8,47.4,-0.1929894,-0.07179742,0.3534924,-0.4015243,1.184971,1.362463,0.6177654,1.366931,0.3665979,-0.02970651,0.09908874,-0.006937619,-1.258133,0.5233449,0.1277063,0.7885451,1.365166,0.2639093,0.4309803,1.524528,0.2849651,347.6205,89.07993,153.4223,True
3,2.022226,-0.4983196,0.3225024,0.001925536,-1.384653,1.54031,-1.883639,0.4549618,1.314184,0.422008,-2.126679,0.6408784,4.8,47.4,-0.221709,-0.08674902,0.358935,-0.4022098,1.174182,1.375865,0.6175191,1.367337,0.3663695,-0.03283187,0.09907289,-0.001571079,-1.257863,0.5244606,0.1278624,0.788174,1.365197,0.2640049,0.4296964,1.526349,0.2857006,347.5311,89.09875,153.7061,True
3,2.033337,-0.5014179,0.2776608,-0.01162419,-1.385993,1.5393,-1.877774,0.4543652,1.315506,0.4217236,-2.118946,0.696472,4.2,47,-0.2268718,-0.09750792,0.3844702,-0.402851,1.161143,1.390456,0.6168495,1.367395,0.3662672,-0.02884291,0.1034003,-0.02185105,-1.258609,0.525987,0.1276703,0.7877754,1.365147,0.2641547,0.4284065,1.528216,0.2863092,347.4678,89.1145,153.9351,True
3,2.044448,-0.5109107,0.2371548,-0.02737366,-1.387773,1.537048,-1.871321,0.453728,1.3168,0.421665,-2.111038,0.711878,4.2,47,-0.2469786,-0.1007998,0.4069434,-0.4031834,1.147283,1.406595,0.6165479,1.367898,0.3660693,-0.03137651,0.1024401,-0.05165188,-1.259975,0.527376,0.1277508,0.7873521,1.365106,0.2641404,0.4270955,1.530195,0.286754,347.3799,89.06647,154.1887,True
3,2.055559,-0.5215076,0.2072082,-0.04100872,-1.388727,1.535808,-1.865,0.4531828,1.31814,0.4214098,-2.103127,0.7120521,4.2,47,-0.2661456,-0.07739978,0.4113894,-0.4025842,1.136128,1.420456,0.6160074,1.367981,0.3659449,-0.03793914,0.1014234,-0.06435261,-1.260967,0.5286538,0.1279958,0.7869915,1.365125,0.2642152,0.425749,1.532286,0.2868736,347.2859,88.98963,154.4787,True
3,2.06667,-0.5405712,0.1484476,-0.06511372,-1.388351,1.534083,-1.857968,0.4527906,1.319491,0.4214027,-2.094965,0.7350453,4.2,47,-0.2649643,-0.06043314,0.4316916,-0.4020106,1.122327,1.435904,0.615644,1.368465,0.3658578,-0.04425681,0.1056739,-0.05892559,-1.261169,0.530116,0.1282565,0.7866873,1.365151,0.2643144,0.4243109,1.534185,0.2867261,347.2373,89.07946,154.5417,True
3,2.077781,-0.5575008,0.08857982,-0.09026033,-1.386861,1.532573,-1.850894,0.4522691,1.320997,0.4211521,-2.087085,0.7089498,4.2,47,-0.2626981,-0.04134773,0.4573144,-0.4010252,1.107117,1.452759,0.6152561,1.368836,0.3655803,-0.0515087,0.112021,-0.04389166,-1.26097,0.5316442,0.128603,0.7862562,1.365174,0.2643595,0.42277,1.535899,0.2864599,347.1742,89.27241,154.4163,True
3,2.088892,-0.5659543,0.05436184,-0.1070687,-1.386003,1.530998,-1.844219,0.4517663,1.322289,0.4209185,-2.078682,0.7571349,5.1,53.2,-0.2702474,-0.05194708,0.4392176,-0.4016143,1.095883,1.466278,0.6151378,1.369125,0.3653147,-0.05453504,0.1119804,-0.03106566,-1.26071,0.5328971,0.1289066,0.7859123,1.365188,0.2644441,0.4211879,1.537502,0.2861502,347.0157,89.42416,154.2905,True
3,2.100003,-0.5786489,0.008395605,-0.1259216,-1.383937,1.529421,-1.83702,0.4512873,1.323826,0.4206953,-2.070778,0.7110593,5.1,53.2,-0.2649263,-0.05300903,0.4370525,-0.4019173,1.083563,1.480338,0.6148587,1.369455,0.3650808,-0.0554003,0.1129959,-0.01613512,-1.260184,0.5341962,0.129162,0.7854877,1.365225,0.2644694,0.4196466,1.539035,0.2858014,346.8223,89.57804,154.2021,True
3,2.111114,-0.5881631,-0.02474128,-0.1384835,-1.382141,1.527851,-1.830005,0.450945,1.325262,0.4205489,-2.063415,0.6619685,5.1,53.2,-0.253194,-0.06152586,0.4390819,-0.402418,1.070733,1.49461,0.6146457,1.369904,0.3647661,-0.05319574,0.1140468,-0.01083372,-1.259987,0.5356254,0.1291782,0.7851224,1.365438,0.2645016,0.4182068,1.540565,0.2853424,346.6747,89.7105,154.1555,True
3,2.122225,-0.5934301,-0.05145404,-0.1468311,-1.380213,1.526338,-1.823027,0.4505756,1.326849,0.4203236,-2.055265,0.7344816,5.1,53.2,-0.2489224,-0.07644002,0.4400602,-0.4034497,1.058189,1.508813,0.6143733,1.370378,0.3644395,-0.05747444,0.1065955,-0.01186401,-1.260006,0.53662,0.1296214,0.7847552,1.365408,0.2645149,0.4168829,1.542042,0.2847859,346.5835,89.83746,154.0876,True
3,2.133336,-0.5976754,-0.0600155,-0.1510284,-1.378862,1.524808,-1.815998,0.4501483,1.328378,0.4200604,-2.047819,0.669585,5.7,61,-0.2509947,-0.1009611,0.4463726,-0.4050157,1.044976,1.523755,0.6141248,1.370811,0.3641422,-0.06920627,0.09168768,-0.01175844,-1.260093,0.5371274,0.1306592,0.7844092,1.365468,0.2644958,0.4156899,1.543542,0.2841051,346.5101,89.9724,153.9607,True
3,2.144447,-0.5955239,-0.06104677,-0.1457058,-1.377762,1.523489,-1.809373,0.4496248,1.330041,0.4196994,-2.040387,0.6689672,5.7,61,-0.2573736,-0.1137537,0.4463672,-0.4065305,1.032178,1.538567,0.6138713,1.371221,0.3638008,-0.07335164,0.09805439,-0.003155055,-1.259609,0.5384825,0.1312065,0.7839719,1.365394,0.2645123,0.4146499,1.545044,0.2833471,346.4512,90.12122,153.7757,True
3,2.155558,-0.596602,-0.05679552,-0.1467974,-1.376888,1.521948,-1.802427,0.4491924,1.331563,0.4194219,-2.032801,0.6827673,5.7,61,-0.2690602,-0.09249265,0.4550319,-0.4067196,1.018745,1.554349,0.6135991,1.37165,0.3633752,-0.07549258,0.1023209,-0.004177339,-1.259524,0.5398161,0.131705,0.7835696,1.365433,0.2645006,0.4137472,1.546617,0.2825442,346.4494,90.25683,153.583,True
3,2.166669,-0.6019102,-0.0567277,-0.1403968,-1.376394,1.520618,-1.79544,0.4487657,1.333091,0.4196103,-2.025547,0.6524214,5.7,61,-0.274322,-0.05844779,0.467976,-0.4060618,1.004482,1.570543,0.6134573,1.372139,0.3629832,-0.08626161,0.1076876,-0.01359992,-1.259818,0.5412971,0.1324768,0.7832547,1.365493,0.2645423,0.4129253,1.548273,0.2817526,346.5129,90.36558,153.4134,True
3,2.17778,-0.6040356,-0.05348132,-0.1318925,-1.375654,1.519563,-1.788415,0.4483675,1.334542,0.4193354,-2.017626,0.7134919,5.7,61,-0.2807526,-0.03287451,0.4649096,-0.4055867,0.99138,1.58595,0.6131685,1.372582,0.3625224,-0.09603603,0.1045468,-0.02733038,-1.260414,0.5425252,0.1334973,0.7828957,1.365559,0.2645214,0.4120997,1.550021,0.2810127,346.6046,90.44577,153.2808,True
3,2.188891,-0.5997702,-0.05344999,-0.1287071,-1.374721,1.518329,-1.781651,0.4480188,1.336085,0.4189463,-2.009789,0.7052557,5.4,66.9,-0.279817,-0.006181955,0.4468844,-0.4049981,0.9805753,1.598948,0.6129225,1.373062,0.3620973,-0.10361,0.1003297,-0.03576638,-1.260915,0.5437521,0.1345048,0.7825909,1.365703,0.2644906,0.4112064,1.551743,0.2804089,346.6574,90.56027,153.1069,True
3,2.200002,-0.6018835,-0.05876775,-0.1265379,-1.373628,1.517179,-1.774617,0.447713,1.337452,0.4186478,-2.001942,0.7062724,5.4,66.9,-0.2584119,0.03530119,0.4692785,-0.4032766,0.9651328,1.615289,0.6126856,1.373429,0.3616583,-0.1142594,0.1035342,-0.03561312,-1.261146,0.5451306,0.1357397,0.7822596,1.365755,0.2644241,0.4102324,1.553428,0.2800489,346.6479,90.66747,152.9437,True
3,2.211113,-0.5933459,-0.06513835,-0.1265139,-1.372354,1.515902,-1.768,0.4474877,1.33881,0.4182966,-1.994448,0.6739709,5.4,66.9,-0.2616091,0.03315958,0.4703525,-0.4034247,0.951571,1.630805,0.6126195,1.373767,0.3611062,-0.09915753,0.1013449,-0.02091188,-1.260736,0.5462883,0.1360598,0.7819641,1.365841,0.2643189,0.4091986,1.55515,0.2798613,346.5816,90.719,152.9852,True
3,2.222224,-0.582674,-0.07042547,-0.1243749,-1.371092,1.514666,-1.761596,0.4472716,1.34024,0.4178817,-1.986381,0.7266308,5.4,66.9,-0.2552431,0.01825809,0.4659933,-0.4042284,0.9387629,1.645383,0.6125411,1.373978,0.3606598,-0.09680875,0.08956695,-0.003932465,-1.260095,0.5468397,0.1369001,0.781643,1.36579,0.2642138,0.4081221,1.556903,0.27972,346.4903,90.76565,153.1302,True
3,2.233335,-0.5698828,-0.07143658,-0.1211924,-1.370054,1.51358,-1.75541,0.4470126,1.34158,0.4175034,-1.978943,0.6686484,5.4,66.9,-0.2437166,-0.00929971,0.4296054,-0.4054157,0.9294031,1.656363,0.6123666,1.374248,0.360276,-0.09663537,0.09271908,0.008860786,-1.259406,0.5479308,0.1376479,0.7812968,1.365817,0.2641337,0.4070305,1.558566,0.279544,346.3709,90.82552,153.2607,True
3,2.244446,-0.5634815,-0.07462072,-0.121191,-1.368805,1.512324,-1.749031,0.4467049,1.342852,0.4172528,-1.971179,0.6987237,5.7,74.4,-0.2449337,-0.02731568,0.4007866,-0.4066983,0.920469,1.66733,0.612201,1.374722,0.3599887,-0.09013733,0.1086766,0.01628919,-1.258741,0.5498384,0.1379557,0.7810366,1.365857,0.263984,0.4059521,1.560147,0.279249,346.2523,90.90359,153.3385,True
3,2.255557,-0.5474795,-0.08202207,-0.1190363,-1.367395,1.511271,-1.74323,0.4464942,1.344024,0.4168794,-1.963197,0.7182558,5.7,74.4,-0.2407279,-0.03686155,0.3900743,-0.4078051,0.9105553,1.678998,0.612034,1.375039,0.3596001,-0.08817299,0.1140451,0.003496606,-1.258901,0.5514154,0.1383845,0.7807566,1.36591,0.2638636,0.4048825,1.561691,0.2787884,346.1554,90.99014,153.3428,True
3,2.266668,-0.537882,-0.08626258,-0.1190205,-1.366088,1.51016,-1.737208,0.4463077,1.345349,0.4165208,-1.954729,0.7624256,5.7,74.4,-0.2385996,-0.03366549,0.3890106,-0.4085667,0.8994164,1.691794,0.6118103,1.37545,0.3592811,-0.09051746,0.1002515,-0.01143586,-1.259455,0.5521891,0.1392897,0.7804235,1.365942,0.2638884,0.4037882,1.563147,0.2781931,346.0887,91.08439,153.2646,True
3,2.277779,-0.5218909,-0.09263395,-0.1221995,-1.364621,1.508915,-1.731814,0.446205,1.346392,0.4161732,-1.946808,0.7121257,5.7,74.4,-0.2354909,-0.00273107,0.3784505,-0.4080197,0.8895845,1.703303,0.611703,1.375696,0.3588259,-0.09594073,0.0864289,-0.01780299,-1.259805,0.5527368,0.1403499,0.7801796,1.365953,0.2637956,0.4026355,1.564479,0.2775144,346.0132,91.1919,153.1349,True
3,2.28889,-0.5080291,-0.1011626,-0.1285575,-1.362974,1.507492,-1.726396,0.4461297,1.347624,0.4157994,-1.938113,0.7831305,4.2,64.2,-0.2270394,0.01221737,0.3688712,-0.4079547,0.8799245,1.714407,0.6117159,1.375978,0.3582582,-0.09908891,0.08641488,-0.01350168,-1.259617,0.5537261,0.1413848,0.7799946,1.366009,0.2635365,0.4014149,1.565717,0.2767688,345.8964,91.30573,153.001,True
3,2.300001,-0.4909748,-0.1021556,-0.1243164,-1.36164,1.506451,-1.721358,0.4460904,1.34862,0.4154642,-1.929981,0.7308257,4.2,64.2,-0.2097914,0.02488413,0.4050361,-0.4081161,0.8654695,1.729412,0.6116567,1.376224,0.3578122,-0.09054494,0.09599188,-0.01251742,-1.259477,0.5552153,0.141632,0.7797716,1.365971,0.2634163,0.4001258,1.566948,0.2759757,345.7374,91.43954,152.8563,True
3,2.311112,-0.4685991,-0.1010063,-0.1200958,-1.36041,1.505479,-1.716696,0.4460778,1.349606,0.4150918,-1.921091,0.8004699,4.2,64.2,-0.1767282,0.0142415,0.4101317,-0.4091228,0.8534788,1.741227,0.6117183,1.376423,0.3573463,-0.08842315,0.1034525,-0.01358932,-1.259496,0.5567635,0.1420618,0.7796078,1.365971,0.2631819,0.3987649,1.568073,0.2751884,345.5565,91.59194,152.7142,True
3,2.322223,-0.4473049,-0.0891693,-0.1106234,-1.35966,1.504583,-1.712259,0.4459432,1.350625,0.4147692,-1.912233,0.7968473,4.2,64.2,-0.1694716,-0.01332568,0.3726996,-0.4108288,0.8472438,1.748646,0.6116307,1.376592,0.3570111,-0.08193395,0.1055539,-0.006212551,-1.259172,0.558015,0.1424386,0.7793397,1.365847,0.2629738,0.3973253,1.569183,0.2744133,345.3518,91.75318,152.5632,True
3,2.333334,-0.4334733,-0.07735915,-0.1022003,-1.359088,1.503794,-1.707789,0.4458637,1.351598,0.4144316,-1.90331,0.8027852,4.2,64.2,-0.174038,-0.01633673,0.3205149,-0.4114019,0.8429572,1.754643,0.6115628,1.376776,0.356591,-0.07663588,0.08957382,-0.007403288,-1.259215,0.5585286,0.1429444,0.7791454,1.365888,0.2627494,0.3958111,1.570208,0.2737084,345.1117,91.89511,152.4277,True
3,2.344445,-0.4057914,-0.06659438,-0.09593025,-1.358546,1.502904,-1.704008,0.4458083,1.352497,0.414048,-1.894098,0.8290452,7.5,72.1,-0.1688851,-0.006640345,0.2917572,-0.4115575,0.8369626,1.761843,0.6115407,1.377081,0.3561475,-0.08295969,0.07358262,-0.0009864233,-1.259054,0.5589014,0.1440437,0.7790407,1.365896,0.2625947,0.3942155,1.571202,0.2730862,344.8654,92.02767,152.3169,True
3,2.355556,-0.3887484,-0.06332634,-0.09171722,-1.357849,1.502103,-1.700051,0.4458289,1.353333,0.4136677,-1.884495,0.8645365,7.5,72.1,-0.1614052,0.003999464,0.2970781,-0.4118376,0.8283411,1.771291,0.6115643,1.377376,0.3557689,-0.08398765,0.06718088,0.002201498,-1.258852,0.5594305,0.1448483,0.778881,1.365886,0.2624059,0.3925122,1.572237,0.2725695,344.6178,92.14921,152.2244,True
3,2.366668,-0.3759682,-0.06008625,-0.08962624,-1.357133,1.501268,-1.696078,0.445976,1.354182,0.4134121,-1.875533,0.8055311,7.5,72.1,-0.1484393,0.001761854,0.3278909,-0.4129753,0.8166412,1.783242,0.6116782,1.377636,0.3553658,-0.08410293,0.07040665,-0.006308518,-1.259044,0.5604687,0.1455058,0.7787391,1.365896,0.2621748,0.3907029,1.57331,0.2721727,344.3237,92.26371,152.1848,True
3,2.377779,-0.3568096,-0.05364488,-0.08969857,-1.356625,1.500291,-1.692528,0.4460335,1.354944,0.4130549,-1.865665,0.8888345,7.5,72.1,-0.1389523,0.001831189,0.31079,-0.4135916,0.809242,1.791232,0.6117333,1.377779,0.3549063,-0.08017783,0.07688238,-0.03190842,-1.260054,0.5617903,0.1458525,0.7786084,1.36588,0.2620091,0.3887936,1.574345,0.2718892,343.9884,92.3784,152.205,True
3,2.38889,-0.3450892,-0.05573163,-0.08757629,-1.355784,1.499393,-1.68874,0.4461789,1.355613,0.4126406,-1.855824,0.8855905,5.4,69.1,-0.1338436,0.01900603,0.2767313,-0.413264,0.8044795,1.797046,0.6119336,1.377879,0.3544798,-0.08140218,0.07585833,-0.0436145,-1.260799,0.5627673,0.1465359,0.7784797,1.365826,0.2617624,0.3868137,1.575309,0.2716815,343.5911,92.50528,152.239,True
3,2.400001,-0.3323046,-0.05353982,-0.08334934,-1.355156,1.498653,-1.685341,0.4462211,1.356293,0.4122918,-1.846304,0.8561576,5.4,69.1,-0.1264755,0.02013107,0.2617773,-0.4135511,0.7984717,1.803717,0.611948,1.378084,0.3540945,-0.08369258,0.07163898,-0.05531777,-1.261715,0.563585,0.1472864,0.7783551,1.365791,0.2615786,0.3848171,1.576215,0.2715194,343.1707,92.65051,152.2601,True
3,2.411112,-0.3205657,-0.05993385,-0.08438481,-1.353863,1.497943,-1.682034,0.4462825,1.356961,0.411844,-1.835965,0.9311808,5.4,69.1,-0.1223036,-0.005372159,0.2424835,-0.4151069,0.7939822,1.808972,0.611918,1.378153,0.3537335,-0.08375724,0.0727244,-0.05957849,-1.262368,0.5646709,0.1480337,0.7781696,1.365631,0.2613976,0.3828157,1.577039,0.2713751,342.7771,92.78182,152.3096,True
3,2.422223,-0.292872,-0.05453832,-0.08127358,-1.353073,1.497207,-1.67958,0.4463318,1.357683,0.4114625,-1.826017,0.89463,5.4,69.1,-0.1191359,-0.009611517,0.2371229,-0.4159538,0.7882226,1.815456,0.6119336,1.378295,0.3533142,-0.08678215,0.07055593,-0.04676894,-1.262452,0.565504,0.1488406,0.7781613,1.36561,0.2612312,0.3808159,1.577769,0.2711952,342.3914,92.90385,152.3623,True
3,2.433334,-0.2726524,-0.04272508,-0.07499123,-1.352922,1.496559,-1.677053,0.4463427,1.358308,0.4111049,-1.815748,0.9243289,5.4,69.1,-0.1096093,-0.001055628,0.2275007,-0.4164294,0.7829649,1.82118,0.611954,1.378598,0.3530214,-0.07485799,0.06303484,-0.03097286,-1.262199,0.5659496,0.1491615,0.7780234,1.365587,0.2609711,0.3788002,1.578432,0.2709458,342.0282,93.01208,152.3933,True
3,2.444445,-0.2673327,-0.03845603,-0.07396497,-1.352376,1.495814,-1.674041,0.4465005,1.359037,0.4107764,-1.806089,0.8682365,6.3,73.9,-0.1011099,-0.002107121,0.2231883,-0.4171554,0.7773099,1.82715,0.6120919,1.378816,0.3526368,-0.07259724,0.06086467,-0.0214286,-1.262157,0.5665165,0.1496603,0.7779636,1.36557,0.2607222,0.3767418,1.579042,0.2705787,341.6618,93.13007,152.3911,True
3,2.455556,-0.2492053,-0.04372059,-0.07182758,-1.351658,1.495145,-1.671776,0.4465157,1.359641,0.4103951,-1.795435,0.9595284,6.3,73.9,-0.1021547,-0.004250109,0.2263827,-0.4179735,0.7710422,1.83406,0.612133,1.379077,0.3522937,-0.06291368,0.05763558,-0.01411099,-1.261961,0.5670494,0.1498622,0.7778522,1.365577,0.2604671,0.3745964,1.579616,0.2701241,341.298,93.27293,152.3052,True
3,2.466667,-0.2342917,-0.03948699,-0.06761141,-1.350215,1.495064,-1.669596,0.4467261,1.35984,0.4099331,-1.784233,1.008747,6.3,73.9,-0.09901686,4.146248E-05,0.2167914,-0.4185078,0.7661201,1.839527,0.6122012,1.379325,0.3517997,-0.05880703,0.05766853,-0.02589442,-1.262717,0.5678168,0.150152,0.7777436,1.36558,0.2601721,0.3723287,1.580168,0.2696638,340.8919,93.42959,152.176,True
3,2.477778,-0.2150884,-0.04793622,-0.0643891,-1.349342,1.494524,-1.667744,0.4468195,1.360263,0.4095571,-1.774147,0.9064322,6.3,73.9,-0.09283025,0.04489313,0.1881538,-0.41683,0.7621125,1.844017,0.6122433,1.379513,0.3513718,-0.05581591,0.05132511,-0.0408714,-1.263604,0.5683289,0.1505075,0.7776845,1.365609,0.2599168,0.369963,1.580734,0.2692371,340.4246,93.60786,152.0617,True
3,2.488889,-0.2012362,-0.05111627,-0.0675876,-1.348588,1.493735,-1.665736,0.4469039,1.360676,0.4095323,-1.763365,0.9709142,6.6,67.7,-0.09196234,0.04820001,0.1561901,-0.4164672,0.7606632,1.84641,0.6122819,1.379645,0.351048,-0.05707537,0.04498384,-0.05472978,-1.264652,0.5688378,0.1511022,0.7776483,1.365616,0.2597663,0.3675258,1.581127,0.2688834,339.9296,93.755,152.0294,True
3,2.5,-0.1884336,-0.05746619,-0.06649981,-1.34767,1.493104,-1.663948,0.447023,1.36105,0.4092088,-1.752901,0.9411619,6.6,67.7,-0.08554728,0.05032032,0.1604213,-0.4163671,0.7557842,1.851605,0.6123457,1.379728,0.3506513,-0.05700515,0.04390034,-0.0494075,-1.264937,0.5693523,0.1515717,0.7776099,1.365595,0.2595294,0.3650576,1.581198,0.2685629,339.3923,93.88731,152.0455,True
3,2.511111,-0.1713888,-0.0541944,-0.06228981,-1.347199,1.492525,-1.662499,0.4469932,1.361496,0.4091003,-1.741912,0.9893786,6.6,67.7,-0.07160115,0.05452534,0.1773995,-0.416561,0.7490122,1.858103,0.612406,1.379702,0.3503666,-0.05252536,0.03851686,-0.03244262,-1.264641,0.5696633,0.1519483,0.777511,1.365562,0.2592726,0.3625366,1.581169,0.268234,338.8918,94.07764,151.9447,True
3,2.522222,-0.1596777,-0.05095968,-0.06126358,-1.346714,1.491915,-1.661022,0.4470519,1.361835,0.4088159,-1.731124,0.9706095,6.6,67.7,-0.03542042,0.02050293,0.1664135,-0.4178894,0.745979,1.860097,0.6124442,1.37968,0.3500068,-0.05341548,0.04380056,-0.01962793,-1.264298,0.5703326,0.152364,0.7774291,1.365538,0.2590513,0.3599552,1.581131,0.2679735,338.3922,94.29224,151.7635,True
3,2.533333,-0.1373344,-0.03592868,-0.05287432,-1.346814,1.49161,-1.660208,0.4470501,1.362078,0.4085195,-1.72048,0.9576698,6.6,67.7,-0.03886212,-0.009161565,0.1205173,-0.4188843,0.747242,1.859453,0.6124394,1.379698,0.3496776,-0.05211058,0.06397875,-0.00253824,-1.263618,0.5716768,0.152589,0.777415,1.365621,0.2587903,0.3573157,1.581162,0.2677899,337.8802,94.4856,151.6371,True
3,2.544444,-0.1330948,-0.02309091,-0.04657528,-1.346969,1.491267,-1.658787,0.4470812,1.362345,0.4082007,-1.709474,0.9907467,10.8,71.4,-0.04323062,-0.01016419,0.1013572,-0.4191134,0.7463199,1.86094,0.6124246,1.379846,0.3493049,-0.04362407,0.0703803,-0.005825398,-1.263656,0.5728239,0.1524159,0.7773913,1.365573,0.2584648,0.3546039,1.581265,0.267721,337.3668,94.65383,151.5592,True
3,2.555555,-0.1171472,-0.0048603,-0.03500149,-1.347502,1.491198,-1.658022,0.4471657,1.362458,0.4079018,-1.699014,0.9405523,10.8,71.4,-0.03788087,-0.008044749,0.1055947,-0.4195086,0.7432726,1.863946,0.6124896,1.379916,0.3489771,-0.03955439,0.05977011,-0.01976322,-1.264306,0.5732177,0.1525555,0.7774464,1.36557,0.2582121,0.3518348,1.58136,0.2677639,336.8193,94.80236,151.5716,True
3,2.566666,-0.113971,0.001551871,-0.03291599,-1.347665,1.490911,-1.656661,0.4473133,1.362743,0.4075983,-1.687412,1.045488,10.8,71.4,-0.02505625,0.001519099,0.1130077,-0.4197174,0.7393653,1.867232,0.6125875,1.37998,0.3486788,-0.03006307,0.04274325,-0.02633924,-1.264813,0.5732076,0.1525126,0.7774385,1.365548,0.2580063,0.3490137,1.581383,0.2679083,336.2571,94.92582,151.6366,True
3,2.577777,-0.106524,0.01123012,-0.02233808,-1.348149,1.490999,-1.655755,0.4474549,1.362859,0.4073057,-1.676872,0.9473094,10.8,71.4,-0.001528643,0.02810082,0.1321418,-0.4191576,0.7335595,1.871769,0.6127883,1.379995,0.3483522,-0.02266898,0.03636008,-0.03072122,-1.265269,0.5734712,0.1524162,0.7774354,1.365529,0.2577317,0.3461607,1.581349,0.2681151,335.6525,95.05151,151.716,True
3,2.588888,-0.099077,0.0198259,-0.01388083,-1.348565,1.491116,-1.654898,0.4477629,1.362905,0.4070048,-1.665333,1.039713,10.8,71.4,0.02622419,0.05257875,0.1448514,-0.4183916,0.7277085,1.875906,0.6130344,1.379967,0.3480387,-0.01528637,0.03211189,-0.03616259,-1.265818,0.5738421,0.1522108,0.7775322,1.365529,0.2575183,0.3433194,1.581219,0.2683678,335.0274,95.17683,151.7952,True
3,2.599999,-0.08631942,0.04130711,0.007264059,-1.349819,1.491831,-1.654516,0.4480843,1.362753,0.4067523,-1.654595,0.9654787,10.8,71.3,0.06674922,0.0674912,0.1542552,-0.4178063,0.7220644,1.879042,0.6132931,1.379798,0.3477387,-0.00368287,0.03213158,-0.04484059,-1.266569,0.5743475,0.1516899,0.7775791,1.365496,0.257231,0.3405172,1.58108,0.2686103,334.3883,95.31899,151.857,True
3,2.61111,-0.08101732,0.05845728,0.02099434,-1.351059,1.492463,-1.653925,0.4483085,1.36277,0.4065092,-1.643632,0.9868746,10.8,71.3,0.09332877,0.07074666,0.1455887,-0.4172886,0.7182652,1.880621,0.6135761,1.379622,0.3474548,0.006947892,0.02360751,-0.04607643,-1.267071,0.5744709,0.1512588,0.7776223,1.365477,0.2567952,0.3378101,1.580849,0.2688448,333.7533,95.43864,151.9183,True
3,2.622221,-0.0767759,0.07886417,0.04428991,-1.352728,1.493657,-1.653491,0.4485641,1.362702,0.4063072,-1.633038,0.953003,10.8,71.3,0.1252795,0.06757842,0.1443269,-0.4171639,0.7141515,1.881994,0.6139129,1.379384,0.3473201,0.03161545,0.004365047,-0.03262083,-1.267046,0.5738052,0.1503093,0.7776406,1.365395,0.256443,0.3352457,1.58047,0.2690695,333.1155,95.54515,151.9689,True
3,2.633332,-0.07894008,0.1024137,0.06224815,-1.354678,1.494794,-1.652831,0.4487256,1.362752,0.4060438,-1.622054,0.9890751,10.8,71.3,0.1273277,-0.02925561,0.1162655,-0.420625,0.7159816,1.878817,0.6142284,1.379278,0.3472035,0.05748714,-0.017051,-0.00852973,-1.26643,0.5726699,0.14919,0.777594,1.36526,0.2560816,0.3328337,1.579966,0.2693036,332.5184,95.6102,152.011,True
3,2.644443,-0.08322644,0.1173431,0.06641454,-1.35644,1.495416,-1.652037,0.4488238,1.362697,0.4058173,-1.611346,0.9635676,8.4,64.9,0.1070057,-0.07287308,0.09598351,-0.4229739,0.7168393,1.877612,0.6143514,1.379148,0.3470018,0.06600789,-0.0298459,-0.007620141,-1.266599,0.571943,0.1485237,0.777599,1.365179,0.2557008,0.3305191,1.579501,0.269535,331.9679,95.65203,152.0434,True
3,2.655554,-0.08746687,0.1055641,0.05904175,-1.357322,1.4958,-1.651026,0.4490533,1.362778,0.4055843,-1.600529,0.9738307,8.4,64.9,0.1005121,-0.04726107,0.08226554,-0.4228434,0.7156202,1.877823,0.6145587,1.379116,0.3467185,0.06461826,-0.04361388,-0.03108731,-1.267903,0.5711202,0.1480939,0.7776769,1.365176,0.255296,0.3282767,1.579112,0.2697884,331.4379,95.65403,152.0956,True
3,2.666665,-0.09064135,0.09053704,0.04316334,-1.357776,1.495643,-1.649952,0.4492638,1.362852,0.4053667,-1.589974,0.9498292,8.4,64.9,0.09623484,-0.01744114,0.08345368,-0.422111,0.7127373,1.879523,0.6148046,1.379113,0.3464236,0.06433947,-0.04993688,-0.05134792,-1.269302,0.5705711,0.1476518,0.7778589,1.365199,0.2549071,0.3260575,1.578852,0.2700697,330.9476,95.64629,152.185,True
3,2.677776,-0.09481778,0.04454253,0.01684108,-1.356687,1.495017,-1.648611,0.4495597,1.36308,0.4051044,-1.579385,0.9532312,8.4,64.9,0.1026298,0.03367089,0.09105886,-0.4204727,0.7082288,1.882293,0.6150095,1.379191,0.3460944,0.06447978,-0.05210378,-0.04070324,-1.269526,0.5699309,0.1471301,0.7779257,1.365215,0.2545345,0.3238387,1.578609,0.2704,330.4815,95.66628,152.2914,True
3,2.688887,-0.09156753,0.01352504,-0.003198764,-1.355762,1.494393,-1.647617,0.4498521,1.363371,0.4049203,-1.569072,0.9280092,8.4,64.9,0.09743966,0.03677122,0.1145412,-0.4207848,0.7030123,1.886122,0.6152541,1.379165,0.3458076,0.05824273,-0.0563997,-0.02891498,-1.269474,0.5691552,0.1469157,0.7779958,1.365095,0.2541068,0.3216138,1.578342,0.2707439,329.9943,95.73367,152.3926,True
3,2.699998,-0.09573352,-0.03565822,-0.02843451,-1.353495,1.493318,-1.646157,0.4501261,1.363783,0.4046412,-1.55862,0.9409627,9.6,88.8,0.08036679,0.04103401,0.1103959,-0.4205552,0.700013,1.88855,0.6154464,1.379177,0.3454814,0.04150699,-0.04580945,-0.006282177,-1.268754,0.5688986,0.1471343,0.7780294,1.365112,0.2537458,0.3193785,1.578002,0.2710585,329.5046,95.85114,152.4774,True
3,2.711109,-0.09668286,-0.09767112,-0.06210703,-1.350418,1.491872,-1.644685,0.4503551,1.364256,0.404407,-1.548702,0.8920031,9.6,88.8,0.0664284,0.04107749,0.09555938,-0.4203928,0.6988474,1.889425,0.6157384,1.379308,0.3451982,0.03523134,-0.02878613,0.001318344,-1.268458,0.5691475,0.1468848,0.7780195,1.365093,0.2533581,0.3171291,1.5776,0.271256,328.9992,96.03241,152.5009,True
3,2.72222,-0.09449725,-0.1190321,-0.07265088,-1.348539,1.490459,-1.643574,0.4505957,1.36448,0.4044785,-1.538157,0.9498376,9.6,88.8,0.07623626,0.04201619,0.1327845,-0.4207368,0.692291,1.89413,0.6159723,1.379409,0.3449206,0.03844283,-0.02346555,0.00235422,-1.268504,0.5690727,0.1463695,0.7781034,1.365103,0.2529712,0.314861,1.577159,0.2713068,328.4987,96.23895,152.4537,True
3,2.733331,-0.09550863,-0.1457514,-0.08525617,-1.345975,1.489239,-1.642229,0.4508827,1.364972,0.4042509,-1.528007,0.9131364,9.6,88.8,0.06990105,0.04197636,0.1424095,-0.4209329,0.6875474,1.897887,0.6161927,1.37947,0.344593,0.03414811,-0.03091242,0.0002518371,-1.268719,0.5684534,0.1462778,0.7781215,1.365096,0.2526271,0.3125556,1.576693,0.2711543,328.0201,96.50237,152.3447,True
3,2.744442,-0.09976123,-0.1691788,-0.08726234,-1.343564,1.487598,-1.640916,0.4511583,1.365318,0.4040565,-1.518217,0.8805631,8.4,84.8,0.06665345,0.04520921,0.1328465,-0.4205994,0.6846296,1.899845,0.6163033,1.379481,0.344363,0.029942,-0.03624937,0.004542938,-1.26874,0.567844,0.1462459,0.7781602,1.365085,0.252286,0.3102258,1.576123,0.2708168,327.5678,96.83842,152.0746,True
3,2.755553,-0.09967925,-0.1809817,-0.0946424,-1.340833,1.486684,-1.63945,0.4514263,1.365835,0.4038007,-1.507837,0.9349129,8.4,84.8,0.05388264,0.04519117,0.1350523,-0.4206229,0.6806425,1.903325,0.6165181,1.379599,0.3440583,0.01076744,-0.03729913,0.004795163,-1.268744,0.5673818,0.1469388,0.7782207,1.365084,0.2519081,0.3078883,1.5754,0.2704448,327.0991,97.17122,151.7032,True
3,2.766664,-0.1060434,-0.1852171,-0.08931287,-1.338661,1.485465,-1.637902,0.4517252,1.36643,0.4035981,-1.497681,0.9135929,8.4,84.8,0.04013231,0.04194099,0.1500258,-0.4208716,0.6754496,1.907959,0.6167459,1.379874,0.3437791,-0.0009574685,-0.04794206,0.004911815,-1.268845,0.5664929,0.147553,0.7783183,1.36522,0.2515795,0.3055104,1.574687,0.2700538,326.5906,97.50272,151.384,True
3,2.777775,-0.1145773,-0.1809793,-0.08932857,-1.336681,1.48453,-1.636088,0.452033,1.366954,0.4032865,-1.487035,0.9586884,8.4,84.8,0.02945405,0.05046628,0.1469236,-0.4205952,0.6711969,1.911883,0.6169643,1.379958,0.3434129,-0.004125468,-0.04901206,0.00708107,-1.268794,0.5658556,0.1479104,0.7783704,1.365239,0.2512143,0.3031092,1.573965,0.2696856,326.078,97.8469,151.0945,True
3,2.788886,-0.1188546,-0.1767426,-0.09041023,-1.33472,1.483678,-1.634412,0.4523838,1.367581,0.4027793,-1.476566,0.9419783,8.4,84.8,0.03160289,0.0611013,0.1512125,-0.4202324,0.6662041,1.91589,0.6172782,1.379898,0.3425393,-0.005205123,-0.04794164,0.006028736,-1.268903,0.5653678,0.1481317,0.7784852,1.365225,0.2508435,0.3006847,1.57333,0.2693243,325.5316,98.17327,150.8258,True
3,2.799997,-0.1252365,-0.1821075,-0.09356131,-1.332433,1.482641,-1.632541,0.4526996,1.368149,0.4024339,-1.46576,0.9730173,13.5,89.7,0.02215326,0.04503706,0.1725163,-0.4212077,0.6600581,1.921575,0.6175565,1.380054,0.3421412,0.001298256,-0.03305813,0.0134505,-1.268479,0.5654624,0.1478622,0.7785527,1.365231,0.2504668,0.2982702,1.572807,0.2690062,324.9802,98.5019,150.557,True
3,2.811108,-0.1326915,-0.182108,-0.09035656,-1.330337,1.481817,-1.630607,0.4529127,1.368766,0.4018981,-1.45531,0.9400935,13.5,89.7,0.01045585,0.04185586,0.1768713,-0.4213227,0.65332,1.928179,0.6181083,1.379465,0.3408272,-0.00190399,-0.02559358,0.01245385,-1.268362,0.5654474,0.1479484,0.7785625,1.365359,0.2501068,0.2959164,1.572371,0.2687462,324.423,98.79315,150.3699,True
3,2.822219,-0.1412227,-0.1757023,-0.08506256,-1.328565,1.4811,-1.62856,0.4531789,1.369547,0.4015973,-1.44459,0.9650861,13.5,89.7,0.008383691,0.06097838,0.1875896,-0.4210314,0.647229,1.933558,0.6181415,1.380178,0.341218,-0.0158577,-0.03514455,0.005146346,-1.268739,0.5647172,0.1487932,0.7786155,1.365394,0.2497773,0.2936552,1.571999,0.2685077,323.8965,99.0694,150.2433,True
3,2.83333,-0.1550606,-0.17676,-0.0786409,-1.326537,1.480538,-1.626192,0.4534279,1.370195,0.4012272,-1.433707,0.9795702,13.5,89.7,-0.002356872,0.05036684,0.1716336,-0.4213909,0.6438918,1.936983,0.6184559,1.380328,0.3409555,-0.01570095,-0.04477202,0.01789724,-1.268251,0.5638143,0.1493258,0.778662,1.365409,0.249408,0.2914888,1.571614,0.2682772,323.4377,99.33955,150.1153,True
3,2.844441,-0.1625342,-0.1736133,-0.08290759,-1.324664,1.479589,-1.623925,0.4537901,1.370963,0.4008322,-1.422646,0.9955676,10.8,89.2,-0.02573445,0.009838276,0.1758811,-0.4234921,0.6406704,1.940913,0.6186576,1.380863,0.340744,-0.009222102,-0.04160495,0.0242115,-1.267854,0.5633618,0.149321,0.7787383,1.365427,0.2490103,0.2893522,1.571272,0.2680125,323.0035,99.5895,149.9676,True
3,2.855552,-0.1763778,-0.1790196,-0.08924346,-1.322417,1.478502,-1.621273,0.4541387,1.371702,0.4003832,-1.411234,1.027528,10.8,89.2,-0.03955576,0.01513444,0.1813085,-0.4240216,0.6354659,1.946546,0.6188936,1.381143,0.3402684,-0.01897859,-0.04048851,0.01156069,-1.26816,0.5629883,0.1499256,0.7788305,1.365507,0.2485409,0.2872218,1.570978,0.2677469,322.5599,99.8441,149.7624,True
3,2.866663,-0.1838331,-0.1854516,-0.09345035,-1.320208,1.477384,-1.618629,0.4544381,1.37235,0.3999534,-1.40024,0.9889189,10.8,89.2,-0.04270589,0.03426941,0.1909828,-0.42393,0.6290387,1.952855,0.6192424,1.381418,0.3397062,-0.03183595,-0.03939379,0.006406371,-1.268397,0.5626256,0.1508843,0.7788688,1.365567,0.2480662,0.2851066,1.570671,0.2674961,322.0985,100.1076,149.5697,True
3,2.877774,-0.1934098,-0.1929768,-0.09977839,-1.317737,1.476132,-1.615848,0.4547197,1.373134,0.3994684,-1.388661,1.042739,10.8,89.2,-0.03948827,0.07897957,0.2007129,-0.4226639,0.6209747,1.960521,0.6194617,1.381759,0.3391693,-0.05089585,-0.03940744,0.01518389,-1.268026,0.5621001,0.1522359,0.7789496,1.365657,0.2475765,0.2830028,1.57036,0.2672598,321.6285,100.4108,149.3737,True
3,2.888885,-0.1944636,-0.2004689,-0.1050522,-1.31528,1.474886,-1.613336,0.4549743,1.373927,0.3990417,-1.377173,1.033627,10.8,89.2,-0.04802869,0.0992071,0.2008329,-0.4219608,0.614615,1.967124,0.6197593,1.382053,0.3385279,-0.06766576,-0.0341309,0.03566808,-1.266986,0.5617937,0.1536034,0.778965,1.365603,0.2470913,0.2809089,1.570007,0.2670304,321.1772,100.7299,149.1836,True
3,2.899997,-0.1966235,-0.1930435,-0.1093605,-1.313353,1.473559,-1.610693,0.4553276,1.374702,0.398525,-1.36541,1.058799,5.4,82.9,-0.06400418,0.08641468,0.1998155,-0.4223246,0.6091639,1.973357,0.6200054,1.382384,0.3379703,-0.08135271,-0.03309786,0.04757402,-1.26616,0.5612493,0.1549986,0.7789899,1.36567,0.2465863,0.2787995,1.569595,0.2667997,320.7458,101.0437,148.9925,True
3,2.911108,-0.1934451,-0.1888029,-0.1136565,-1.311325,1.472168,-1.608311,0.4556478,1.375536,0.3979895,-1.353817,1.04294,5.4,82.9,-0.08422347,0.07573624,0.202029,-0.4229909,0.6036531,1.980003,0.6201301,1.38263,0.3372722,-0.09092372,-0.0298981,0.04877088,-1.265732,0.560946,0.1564144,0.77907,1.365758,0.2461629,0.2766181,1.569179,0.2665407,320.3061,101.3806,148.7706,True
3,2.922219,-0.1945425,-0.1781381,-0.1115942,-1.309657,1.471037,-1.605724,0.4559463,1.376327,0.3974557,-1.341715,1.089464,5.4,82.9,-0.09704592,0.07894231,0.1967905,-0.4228104,0.5979879,1.986709,0.6203874,1.382963,0.3365991,-0.1079719,-0.02136024,0.04796341,-1.265248,0.5608824,0.1581646,0.779184,1.365788,0.2456896,0.2743539,1.568733,0.2662739,319.8392,101.7358,148.5115,True
3,2.93333,-0.1924181,-0.1781605,-0.1158585,-1.307587,1.4696,-1.60326,0.456229,1.377207,0.3968809,-1.329808,1.071159,5.4,82.9,-0.1183649,0.06402653,0.192601,-0.4234586,0.5935755,1.992781,0.6205619,1.383406,0.3358419,-0.1272519,-0.00533494,0.03974559,-1.265078,0.5613585,0.1601524,0.7793449,1.365811,0.2450588,0.2720165,1.568262,0.2660265,319.3206,102.1093,148.2443,True
3,2.944441,-0.1903085,-0.1739123,-0.1190826,-1.305813,1.468223,-1.600791,0.4564863,1.378119,0.3964224,-1.31727,1.129038,5.4,82.9,-0.1108586,0.07891066,0.2032575,-0.4232232,0.586534,2.000147,0.6208165,1.383874,0.3350868,-0.1466731,0.006463759,0.02086052,-1.265509,0.5618879,0.1622358,0.7794641,1.365845,0.2444768,0.269614,1.567768,0.2658172,318.786,102.4935,147.9788,True
3,2.955552,-0.1945912,-0.1729433,-0.1318667,-1.303849,1.466284,-1.598011,0.4567844,1.379104,0.3957946,-1.305043,1.099957,7.2,79.7,-0.09458248,0.1404984,0.2619772,-0.4219502,0.5718488,2.01399,0.6210234,1.384296,0.33424,-0.176629,0.02037197,0.01065391,-1.265692,0.5626637,0.1649621,0.7795358,1.365885,0.243886,0.2671593,1.567257,0.2656558,318.2325,102.8698,147.7352,True
3,2.966663,-0.195657,-0.1751072,-0.136109,-1.301786,1.464715,-1.595389,0.4571874,1.380043,0.3951919,-1.292559,1.123713,7.2,79.7,-0.1072675,0.1308485,0.2779933,-0.4224583,0.5630612,2.023657,0.6212874,1.384602,0.333452,-0.1700765,0.0224585,0.02229067,-1.265016,0.562833,0.1664601,0.7795898,1.365918,0.2432816,0.2646546,1.566744,0.2655334,317.6839,103.2815,147.4689,True
3,2.977774,-0.1988623,-0.1762377,-0.1446195,-1.299782,1.462826,-1.592611,0.457552,1.381061,0.3945599,-1.279833,1.145557,7.2,79.7,-0.1103373,0.1382222,0.3004098,-0.4226778,0.5523423,2.034792,0.6215595,1.384959,0.3326805,-0.1580175,0.02342584,0.04770325,-1.26361,0.562888,0.1677528,0.7795796,1.36595,0.2426977,0.262107,1.566247,0.2654697,317.1263,103.7098,147.185,True
3,2.988885,-0.2063032,-0.1826676,-0.1466963,-1.297481,1.461158,-1.589677,0.4578145,1.382012,0.3939338,-1.267263,1.131137,7.2,79.7,-0.1145922,0.1265027,0.300395,-0.4232519,0.5442473,2.04357,0.621746,1.385268,0.3317957,-0.1589515,0.03191209,0.05732717,-1.262656,0.5632965,0.1694045,0.7796451,1.366055,0.2420542,0.2595447,1.565775,0.2654583,316.544,104.1736,146.9128,True
3,2.999996,-0.2169499,-0.1912964,-0.1583421,-1.295045,1.458958,-1.586299,0.4581979,1.383105,0.3932447,-1.254537,1.145447,5.7,70,-0.1091247,0.1274797,0.3248713,-0.4240264,0.5334026,2.054547,0.6219569,1.385619,0.3309832,-0.1662573,0.04147834,0.06810691,-1.261412,0.5639027,0.1713566,0.7796739,1.366139,0.2414176,0.2570425,1.565278,0.265489,315.9476,104.6391,146.6588,True
3,3.011107,-0.2403387,-0.2159529,-0.1709336,-1.291739,1.456566,-1.582212,0.4586266,1.384274,0.3924592,-1.241615,1.163286,5.7,70,-0.1144274,0.1274653,0.3280983,-0.4244722,0.5237359,2.064709,0.6222767,1.386099,0.33008,-0.1662137,0.04571354,0.07131668,-1.260516,0.5643404,0.1730575,0.7798004,1.366245,0.2407422,0.2545956,1.564792,0.2655305,315.3889,105.103,146.412,True
3,3.022218,-0.2499097,-0.2288399,-0.182553,-1.288785,1.454144,-1.578467,0.4591187,1.385364,0.3917751,-1.228575,1.17383,5.7,70,-0.1239242,0.121013,0.3441064,-0.425489,0.5134024,2.075954,0.6226793,1.386517,0.3292618,-0.1576196,0.02757278,0.07753284,-1.259549,0.5638156,0.1746488,0.7799346,1.366309,0.2400529,0.2521968,1.564312,0.2655499,314.8635,105.5614,146.1688,True
3,3.033329,-0.2572975,-0.2587644,-0.194062,-1.284954,1.451585,-1.57474,0.4596193,1.38652,0.391057,-1.215183,1.20597,5.7,70,-0.1303314,0.1167584,0.3409328,-0.4262837,0.5043301,2.085878,0.6230359,1.386939,0.328464,-0.1512516,0.0009378716,0.0773584,-1.258836,0.5628235,0.1764286,0.7800128,1.366307,0.2393024,0.2498398,1.563885,0.265508,314.3358,106.0878,145.8772,True
3,3.04444,-0.2593664,-0.2865231,-0.2023919,-1.281003,1.449108,-1.571094,0.4601435,1.387695,0.3903947,-1.202889,1.105501,5.7,70,-0.1355755,0.1156574,0.3527464,-0.4274959,0.4915769,2.098979,0.6239018,1.386663,0.3266213,-0.1566199,-0.01182859,0.07525973,-1.258111,0.5622341,0.178561,0.7801698,1.366324,0.2385762,0.2475778,1.563509,0.2653644,313.8111,106.6911,145.5101,True
3,3.055551,-0.2614629,-0.3047092,-0.2129214,-1.277045,1.44628,-1.567332,0.4606667,1.388845,0.389714,-1.190504,1.114788,4.2,72.7,-0.1494724,0.1295184,0.3464867,-0.4277047,0.4817205,2.110098,0.6243208,1.387002,0.3256686,-0.1642604,-0.02882591,0.0625176,-1.25801,0.561281,0.1809139,0.7803733,1.366348,0.2378731,0.2454916,1.563121,0.2651463,313.3367,107.2976,145.0894,True
3,3.066662,-0.2614253,-0.3239479,-0.2213098,-1.272748,1.443497,-1.563593,0.4612058,1.389989,0.3890297,-1.178143,1.112445,4.2,72.7,-0.1494505,0.1305961,0.3454865,-0.4286672,0.4702511,2.121861,0.6249827,1.386974,0.3244958,-0.1686528,-0.03091306,0.05298147,-1.257817,0.5609455,0.1830644,0.7805815,1.366413,0.2371924,0.2435694,1.562708,0.2648553,312.9312,107.9111,144.635,True
3,3.077773,-0.258232,-0.3347207,-0.2404123,-1.265106,1.437309,-1.556097,0.4622817,1.392071,0.387779,-1.16576,1.11446,4.2,72.7,-0.1397571,0.1486116,0.3667414,-0.4301985,0.4495372,2.143533,0.6254909,1.388294,0.3232422,-0.1592167,-0.02128853,0.04117287,-1.257218,0.5607055,0.1864263,0.780816,1.366443,0.2358701,0.2417691,1.562268,0.2645099,312.5782,108.5237,144.1468,True
3,3.088884,-0.2603991,-0.3219504,-0.2415593,-1.262054,1.434402,-1.552281,0.4628237,1.39308,0.3872249,-1.150674,1.361738,2.4,59.1,-0.1086605,0.1698062,0.4039214,-0.4310619,0.4345435,2.157315,0.6259099,1.388608,0.3224268,-0.1560683,-0.0266066,0.03791657,-1.257014,0.5601555,0.1882035,0.780946,1.366467,0.235173,0.2399803,1.561913,0.2640854,312.2005,109.2801,143.6102,True
3,3.099995,-0.2603991,-0.3219504,-0.2415593,-1.262054,1.434402,-1.552281,0.4628237,1.39308,0.3872249,-1.141228,0.8439438,2.4,59.1,-0.1086605,0.1698062,0.4039214,-0.4310619,0.4345435,2.157315,0.6259099,1.388608,0.3224268,-0.1560683,-0.0266066,0.03791657,-1.257014,0.5601555,0.1882035,0.780946,1.366467,0.235173,0.2382108,1.561876,0.2634452,311.8025,110.4341,142.7628,True
3,3.111106,-0.2679429,-0.2824186,-0.2215591,-1.257179,1.429882,-1.544659,0.4639115,1.395023,0.386235,-1.132113,0.8183669,2.4,59.1,-0.06832802,0.141182,0.3737268,-0.4334215,0.4174829,2.173069,0.6266604,1.389676,0.3216879,-0.1482984,-0.03841649,0.06228381,-1.255145,0.5584763,0.1918589,0.7810974,1.366563,0.2336872,0.2367865,1.56165,0.2629213,311.6495,110.9636,142.1391,True
3,3.122217,-0.279741,-0.2460916,-0.2004585,-1.255732,1.42851,-1.54053,0.464606,1.395808,0.3857691,-1.114168,1.625416,2.4,59.1,-0.06101197,0.09443283,0.3447402,-0.4353246,0.4131974,2.177579,0.6271629,1.390298,0.3211908,-0.137472,-0.04698898,0.07596807,-1.253889,0.5574238,0.193346,0.7812504,1.366557,0.232914,0.2354696,1.560997,0.2627705,311.5356,111.0092,141.9356,True
3,3.133328,-0.2787015,-0.2300588,-0.1920409,-1.253673,1.426519,-1.536919,0.4651817,1.396747,0.3852139,-1.104185,0.8906164,2.4,59.1,-0.060087,0.06682938,0.3180059,-0.4371099,0.4082775,2.182759,0.6277004,1.390594,0.3205538,-0.1300955,-0.05870194,0.07050268,-1.253552,0.5561513,0.1949298,0.7815007,1.36651,0.2321434,0.2338188,1.560621,0.2627276,311.1161,111.8573,141.3341,True
3,3.144439,-0.2734181,-0.2108351,-0.1857849,-1.25191,1.42448,-1.533449,0.465921,1.397698,0.3844156,-1.092237,1.077639,2.4,59.1,-0.0601151,0.05937068,0.3200791,-0.4384889,0.4012866,2.190274,0.628094,1.391064,0.3191638,-0.1283837,-0.08310381,0.04056554,-1.254411,0.5544615,0.1968406,0.7817475,1.366528,0.2313762,0.2322092,1.56029,0.2628924,310.6501,112.5294,140.8489,True
3,3.15555,-0.2648952,-0.2097571,-0.185803,-1.249466,1.422167,-1.530097,0.4664882,1.398831,0.3836343,-1.081167,0.9950783,2.4,59.1,-0.04616576,0.1029522,0.3457006,-0.4391212,0.389256,2.201352,0.6285535,1.391382,0.3183277,-0.1222219,-0.1000967,0.02443862,-1.255076,0.5528275,0.1985488,0.781967,1.366476,0.2305858,0.2307316,1.559937,0.2632551,310.165,112.9562,140.6241,True
3,3.166661,-0.2659373,-0.2182821,-0.1857446,-1.246827,1.419854,-1.526332,0.4671459,1.399751,0.3830726,-1.069727,1.029863,2.4,59.1,-0.03542325,0.1316539,0.3649178,-0.4399531,0.3767802,2.212683,0.6290386,1.391743,0.3175969,-0.1107287,-0.1128354,0.00826104,-1.255924,0.5511168,0.1999184,0.7822034,1.366456,0.2298789,0.2293061,1.559609,0.2637088,309.7466,113.3861,140.4958,True
3,3.177772,-0.2659373,-0.2182821,-0.1857446,-1.246827,1.419854,-1.526332,0.4671459,1.399751,0.3830726,-1.05832,1.026468,2.4,59.1,-0.03542325,0.1316539,0.3649178,-0.4399531,0.3767802,2.212683,0.6290386,1.391743,0.3175969,-0.1107287,-0.1128354,0.00826104,-1.255924,0.5511168,0.1999184,0.7822034,1.366456,0.2298789,0.2278949,1.559313,0.2641464,309.342,113.8631,140.3686,True
3,3.188883,-0.2648197,-0.2417917,-0.196242,-1.24332,1.416995,-1.522501,0.4678245,1.400735,0.3825216,-1.049313,0.8070323,2.4,59.1,-0.03875357,0.1359787,0.3446999,-0.4405939,0.3692385,2.220233,0.6296228,1.391708,0.3170447,-0.101059,-0.1117972,0.01452237,-1.255768,0.5498777,0.2011464,0.782423,1.366397,0.2291582,0.2264774,1.558957,0.2645392,309.0698,114.2703,140.1866,True
3,3.199994,-0.263692,-0.2695462,-0.2045792,-1.239447,1.414104,-1.518661,0.4685451,1.401565,0.3819752,-1.03505,1.289759,2.4,59.1,-0.03349406,0.1338949,0.332943,-0.4414584,0.3610589,2.227847,0.6300595,1.391942,0.316432,-0.09775601,-0.1022393,0.0219656,-1.255456,0.5489414,0.2024503,0.7826474,1.366345,0.2284567,0.2250601,1.558143,0.2650524,308.878,114.3655,140.1442,True
3,3.211105,-0.2593782,-0.2919619,-0.2129591,-1.23559,1.411094,-1.514965,0.4692181,1.402455,0.3815145,-1.023577,1.030419,1.5,52.6,-0.02186716,0.1212168,0.3179483,-0.4425178,0.3525651,2.235604,0.6308941,1.391438,0.3151236,-0.09777996,-0.09902842,0.01983695,-1.255625,0.548004,0.2038189,0.7828529,1.366315,0.2277932,0.2233858,1.557171,0.2655512,308.4415,114.9831,139.7583,True
3,3.222216,-0.2551139,-0.3003912,-0.2172223,-1.233474,1.407333,-1.511187,0.4698613,1.403476,0.3813291,-1.012637,0.9845505,1.5,52.6,0.003535002,0.08191767,0.281408,-0.4441684,0.3512118,2.235673,0.6313951,1.392003,0.3149087,-0.0923416,-0.09906337,0.02828116,-1.255382,0.5467053,0.2050823,0.7830956,1.366265,0.2270651,0.2215892,1.55616,0.2659706,307.908,115.9748,139.0683,True
3,3.233327,-0.2401695,-0.3109969,-0.2161088,-1.229781,1.404569,-1.508115,0.4706382,1.404227,0.3808587,-1.002026,0.9546943,1.5,52.6,0.007799327,0.06168826,0.2791792,-0.4460411,0.3457278,2.240399,0.6319615,1.392221,0.3142829,-0.08700129,-0.09907159,0.02927534,-1.255251,0.5455018,0.2062216,0.7833461,1.366237,0.2263556,0.2198607,1.555134,0.2662986,307.3922,116.9929,138.3043,True
3,3.244438,-0.228468,-0.3045295,-0.2119208,-1.226986,1.401848,-1.505092,0.4714423,1.40494,0.380249,-0.9915109,0.9462741,1.5,52.6,0.01206976,0.06062235,0.2791457,-0.447508,0.3391407,2.246019,0.6325287,1.392541,0.3140304,-0.08167659,-0.1044038,0.02918414,-1.25526,0.5440391,0.2073702,0.7836794,1.366192,0.2256002,0.218241,1.554208,0.2665673,306.9612,117.9478,137.4739,True
3,3.255549,-0.2103841,-0.2905834,-0.2045825,-1.224354,1.39947,-1.502576,0.4722446,1.405617,0.3797717,-0.9812763,0.9206851,0.6,42.3,0.001343161,0.09153791,0.2707972,-0.4476358,0.3312354,2.253495,0.6331158,1.392707,0.3133688,-0.08166041,-0.1182598,0.03126745,-1.255214,0.5420899,0.2088936,0.7840174,1.366167,0.2248564,0.2167717,1.553469,0.266934,306.6026,118.7784,136.6998,True
3,3.26666,-0.1944585,-0.2681151,-0.1962321,-1.222229,1.397233,-1.500059,0.4730501,1.406099,0.3793008,-0.9707712,0.9455751,0.6,42.3,0.001447439,0.1159623,0.2921821,-0.4484657,0.321252,2.262522,0.6337517,1.39282,0.3128223,-0.08385354,-0.1320937,0.02805095,-1.255461,0.540091,0.210639,0.7843567,1.366133,0.224123,0.2155781,1.552741,0.2674158,306.2962,119.4549,136.2271,True
3,3.277771,-0.1795954,-0.2445951,-0.1889474,-1.220337,1.395171,-1.49782,0.4737435,1.406659,0.3788695,-0.9607583,0.9006679,0.6,42.3,0.0067963,0.1212738,0.2964339,-0.4495949,0.3129036,2.269734,0.6343485,1.392936,0.3122556,-0.07436775,-0.1501897,0.02147066,-1.255951,0.537684,0.2118656,0.7846705,1.366081,0.2234008,0.2145973,1.552016,0.2679376,306.0026,120.0379,135.9193,True
3,3.288882,-0.1721775,-0.2253858,-0.1837546,-1.21832,1.3931,-1.495399,0.4744235,1.407259,0.3784437,-0.9505099,0.9227019,0.6,42.3,0.02272403,0.1096132,0.2888417,-0.4506686,0.3062457,2.27515,0.6350993,1.392721,0.3111217,-0.06482862,-0.1565755,0.01812572,-1.25627,0.5357423,0.2128534,0.7850168,1.366082,0.2226961,0.2137735,1.55125,0.2684667,305.7453,120.5534,135.6477,True
3,3.299993,-0.1615863,-0.1932965,-0.1679997,-1.217339,1.391676,-1.493471,0.4750814,1.407682,0.3780799,-0.9406306,0.8888122,0.6,42.3,0.03847408,0.099117,0.2482312,-0.4509925,0.3028033,2.277306,0.6355561,1.392776,0.3105664,-0.0573484,-0.1469998,0.01912301,-1.256294,0.5343723,0.2136388,0.7853048,1.366045,0.2219908,0.2130121,1.550431,0.2689944,305.5045,121.0249,135.3716,True
3,3.311104,-0.1541919,-0.1590768,-0.1501223,-1.216646,1.390558,-1.491626,0.4757193,1.408014,0.3776915,-0.9305261,0.9097685,1.2,41.8,0.05747049,0.07582313,0.2118133,-0.4516774,0.3008744,2.277599,0.6360258,1.3931,0.3102198,-0.05405969,-0.1342372,0.02550643,-1.256125,0.5332672,0.214499,0.7855966,1.365969,0.2212248,0.2121701,1.549617,0.2695162,305.2571,121.5098,135.0492,True
3,3.322215,-0.1509976,-0.1536877,-0.1416374,-1.215156,1.389074,-1.489521,0.4764588,1.40842,0.3772831,-0.9209541,0.8610039,1.2,41.8,0.07347161,0.06091557,0.2127375,-0.4532338,0.2961736,2.280512,0.6365615,1.393108,0.3098295,-0.05495807,-0.1236255,0.03727397,-1.255547,0.5319957,0.2155304,0.7859555,1.365914,0.220474,0.2112177,1.548795,0.2700462,304.9721,122.0354,134.6758,True
3,3.333326,-0.1329065,-0.146182,-0.1417263,-1.213956,1.387088,-1.488034,0.4771623,1.408664,0.3768046,-0.9113668,0.8630481,1.2,41.8,0.0851565,0.07159305,0.208446,-0.4537723,0.2906882,2.284163,0.6371528,1.393179,0.3093023,-0.05572536,-0.1343532,0.06068461,-1.254493,0.5298706,0.2169094,0.7864475,1.365863,0.2196035,0.2102189,1.547896,0.2706174,304.631,122.5002,134.3535,True
3,3.344437,-0.1232967,-0.1503671,-0.1352814,-1.2124,1.386109,-1.486579,0.4778766,1.409062,0.3767066,-0.9018528,0.8564243,1.2,41.8,0.08836845,0.08329971,0.204219,-0.4545393,0.2852158,2.287358,0.6378142,1.393287,0.3091853,-0.0482573,-0.1492821,0.06267082,-1.254188,0.5274705,0.2179664,0.7868242,1.365778,0.2187707,0.2092111,1.546884,0.2712212,304.2505,122.9843,134.047,True
3,3.355548,-0.1030277,-0.1631241,-0.1394877,-1.210319,1.384115,-1.485425,0.4786201,1.409347,0.3763392,-0.893432,0.7566784,0.6,38.7,0.09047629,0.08012077,0.1999339,-0.4552908,0.2804921,2.290533,0.6384072,1.393351,0.3087242,-0.03774048,-0.1737635,0.05392437,-1.254498,0.5245842,0.2189169,0.7872211,1.365731,0.2180202,0.2082299,1.545762,0.2718218,303.8773,123.6024,133.6467,True
3,3.366659,-0.08806251,-0.1790503,-0.1351121,-1.20773,1.382924,-1.484475,0.4792417,1.409611,0.3758349,-0.8841375,0.8374481,0.6,38.7,0.08615167,0.07803626,0.1850633,-0.4559241,0.2761531,2.293306,0.6389234,1.393285,0.3078854,-0.03357916,-0.1833317,0.04745121,-1.254634,0.5221488,0.2200016,0.7875218,1.365707,0.2172079,0.2072985,1.544524,0.2724339,303.5446,124.2483,133.1623,True
3,3.37777,-0.05280711,-0.2086969,-0.1200409,-1.202443,1.380195,-1.483177,0.4805545,1.4101,0.3749719,-0.8758088,0.7484741,0.6,38.7,0.07632657,0.0920376,0.1446947,-0.4552088,0.2689945,2.298339,0.6400534,1.393373,0.3067997,-0.0282324,-0.1790787,0.05059991,-1.254298,0.5180326,0.2221369,0.7881874,1.36551,0.2156062,0.2064007,1.543216,0.2730792,303.2008,124.896,132.6308,True
3,3.388881,-0.046369,-0.2235743,-0.1167528,-1.199604,1.378669,-1.482294,0.4812593,1.410349,0.3745961,-0.8667077,0.8200216,0.6,38.7,0.08802933,0.07075845,0.1402877,-0.4561436,0.2664671,2.299285,0.6406146,1.393375,0.3063002,-0.00989287,-0.1610439,0.06639564,-1.253348,0.5164796,0.2220858,0.7885656,1.365389,0.2148767,0.205567,1.541808,0.2737297,302.8602,125.6788,132.0999,True
3,3.399992,-0.046369,-0.2235743,-0.1167528,-1.199604,1.378669,-1.482294,0.4812593,1.410349,0.3745961,-0.8587586,0.714168,0.6,38.7,0.08802933,0.07075845,0.1402877,-0.4561436,0.2664671,2.299285,0.6406146,1.393375,0.3063002,-0.00989287,-0.1610439,0.06639564,-1.253348,0.5164796,0.2220858,0.7885656,1.365389,0.2148767,0.2048617,1.540285,0.2742489,302.5438,126.681,131.4535,True
3,3.411103,-0.03033149,-0.2491498,-0.1229961,-1.19344,1.37492,-1.480659,0.4826545,1.410897,0.3735909,-0.850464,0.7468835,1.2,38.5,0.09541164,0.07296279,0.1274851,-0.4564653,0.258798,2.303897,0.6417972,1.393396,0.3048558,-0.0003408343,-0.154624,0.06524486,-1.252382,0.5132272,0.2232168,0.7893918,1.364857,0.213161,0.2040745,1.538772,0.2746068,302.3126,127.2735,130.9767,True
3,3.422215,-0.02398544,-0.2396142,-0.1337279,-1.191302,1.372623,-1.479717,0.4832602,1.411046,0.3730624,-0.841675,0.7918298,1.2,38.5,0.08559453,0.07950433,0.08922551,-0.4553095,0.2570591,2.304837,0.6423264,1.393406,0.3040326,-0.003569875,-0.1599455,0.06312568,-1.252212,0.5110426,0.2239724,0.789784,1.364801,0.2123621,0.2030964,1.53727,0.2749085,302.0292,127.7076,130.5695,True
3,3.433326,-0.01977408,-0.2215017,-0.1349251,-1.189603,1.370744,-1.478916,0.4838956,1.41117,0.3726432,-0.8340285,0.6870782,1.2,38.5,0.078194,0.08158377,0.09566218,-0.4556546,0.2539632,2.306688,0.6428703,1.393499,0.3037047,-0.008866772,-0.165275,0.06210548,-1.252344,0.5086609,0.2245295,0.7901033,1.365209,0.2125471,0.2022482,1.535585,0.2751296,301.7758,128.8916,129.6111,True
3,3.444437,-0.01559241,-0.1830341,-0.1192078,-1.188971,1.369849,-1.478552,0.4844763,1.411285,0.3722343,-0.8261211,0.7120506,1.2,38.5,0.07618426,0.09641474,0.1180998,-0.4558959,0.2480292,2.311234,0.6434041,1.393586,0.3031783,-0.01082973,-0.1525297,0.07389435,-1.251464,0.5070822,0.2252289,0.7904432,1.365201,0.2119403,0.2014279,1.533905,0.2753257,301.5323,129.8811,128.6964,True
3,3.455548,-0.01035479,-0.1349356,-0.0971628,-1.189001,1.369504,-1.47855,0.4849973,1.411394,0.3719177,-0.8183004,0.7038532,0,27.7,0.07301753,0.1134397,0.12349,-0.4554144,0.2429569,2.314939,0.6438758,1.393715,0.302809,-0.01177394,-0.1472321,0.08137148,-1.250815,0.5053017,0.2256944,0.7907162,1.365111,0.2113466,0.200587,1.532313,0.2755918,301.2752,130.6358,127.9602,True
3,3.466659,-0.007244088,-0.08894984,-0.07190635,-1.189447,1.369558,-1.478591,0.4854955,1.411474,0.3715837,-0.8106747,0.6862356,0,27.7,0.08252627,0.09539071,0.1084561,-0.4555774,0.2409263,2.315565,0.6443925,1.393727,0.3023963,-0.0126785,-0.1419447,0.09312093,-1.249704,0.5035264,0.2264294,0.7910535,1.365072,0.2108214,0.1997548,1.53081,0.2760035,300.9868,131.2957,127.342,True
3,3.47777,-0.005169049,-0.05686246,-0.05294849,-1.18976,1.369594,-1.478625,0.4859987,1.411557,0.3712933,-0.8032312,0.6697346,0,27.7,0.08350521,0.08373045,0.09136356,-0.4555444,0.2393977,2.315858,0.6448572,1.393825,0.3019814,-0.01705738,-0.135528,0.0825434,-1.249582,0.5018411,0.2270121,0.791218,1.365259,0.2100797,0.1989421,1.529415,0.2765678,300.6321,131.8493,126.8834,True
3,3.488881,-0.00203575,-0.0194083,-0.02869767,-1.190735,1.370269,-1.478969,0.4865167,1.41159,0.3710206,-0.7957349,0.6748982,0,27.7,0.0930811,0.07522341,0.08914687,-0.4557691,0.2368686,2.316871,0.6453676,1.393814,0.3015687,-0.01950174,-0.1247903,0.0581111,-1.249975,0.5008087,0.2276097,0.7915126,1.365256,0.2095463,0.1981638,1.528115,0.2772586,300.2431,132.3162,126.5629,True
3,3.499992,-0.003130692,-0.001227036,-0.01710351,-1.191228,1.37043,-1.478967,0.4870458,1.411597,0.3706989,-0.7885103,0.6501619,0.9,33.5,0.08763053,0.06039663,0.06674992,-0.4555097,0.2364432,2.31653,0.6457873,1.39371,0.3010128,-0.01440731,-0.1247467,0.0399187,-1.250619,0.4992466,0.2279565,0.791975,1.365263,0.2087183,0.197439,1.526888,0.2780196,299.8493,132.746,126.3228,True
3,3.511103,-0.003130692,-0.001227036,-0.01710351,-1.191228,1.37043,-1.478967,0.4870458,1.411597,0.3706989,-0.781543,0.6269392,0.9,33.5,0.08763053,0.06039663,0.06674992,-0.4555097,0.2364432,2.31653,0.6457873,1.39371,0.3010128,-0.01440731,-0.1247467,0.0399187,-1.250619,0.4992466,0.2279565,0.791975,1.365263,0.2087183,0.1967932,1.525699,0.2787949,299.4705,133.1642,126.0977,True
3,3.522214,-0.003122938,-0.004431654,-0.01814519,-1.190997,1.370149,-1.478833,0.4875973,1.411659,0.370364,-0.7745639,0.6282947,0.9,33.5,0.0886751,0.06148381,0.06354495,-0.4551987,0.2341596,2.317603,0.6463145,1.393782,0.3005559,-0.01236156,-0.1279239,0.03349138,-1.250746,0.4975809,0.2285131,0.7923448,1.365206,0.2081263,0.1961706,1.524552,0.2795358,299.1546,133.4784,125.9351,True
3,3.533325,-0.002988834,-0.06748161,-0.04756569,-1.18788,1.367568,-1.477944,0.4887906,1.411921,0.3696873,-0.7677292,0.6151699,0.9,33.5,0.07907984,0.04655481,0.06247791,-0.4558831,0.2314927,2.318674,0.6473315,1.393884,0.2996128,0.001486383,-0.1290113,0.03329317,-1.250884,0.4942594,0.2290353,0.7931682,1.365115,0.2067637,0.1954355,1.523439,0.2802403,298.9084,133.7775,125.7521,True
3,3.544436,-0.002988834,-0.06748161,-0.04756569,-1.18788,1.367568,-1.477944,0.4887906,1.411921,0.3696873,-0.7610899,0.597501,0.9,33.5,0.07907984,0.04655481,0.06247791,-0.4558831,0.2314927,2.318674,0.6473315,1.393884,0.2996128,0.001486383,-0.1290113,0.03329317,-1.250884,0.4942594,0.2290353,0.7931682,1.365115,0.2067637,0.1948578,1.522191,0.2808933,298.5611,134.3349,125.3911,True
