loc,t,aDotUA,bDotUA,gDotUA,aUA,bUA,gUA,xUA,yUA,zUA,qE,qDotE,emgA,emgB,aDotSH,bDotSH,gDotSH,aSH,bSH,gSH,xSH,ySH,zSH,aDotUB,bDotUB,gDotUB,aUB,bUB,gUB,xUB,yUB,zUB,xHand,yHand,zHand,aHand,bHand,gHand,enable
0,0,-0.07755885,-0.3668096,-0.1235931,-1.369688,-3.967426,2.8419,0.5436559,1.292344,0.5088704,-1.547077,0.02419005,8.7,3.4,-0.08695633,-0.01457041,0.1144812,-0.518478,-3.921722,-0.2956391,0.5266859,1.510186,0.4033337,-0.06072456,0.01382111,0.01287821,-0.6585582,0.3259035,-0.1120032,0.6247957,1.561505,0.2505059,0.4007405,1.082969,0.3037136,313.6852,222.5672,354.9267,True
0,0.01111111,-0.07755885,-0.3668096,-0.1235931,-1.369688,-3.967426,2.8419,0.5436559,1.292344,0.5088704,-1.547209,-0.01239291,8.7,3.4,-0.08695633,-0.01457041,0.1144812,-0.518478,-3.921722,-0.2956391,0.5266859,1.510186,0.4033337,-0.06072456,0.01382111,0.01287821,-0.6585582,0.3259035,-0.1120032,0.6247957,1.561505,0.2505059,0.4014184,1.082817,0.3031297,313.7993,222.3159,354.8973,True
0,0.02222222,-0.0743864,-0.3604627,-0.1300296,-1.369275,-3.963105,2.841774,0.5434418,1.292664,0.5087857,-1.547665,-0.04166144,8.7,3.4,-0.06598756,-0.0828215,0.1116284,-0.5164322,-3.927494,-0.2905376,0.5268174,1.510282,0.4031882,-0.06088522,0.004187651,-0.004143341,-0.6591648,0.3252191,-0.1107755,0.6249081,1.561517,0.2502954,0.4018748,1.082814,0.3027377,313.8511,222.1144,354.9021,True
0,0.03333334,-0.04568406,-0.3379876,-0.1259426,-1.368918,-3.955616,2.840502,0.5431574,1.29307,0.5088298,-1.546006,0.1519695,8.7,3.4,-0.02020819,-0.04130964,0.09018556,-0.5153797,-3.925892,-0.2928497,0.5270401,1.510588,0.4027781,-0.05008362,-0.001091756,0.009608552,-0.6585603,0.3250339,-0.1098242,0.6252615,1.561438,0.2497878,0.4021078,1.082947,0.302562,313.8281,222.0573,354.9608,True
0,0.04444445,-0.04791356,-0.3027341,-0.1102085,-1.368954,-3.953283,2.840823,0.543074,1.29327,0.5089514,-1.546986,-0.09103185,9.7,2.8,0.002573317,0.0288293,0.1000785,-0.5148279,-3.919156,-0.2994826,0.527271,1.510837,0.4024842,-0.04358892,-0.02024575,0.01704465,-0.6579627,0.323543,-0.1084045,0.6255876,1.561496,0.2494805,0.4024161,1.083218,0.3023932,313.8672,221.7595,355.3173,True
0,0.05555556,-0.0469259,-0.2706692,-0.09552394,-1.368978,-3.951242,2.840925,0.5429817,1.293476,0.508954,-1.547407,-0.03764638,9.7,2.8,0.02542669,0.09463391,0.1195248,-0.5139602,-3.911195,-0.3074643,0.5274492,1.51104,0.4021313,-0.04249394,-0.03409059,0.01813193,-0.6576213,0.3221111,-0.106837,0.6257751,1.56153,0.2491736,0.4028063,1.083587,0.3021763,313.829,221.5075,355.4952,True
0,0.06666667,-0.05020466,-0.2418895,-0.09040022,-1.368698,-3.949162,2.841251,0.542932,1.29376,0.5088699,-1.546438,0.08867776,9.7,2.8,0.03416524,0.1200849,0.1302856,-0.5128779,-3.905812,-0.3127555,0.5278021,1.511189,0.4018044,-0.03380052,-0.0628109,0.03090193,-0.6565651,0.319442,-0.1046723,0.6259638,1.561652,0.2487855,0.4032558,1.083964,0.3019172,313.736,221.343,355.5129,True
0,0.07777778,-0.05020466,-0.2418895,-0.09040022,-1.368698,-3.949162,2.841251,0.542932,1.29376,0.5088699,-1.546514,-0.007768986,9.7,2.8,0.03416524,0.1200849,0.1302856,-0.5128779,-3.905812,-0.3127555,0.5278021,1.511189,0.4018044,-0.03380052,-0.0628109,0.03090193,-0.6565651,0.319442,-0.1046723,0.6259638,1.561652,0.2487855,0.4036773,1.084288,0.3016169,313.6743,221.2426,355.4405,True
0,0.08888889,-0.01740896,-0.1695405,-0.1165059,-1.36579,-3.946646,2.840309,0.5429583,1.294259,0.5084147,-1.54697,-0.04160937,10.3,3.4,-0.05368019,0.02145077,0.1250718,-0.5096582,-3.909168,-0.3060225,0.5283285,1.511571,0.4012122,-0.03081325,-0.07351849,0.008534194,-0.6565959,0.3158303,-0.1013517,0.6264212,1.56163,0.2481492,0.4039943,1.084529,0.301264,313.6378,221.147,355.3683,True
0,0.1,0.000605708,-0.1332018,-0.1071909,-1.365066,-3.946191,2.83955,0.5429802,1.294472,0.5082579,-1.545529,0.1320745,10.3,3.4,-0.04118515,-0.007246763,0.1087499,-0.5087565,-3.910841,-0.3045357,0.5285281,1.511694,0.4009845,-0.03403331,-0.07246457,0.006433822,-0.656539,0.3145539,-0.09980702,0.6266453,1.561591,0.2477653,0.4041785,1.084681,0.3009238,313.6141,221.0793,355.3515,True
0,0.1111111,0.01545854,-0.1107088,-0.09458029,-1.364636,-3.945463,2.83883,0.5430412,1.294629,0.5080805,-1.547849,-0.2133985,10.3,3.4,-0.01715584,-0.04654036,0.0783872,-0.5084662,-3.914484,-0.3022035,0.5286561,1.511704,0.4007483,-0.03396363,-0.0713804,0.01283192,-0.6559137,0.3134125,-0.09861499,0.6268672,1.561483,0.2475016,0.4043152,1.084833,0.3005637,313.7139,220.8401,355.5421,True
0,0.1222222,0.02398231,-0.1073846,-0.07969461,-1.364676,-3.944213,2.83805,0.5430487,1.294844,0.5081089,-1.547531,0.03100031,10.3,3.4,-0.007664248,-0.0443727,0.06765346,-0.5080587,-3.915098,-0.3019543,0.528726,1.511778,0.4005468,-0.03607168,-0.06604855,0.0149738,-0.6555914,0.3126556,-0.09767223,0.6270434,1.561461,0.2472832,0.4044898,1.085033,0.3003249,313.7119,220.5833,355.6806,True
0,0.1333333,0.02826233,-0.1105036,-0.06901874,-1.364827,-3.942626,2.837241,0.5431771,1.294987,0.5080726,-1.547181,0.03133155,10.3,3.4,-0.009727793,-0.01447152,0.06043905,-0.5080401,-3.912481,-0.3040531,0.5287336,1.511768,0.4002419,-0.04565099,-0.04794381,0.01822439,-0.6552889,0.3129302,-0.097036,0.6271968,1.561437,0.2470415,0.404635,1.085195,0.3002279,313.6649,220.5251,355.6765,True
0,0.1444445,0.0187266,-0.1232018,-0.05294211,-1.365354,-3.940796,2.837013,0.5432087,1.295136,0.5080459,-1.546951,0.02076069,9.1,3.7,-0.007310143,0.02805329,0.07138936,-0.5074483,-3.907876,-0.3079168,0.5287127,1.511879,0.3999753,-0.04458059,-0.02662706,0.02242793,-0.6548814,0.3137702,-0.09713481,0.6273979,1.561486,0.2467587,0.4047825,1.085274,0.3002536,313.6327,220.5356,355.6898,True
0,0.1555556,0.04331838,-0.1518584,-0.04743312,-1.365826,-3.938019,2.83506,0.5431424,1.295231,0.5078251,-1.546768,0.01650067,9.1,3.7,-0.007149346,0.08244935,0.06327402,-0.507949,-3.901847,-0.3130871,0.5287656,1.511837,0.3995888,-0.04353416,-0.02023486,0.02133679,-0.6547051,0.3138132,-0.0967593,0.6276029,1.561407,0.2465401,0.4050282,1.085281,0.3003919,313.6484,220.5396,355.7428,True
0,0.1666667,0.08498254,-0.1976593,-0.06312004,-1.36582,-3.933893,2.831733,0.5431794,1.29553,0.5076845,-1.546042,0.0661869,9.1,3.7,-0.01890238,0.1456087,0.03084451,-0.509924,-3.89466,-0.318745,0.528916,1.511998,0.3991649,-0.04257508,-0.001080014,0.01382769,-0.6548505,0.3148789,-0.09711004,0.6278319,1.561411,0.2463787,0.4054087,1.085197,0.3005505,313.7112,220.5354,355.813,True
0,0.1777778,0.07968795,-0.2105169,-0.07155031,-1.365555,-3.930871,2.830461,0.5432723,1.295942,0.5074809,-1.547421,-0.1267152,9.1,3.7,-0.03177392,0.1799398,0.006718688,-0.511825,-3.88897,-0.3228108,0.5291655,1.512153,0.3988819,-0.03420782,-0.002169359,-0.001166649,-0.6553597,0.3146357,-0.09678939,0.6280841,1.561379,0.2462285,0.4058745,1.085017,0.3005755,313.8461,220.5373,355.8534,True
0,0.1888889,0.04560445,-0.2225073,-0.09487584,-1.364604,-3.927329,2.830718,0.5434699,1.296626,0.5073547,-1.548518,-0.09932871,8.6,2.6,-0.03936346,0.1554922,0.004476417,-0.5120998,-3.88744,-0.3233959,0.5295955,1.51252,0.3986304,-0.03872762,-0.003300995,-0.02668648,-0.6566151,0.3143117,-0.0959268,0.6283807,1.561392,0.2460899,0.4065225,1.084767,0.3004288,313.9685,220.4567,355.9265,True
0,0.2,0.04236731,-0.2152243,-0.118361,-1.3632,-3.924608,2.829841,0.5438468,1.297313,0.5074315,-1.546581,0.1777472,8.6,2.6,-0.0158991,0.1072611,0.02944726,-0.510675,-3.887931,-0.3236175,0.5301481,1.51286,0.3985198,-0.03467605,-0.01721238,-0.0490555,-0.6574924,0.3133586,-0.09486846,0.6286227,1.561342,0.2459128,0.4075501,1.084497,0.3002345,314.0788,220.2542,355.9813,True
0,0.2111111,0.06781393,-0.1758027,-0.1271841,-1.361733,-3.923456,2.827889,0.5443723,1.297893,0.5076582,-1.54464,0.1758446,8.6,2.6,0.06282316,0.04606628,0.0452629,-0.509124,-3.890287,-0.3252127,0.5308048,1.513243,0.3984506,-0.02943143,-0.03425938,-0.05973005,-0.6587467,0.3112295,-0.09310864,0.6288638,1.561405,0.2456729,0.4088087,1.084214,0.2999629,314.2994,220.041,355.9213,True
0,0.2222222,0.07937985,-0.1214272,-0.1254489,-1.360304,-3.923692,2.826566,0.5449214,1.298568,0.5079036,-1.54581,-0.1083082,8.6,2.6,0.1799436,-0.0164154,0.06708247,-0.5070041,-3.893701,-0.3283696,0.5315546,1.513674,0.3984594,-0.01763257,-0.04594012,-0.05343467,-0.6590525,0.3098691,-0.09226815,0.6290671,1.561423,0.24541,0.4101707,1.084086,0.2996217,314.6201,219.7548,355.8445,True
0,0.2333333,0.07937985,-0.1214272,-0.1254489,-1.360304,-3.923692,2.826566,0.5449214,1.298568,0.5079036,-1.547372,-0.1416465,8.6,2.6,0.1799436,-0.0164154,0.06708247,-0.5070041,-3.893701,-0.3283696,0.5315546,1.513674,0.3984594,-0.01763257,-0.04594012,-0.05343467,-0.6590525,0.3098691,-0.09226815,0.6290671,1.561423,0.24541,0.4115382,1.084248,0.2993554,314.827,219.4121,355.7556,True
0,0.2444444,0.1333576,-0.005267427,-0.1401628,-1.355812,-3.92616,2.822724,0.5463981,1.300081,0.5089676,-1.545751,0.1492406,6.8,1.1,0.2389777,-0.1808318,0.07912426,-0.502139,-3.909811,-0.3214856,0.5330071,1.514148,0.3981142,0.01556538,-0.06823356,-0.03987321,-0.6593236,0.306176,-0.09078529,0.6295204,1.561379,0.2447085,0.4126595,1.084566,0.2992453,314.8116,219.1602,355.6046,True
0,0.2555556,-0.1716784,0.1206323,-0.140814,-1.352674,-3.93094,2.835786,0.5476245,1.301629,0.5098627,-1.5485,-0.2527947,6.8,1.1,0.2146668,-0.186206,0.1006231,-0.4996634,-3.912715,-0.3201253,0.5338588,1.514459,0.3980358,0.02945834,-0.06927019,-0.03575078,-0.6594802,0.3048467,-0.09059089,0.6296837,1.561281,0.2443945,0.4133177,1.084921,0.2993062,314.7769,219.1047,355.4151,True
0,0.2666667,-0.2172767,0.05341151,-0.1360398,-1.351999,-3.928595,2.839271,0.5481491,1.302833,0.5107033,-1.548234,0.02639141,6.8,1.1,0.2297987,-0.1393988,0.1008218,-0.4988335,-3.911177,-0.3247075,0.5346335,1.514887,0.3979042,0.05093215,-0.06387218,-0.01893522,-0.6589769,0.3042298,-0.09148065,0.6299131,1.561171,0.2441297,0.4140201,1.0857,0.3002408,314.7252,218.9191,355.4878,True
0,0.2777778,-0.2491309,0.009449281,-0.1634049,-1.349702,-3.926246,2.842603,0.5477772,1.303366,0.5106134,-1.533641,1.333833,6.8,1.1,0.3704513,0.01626495,0.1411024,-0.4980676,-3.897105,-0.3463313,0.5358582,1.515725,0.3978443,0.07103515,-0.0862551,-0.03613756,-0.6599292,0.3012388,-0.09074508,0.6302732,1.561178,0.2437711,0.4144856,1.086558,0.3018593,314.6714,218.8001,355.6617,True
0,0.2888889,-0.2969348,-0.05066127,-0.2076926,-1.346675,-3.922042,2.846162,0.5489452,1.30537,0.5113263,-1.540869,-0.6715775,6.8,1.1,0.449856,0.01867378,0.1978712,-0.4942454,-3.8937,-0.3570777,0.5372876,1.51657,0.3975437,0.1016641,-0.1544746,-0.07144313,-0.6616634,0.2940396,-0.08728484,0.6308719,1.561107,0.243269,0.4141022,1.087707,0.3034853,315.1683,219.038,355.8172,True
0,0.3,-0.2916225,-0.06059577,-0.2587601,-1.342411,-3.919684,2.848606,0.549315,1.306766,0.5119622,-1.542814,-0.1703573,6,3.1,0.4468811,-0.00606966,0.231804,-0.4903663,-3.893272,-0.3621817,0.538703,1.517352,0.3972769,0.1291753,-0.2013689,-0.09611537,-0.6633173,0.2872471,-0.0843953,0.6312699,1.561068,0.2428029,0.413082,1.089391,0.3046087,315.3567,219.0397,356.4498,True
0,0.3111111,-0.3799777,-0.1050586,-0.3329477,-1.336985,-3.914911,2.855148,0.5502849,1.308299,0.5122638,-1.542756,0.006548026,6,3.1,0.3962351,-0.02759057,0.2917971,-0.4850458,-3.891591,-0.3659226,0.5405079,1.518442,0.3970757,0.1599871,-0.2663456,-0.1122566,-0.6647021,0.2785043,-0.08031375,0.6316965,1.561073,0.2422156,0.4117526,1.091496,0.3050013,315.1561,218.8568,357.2371,True
0,0.3222222,-0.438695,-0.07027082,-0.3608467,-1.332198,-3.914177,2.861938,0.5514976,1.309989,0.5128369,-1.544588,-0.1674405,6,3.1,0.3860714,-0.05785161,0.3555907,-0.4786073,-3.890237,-0.3708992,0.5423979,1.519593,0.3969073,0.166357,-0.2972381,-0.1186374,-0.6657866,0.2717366,-0.07696082,0.6321079,1.561149,0.2418263,0.4111767,1.094443,0.3052219,314.7367,218.4302,357.9747,True
0,0.3333333,-0.5050148,0.005778641,-0.4263178,-1.324417,-3.915169,2.870283,0.5523525,1.311843,0.5130684,-1.54051,0.3746747,6,3.1,0.4045944,-0.1865312,0.4567154,-0.4678535,-3.897345,-0.3697967,0.5448195,1.520784,0.3966014,0.1896388,-0.3515895,-0.1411181,-0.667728,0.2619195,-0.0721975,0.6326511,1.561208,0.241271,0.4110709,1.097745,0.305142,314.0522,217.7898,358.5652,True
0,0.3444445,-0.5158461,0.04793175,-0.4862628,-1.316699,-3.915017,2.876258,0.5532901,1.313598,0.5133348,-1.541218,-0.06781644,4.6,4.2,0.4271466,-0.3107692,0.5311989,-0.457154,-3.907257,-0.3666755,0.5474651,1.522002,0.3962181,0.2161321,-0.3899453,-0.159399,-0.6696124,0.2527155,-0.06821155,0.633247,1.561233,0.2406478,0.4113568,1.101169,0.3046866,313.4731,217.0713,359.0894,True
0,0.3555556,-0.5191416,0.07325526,-0.5194644,-1.309409,-3.914884,2.8821,0.554104,1.315325,0.5136204,-1.540842,0.03587015,4.6,4.2,0.4680865,-0.3797208,0.6091175,-0.4459122,-3.913591,-0.3676486,0.550402,1.523233,0.3957884,0.2278391,-0.4219009,-0.1647694,-0.6712497,0.2430261,-0.06358457,0.6337718,1.561283,0.2400396,0.4117443,1.104675,0.3039251,313.0143,216.3723,359.3945,True
0,0.3666667,-0.5545363,0.1409446,-0.5742469,-1.300433,-3.91662,2.889931,0.5552043,1.317191,0.5139329,-1.543426,-0.2362187,4.6,4.2,0.5260671,-0.4476749,0.6868786,-0.4336777,-3.92042,-0.3692691,0.553316,1.524345,0.3953698,0.246044,-0.4911165,-0.1647959,-0.6726495,0.2301512,-0.05690137,0.634415,1.561365,0.2393594,0.4117279,1.108181,0.3029095,312.6552,215.5359,359.7467,True
0,0.3777778,-0.5716989,0.1737563,-0.5978958,-1.29244,-3.917871,2.897341,0.5561169,1.318921,0.5142334,-1.544232,-0.07151686,4.6,4.2,0.5653147,-0.5396599,0.7113698,-0.4221819,-3.934012,-0.3646834,0.5562261,1.525533,0.3949323,0.2823425,-0.5443289,-0.1639708,-0.6739294,0.2172937,-0.05124534,0.6350288,1.56133,0.2386076,0.411369,1.111751,0.3020134,312.1758,214.6072,0.2905343,True
0,0.3888889,-0.5716989,0.1737563,-0.5978958,-1.29244,-3.917871,2.897341,0.5561169,1.318921,0.5142334,-1.543078,0.1061613,4.6,4.2,0.5653147,-0.5396599,0.7113698,-0.4221819,-3.934012,-0.3646834,0.5562261,1.525533,0.3949323,0.2823425,-0.5443289,-0.1639708,-0.6739294,0.2172937,-0.05124534,0.6350288,1.56133,0.2386076,0.4107324,1.115315,0.3014823,311.623,213.7526,0.9399803,True
0,0.4,-0.5890867,0.2830784,-0.6487263,-1.274497,-3.923598,2.912362,0.5581204,1.322191,0.5145705,-1.550407,-0.6709144,4.3,8,0.6123195,-0.8705273,0.7659451,-0.3945196,-3.989456,-0.329375,0.5623273,1.528072,0.3940816,0.3364425,-0.5496395,-0.1868844,-0.6781766,0.1972891,-0.04476188,0.636423,1.561197,0.2373683,0.4096183,1.118702,0.301249,311.0656,213.1166,1.621177,True
0,0.4111111,-0.6021379,0.371343,-0.6653203,-1.265061,-3.929174,2.921151,0.5592478,1.323853,0.5146902,-1.537693,1.168326,4.3,8,0.6142578,-0.8800055,0.750948,-0.3838243,-4.007696,-0.3193429,0.565243,1.529166,0.3935707,0.3700217,-0.5592992,-0.2383479,-0.6824052,0.1865259,-0.04171203,0.6372703,1.561182,0.2366769,0.4084357,1.121609,0.301437,310.2928,212.7528,2.339044,True
0,0.4222222,-0.6258619,0.464849,-0.6904706,-1.25482,-3.935845,2.930913,0.5605401,1.325504,0.5147321,-1.543442,-0.5360858,4.3,8,0.6316735,-0.7980601,0.7513916,-0.3741155,-4.014871,-0.3203003,0.568219,1.530262,0.3930948,0.3770164,-0.5913668,-0.2873522,-0.6870716,0.1739952,-0.03632525,0.6380482,1.561195,0.2359498,0.4072222,1.124522,0.3022782,310.472,211.8183,3.419589,True
0,0.4333333,-0.6645106,0.5593228,-0.7230675,-1.2439,-3.943551,2.941999,0.5617748,1.326982,0.5147915,-1.54441,-0.08226731,4.3,8,0.6764238,-0.637668,0.7873296,-0.3640877,-4.007242,-0.33652,0.5715488,1.531371,0.3924506,0.4045517,-0.6723549,-0.3140754,-0.6912719,0.1572028,-0.02885535,0.6389199,1.561239,0.2350533,0.4054766,1.12762,0.3033826,310.6057,211.0711,4.42981,True
0,0.4444444,-0.7030925,0.6302907,-0.7640219,-1.232549,-3.951082,2.953382,0.5630056,1.328334,0.5146739,-1.544092,0.02953417,4.3,4.3,0.710961,-0.5943482,0.812878,-0.3529652,-4.01182,-0.3413054,0.5749747,1.532331,0.3917007,0.4440848,-0.7105963,-0.3058991,-0.6941476,0.1434018,-0.02435008,0.6400082,1.561244,0.2341571,0.4032056,1.130937,0.3046388,310.4664,210.696,5.397438,True
0,0.4555556,-0.7287791,0.6652234,-0.7855533,-1.221773,-3.958123,2.964672,0.5641664,1.329752,0.5146072,-1.543366,0.06611991,4.3,4.3,0.7193762,-0.6178278,0.8126156,-0.3419232,-4.025167,-0.3371266,0.5782024,1.53334,0.3909268,0.4613229,-0.7286446,-0.2889893,-0.69653,0.1297933,-0.01956385,0.6408357,1.561096,0.2331822,0.4005169,1.13447,0.3059454,310.1443,210.2775,6.598212,True
0,0.4666667,-0.7661831,0.7119627,-0.7879784,-1.211647,-3.96644,2.977085,0.565327,1.331111,0.5143259,-1.54332,0.003853939,4.3,4.3,0.693703,-0.6198406,0.803268,-0.3311055,-4.03802,-0.3320293,0.5813292,1.534593,0.3902397,0.465467,-0.7531405,-0.3028688,-0.7005786,0.1160226,-0.01424498,0.6416471,1.561119,0.2324624,0.3974831,1.138203,0.3072043,309.7359,209.7107,7.986827,True
0,0.4777778,-0.7908373,0.7629915,-0.79364,-1.201199,-3.975682,2.98992,0.5665339,1.332619,0.5140324,-1.543649,-0.02988627,4.3,4.3,0.6903312,-0.6272066,0.7883425,-0.3205828,-4.051648,-0.3268372,0.5845771,1.53578,0.3895252,0.4664362,-0.751043,-0.310322,-0.7041728,0.1032111,-0.009702695,0.6425046,1.561039,0.2317436,0.3942933,1.142144,0.3083552,309.2953,209.06,9.471283,True
0,0.4888889,-0.8143889,0.8044882,-0.7917935,-1.190962,-3.985316,3.003199,0.5678469,1.334105,0.513588,-1.543386,0.02457365,4.3,4.3,0.7220638,-0.6079334,0.7562171,-0.3117283,-4.062638,-0.3254702,0.5879016,1.536591,0.388814,0.4650252,-0.7703439,-0.3506932,-0.7088578,0.08824797,-0.003585414,0.6428957,1.560833,0.2310476,0.3911789,1.146305,0.3093591,308.8414,208.4207,10.91679,True
0,0.5,-0.8496683,0.8448331,-0.7973753,-1.180588,-3.995302,3.017488,0.5693072,1.335388,0.5132551,-1.543654,-0.02441669,5.3,3.6,0.7566584,-0.6408198,0.7151434,-0.3028722,-4.081158,-0.3173529,0.5917052,1.537228,0.3880527,0.4799103,-0.8002192,-0.3613579,-0.7128185,0.072275,0.002375806,0.6435288,1.560771,0.2302527,0.3881863,1.15066,0.3100966,308.392,207.8279,12.2657,True
0,0.5111111,-0.878652,0.9258621,-0.7776734,-1.171117,-4.008218,3.033115,0.5707497,1.336424,0.513016,-1.54377,-0.01020921,5.3,3.6,0.7682807,-0.8302702,0.6837568,-0.2921014,-4.124987,-0.2844389,0.5947222,1.537866,0.3873665,0.4915652,-0.8098089,-0.3689108,-0.7172654,0.0579131,0.007295463,0.6442981,1.560653,0.2293768,0.3853874,1.155236,0.3105813,307.9395,207.1499,13.60175,True
0,0.5222223,-0.8916822,1.019802,-0.7463588,-1.16247,-4.023108,3.049147,0.5723428,1.337416,0.5127838,-1.543289,0.04424519,5.3,3.6,0.7548087,-0.9173613,0.6544566,-0.2825198,-4.163839,-0.2550821,0.5977674,1.538587,0.3866754,0.4917481,-0.7565081,-0.3445298,-0.7203142,0.04776113,0.009506686,0.6454524,1.560661,0.2285197,0.3828187,1.160011,0.3108442,307.4253,206.3324,14.99562,True
0,0.5333334,-0.8985424,1.20242,-0.6815933,-1.155247,-4.044049,3.067569,0.5738778,1.338115,0.5125387,-1.54343,-0.01308871,5.3,3.6,0.7178646,-0.9070112,0.5760629,-0.2765895,-4.194212,-0.2326455,0.600327,1.539063,0.3861074,0.4731943,-0.7382736,-0.2804633,-0.7213603,0.03611553,0.01363672,0.6461663,1.560561,0.2277451,0.3804381,1.164923,0.3109483,306.8355,205.3669,16.4019,True
0,0.5444446,-0.8985424,1.20242,-0.6815933,-1.155247,-4.044049,3.067569,0.5738778,1.338115,0.5125387,-1.544236,-0.07309967,5.3,3.6,0.7178646,-0.9070112,0.5760629,-0.2765895,-4.194212,-0.2326455,0.600327,1.539063,0.3861074,0.4731943,-0.7382736,-0.2804633,-0.7213603,0.03611553,0.01363672,0.6461663,1.560561,0.2277451,0.3780366,1.169937,0.311004,306.1795,204.4348,17.67733,True
0,0.5555557,-0.9056359,1.469435,-0.5811983,-1.142771,-4.087752,3.10569,0.5772539,1.33957,0.512084,-1.554416,-0.9301394,8,3.1,0.6660479,-0.6205712,0.4828597,-0.2669521,-4.208953,-0.2318713,0.6050931,1.540332,0.3849165,0.4566063,-0.6945097,-0.227131,-0.7253386,0.01433926,0.02043044,0.6480601,1.560712,0.2262735,0.3755944,1.174977,0.311097,305.3748,203.6976,18.96188,True
0,0.5666668,-0.9154733,1.574231,-0.522269,-1.138304,-4.110489,3.125517,0.5785488,1.340235,0.5115836,-1.535451,1.741287,8,3.1,0.6440322,-0.5384294,0.4815685,-0.2610846,-4.21617,-0.2312676,0.606986,1.540655,0.3843336,0.4362989,-0.6604524,-0.2291376,-0.7280688,0.004984905,0.0232233,0.6487477,1.560586,0.2256324,0.3735933,1.179444,0.3114057,304.2849,202.801,20.21075,True
0,0.577778,-0.9251335,1.603157,-0.495842,-1.133399,-4.130676,-3.138598,0.5801374,1.34082,0.5110819,-1.543376,-0.7407951,8,3.1,0.6065781,-0.526351,0.456439,-0.2556464,-4.235016,-0.2187331,0.6090971,1.540923,0.3836958,0.4235007,-0.6338057,-0.2259122,-0.7307799,-0.003739478,0.02554957,0.649527,1.560499,0.2249506,0.3701905,1.184026,0.3122351,304.1561,202.5647,20.56443,True
0,0.5888891,-0.9283836,1.635445,-0.4481281,-1.130325,-4.151889,-3.119296,0.5814375,1.341053,0.5106277,-1.544947,-0.1352034,8,3.1,0.4834539,-0.4900397,0.378018,-0.2533359,-4.250271,-0.2051209,0.6105759,1.54105,0.383214,0.3906497,-0.5762651,-0.2012121,-0.732316,-0.01039671,0.02728142,0.6501716,1.560405,0.2244439,0.365809,1.189357,0.3138975,303.8874,202.3507,21.58023,True
0,0.6000003,-0.9262895,1.660235,-0.4088923,-1.127576,-4.173131,-3.100173,0.5829682,1.341251,0.51021,-1.544978,-0.002032001,5.5,1.1,0.3896859,-0.397655,0.3327613,-0.2509161,-4.253643,-0.2030881,0.6124932,1.541249,0.3827977,0.3726931,-0.5410846,-0.1808832,-0.7338575,-0.01762826,0.02912593,0.6509075,1.56025,0.2239437,0.3609332,1.195349,0.3162296,303.2051,202.2821,23.18841,True
0,0.6111114,-0.914702,1.721388,-0.3528715,-1.126747,-4.196731,-3.08045,0.5842364,1.341095,0.5097885,-1.54535,-0.03429655,5.5,1.1,0.3122072,-0.2500014,0.295225,-0.2496266,-4.241225,-0.2155927,0.6137753,1.541302,0.3825195,0.3451782,-0.4824691,-0.1551741,-0.7347389,-0.02242994,0.02984978,0.6516142,1.56019,0.2235928,0.3562131,1.201753,0.3189917,302.2524,202.0009,25.34193,True
0,0.6222225,-0.8956532,1.786881,-0.2904959,-1.126993,-4.221379,-3.060691,0.5857732,1.340884,0.5093768,-1.545735,-0.03464943,5.5,1.1,0.307662,-0.2027391,0.2455601,-0.2482242,-4.24402,-0.216466,0.6150228,1.541392,0.3822944,0.3035535,-0.4335338,-0.1558983,-0.7364541,-0.02742204,0.03158056,0.6525623,1.560148,0.2231843,0.3518287,1.208256,0.3218497,301.1552,201.5683,27.56141,True
0,0.6333337,-0.8648369,1.833248,-0.2247837,-1.128666,-4.245649,-3.041809,0.5868745,1.340555,0.5090148,-1.546242,-0.04605661,5.5,1.1,0.3158542,-0.169382,0.1967248,-0.2475147,-4.247236,-0.2172559,0.6160287,1.541425,0.382216,0.2778409,-0.3888459,-0.1642675,-0.7386453,-0.03135419,0.03230947,0.6533182,1.56005,0.2228777,0.3479171,1.214599,0.3246046,300.0731,201.0205,29.6351,True
0,0.6444448,-0.842451,1.843143,-0.1918381,-1.12982,-4.268383,-3.023745,0.5881151,1.340266,0.508503,-1.546696,-0.04096738,2.3,2.3,0.2953659,-0.1423667,0.1587744,-0.2469389,-4.249279,-0.2178426,0.6171947,1.541545,0.3821442,0.2498705,-0.3409941,-0.1843271,-0.7413649,-0.03436397,0.03273771,0.6539091,1.559857,0.222676,0.3442946,1.220599,0.3271309,299.0287,200.4942,31.40207,True
0,0.655556,-0.8029892,1.844702,-0.138615,-1.132633,-4.290734,-3.006877,0.5889598,1.339635,0.5079253,-1.547339,-0.05854747,2.3,2.3,0.2353088,-0.1278855,0.1115382,-0.2470785,-4.253203,-0.2144359,0.6180665,1.541456,0.3822579,0.2209409,-0.2899126,-0.1948124,-0.7439461,-0.0362604,0.03261733,0.6545983,1.559721,0.2225318,0.3409617,1.226187,0.3294951,298.0674,200.0345,32.91679,True
0,0.6666671,-0.7602758,1.825934,-0.09804046,-1.135606,-4.311912,-2.991111,0.5897389,1.338601,0.5073764,-1.547393,-0.004544497,2.3,2.3,0.1551731,-0.1917163,0.007442705,-0.2493299,-4.272997,-0.1943793,0.6185644,1.541108,0.3826017,0.1974448,-0.2462689,-0.1936138,-0.7460393,-0.03812102,0.0326698,0.6552055,1.559543,0.2223883,0.3377994,1.231308,0.331722,297.1882,199.6191,34.29623,True
0,0.6777782,-0.7218786,1.813421,-0.07558888,-1.138663,-4.333348,-2.975487,0.5903733,1.337752,0.506912,-1.548177,-0.07196386,2.3,2.3,0.1366154,-0.2148068,-0.02770414,-0.2501017,-4.28701,-0.1818039,0.6194386,1.540913,0.3826711,0.1730002,-0.220703,-0.184903,-0.7477826,-0.04019016,0.03309271,0.6558595,1.559338,0.2221456,0.3348503,1.235936,0.3338437,296.4349,199.2024,35.64136,True
0,0.6888894,-0.6589178,1.793808,-0.01265776,-1.143796,-4.353853,-2.961854,0.5905983,1.336138,0.5063164,-1.548565,-0.03491411,2.3,2.3,0.05611424,-0.2355971,-0.1889994,-0.2570419,-4.305728,-0.1617455,0.6193217,1.540322,0.3833776,0.1286251,-0.142887,-0.1377676,-0.7477086,-0.03877736,0.03222185,0.6563261,1.559091,0.2221372,0.3319868,1.240037,0.3358606,295.6758,198.7803,36.93345,True
0,0.7000005,-0.6589178,1.793808,-0.01265776,-1.143796,-4.353853,-2.961854,0.5905983,1.336138,0.5063164,-1.548486,0.007254237,0.2,0,0.05611424,-0.2355971,-0.1889994,-0.2570419,-4.305728,-0.1617455,0.6193217,1.540322,0.3833776,0.1286251,-0.142887,-0.1377676,-0.7477086,-0.03877736,0.03222185,0.6563261,1.559091,0.2221372,0.3292415,1.243553,0.3378594,294.9528,198.3589,38.14712,True
0,0.7111117,-0.5830516,1.729491,0.04951274,-1.15347,-4.393085,-2.934842,0.5911142,1.333656,0.5050075,-1.554579,-0.55762,0.2,0,-0.00176356,0.04500931,-0.3514308,-0.2708115,-4.28044,-0.1845278,0.6194539,1.539543,0.3842332,0.1054452,-0.0629293,-0.1015042,-0.7489139,-0.03758932,0.02966974,0.6575439,1.558696,0.2222164,0.3268372,1.246516,0.3398786,294.3827,198.2134,39.20008,True
0,0.7222228,-0.5348189,1.634921,0.06189406,-1.157685,-4.409064,-2.924045,0.591274,1.332537,0.5041723,-1.543687,0.999993,0.2,0,-0.02003884,0.2304057,-0.3445127,-0.2756835,-4.250525,-0.2127687,0.6195908,1.539185,0.3845081,0.08371264,-0.0118535,-0.1344521,-0.7517949,-0.03443081,0.02731285,0.6585555,1.55872,0.222501,0.3251265,1.248539,0.3416653,293.8936,197.5445,40.41195,True
0,0.7333339,-0.491917,1.531691,0.0594033,-1.161254,-4.423357,-2.914288,0.5911709,1.331391,0.5032229,-1.548293,-0.4305385,0.2,0,-0.04489422,0.3080071,-0.307456,-0.2789597,-4.231383,-0.2299115,0.6197302,1.538707,0.3847256,0.0716539,0.007233553,-0.1652693,-0.7546957,-0.03321029,0.02605291,0.6592565,1.558573,0.2227132,0.3219338,1.250273,0.3435367,293.31,198.1915,40.04987,True
0,0.7444451,-0.4619545,1.483819,0.05543745,-1.165075,-4.4393,-2.903711,0.5914295,1.330247,0.5023406,-1.549372,-0.09404082,0.2,0,-0.07771927,0.2876836,-0.2774604,-0.2815228,-4.225598,-0.2334154,0.6201305,1.538198,0.3849614,0.05849549,0.04445656,-0.1961239,-0.7579852,-0.03019652,0.02371305,0.6599233,1.558453,0.2231803,0.3184357,1.252013,0.3457978,292.8298,199.0094,40.11047,True
0,0.7555562,-0.42882,1.444567,0.06317639,-1.169774,-4.455094,-2.893719,0.5913689,1.328814,0.5016823,-1.549347,0.002397411,0.1,0,-0.1439382,0.1662456,-0.2393804,-0.2821774,-4.236257,-0.2191859,0.6203279,1.537805,0.3853745,0.03932524,0.1073108,-0.1875512,-0.759647,-0.02506834,0.02013376,0.6605136,1.558278,0.2234945,0.3153155,1.253708,0.348254,292.4799,199.6357,40.65658,True
0,0.7666674,-0.3840277,1.436397,0.09515786,-1.175763,-4.47109,-2.884835,0.5911257,1.327344,0.5010331,-1.548725,0.05646525,0.1,0,-0.2204517,-0.01553018,-0.2453461,-0.283795,-4.26145,-0.1897854,0.6203834,1.537227,0.3859804,0.01083227,0.1531616,-0.1543446,-0.7601817,-0.02026413,0.01758166,0.6608787,1.5581,0.2239425,0.3126976,1.255334,0.350639,292.1248,200.024,41.36171,True
0,0.7777785,-0.3275337,1.439081,0.1505007,-1.183402,-4.487178,-2.87701,0.5909016,1.325785,0.500433,-1.54876,-0.003962537,0.1,0,-0.2707638,-0.1725019,-0.307833,-0.2881162,-4.289462,-0.1584219,0.6201639,1.536772,0.3868277,-0.01547872,0.1873157,-0.1179351,-0.7603351,-0.0155225,0.01510891,0.6613027,1.558115,0.2242301,0.310517,1.256953,0.3529002,291.7115,200.2126,42.0025,True
0,0.7888896,-0.2667477,1.439627,0.2015817,-1.191401,-4.503036,-2.870186,0.5906559,1.324208,0.4999881,-1.549517,-0.06926434,0.1,0,-0.2621175,-0.2156453,-0.3838878,-0.2943262,-4.306954,-0.1389701,0.6197765,1.536281,0.387753,-0.04185576,0.2331589,-0.08687533,-0.7602036,-0.009522399,0.01206758,0.6616405,1.558045,0.2246857,0.3084113,1.258587,0.3550235,291.1812,200.1904,42.63722,True
0,0.8000008,-0.2112013,1.404857,0.2316174,-1.19859,-4.517395,-2.864305,0.5902813,1.322954,0.4995832,-1.550163,-0.05870971,0,0.3,-0.2281195,-0.1323455,-0.4304788,-0.3010139,-4.303531,-0.1409856,0.6192886,1.53568,0.3885586,-0.06207292,0.2640561,-0.08034509,-0.7609216,-0.003589675,0.009010539,0.6619232,1.558019,0.2251694,0.3061934,1.260215,0.3570832,290.5434,200.1496,43.22034,True
0,0.8111119,-0.1758909,1.351737,0.2383541,-1.204988,-4.530151,-2.858979,0.5898732,1.321744,0.4990041,-1.550519,-0.03242011,0,0.3,-0.1582345,0.06888849,-0.4573333,-0.3083387,-4.279791,-0.1645221,0.6187428,1.535228,0.3892293,-0.06739264,0.2672472,-0.0792326,-0.7617466,0.0009053416,0.006690393,0.6622477,1.55799,0.2256086,0.3039111,1.261749,0.3592181,289.8305,200.1826,43.75511,True
0,0.8222231,-0.1308403,1.235657,0.2252905,-1.209604,-4.539577,-2.855526,0.5892692,1.32062,0.4984598,-1.550288,0.02096186,0,0.3,-0.1066279,0.1506011,-0.4465619,-0.3133736,-4.268054,-0.1762941,0.6181384,1.534686,0.3896258,-0.07697596,0.2565796,-0.08123965,-0.7626942,0.004401007,0.005041364,0.662518,1.557818,0.2260928,0.3016401,1.263077,0.3615399,289.1463,200.3092,44.24685,True
0,0.8333342,-0.1006476,1.105648,0.2070126,-1.213481,-4.547247,-2.852747,0.5887719,1.319506,0.4980495,-1.549624,0.06007707,0,0.3,-0.1615355,0.1226811,-0.3844434,-0.3154504,-4.269147,-0.1715081,0.6174646,1.534218,0.3900528,-0.08989288,0.2661247,-0.09284269,-0.7639374,0.009151953,0.003078614,0.6628472,1.557496,0.2266328,0.2994045,1.264132,0.3640347,288.5843,200.6522,44.61251,True
0,0.8444453,-0.09090361,1.051276,0.1967309,-1.218045,-4.556772,-2.848772,0.588334,1.318306,0.4976082,-1.5497,-0.007824833,0.2,0,-0.2796248,0.04826203,-0.3337779,-0.3169827,-4.276222,-0.1576722,0.6165828,1.533652,0.3905652,-0.1026868,0.2852719,-0.09168474,-0.7647123,0.01444765,0.0007800399,0.663159,1.557456,0.2270217,0.2972471,1.264868,0.3665569,288.1318,201.1896,44.90285,True
0,0.8555565,-0.09090361,1.051276,0.1967309,-1.218045,-4.556772,-2.848772,0.588334,1.318306,0.4976082,-1.54929,0.03726839,0.2,0,-0.2796248,0.04826203,-0.3337779,-0.3169827,-4.276222,-0.1576722,0.6165828,1.533652,0.3905652,-0.1026868,0.2852719,-0.09168474,-0.7647123,0.01444765,0.0007800399,0.663159,1.557456,0.2270217,0.2953091,1.265196,0.368888,287.7822,201.7021,45.22004,True
0,0.8666676,-0.04712331,1.02393,0.2288593,-1.23012,-4.577203,-2.842,0.5877409,1.315528,0.4973042,-1.548915,0.03364069,0.2,0,-0.3949304,-0.04214516,-0.4260255,-0.3284141,-4.293308,-0.1293676,0.6143419,1.532204,0.3923395,-0.1381623,0.3610584,-0.008396149,-0.7625647,0.02915456,-0.005819806,0.6629633,1.557337,0.2280324,0.2939368,1.265064,0.3708458,287.5802,202.4846,45.18076,True
0,0.8777788,-0.01309559,1.057361,0.2712074,-1.238144,-4.589077,-2.839,0.5874292,1.313986,0.4972208,-1.547701,0.1105264,0.2,0,-0.351148,0.0257442,-0.5548508,-0.3391759,-4.289353,-0.1310113,0.6127487,1.531366,0.3933532,-0.1588818,0.3974026,0.05458218,-0.7600699,0.03737281,-0.009300823,0.6628375,1.557349,0.2284803,0.2930714,1.264542,0.3722059,287.5746,203.0902,44.87463,True
0,0.8888899,0.0402521,1.034224,0.2926335,-1.24512,-4.598689,-2.838177,0.5867497,1.312506,0.4971769,-1.548477,-0.07210721,0.2,0,-0.268038,0.2124325,-0.6384109,-0.3503932,-4.268261,-0.1508145,0.6110163,1.530416,0.3942423,-0.1788173,0.4379396,0.08984835,-0.7580246,0.04646217,-0.01330808,0.662685,1.557346,0.2289677,0.2914232,1.263983,0.3734572,287.2012,203.8293,44.04684,True
0,0.900001,0.08424488,0.924569,0.2848465,-1.249795,-4.604625,-2.838655,0.5857344,1.311099,0.4970608,-1.548865,-0.03479613,1.1,2.9,-0.2118734,0.4275284,-0.6586379,-0.3599539,-4.238802,-0.1779689,0.6092288,1.529417,0.3951044,-0.1884573,0.4229857,0.08252183,-0.757509,0.05236707,-0.01524207,0.6625114,1.557377,0.2293096,0.28969,1.263443,0.3750094,286.7967,204.7927,43.16846,True
0,0.9111122,0.1155545,0.7634531,0.2358908,-1.251938,-4.60794,-2.839852,0.5845215,1.309594,0.4970419,-1.549882,-0.09299684,1.1,2.9,-0.211525,0.5042267,-0.6580579,-0.36872,-4.219652,-0.1935673,0.6076108,1.528247,0.3957083,-0.1918617,0.4026891,0.05916597,-0.7577231,0.05790804,-0.01707246,0.6624562,1.557353,0.2296305,0.2879139,1.262957,0.3769675,286.4302,205.8643,42.40779,True
0,0.9222233,0.1318092,0.6524214,0.1951078,-1.253779,-4.611396,-2.840678,0.5833822,1.307978,0.4970491,-1.549632,0.02334648,1.1,2.9,-0.2797669,0.4906596,-0.6564231,-0.3763691,-4.212019,-0.1948358,0.6059527,1.526779,0.3965065,-0.1984267,0.3813169,0.03903446,-0.7581189,0.06267323,-0.01816915,0.6624187,1.557228,0.2298775,0.2861085,1.262436,0.3792425,286.0464,206.739,42.10645,True
0,0.9333345,0.1395709,0.5295579,0.141641,-1.254287,-4.613465,-2.841831,0.581816,1.30596,0.4974029,-1.549026,0.0547757,1.1,2.9,-0.3796803,0.3795189,-0.6914408,-0.3849812,-4.215188,-0.1843741,0.6038969,1.525104,0.3973088,-0.1980094,0.3739407,0.07846579,-0.755959,0.06825122,-0.0201074,0.6621038,1.556997,0.2300653,0.2843105,1.261674,0.3815418,285.7019,207.2504,42.34467,True
0,0.9444456,0.1385952,0.4953825,0.1290913,-1.25655,-4.617732,-2.841994,0.5803401,1.304011,0.4976087,-1.548256,0.06963752,1.1,2.9,-0.4185761,0.3157247,-0.8257821,-0.3986374,-4.218466,-0.1752251,0.6017907,1.523751,0.3982773,-0.1812474,0.4370131,0.1633762,-0.7515856,0.07849814,-0.02613893,0.6615646,1.556762,0.2305105,0.2825912,1.260469,0.3835783,285.4747,207.4601,42.80525,True
0,0.9555568,0.1493558,0.4679245,0.1580361,-1.260615,-4.621518,-2.842899,0.5787549,1.302336,0.4977839,-1.547777,0.04303443,0.6,2.7,-0.3831911,0.418031,-0.8498533,-0.4102158,-4.20211,-0.1874916,0.5995169,1.522824,0.3991525,-0.1773406,0.4766005,0.2388841,-0.7467206,0.08819244,-0.03128575,0.6611668,1.556666,0.2309687,0.2809261,1.258742,0.3852248,285.3483,207.6342,43.06005,True
0,0.9666679,0.2167282,0.3830832,0.1862744,-1.263954,-4.622087,-2.847377,0.5770224,1.301362,0.4976761,-1.547202,0.05210099,0.6,2.7,-0.308418,0.4990308,-0.7583486,-0.4173349,-4.184496,-0.2026354,0.5974731,1.521854,0.3997269,-0.2101132,0.5085819,0.2679085,-0.742811,0.0985568,-0.03545173,0.6608559,1.556804,0.2316628,0.2791517,1.256467,0.3864675,285.3216,207.9121,42.92478,True
0,0.977779,0.2573193,0.3426608,0.1780037,-1.266268,-4.624372,-2.850848,0.5755839,1.300181,0.4976447,-1.547544,-0.03175408,0.6,2.7,-0.2651671,0.482322,-0.6875237,-0.4235348,-4.176443,-0.2084168,0.5953477,1.520666,0.4003897,-0.2375837,0.4976894,0.185112,-0.7440158,0.1055918,-0.03691381,0.660692,1.556861,0.232281,0.2771898,1.253849,0.3874441,285.3857,209.1816,41.63441,True
0,0.9888902,0.2915172,0.2989676,0.1623022,-1.268011,-4.625875,-2.854871,0.5738912,1.298888,0.4974029,-1.549916,-0.2166525,0.6,2.7,-0.2583946,0.4232022,-0.6219864,-0.4286177,-4.172436,-0.2094885,0.5932691,1.519631,0.4007664,-0.2307457,0.5135409,0.1264096,-0.7448132,0.1148367,-0.04137647,0.6602964,1.556758,0.2328203,0.275098,1.251172,0.388216,285.5166,211.5109,39.37006,True
0,1.000001,0.3012227,0.2574297,0.1593972,-1.270161,-4.627167,-2.85806,0.5721933,1.29748,0.4972789,-1.5493,0.05790629,0.2,3.8,-0.351071,0.4161235,-0.616874,-0.4364122,-4.165411,-0.2086299,0.5913048,1.518554,0.4013641,-0.2308435,0.5060989,0.1178896,-0.7440936,0.1235804,-0.04508412,0.6602013,1.556916,0.2332933,0.2731815,1.248552,0.388706,285.7185,213.6583,37.38393,True
0,1.011112,0.3012227,0.2574297,0.1593972,-1.270161,-4.627167,-2.85806,0.5721933,1.29748,0.4972789,-1.549089,0.01823431,0.2,3.8,-0.351071,0.4161235,-0.616874,-0.4364122,-4.165411,-0.2086299,0.5913048,1.518554,0.4013641,-0.2308435,0.5060989,0.1178896,-0.7440936,0.1235804,-0.04508412,0.6602013,1.556916,0.2332933,0.2715215,1.246012,0.3889946,285.9152,214.9352,36.17107,True
0,1.022224,0.3175921,0.1212122,0.1720609,-1.274018,-4.625288,-2.866122,0.5683045,1.294486,0.4970109,-1.544366,0.4316359,0.2,3.8,-0.5013371,0.4448838,-0.5267583,-0.4479735,-4.145202,-0.2114694,0.5872195,1.516429,0.4020591,-0.2374598,0.4807271,0.1989775,-0.7377191,0.1390603,-0.05067063,0.6589485,1.55683,0.2343676,0.2702973,1.243575,0.3891704,286.1199,215.9957,35.10221,True
0,1.033335,0.3167696,0.0361053,0.1854345,-1.275726,-4.622567,-2.870313,0.5663812,1.29318,0.4968505,-1.550882,-0.5995935,0.2,3.8,-0.4816459,0.4337115,-0.4695098,-0.4523129,-4.136957,-0.2144473,0.5850308,1.515398,0.4024003,-0.2299746,0.4850085,0.2031641,-0.7356471,0.1475302,-0.05453195,0.6581749,1.556754,0.234977,0.269283,1.241504,0.3891889,286.3745,216.8914,34.15672,True
0,1.044446,0.3030634,-0.002136283,0.2027561,-1.278074,-4.621148,-2.873895,0.564445,1.291742,0.4966686,-1.548031,0.2659318,0.2,3.8,-0.4459721,0.4652211,-0.4312668,-0.4570032,-4.125032,-0.221493,0.583065,1.51454,0.4026263,-0.222553,0.4946014,0.2009352,-0.7338106,0.1563634,-0.05888036,0.6574903,1.556755,0.2356791,0.2671244,1.239481,0.3889692,285.972,216.4865,34.50384,True
0,1.055557,0.282859,-0.005263992,0.214509,-1.280672,-4.621166,-2.876607,0.5626661,1.290623,0.4964011,-1.546848,0.1051331,0,2.1,-0.4422599,0.5407223,-0.4136807,-0.4630502,-4.108176,-0.2317853,0.5810728,1.513864,0.402931,-0.2173328,0.4903043,0.1891812,-0.7323443,0.1640258,-0.06235579,0.656655,1.556697,0.2364604,0.2649778,1.237173,0.3886411,285.7102,216.7731,34.21616,True
0,1.066668,0.2721996,0.005554669,0.24214,-1.284229,-4.620595,-2.879439,0.5611839,1.289723,0.4959354,-1.546399,0.04029974,0,2.1,-0.4427258,0.5872989,-0.3739033,-0.46778,-4.092145,-0.241178,0.5794174,1.513375,0.4030914,-0.210063,0.4838779,0.1699456,-0.7314659,0.1718182,-0.06605625,0.6558502,1.556735,0.2372088,0.2630704,1.234585,0.3881437,285.7755,217.6353,33.32636,True
0,1.077779,0.2615569,0.004543118,0.2474713,-1.286916,-4.62052,-2.882039,0.5596623,1.288832,0.4956167,-1.545856,0.04929839,0,2.1,-0.4369576,0.5751633,-0.3229161,-0.4710354,-4.080855,-0.2465357,0.5776827,1.512753,0.4033508,-0.2005819,0.4689418,0.1571098,-0.7303187,0.1789506,-0.06951383,0.655032,1.556781,0.2379122,0.2613716,1.231862,0.3875299,286.0166,218.9088,31.91193,True
0,1.08889,0.2562621,-0.009364344,0.2411814,-1.289175,-4.61931,-2.885077,0.5583969,1.288243,0.4951468,-1.545754,0.008960294,0,2.1,-0.4452012,0.4541887,-0.2395888,-0.4710711,-4.078654,-0.2432614,0.5763294,1.512448,0.403441,-0.1997502,0.4454463,0.1305194,-0.7300199,0.1852556,-0.07203877,0.6542403,1.556905,0.2386081,0.2598422,1.229258,0.3869096,286.3409,220.5561,30.0972,True
0,1.100002,0.259576,-0.05625224,0.2319101,-1.29067,-4.617156,-2.888678,0.5569059,1.287471,0.4947517,-1.54569,0.005891268,0,2.1,-0.4812639,0.2864182,-0.1478253,-0.4692948,-4.08276,-0.2330626,0.5749239,1.512112,0.4034722,-0.2022022,0.4421628,0.09859526,-0.7302489,0.1923315,-0.07497118,0.6534214,1.556973,0.2391768,0.2585164,1.22698,0.386305,286.6214,222.1863,28.3745,True
0,1.111113,0.256462,-0.08824126,0.2289424,-1.292516,-4.614419,-2.892192,0.5555624,1.286741,0.4943886,-1.545835,-0.01328029,0,2.9,-0.4995724,0.1818969,-0.1207466,-0.4697981,-4.085124,-0.2248392,0.5734657,1.511915,0.4035716,-0.1926638,0.4250991,0.09108599,-0.729655,0.198517,-0.07779333,0.652554,1.557095,0.2397614,0.2573179,1.225127,0.3857318,286.817,223.3357,27.17319,True
0,1.122224,0.2534229,-0.145743,0.230406,-1.294049,-4.610512,-2.896054,0.5542377,1.286222,0.4940512,-1.546171,-0.03054604,0,2.9,-0.454982,0.1304995,-0.1130503,-0.4707164,-4.086123,-0.220228,0.5722307,1.511722,0.4037657,-0.1732589,0.3921431,0.1090751,-0.7281476,0.2038055,-0.08038592,0.6516679,1.557195,0.2402587,0.2562885,1.223706,0.3851387,286.8995,224.0231,26.49388,True
0,1.133335,0.2439818,-0.1934814,0.257379,-1.296835,-4.60645,-2.899514,0.5530984,1.285806,0.4937551,-1.545961,0.01945067,0,2.9,-0.3985472,0.09284994,-0.09897886,-0.4714498,-4.086435,-0.2173326,0.5709167,1.511523,0.4039483,-0.1690058,0.3804064,0.1058616,-0.7273945,0.2094624,-0.08292151,0.650853,1.557323,0.2408614,0.2553278,1.222582,0.3844524,286.8331,224.2113,26.30064,True
0,1.144446,0.2378903,-0.3096423,0.2539466,-1.297731,-4.598321,-2.90419,0.552074,1.285554,0.4935014,-1.545962,-0.0002949625,0,2.9,-0.2962833,0.04214689,-0.07692625,-0.4712517,-4.089061,-0.2150396,0.5697312,1.511333,0.4040694,-0.1668553,0.3580356,0.1048261,-0.7265381,0.2144649,-0.0848856,0.6499876,1.557338,0.2413154,0.2544816,1.22161,0.3836195,286.7005,224.3754,26.10256,True
0,1.155557,0.2327058,-0.3672442,0.2426342,-1.298377,-4.592187,-2.908285,0.5509831,1.285257,0.4932759,-1.545548,0.03787064,1.3,4.5,-0.2623243,0.03354174,-0.08692047,-0.4727191,-4.089358,-0.2127288,0.56839,1.511127,0.4041388,-0.1604773,0.3484335,0.1005316,-0.7257907,0.2196979,-0.08740255,0.6491073,1.557412,0.2418511,0.2537944,1.220677,0.3825726,286.6089,224.6672,25.72348,True
0,1.166668,0.2327058,-0.3672442,0.2426342,-1.298377,-4.592187,-2.908285,0.5509831,1.285257,0.4932759,-1.545659,-0.01052231,1.3,4.5,-0.2623243,0.03354174,-0.08692047,-0.4727191,-4.089358,-0.2127288,0.56839,1.511127,0.4041388,-0.1604773,0.3484335,0.1005316,-0.7257907,0.2196979,-0.08740255,0.6491073,1.557412,0.2418511,0.253373,1.219726,0.3812514,286.5638,225.2037,25.09219,True
0,1.17778,0.1815579,-0.3686546,0.2128555,-1.300052,-4.582677,-2.913494,0.550095,1.284374,0.4924526,-1.543324,0.2139065,1.3,4.5,-0.2678403,0.1128176,-0.142731,-0.4781759,-4.081911,-0.2133757,0.5659876,1.510658,0.4042435,-0.1455488,0.3196831,0.09724432,-0.7243825,0.2293247,-0.09191608,0.6474277,1.557455,0.2426624,0.2534602,1.218668,0.3795798,286.6642,225.3066,24.71561,True
0,1.188891,0.1673411,-0.2280905,0.2097369,-1.302667,-4.584288,-2.914376,0.549916,1.283893,0.4920764,-1.546823,-0.3216762,1.3,4.5,-0.2770685,0.2077248,-0.1493794,-0.4812929,-4.070949,-0.2196975,0.5647902,1.510434,0.4042168,-0.1295441,0.3005292,0.09712507,-0.7235713,0.2334,-0.09412757,0.6466504,1.55749,0.2429297,0.2538063,1.217665,0.3778164,286.8671,225.2755,24.34228,True
0,1.200002,0.1692951,-0.158814,0.213506,-1.305291,-4.584228,-2.916429,0.5495874,1.283563,0.4918432,-1.545165,0.1545592,1.3,4.5,-0.2521264,0.2585761,-0.1279325,-0.4828008,-4.062074,-0.2257338,0.563811,1.510266,0.4043601,-0.109224,0.2792405,0.1001637,-0.7225646,0.2367633,-0.09639471,0.6459274,1.55756,0.2432661,0.254143,1.216514,0.3756024,286.8159,225.1262,24.225,True
0,1.211113,0.1584391,-0.07781339,0.2225267,-1.308477,-4.585675,-2.917416,0.5494331,1.283117,0.4916651,-1.544826,0.02925804,2.1,5.4,-0.1697136,0.3070816,-0.1113251,-0.4846026,-4.051425,-0.2363135,0.5628201,1.510036,0.4042826,-0.098571,0.2515465,0.09585174,-0.7219164,0.2396645,-0.09791937,0.6452677,1.557521,0.2433918,0.2543849,1.215216,0.373237,286.867,225.1527,23.59662,True
0,1.222224,0.1519724,-0.04470055,0.2372124,-1.311661,-4.58527,-2.918982,0.5491378,1.282812,0.4914989,-1.545643,-0.07482414,2.1,5.4,-0.1122056,0.3281927,-0.1213191,-0.4873121,-4.043888,-0.2435378,0.5618845,1.509932,0.4041791,-0.08806972,0.2184606,0.07452544,-0.721779,0.2411331,-0.09866852,0.6445976,1.557413,0.2435317,0.2544447,1.213985,0.3712739,287.0358,225.478,22.52814,True
0,1.233335,0.1434898,-0.06071677,0.2352025,-1.31386,-4.583446,-2.920744,0.5488086,1.282536,0.4912863,-1.545159,0.04513608,2.1,5.4,-0.09935921,0.3366284,-0.1181812,-0.4893489,-4.036342,-0.2493033,0.5611501,1.50994,0.4041238,-0.07962702,0.1928793,0.06277476,-0.721682,0.2430834,-0.09961367,0.6439565,1.5574,0.2436984,0.2543609,1.212944,0.3700185,287.1903,225.9661,21.49831,True
0,1.244446,0.1244924,-0.1355284,0.2091165,-1.314208,-4.578724,-2.922786,0.548534,1.282459,0.491061,-1.545274,-0.01095292,2.1,5.4,-0.0951241,0.2639384,-0.08787608,-0.4894347,-4.035159,-0.2494322,0.5607507,1.509885,0.404084,-0.06575212,0.138529,0.05639193,-0.7208825,0.242311,-0.09907811,0.6434864,1.557327,0.2437472,0.2541543,1.212157,0.369583,287.2598,226.7182,20.56066,True
0,1.255558,0.1064673,-0.1816384,0.1732386,-1.314186,-4.575069,-2.924249,0.5484229,1.282361,0.4907413,-1.545225,0.00476743,1.1,3.5,-0.09421588,0.177464,-0.06510716,-0.4891913,-4.037464,-0.2464324,0.5602676,1.509822,0.40397,-0.06149665,0.1310556,0.05319026,-0.7202285,0.2441212,-0.100104,0.642893,1.557443,0.243926,0.2538701,1.211623,0.3697841,287.2362,227.6352,19.864,True
0,1.266669,0.08837945,-0.2076458,0.1180412,-1.312919,-4.571955,-2.925406,0.5484152,1.282438,0.4903877,-1.54487,0.03240793,1.1,3.5,-0.1053976,0.0560562,-0.06378401,-0.4888509,-4.045685,-0.2376035,0.5600573,1.509924,0.403949,-0.06371516,0.1150495,0.04259537,-0.7202104,0.2452646,-0.1001631,0.6424065,1.557545,0.2439938,0.2536516,1.211255,0.3702652,287.1684,228.4109,19.58841,True
0,1.27778,0.08620284,-0.1992216,0.105206,-1.313461,-4.569647,-2.926996,0.5482767,1.282348,0.4901543,-1.54466,0.01913166,1.1,3.5,-0.1323081,-0.03876404,-0.04824487,-0.4879822,-4.052983,-0.2285834,0.5596299,1.510185,0.4039133,-0.06701296,0.09476529,0.02882452,-0.720539,0.2461186,-0.1001061,0.6419318,1.557667,0.2440844,0.2536729,1.210948,0.3705932,287.141,228.8301,19.6936,True
0,1.288891,0.09466338,-0.1736768,0.09862064,-1.314047,-4.56865,-2.928474,0.5484416,1.282572,0.4900842,-1.544629,0.002831554,1.1,3.5,-0.104548,-0.09879876,-0.01487748,-0.4862724,-4.059234,-0.2227849,0.5593503,1.510306,0.40394,-0.07118616,0.08732548,0.03632671,-0.7200128,0.2469453,-0.09978438,0.6414177,1.557703,0.2441638,0.2539157,1.210662,0.3705113,287.1657,228.9588,19.87607,True
0,1.300002,0.09886754,-0.1481049,0.09844352,-1.315155,-4.567527,-2.93018,0.5483406,1.282528,0.4901152,-1.54541,-0.07132688,1.1,3.5,-0.02141007,-0.1173789,-0.003041275,-0.4854655,-4.062644,-0.2224826,0.5590293,1.510122,0.4038613,-0.07523787,0.09692829,0.05555382,-0.7184399,0.2489973,-0.1006992,0.6408466,1.557612,0.2442174,0.2542779,1.210407,0.3699515,287.2436,228.8251,20.01428,True
0,1.311113,0.1105124,-0.1182091,0.1035484,-1.316427,-4.56705,-2.931934,0.5483546,1.282515,0.4902403,-1.545806,-0.03554884,0.8,4.8,0.03716672,-0.1015966,-0.0120188,-0.4857691,-4.064029,-0.223742,0.5585963,1.510078,0.403825,-0.06987208,0.09481344,0.05869731,-0.7178439,0.2506303,-0.1014009,0.6404298,1.557612,0.244226,0.2546677,1.210195,0.3690228,287.2846,228.7838,19.79233,True
0,1.322224,0.1105124,-0.1182091,0.1035484,-1.316427,-4.56705,-2.931934,0.5483546,1.282515,0.4902403,-1.546067,-0.02361079,0.8,4.8,0.03716672,-0.1015966,-0.0120188,-0.4857691,-4.064029,-0.223742,0.5585963,1.510078,0.403825,-0.06987208,0.09481344,0.05869731,-0.7178439,0.2506303,-0.1014009,0.6404298,1.557612,0.244226,0.2551141,1.210038,0.367955,287.3132,228.7152,19.45607,True
0,1.333336,0.1115265,-0.1045027,0.08320779,-1.317278,-4.564732,-2.93501,0.5484166,1.282384,0.4904246,-1.544715,0.1237705,0.8,4.8,0.07446077,-0.008781575,-0.05323341,-0.4887976,-4.05975,-0.2303546,0.55768,1.509883,0.4036508,-0.04025358,0.0702986,0.03393283,-0.7181661,0.2518667,-0.1024787,0.6399611,1.557676,0.2440791,0.2554567,1.20988,0.3669322,287.2754,228.4738,19.2868,True
0,1.344447,0.1082373,-0.07373177,0.06701198,-1.317533,-4.564888,-2.936031,0.5485458,1.282373,0.4903498,-1.547426,-0.2488089,0.8,4.8,0.05754197,0.07456527,-0.07800467,-0.4913063,-4.052901,-0.2362067,0.5576042,1.50995,0.4035625,-0.02940756,0.04688364,0.04881458,-0.7167488,0.2512136,-0.1022124,0.6396182,1.557721,0.2438922,0.255656,1.20973,0.3661272,287.2833,228.2739,19.13775,True
0,1.355558,0.1060375,-0.05145331,0.05513494,-1.317778,-4.564969,-2.937086,0.5487654,1.282394,0.4902127,-1.546153,0.1185369,1.1,6.3,0.05597928,0.1468187,-0.05187207,-0.4917474,-4.044206,-0.2443421,0.5573083,1.510126,0.4034257,-0.02294962,0.03410837,0.05196325,-0.7161884,0.2511313,-0.1023029,0.6394073,1.557828,0.2438285,0.2559572,1.209503,0.3656458,287.1933,228.2493,18.96049,True
0,1.366669,0.1133731,-0.0121855,0.03141303,-1.317562,-4.56637,-2.938216,0.5489625,1.282519,0.4900699,-1.5457,0.04017596,1.1,6.3,0.07595988,0.1792509,0.01529542,-0.4900829,-4.036494,-0.252636,0.5571567,1.510307,0.4032559,-0.02523298,0.01702335,0.0349787,-0.7163482,0.2504706,-0.1014766,0.6392128,1.557866,0.2437279,0.2562936,1.209112,0.3654608,287.1769,228.3159,18.84364,True
0,1.37778,0.1196792,0.01864278,0.02053669,-1.317698,-4.567528,-2.939512,0.5491217,1.282574,0.4899213,-1.545704,-0.0005956677,1.1,6.3,0.09208313,0.1769156,0.03217055,-0.4896445,-4.032718,-0.2573146,0.5569248,1.510369,0.4031782,-0.02848395,0.01271568,0.02864602,-0.71601,0.249996,-0.1007607,0.6389466,1.557821,0.2435622,0.256541,1.208614,0.3655476,287.2741,228.5521,18.64904,True
0,1.388891,0.1376662,0.06119467,0.005305743,-1.317623,-4.569834,-2.941043,0.5491546,1.282682,0.4898469,-1.546138,-0.03961873,1.1,6.3,0.1101284,0.1533677,0.03607783,-0.489358,-4.030571,-0.2610417,0.5569023,1.510542,0.4031456,-0.03055625,-0.007520515,0.03190772,-0.7154588,0.2488255,-0.0994648,0.6387873,1.557845,0.2433851,0.2567053,1.208088,0.3658587,287.4373,228.9596,18.35513,True
0,1.400002,0.1472575,0.06227759,0.004227699,-1.31785,-4.570416,-2.942917,0.5491047,1.282815,0.4898262,-1.546283,-0.01292603,1.1,6.3,0.1120162,0.1086332,0.03253534,-0.4889526,-4.031457,-0.2613621,0.5567262,1.510748,0.4031224,-0.02307326,-0.03310113,0.02977659,-0.7147349,0.2467123,-0.09813109,0.6385873,1.557808,0.2431562,0.2567497,1.207605,0.3663757,287.6097,229.3492,18.10826,True
0,1.411114,0.1483755,0.04204033,0.004370418,-1.317833,-4.570152,-2.944656,0.5491338,1.282977,0.489804,-1.546771,-0.04458409,1,6.4,0.0979051,0.03620895,0.03852093,-0.4877713,-4.035654,-0.2582268,0.5568948,1.510916,0.4030674,-0.01462422,-0.05121904,0.0201404,-0.7147525,0.2450388,-0.09703494,0.6385013,1.557764,0.2429147,0.2566677,1.207194,0.3670544,287.7329,229.742,17.88747,True
0,1.422225,0.1409532,0.02707248,-0.000842765,-1.317615,-4.569956,-2.945938,0.5491964,1.283208,0.4898002,-1.546659,0.01055522,1,6.4,0.08503021,-0.02673817,0.0573525,-0.4858629,-4.04004,-0.2548475,0.557052,1.510996,0.4029143,-0.008340493,-0.05979284,0.007327958,-0.7147242,0.2429635,-0.09576834,0.6384299,1.557655,0.2427781,0.2564489,1.206856,0.3678793,287.8047,230.0938,17.72856,True
0,1.433336,0.1282308,-0.0007560141,-0.0144842,-1.316749,-4.56903,-2.947129,0.5493228,1.283388,0.4897869,-1.546223,0.03965054,1,6.4,0.07624298,-0.09598639,0.06117703,-0.4843299,-4.046705,-0.2496093,0.5572042,1.51108,0.4027193,-0.005357474,-0.06302666,-0.014002,-0.7155621,0.2416901,-0.09485567,0.638375,1.557651,0.2425983,0.256239,1.206551,0.3687388,287.8381,230.5233,17.57169,True
0,1.444447,0.1080163,-0.01581686,-0.03141961,-1.316094,-4.56865,-2.947975,0.5494701,1.283473,0.4897978,-1.54571,0.046543,1,6.4,0.05484573,-0.1300667,0.0674515,-0.4830399,-4.051083,-0.2460822,0.5573552,1.511183,0.402602,-0.003279284,-0.06518462,-0.01933056,-0.715634,0.2400745,-0.09363808,0.6384038,1.557655,0.2424178,0.2561687,1.206246,0.3694741,287.8908,230.9272,17.45604,True
0,1.455558,0.09842049,-0.01702299,-0.044168,-1.314954,-4.568569,-2.948597,0.549702,1.283583,0.4897735,-1.545411,0.02700081,1,6.4,0.03140302,-0.1245785,0.06460255,-0.4819102,-4.05347,-0.2430843,0.5574852,1.511307,0.4025548,0.001049377,-0.06731398,-0.01403256,-0.7152862,0.238552,-0.09278107,0.638337,1.557548,0.2422771,0.2562568,1.205948,0.3699727,287.9824,231.1923,17.40548,True
0,1.466669,0.0856227,-0.01391333,-0.05163712,-1.314149,-4.56867,-2.949054,0.54988,1.28365,0.4898133,-1.545245,0.01505065,1,5.5,0.02944298,-0.107597,0.07433768,-0.4806409,-4.05414,-0.2427093,0.5575935,1.511345,0.402467,0.006356604,-0.06091787,-0.01516575,-0.7154087,0.2378127,-0.09249185,0.6383004,1.557492,0.2421386,0.2565055,1.205661,0.3701698,288.0815,231.214,17.47215,True
0,1.47778,0.0856227,-0.01391333,-0.05163712,-1.314149,-4.56867,-2.949054,0.54988,1.28365,0.4898133,-1.54517,0.006860958,1,5.5,0.02944298,-0.107597,0.07433768,-0.4806409,-4.05414,-0.2427093,0.5575935,1.511345,0.402467,0.006356604,-0.06091787,-0.01516575,-0.7154087,0.2378127,-0.09249185,0.6383004,1.557492,0.2421386,0.2568373,1.205398,0.3700937,288.1639,231.1003,17.53282,True
0,1.488891,0.07381609,0.0179978,-0.05398552,-1.313188,-4.570184,-2.94992,0.5502251,1.283845,0.4899893,-1.544678,0.04495516,1,5.5,0.06232608,-0.03923105,0.02871721,-0.481352,-4.052875,-0.2463704,0.557728,1.511512,0.4023442,0.01043547,-0.05778089,-0.03332084,-0.7164894,0.2352485,-0.09099622,0.6383878,1.557451,0.2418559,0.2571632,1.205175,0.3698265,288.2359,230.8962,17.58301,True
0,1.500003,0.07696889,0.03182813,-0.05728549,-1.312568,-4.571068,-2.950626,0.5503752,1.28391,0.489989,-1.545725,-0.09605266,1,5.5,0.06449884,-0.01148232,0.02037907,-0.4815767,-4.051435,-0.2484005,0.5577961,1.511645,0.402184,0.01468965,-0.05139803,-0.0333671,-0.716614,0.2343691,-0.0906572,0.6384603,1.557413,0.2416816,0.257375,1.205034,0.3694657,288.3004,230.7681,17.50628,True
0,1.511114,0.08220711,0.06592882,-0.05753351,-1.312272,-4.573076,-2.951223,0.5506624,1.283954,0.4899769,-1.545678,0.00528429,0.5,3,0.05824827,0.001265049,0.02905896,-0.4810883,-4.050053,-0.2500322,0.5578988,1.511735,0.402118,0.01037978,-0.04394996,-0.03760086,-0.7171882,0.2340068,-0.0904279,0.6384533,1.557425,0.2415621,0.2576596,1.20498,0.3692118,288.3597,230.4241,17.62066,True
0,1.522225,0.07361329,0.09253697,-0.05771785,-1.311972,-4.575183,-2.951166,0.5510114,1.284023,0.4900169,-1.545877,-0.01831876,0.5,3,0.06352546,-0.01367979,0.03102972,-0.4803991,-4.051197,-0.249865,0.5580539,1.511874,0.4021239,0.007243741,-0.03967239,-0.03012414,-0.7172799,0.2336207,-0.08993814,0.6386331,1.557521,0.2414105,0.2578707,1.204992,0.3691526,288.3664,230.1982,17.70739,True
0,1.533336,0.07361329,0.09253697,-0.05771785,-1.311972,-4.575183,-2.951166,0.5510114,1.284023,0.4900169,-1.546095,-0.01976443,0.5,3,0.06352546,-0.01367979,0.03102972,-0.4803991,-4.051197,-0.249865,0.5580539,1.511874,0.4021239,0.007243741,-0.03967239,-0.03012414,-0.7172799,0.2336207,-0.08993814,0.6386331,1.557521,0.2414105,0.2582062,1.205019,0.3694663,288.3524,229.737,18.11907,True
0,1.544447,0.05755289,0.1266414,-0.04942378,-1.312236,-4.577859,-2.950542,0.5513609,1.284121,0.4901052,-1.545037,0.09695143,0.5,3,0.06028524,-0.01897188,0.02782325,-0.4801472,-4.052005,-0.2498727,0.558149,1.51196,0.4020333,0.007397044,-0.04071348,-0.01519707,-0.7166982,0.2327854,-0.08941457,0.6386511,1.557561,0.2412832,0.2581273,1.205016,0.3698683,288.3308,229.9903,18.00699,True
0,1.555558,0.03302234,0.1416007,-0.03352781,-1.312736,-4.581466,-2.949574,0.5519514,1.284395,0.4901295,-1.545526,-0.04555177,0.5,3,0.054906,-0.01676988,0.02150021,-0.4798196,-4.052584,-0.2503915,0.5584869,1.512173,0.4019394,0.009357944,-0.04926582,-0.03331234,-0.7179201,0.2307206,-0.08821002,0.638682,1.557518,0.2409568,0.2580254,1.205007,0.3704486,288.3357,230.3076,17.81854,True
0,1.566669,0.01920443,0.1276961,-0.03555231,-1.312379,-4.582402,-2.948983,0.5521942,1.284543,0.4901497,-1.544852,0.06219091,1.6,1.9,0.0720103,-0.03826094,0.03608333,-0.4786995,-4.054458,-0.2503177,0.558684,1.512254,0.4018142,0.01676661,-0.05460689,-0.03869331,-0.7183025,0.2291473,-0.08746274,0.6387266,1.557459,0.2407761,0.2580502,1.205091,0.3713487,288.3976,230.5856,17.65201,True
0,1.577781,0.005409827,0.1041431,-0.04602233,-1.311599,-4.58279,-2.948511,0.5522809,1.28471,0.4902415,-1.545418,-0.05225445,1.6,1.9,0.0826814,-0.06719062,0.05174274,-0.477149,-4.057654,-0.2486657,0.5589055,1.512298,0.4017303,0.02533955,-0.05884421,-0.03451068,-0.7184522,0.2280081,-0.08724063,0.6387031,1.557406,0.2405553,0.2580361,1.205317,0.3724318,288.4267,231.0144,17.50436,True
0,1.588892,-0.0009292942,0.080615,-0.05650345,-1.310605,-4.583003,-2.948215,0.5523998,1.284804,0.4903212,-1.544992,0.03952084,1.6,1.9,0.09004766,-0.1013597,0.05780643,-0.4757077,-4.062351,-0.2457682,0.5591366,1.512321,0.4016488,0.02757038,-0.05989956,-0.02492893,-0.7180692,0.2267285,-0.08664515,0.6386813,1.557268,0.2403479,0.2580265,1.205647,0.3735195,288.3877,231.2526,17.63641,True
0,1.600003,-0.001966668,0.06676017,-0.05747033,-1.310047,-4.58347,-2.947951,0.5526103,1.285005,0.4904752,-1.545028,-0.003507146,1.6,1.9,0.08993419,-0.1044783,0.04712769,-0.475419,-4.06485,-0.2445626,0.559329,1.512384,0.4016383,0.02656244,-0.06629273,-0.02170178,-0.7180319,0.2251434,-0.08593328,0.6387767,1.557321,0.2402697,0.2579999,1.20604,0.3744408,288.332,231.3246,17.89967,True
0,1.611114,-0.007265398,0.05609367,-0.05739037,-1.309454,-4.583792,-2.947577,0.5527209,1.285116,0.4905422,-1.545282,-0.02314871,1.6,1.9,0.07932092,-0.07239359,0.03681862,-0.4755021,-4.064054,-0.245736,0.559499,1.512454,0.4015729,0.03721773,-0.07693436,-0.0228536,-0.7182055,0.2232086,-0.08530584,0.6387994,1.557289,0.2400677,0.2580061,1.206401,0.375248,288.2634,231.2803,18.19315,True
0,1.622225,-0.007292984,0.06676424,-0.05640135,-1.309133,-4.58527,-2.947125,0.5528438,1.285263,0.490623,-1.545497,-0.0194641,1.7,4.3,0.06982701,-0.04998221,0.03708962,-0.4750014,-4.063188,-0.246817,0.5596585,1.512525,0.4014893,0.03821694,-0.07801985,-0.03032035,-0.7187696,0.2216505,-0.08467973,0.6389934,1.557208,0.2399604,0.2583191,1.206536,0.3758287,288.5093,229.8433,19.73877,True
0,1.633336,-0.01260966,0.06355897,-0.05531071,-1.308642,-4.585946,-2.946615,0.5529456,1.285456,0.4906669,-1.545444,0.005158429,1.7,4.3,0.0732531,-0.02665657,0.05001561,-0.4741396,-4.06135,-0.2493936,0.5598483,1.512679,0.4014068,0.03283053,-0.07909711,-0.03665484,-0.7193209,0.2203768,-0.08393139,0.6390612,1.55724,0.2398148,0.2585038,1.206719,0.3759097,288.4822,229.9253,19.58279,True
0,1.644447,-0.01363854,0.04973166,-0.05308315,-1.308149,-4.586215,-2.946338,0.5529785,1.285654,0.4907389,-1.545715,-0.02486241,1.7,4.3,0.07441437,-0.02032354,0.05751747,-0.4731175,-4.060861,-0.2506594,0.559929,1.512804,0.4012849,0.03172583,-0.08124604,-0.04089238,-0.7197012,0.2186534,-0.08296786,0.6391041,1.557198,0.2396951,0.2585665,1.206914,0.3757249,288.4109,230.234,19.13374,True
0,1.655559,-0.01675721,0.0166815,-0.05498036,-1.307237,-4.585317,-2.946188,0.5530218,1.285831,0.4907327,-1.545531,0.01704811,1.7,4.3,0.05513555,-0.03726793,0.0543755,-0.4724464,-4.063294,-0.2484532,0.5601847,1.51292,0.4012058,0.02744993,-0.08018711,-0.04191231,-0.720058,0.2173865,-0.08215106,0.6392479,1.55728,0.2395484,0.2585085,1.207132,0.3755198,288.3695,230.391,18.83502,True
0,1.66667,-0.01668734,-0.008925429,-0.06012389,-1.306205,-4.58442,-2.946345,0.5530354,1.286,0.4907205,-1.545683,-0.01400945,3.3,3.7,0.02316972,-0.05315515,0.06096843,-0.4712213,-4.065273,-0.2458263,0.5603873,1.513024,0.4011216,0.02324175,-0.07911628,-0.03654495,-0.7201848,0.2160882,-0.08128393,0.6393097,1.557309,0.2393909,0.2584156,1.207387,0.3753954,288.363,230.3663,18.77994,True
0,1.677781,-0.01878603,-0.02172284,-0.06109622,-1.305372,-4.583883,-2.946197,0.5530725,1.286125,0.4906952,-1.545573,0.01021799,3.3,3.7,0.01147515,-0.05846724,0.06637532,-0.4700485,-4.066358,-0.2445426,0.5605334,1.513098,0.4011087,0.01373194,-0.0737825,-0.02794174,-0.7202247,0.2151412,-0.08035929,0.6393912,1.557281,0.2393131,0.2583534,1.207676,0.3753548,288.349,230.2289,18.91385,True
0,1.688892,-0.02415113,-0.00681579,-0.06013255,-1.304838,-4.584492,-2.945569,0.5531833,1.286156,0.4906421,-1.545904,-0.03036258,3.3,3.7,0.01569308,-0.06807334,0.06626192,-0.4690556,-4.068336,-0.2430859,0.5606707,1.513139,0.4010618,0.008558404,-0.05991394,-0.0108696,-0.7196985,0.2147781,-0.07995103,0.6394534,1.557303,0.2392013,0.258384,1.207962,0.3753344,288.3204,230.0631,19.14142,True
0,1.700003,-0.02420412,0.01559123,-0.0549637,-1.304653,-4.585604,-2.945034,0.5532849,1.286211,0.4906199,-1.545759,0.01359992,3.3,3.7,0.02841678,-0.05953277,0.05554833,-0.4687366,-4.069129,-0.2433149,0.5607851,1.513119,0.4010377,0.01184344,-0.05349308,-0.0002588187,-0.7192703,0.2142927,-0.0797188,0.6395211,1.557233,0.2391729,0.2584838,1.208202,0.375307,288.2844,229.8923,19.36224,True
0,1.711114,-0.01790424,0.05948057,-0.02758213,-1.305802,-4.58778,-2.944513,0.5534212,1.286197,0.4905829,-1.545591,0.01523658,3.3,3.7,0.01343902,-0.02948795,0.03567825,-0.469209,-4.067753,-0.2441759,0.5608838,1.513057,0.4009888,0.01397255,-0.05242508,-0.0002826592,-0.7192154,0.2135027,-0.07935581,0.6395268,1.557224,0.2391169,0.2586017,1.208372,0.3752806,288.2639,229.7257,19.53185,True
0,1.722225,-0.01685723,0.07016446,-0.02339165,-1.305941,-4.588852,-2.944184,0.5535066,1.286336,0.4905183,-1.545836,-0.02247738,5.4,2.1,-0.0164649,-0.01218444,0.02011962,-0.469666,-4.066629,-0.2439187,0.5609915,1.513154,0.4008646,0.01922057,-0.07054354,-0.00988723,-0.7196074,0.2113242,-0.07803328,0.6396539,1.557166,0.2390454,0.2586769,1.20849,0.3752895,288.2749,229.5556,19.65832,True
0,1.733337,-0.01260317,0.06465998,-0.049989,-1.304543,-4.589714,-2.943955,0.5536104,1.286588,0.4903553,-1.546176,-0.0308684,5.4,2.1,-0.1327554,-0.03077488,0.01153072,-0.4696431,-4.068902,-0.2360799,0.5611262,1.513141,0.4006555,0.03719968,-0.07693523,-0.02390612,-0.7202764,0.2097093,-0.07792383,0.6397131,1.557137,0.2390058,0.2586775,1.208603,0.3753605,288.308,229.4342,19.70803,True
0,1.744448,-0.005068264,0.01956233,-0.1018773,-1.301258,-4.588804,-2.944432,0.5536662,1.286905,0.4902735,-1.546105,0.006798685,5.4,2.1,-0.2532355,-0.05474804,0.01360328,-0.4689118,-4.072021,-0.2259716,0.5611665,1.513294,0.4003878,0.02647197,-0.06737258,-0.02914415,-0.7207579,0.2091067,-0.0772322,0.6397535,1.557154,0.2389619,0.2586186,1.208754,0.3754919,288.3195,229.4053,19.70246,True
0,1.755559,-0.009224381,-0.03618314,-0.149416,-1.297648,-4.587082,-2.944605,0.553817,1.287145,0.4903355,-1.546122,-0.00172528,5.4,2.1,-0.2485657,-0.02408279,0.04148477,-0.4676932,-4.069504,-0.2257106,0.5612984,1.513369,0.4002864,0.003045648,-0.03862574,-0.02470349,-0.7209358,0.2101961,-0.07721782,0.6397296,1.557207,0.239007,0.2585543,1.208947,0.3756261,288.3432,229.3096,19.85249,True
0,1.76667,-0.0113249,-0.05336161,-0.1674028,-1.294922,-4.586349,-2.944603,0.554002,1.287394,0.4904623,-1.546343,-0.02020872,6.5,3.7,-0.09059684,0.03270492,0.04569567,-0.4675323,-4.063848,-0.2354349,0.5614295,1.513446,0.4002755,-0.002202587,-0.02263371,-0.01403295,-0.7207419,0.2106722,-0.07722794,0.6398072,1.557283,0.2389345,0.2585301,1.209163,0.3757444,288.3865,229.0047,20.25548,True
0,1.777781,-0.002841809,-0.04385368,-0.1813248,-1.292565,-4.586781,-2.944734,0.554274,1.287758,0.4908514,-1.545823,0.04766405,6.5,3.7,0.005091663,0.04417791,0.0214124,-0.4683344,-4.062416,-0.240093,0.5614426,1.51361,0.4002371,0.004247725,-0.02367669,-0.008786171,-0.7208916,0.2101464,-0.07720318,0.6399261,1.557237,0.2388642,0.2586351,1.209332,0.375854,288.4226,228.4885,20.85193,True
0,1.788892,0.02477829,-0.01395433,-0.1815591,-1.290771,-4.588149,-2.945651,0.5545967,1.288213,0.4914081,-1.545853,-0.003184973,6.5,3.7,0.05178548,0.06762259,-0.007634141,-0.4699084,-4.059629,-0.2449868,0.5616011,1.513803,0.4002304,0.01165732,-0.03752919,-0.01522512,-0.7212335,0.2087545,-0.07653898,0.6399635,1.557267,0.238667,0.2589006,1.209404,0.375982,288.4733,227.9829,21.35873,True
0,1.800003,0.04073972,-0.003211852,-0.1752524,-1.289258,-4.588869,-2.946518,0.5548759,1.288668,0.4920254,-1.546319,-0.04245158,6.5,3.7,0.05389325,0.06550236,-0.009793745,-0.4700735,-4.058213,-0.2466055,0.5617629,1.513978,0.4001858,0.01702806,-0.05456065,-0.01312098,-0.7213199,0.2069401,-0.07556187,0.6401228,1.557254,0.2384624,0.2592384,1.209403,0.3761753,288.5831,227.5984,21.65226,True
0,1.811115,0.0492917,-0.01491519,-0.1762413,-1.287197,-4.588706,-2.947409,0.5552824,1.289185,0.4926836,-1.547357,-0.09463939,6.5,3.7,0.06992792,0.04294172,0.0058608,-0.4693528,-4.058694,-0.2475517,0.5620786,1.514208,0.4001079,0.0256371,-0.08010595,-0.007829177,-0.7210684,0.204157,-0.07407422,0.6401414,1.557261,0.2381568,0.259594,1.209404,0.376539,288.7512,227.2542,21.81339,True
0,1.822226,0.04293155,-0.02991612,-0.1867814,-1.284638,-4.588315,-2.947701,0.5556507,1.289781,0.4931231,-1.547115,0.02284931,6.1,4.3,0.1063068,0.02341247,0.03093054,-0.4679062,-4.059227,-0.2495606,0.5625287,1.514511,0.3999286,0.05011798,-0.1056538,-0.01229366,-0.7213103,0.2009728,-0.07298127,0.6401711,1.557256,0.2379737,0.2599672,1.209447,0.3771329,288.9304,226.7421,22.1301,True
0,1.833337,0.04301767,-0.07595917,-0.2194919,-1.280426,-4.586482,-2.948562,0.556274,1.290477,0.4935176,-1.54672,0.03568764,6.1,4.3,0.132267,0.002690598,0.08058959,-0.4651797,-4.059024,-0.2520911,0.5631428,1.514866,0.3996665,0.06719737,-0.129062,-0.01242038,-0.721314,0.1976635,-0.07194184,0.6401292,1.557313,0.2377505,0.2603613,1.209526,0.3778977,289.0792,226.2345,22.54384,True
0,1.844448,0.04095034,-0.1070164,-0.2416414,-1.276538,-4.584752,-2.949419,0.5568549,1.291165,0.4939704,-1.545938,0.07114945,6.1,4.3,0.1411912,-0.04575168,0.1429993,-0.4608552,-4.061677,-0.2515672,0.5638801,1.515136,0.3994837,0.07361738,-0.1418284,-0.01033935,-0.7213662,0.1947662,-0.07062117,0.640351,1.557359,0.2374804,0.2608203,1.209621,0.3787903,289.1867,226.008,22.83276,True
