loc,t,aDotUA,bDotUA,gDotUA,aUA,bUA,gUA,xUA,yUA,zUA,qE,qDotE,emgA,emgB,aDotSH,bDotSH,gDotSH,aSH,bSH,gSH,xSH,ySH,zSH,aDotUB,bDotUB,gDotUB,aUB,bUB,gUB,xUB,yUB,zUB,xHand,yHand,zHand,aHand,bHand,gHand,enable
3,0,-0.3840132,-1.6172,-0.4390116,-1.348348,-3.947515,2.958452,0.559804,1.299217,0.4960194,-1.391258,-0.06058266,0,0,-0.4648145,0.1611973,-0.05975913,-0.4215241,-4.081244,-0.2217617,0.5654984,1.521442,0.3946238,-0.1346335,0.1756719,-0.02186067,-0.7455754,0.1866279,-0.02827292,0.6485022,1.557504,0.2337151,0.4126984,1.074171,0.3030308,315.3904,224.132,357.1088,True
3,0.01111111,-0.3840132,-1.6172,-0.4390116,-1.348348,-3.947515,2.958452,0.559804,1.299217,0.4960194,-1.391628,-0.03341624,0,0,-0.4648145,0.1611973,-0.05975913,-0.4215241,-4.081244,-0.2217617,0.5654984,1.521442,0.3946238,-0.1346335,0.1756719,-0.02186067,-0.7455754,0.1866279,-0.02827292,0.6485022,1.557504,0.2337151,0.4124796,1.074252,0.3010915,315.6287,222.5165,357.9442,True
3,0.02222222,-0.3523274,-1.472871,-0.3805059,-1.347165,-3.917249,2.958651,0.5549899,1.299757,0.49526,-1.394746,-0.2850685,0,0,-0.4150569,0.2266752,-0.01395303,-0.4221494,-4.064523,-0.2289341,0.5643986,1.521683,0.3942521,-0.1411653,0.2161164,-0.03466989,-0.7469687,0.1950884,-0.0312727,0.6488413,1.557482,0.234138,0.4130196,1.074322,0.2986204,315.7088,221.5356,357.9416,True
3,0.03333334,-0.3525558,-1.367214,-0.3568465,-1.346138,-3.905098,2.959857,0.5527624,1.300039,0.4949079,-1.387687,0.647479,0,0,-0.4063179,0.2318179,0.006242761,-0.4220061,-4.057518,-0.2311405,0.5638996,1.521799,0.3940401,-0.1561874,0.2437886,-0.04416244,-0.7479467,0.2005605,-0.03298298,0.649042,1.557477,0.2343791,0.4141296,1.074448,0.2961603,315.5545,221.0331,357.5361,True
3,0.04444445,-0.3676934,-1.258428,-0.3342551,-1.345117,-3.893657,2.961869,0.550495,1.300227,0.4944344,-1.390165,-0.2323885,0,0,-0.3972859,0.219636,0.06680511,-0.4194489,-4.051179,-0.2328442,0.5635128,1.522003,0.3937786,-0.1819317,0.2501352,-0.06096072,-0.7493986,0.204755,-0.0330698,0.6492487,1.557432,0.2345588,0.415446,1.074087,0.2927817,315.8399,219.4677,357.8202,True
3,0.05555556,-0.3763506,-1.197668,-0.3272794,-1.343738,-3.881781,2.963677,0.5482457,1.300439,0.4940326,-1.39049,-0.02696963,0,0,-0.4172964,0.1821435,0.111478,-0.4167043,-4.04808,-0.2303054,0.5632275,1.522167,0.3935132,-0.1856767,0.2255143,-0.1141348,-0.7526152,0.2070011,-0.03247911,0.6495655,1.557254,0.234668,0.4170776,1.073832,0.2891037,316.087,218.0597,357.5442,True
3,0.06666667,-0.3935005,-1.136976,-0.3234982,-1.342189,-3.869859,2.965907,0.5460625,1.300508,0.4935322,-1.3898,0.06309655,0,0,-0.423589,0.1500015,0.1390184,-0.4142771,-4.045827,-0.2273937,0.5627912,1.522086,0.393333,-0.1805428,0.2116177,-0.1333349,-0.7548027,0.2095584,-0.03259789,0.649839,1.557133,0.2348738,0.4185885,1.073845,0.2855681,316.1844,217.1152,356.8703,True
3,0.07777778,-0.410651,-1.094488,-0.3344833,-1.339946,-3.857972,2.968421,0.5439446,1.30065,0.4929991,-1.389814,-0.001884889,0,0,-0.3961599,0.132951,0.1194659,-0.4137913,-4.043347,-0.2261405,0.5624865,1.521999,0.3931479,-0.1644479,0.2318888,-0.1218292,-0.7558962,0.2143642,-0.03484453,0.6500891,1.556854,0.2350702,0.4196202,1.074121,0.2823529,316.1629,216.2572,356.3912,True
3,0.08888889,-0.4278303,-1.057405,-0.3539586,-1.337075,-3.846324,2.971247,0.5418634,1.300912,0.4924533,-1.389413,0.03679053,0,0,-0.3412229,0.13191,0.07206719,-0.4150158,-4.04085,-0.2265362,0.5621196,1.522044,0.393014,-0.1708294,0.2478746,-0.1207279,-0.7571761,0.2193463,-0.03637692,0.6504238,1.556556,0.235364,0.4200999,1.074662,0.2795914,316.0246,215.3395,356.2856,True
3,0.1,-0.4483373,-0.9501145,-0.3867624,-1.332683,-3.838682,2.975092,0.5400518,1.301178,0.491919,-1.389135,0.02506917,0,0,-0.3050401,0.1563473,0.05485146,-0.4156491,-4.034528,-0.2302913,0.5617088,1.52205,0.3928926,-0.1761493,0.2638548,-0.1196424,-0.7585855,0.2243878,-0.03789518,0.650687,1.556277,0.2355835,0.4200153,1.075387,0.2772558,315.812,214.4583,356.459,True
3,0.1111111,-0.480711,-0.7821226,-0.4157816,-1.32751,-3.834868,2.980693,0.5382714,1.301635,0.4914019,-1.383459,0.5189731,0.6,0,-0.2793888,0.2213555,0.02949217,-0.417198,-4.023551,-0.2380898,0.5613996,1.522252,0.3927195,-0.1731297,0.2659602,-0.1367255,-0.7609003,0.228849,-0.03933862,0.6511343,1.556084,0.2358046,0.4193342,1.076139,0.2751594,315.6279,213.439,356.9341,True
3,0.1222222,-0.522683,-0.5981175,-0.4396155,-1.321839,-3.833499,2.987459,0.5365881,1.302194,0.4909608,-1.394254,-0.9909897,0.6,0,-0.3071852,0.244029,0.007542044,-0.4186303,-4.015564,-0.2408329,0.5612713,1.522179,0.3925116,-0.1573194,0.2403601,-0.1538813,-0.7633477,0.2310523,-0.03984355,0.6515158,1.555832,0.2359624,0.417917,1.076991,0.2729492,315.7327,212.2416,357.5136,True
3,0.1333333,-0.5859345,-0.4321771,-0.4504787,-1.316393,-3.83348,2.996191,0.5348949,1.302872,0.4905639,-1.389035,0.4862599,0.6,0,-0.3367577,0.229021,0.04287248,-0.4173631,-4.00976,-0.2413181,0.5611943,1.522489,0.3923252,-0.1312516,0.1987184,-0.208391,-0.7677339,0.231926,-0.03994821,0.6520206,1.555632,0.2359776,0.416509,1.078532,0.2716528,315.2593,211.91,357.6588,True
3,0.1444445,-0.6330333,-0.3418446,-0.4618177,-1.311232,-3.831291,3.004344,0.5330688,1.303517,0.4901867,-1.3877,0.116745,0.6,0,-0.3527929,0.1353402,0.2000467,-0.4090711,-4.009403,-0.2372136,0.5616617,1.523099,0.3919551,-0.1038021,0.1613871,-0.2320358,-0.7712312,0.2322794,-0.03986353,0.6524318,1.555564,0.2359436,0.4144655,1.08014,0.2707309,314.9109,211.593,357.9262,True
3,0.1555556,-0.7036186,-0.2248728,-0.4680313,-1.305561,-3.832526,3.015022,0.5312799,1.3043,0.489696,-1.386274,0.1298912,0.6,0,-0.35059,0.1031924,0.22537,-0.4057651,-4.007579,-0.2350999,0.5617625,1.523488,0.3917089,-0.09207776,0.1209452,-0.2320756,-0.7738667,0.2324757,-0.03936338,0.6529983,1.555667,0.2359087,0.4115877,1.081831,0.2700113,314.7334,211.0763,358.4231,True
3,0.1666667,-0.7506574,-0.158998,-0.4738413,-1.30029,-3.83196,3.025052,0.5294791,1.30505,0.4892886,-1.386561,-0.02685485,0.2,0,-0.3335737,-0.01341216,0.2851189,-0.3996824,-4.015651,-0.2246408,0.5623119,1.524123,0.3913896,-0.09935479,0.07405998,-0.2158919,-0.7751535,0.2301775,-0.03625308,0.6529006,1.555175,0.2359433,0.4079017,1.083782,0.2693799,314.6045,210.6654,359.0507,True
3,0.1777778,-0.8083559,-0.09758766,-0.5051693,-1.293462,-3.832489,3.036563,0.5275376,1.306107,0.4886587,-1.385426,0.104303,0.2,0,-0.3288469,-0.1862178,0.3137052,-0.3931699,-4.035036,-0.2033736,0.5631129,1.524725,0.3910174,-0.09832151,0.03356963,-0.2200743,-0.7776569,0.2284091,-0.03388952,0.653411,1.555028,0.2358503,0.4037143,1.086129,0.2687188,314.3629,210.2955,359.861,True
3,0.1888889,-0.8659513,-0.0821415,-0.5531959,-1.28561,-3.831057,3.048024,0.5255466,1.307097,0.4879949,-1.385994,-0.05227632,0.2,0,-0.3421741,-0.2680644,0.2994123,-0.3895619,-4.047647,-0.187453,0.5633379,1.525166,0.3906987,-0.09778211,0.03661507,-0.2712105,-0.7822897,0.2283241,-0.03293318,0.6537547,1.554699,0.2358129,0.3991597,1.088957,0.2678597,314.0155,209.9894,0.7023778,True
3,0.2,-0.9426585,-0.1041041,-0.6147372,-1.276902,-3.828273,3.060635,0.5235802,1.308248,0.4872975,-1.385412,0.05402866,0.2,0,-0.3629258,-0.323186,0.2747208,-0.3864689,-4.061777,-0.1695254,0.5639513,1.52548,0.3903089,-0.0915994,0.06214143,-0.2905084,-0.7862674,0.2304178,-0.0336328,0.6541916,1.554336,0.2357559,0.3945705,1.092315,0.2667508,313.4999,209.5797,1.636952,True
3,0.2111111,-1.018357,-0.09746411,-0.6893066,-1.26679,-3.826408,3.074093,0.5217236,1.309434,0.4865925,-1.385404,0.0006561835,0.2,0,-0.3350492,-0.26999,0.2662969,-0.3839272,-4.061618,-0.1669371,0.5644308,1.525833,0.3900275,-0.08463165,0.05990687,-0.3374529,-0.7917258,0.2310607,-0.03337793,0.6548645,1.554133,0.2356274,0.3900149,1.096136,0.2652518,312.9037,208.9441,2.645236,True
3,0.2222222,-1.088856,-0.04390869,-0.7642416,-1.255683,-3.82736,3.089147,0.5199293,1.31052,0.4859521,-1.38446,0.0866421,0,0,-0.2500355,-0.1470139,0.2908571,-0.3803346,-4.050746,-0.177599,0.5651379,1.526044,0.3895442,-0.055847,0.02263255,-0.336606,-0.795483,0.2292536,-0.0325622,0.6552979,1.553888,0.2354043,0.3856692,1.10034,0.2633611,312.19,208.0104,3.790455,True
3,0.2333333,-1.130581,0.01948023,-0.8179974,-1.244408,-3.82951,3.103908,0.5180217,1.311619,0.4853053,-1.384409,0.004344564,0,0,-0.1927899,-0.05698,0.3260958,-0.3760346,-4.040208,-0.1874056,0.5658417,1.526394,0.3890781,0.04133809,-0.07426278,-0.3182271,-0.7979118,0.2222015,-0.03189801,0.6555281,1.553637,0.2350233,0.3816507,1.104851,0.2610766,311.4486,206.8448,4.987026,True
3,0.2444444,-1.200192,0.1584764,-0.8670089,-1.232645,-3.836697,3.122265,0.5163645,1.312877,0.4845796,-1.384357,0.005461373,0,0,-0.1846385,-0.01368406,0.3774548,-0.370311,-4.033274,-0.1917894,0.5669209,1.526791,0.3887532,0.09277262,-0.104014,-0.2910015,-0.8001814,0.2192004,-0.03260348,0.6559658,1.553538,0.2347078,0.3778719,1.109593,0.2584552,310.6898,205.4712,6.150333,True
3,0.2555556,-1.276178,0.3017685,-0.9107441,-1.220456,-3.845932,-3.140657,0.5145612,1.314349,0.4840512,-1.385694,-0.1217184,0,0,-0.1970796,-0.04274356,0.4295729,-0.3633218,-4.033804,-0.1886003,0.5682374,1.527264,0.3884599,0.1498034,-0.1539477,-0.2382192,-0.8006943,0.2140245,-0.03286288,0.6561534,1.553377,0.2344406,0.3740412,1.114516,0.2556346,309.9201,204.012,7.219448,True
3,0.2666667,-1.321162,0.3951903,-0.931719,-1.209476,-3.854084,-3.121517,0.5130229,1.315705,0.4835136,-1.384527,0.1082262,0.6,0,-0.1788887,-0.1402007,0.4905124,-0.3549344,-4.044547,-0.1772368,0.5697848,1.527831,0.3883531,0.1669776,-0.1720237,-0.2266405,-0.8028077,0.2105078,-0.03276301,0.6565852,1.553229,0.2342587,0.3699109,1.119612,0.2528542,309.139,202.5526,8.264377,True
3,0.2777778,-1.435489,0.5286863,-0.9892081,-1.196534,-3.866206,-3.097034,0.5113189,1.317451,0.4828355,-1.383917,0.05538606,0.6,0,-0.144758,-0.1906618,0.5218039,-0.3472869,-4.05272,-0.1692841,0.5713503,1.528296,0.3881478,0.162355,-0.1902128,-0.2617087,-0.8069213,0.2064227,-0.0316245,0.6570721,1.553126,0.2342286,0.3651158,1.12498,0.2503009,308.4595,201.2368,9.289653,True
3,0.2888889,-1.530458,0.5779861,-1.049228,-1.183177,-3.875266,-3.073294,0.5094994,1.319207,0.4820304,-1.385394,-0.1349636,0.6,0,-0.04762655,-0.2169457,0.5558695,-0.3395264,-4.057366,-0.1679389,0.5736651,1.528815,0.3880651,0.1874956,-0.2286455,-0.3034346,-0.8116719,0.2009661,-0.03070039,0.6578892,1.552934,0.2341688,0.3595245,1.130842,0.2481947,307.8175,200.0237,10.5385,True
3,0.3,-1.592283,0.5838271,-1.099325,-1.169574,-3.883593,-3.05018,0.5076274,1.320869,0.4811325,-1.38245,0.270733,0.6,0,-0.01504511,-0.3119557,0.5602283,-0.3322038,-4.074931,-0.152308,0.5756786,1.529288,0.3878434,0.2296421,-0.2692171,-0.3495986,-0.8171143,0.1944896,-0.03045112,0.6585878,1.552645,0.2340007,0.3533569,1.137284,0.2466535,307.0772,198.8412,12.18126,True
3,0.3111111,-1.672205,0.5778363,-1.155682,-1.155419,-3.891938,-3.025227,0.5054846,1.322855,0.4801829,-1.382698,-0.02443115,0.6,0,-0.03658032,-0.6413028,0.6007624,-0.3217807,-4.130322,-0.0987873,0.5780334,1.529948,0.3876233,0.2576972,-0.2661669,-0.4170134,-0.8242313,0.1901862,-0.03143995,0.6594452,1.55249,0.2338407,0.3464457,1.144359,0.2453904,306.4222,197.6607,14.10455,True
3,0.3222222,-1.708444,0.5839275,-1.182366,-1.142033,-3.901248,-3.001081,0.5033727,1.324744,0.4791808,-1.384074,-0.125052,0.6,0,-0.05071753,-0.7126616,0.6089247,-0.3138269,-4.161819,-0.06769862,0.5799882,1.530324,0.3872831,0.2415418,-0.2608864,-0.4339049,-0.8296359,0.1863751,-0.03090146,0.6602812,1.552132,0.2336242,0.3391279,1.152141,0.2442335,305.7039,196.2623,16.52019,True
3,0.3333333,-1.770315,0.600361,-1.231481,-1.127955,-3.911648,-2.974981,0.5012606,1.327051,0.4781919,-1.383309,0.07161415,0.6,0,-0.08483332,-0.7498794,0.6260417,-0.305766,-4.192369,-0.0362656,0.5823742,1.530811,0.3870802,0.2041616,-0.2790415,-0.4430557,-0.8346629,0.1808531,-0.0277813,0.6610984,1.551769,0.2333791,0.3318183,1.160526,0.2430198,304.8453,194.5953,19.27686,True
3,0.3444445,-1.799087,0.5935995,-1.263375,-1.114478,-3.921311,-2.950307,0.4993533,1.329166,0.4774325,-1.38526,-0.1785191,0.6,0,-0.07037061,-0.6819559,0.6551454,-0.2974761,-4.205697,-0.0233442,0.5845895,1.531127,0.3867681,0.2296002,-0.3184784,-0.4570854,-0.8400207,0.1741636,-0.02679779,0.6620197,1.551676,0.2333572,0.32473,1.169398,0.2415136,303.9803,192.7439,22.09196,True
3,0.3555556,-1.857671,0.5759636,-1.318593,-1.099456,-3.931235,-2.9232,0.4969639,1.331563,0.4763446,-1.384788,0.04538487,0.6,0,-0.05876398,-0.622834,0.7246943,-0.2868485,-4.220721,-0.00870028,0.5867364,1.531587,0.3864577,0.2626544,-0.3472266,-0.4552365,-0.8448058,0.1674419,-0.02641057,0.6628181,1.551499,0.2332129,0.3181081,1.178639,0.2397063,303.0701,190.6424,24.95076,True
3,0.3666667,-1.92696,0.5806431,-1.374018,-1.08409,-3.942915,-2.893901,0.4950654,1.334149,0.475383,-1.386522,-0.1586928,0.2,0,-0.0544591,-0.5552123,0.8060969,-0.2748372,-4.234245,0.004814463,0.5891479,1.532039,0.3860817,0.2735524,-0.3343881,-0.4319383,-0.8486296,0.163069,-0.02698847,0.6637096,1.55141,0.2331197,0.3120722,1.188164,0.2376549,302.2419,188.281,27.85207,True
3,0.3777778,-1.987733,0.5961369,-1.418862,-1.069208,-3.95594,-2.863534,0.4927782,1.336873,0.4742701,-1.385064,0.1349371,0.2,0,-0.06535912,-0.4983059,0.7490593,-0.2687518,-4.247342,0.01852362,0.5913767,1.532389,0.3857315,0.2860007,-0.3768432,-0.3637933,-0.8500544,0.1554809,-0.0255541,0.6647243,1.551211,0.2330043,0.3067249,1.1978,0.2354708,301.4365,185.5213,30.9667,True
3,0.3888889,-2.036861,0.6351953,-1.447916,-1.055235,-3.970916,-2.831831,0.4909359,1.339491,0.4732687,-1.38422,0.07625993,0.2,0,-0.1375869,-0.5561349,0.6907375,-0.2636551,-4.280311,0.05438388,0.5937927,1.532865,0.385391,0.2984186,-0.4078263,-0.4011349,-0.8556167,0.1474872,-0.02424648,0.6659461,1.550881,0.2330153,0.3017363,1.207429,0.2329685,300.8732,182.543,34.11095,True
3,0.4,-2.069984,0.6808435,-1.460006,-1.042235,-3.987242,-2.799568,0.489043,1.342386,0.4722025,-1.384558,-0.03084605,0.2,0,-0.1959009,-0.5613816,0.7232107,-0.2547383,-4.308492,0.08596498,0.5960612,1.533356,0.3851476,0.2923613,-0.3706969,-0.4703999,-0.8633894,0.1436702,-0.02480388,0.6671796,1.550643,0.2329352,0.2970211,1.21719,0.2302713,300.5579,179.5578,37.13303,True
3,0.4111111,-2.107451,0.7487862,-1.473318,-1.030397,-4.005637,-2.76584,0.4873673,1.34563,0.4711335,-1.385055,-0.04451235,0.2,0,-0.2225727,-0.4710802,0.7816229,-0.243986,-4.318848,0.09941234,0.5986323,1.533905,0.3848782,0.3038568,-0.3728757,-0.4918152,-0.869316,0.1379685,-0.02484703,0.6684189,1.550437,0.2329333,0.2923541,1.227257,0.2274388,300.335,176.5843,40.10594,True
3,0.4222222,-2.134224,0.7699957,-1.478685,-1.018958,-4.023343,-2.731598,0.4857957,1.349065,0.4705381,-1.385999,-0.08542708,0.1,0.7,-0.1682361,-0.5023896,0.8000677,-0.2353585,-4.351757,0.1311175,0.6012619,1.534559,0.3845894,0.3088896,-0.3867974,-0.5206044,-0.8759392,0.1311805,-0.02415887,0.6697887,1.550199,0.2329595,0.2878056,1.237779,0.2247484,300.1041,173.612,43.18198,True
3,0.4333333,-2.158707,0.7602975,-1.484983,-1.00719,-4.040071,-2.69805,0.4840429,1.35239,0.4696996,-1.386378,-0.03353096,0.1,0.7,-0.1409217,-0.6252191,0.8255984,-0.2271959,-4.407547,0.1858282,0.6036266,1.534928,0.3842125,0.2862221,-0.3612992,-0.5481241,-0.8829482,0.1269924,-0.02387124,0.6711103,1.550035,0.2328711,0.2833388,1.24886,0.2223185,299.8893,170.6554,46.36164,True
3,0.4444444,-2.177872,0.7624478,-1.479671,-0.9964585,-4.057604,-2.664124,0.4825127,1.355613,0.46861,-1.386195,0.01732247,0.1,0.7,-0.1945392,-0.696322,0.8256091,-0.2205396,-4.460526,0.2415234,0.6059599,1.5352,0.383944,0.2604636,-0.3208608,-0.5649899,-0.8896268,0.124105,-0.02401399,0.6722407,1.549793,0.2328341,0.2790189,1.260586,0.2203074,299.7089,167.6796,49.68655,True
3,0.4555556,-2.205582,0.7871852,-1.442606,-0.9881377,-4.075884,-2.629194,0.4809621,1.358969,0.4679909,-1.386957,-0.06966595,0.1,0.7,-0.2351814,-0.7141741,0.8184094,-0.2144148,-4.509336,0.2932324,0.6081871,1.535558,0.3836737,0.246002,-0.3005277,-0.5212052,-0.8937665,0.1206484,-0.02405687,0.6732935,1.549492,0.2327654,0.2749708,1.272922,0.2187827,299.5516,164.4903,53.38227,True
3,0.4666667,-2.219443,0.7936308,-1.431985,-0.9794387,-4.094453,-2.594216,0.4794134,1.362393,0.4672804,-1.387636,-0.06135762,0.3,1.1,-0.2317199,-0.6865758,0.831355,-0.2072728,-4.551501,0.3368635,0.6103374,1.536021,0.3834121,0.251537,-0.3111398,-0.5009966,-0.8984323,0.1154922,-0.02376791,0.6743517,1.549245,0.2327216,0.2711504,1.285675,0.2174839,299.4098,160.9966,57.57131,True
3,0.4777778,-2.211947,0.7831724,-1.410597,-0.9713571,-4.112461,-2.560026,0.4778783,1.36596,0.4666023,-1.387573,0.006590843,0.3,1.1,-0.1615473,-0.7103512,0.8284127,-0.2016886,-4.60718,0.3905113,0.6122849,1.536321,0.3830423,0.2541112,-0.3035858,-0.4584273,-0.9019583,0.1114027,-0.02415753,0.6753294,1.549054,0.232585,0.267655,1.298614,0.2162765,299.3044,157.4185,61.88944,True
3,0.4888889,-2.200253,0.7800436,-1.398841,-0.9637128,-4.131117,-2.525575,0.476625,1.369508,0.4658301,-1.388093,-0.04726656,0.3,1.1,-0.1372213,-0.7082255,0.8100775,-0.197402,-4.659731,0.4427234,0.6142621,1.536695,0.382695,0.2523241,-0.3141678,-0.4253587,-0.9053634,0.1063953,-0.02370852,0.6764071,1.548856,0.2325008,0.2645814,1.311586,0.2151507,299.2603,153.9325,66.01471,True
3,0.5,-2.185399,0.805782,-1.383065,-0.9576173,-4.151863,-2.489717,0.4753851,1.373256,0.4651721,-1.388971,-0.07985575,0.3,1.1,-0.1395653,-0.5730376,0.827015,-0.1890706,-4.688967,0.4732922,0.6161585,1.537003,0.3822923,0.2322931,-0.3279764,-0.4059435,-0.9091585,0.1009485,-0.0222097,0.6773473,1.548617,0.2322929,0.2619281,1.324458,0.2140222,299.3991,150.5137,69.99052,True
3,0.5111111,-2.161049,0.8504905,-1.383429,-0.9522404,-4.17429,-2.453239,0.4745994,1.377001,0.4643717,-1.389429,-0.04109823,0.3,1.1,-0.08953476,-0.4168498,0.8510655,-0.1791817,-4.710608,0.494043,0.6180926,1.537412,0.3818414,0.2499102,-0.3587469,-0.3517291,-0.9112054,0.09442052,-0.02155882,0.6784719,1.548442,0.2321193,0.2597455,1.337112,0.2128831,299.6954,147.2453,73.74595,True
3,0.5222223,-2.147296,0.8834113,-1.396496,-0.9469609,-4.197441,-2.416022,0.4736865,1.380668,0.4637504,-1.389453,-0.001832687,1.3,3.2,-0.0746578,-0.4350629,0.8550552,-0.1737569,1.516434,0.5494623,0.6200129,1.537693,0.3813059,0.2478052,-0.371522,-0.3495501,-0.9150845,0.08858766,-0.02073804,0.6795923,1.548262,0.2320201,0.2580202,1.349496,0.2117253,300.1285,144.2265,77.15515,True
3,0.5333334,-2.130372,0.9291635,-1.4086,-0.943119,-4.221662,-2.378882,0.472481,1.384169,0.4631364,-1.38996,-0.04619939,1.3,3.2,-0.1260501,-0.4698975,0.8467745,-0.1696886,1.455858,0.6122437,0.6217483,1.537894,0.3808503,0.2380852,-0.3736843,-0.3622279,-0.9194825,0.08312884,-0.01970553,0.6805264,1.54807,0.2318273,0.2566151,1.361737,0.2105804,300.6559,141.5433,80.1189,True
3,0.5444446,-2.105976,0.9739922,-1.402612,-0.9406642,-4.245825,-2.342029,0.4713252,1.387638,0.4626312,-1.38982,0.01319552,1.3,3.2,-0.238626,-0.521189,0.7974049,-0.1686298,1.39354,0.6802099,0.6234484,1.538045,0.3804104,0.2220235,-0.319362,-0.3685873,-0.9239379,0.08110817,-0.02045654,0.6813982,1.547774,0.2316928,0.2554889,1.373951,0.2095816,301.2922,139.0283,82.91222,True
3,0.5555557,-2.081548,1.005091,-1.384757,-0.9394636,-4.26981,-2.305274,0.4699046,1.391305,0.4622817,-1.390575,-0.06928536,1.3,3.2,-0.3039234,-0.5740941,0.7923217,-0.167622,1.322101,0.7561433,0.6248573,1.538285,0.3801088,0.1953996,-0.2586409,-0.3663152,-0.9280009,0.07997073,-0.02114097,0.6821222,1.547517,0.2315984,0.2544896,1.386234,0.2088035,302.0506,136.4914,85.70795,True
3,0.5666668,-2.065556,0.9956199,-1.372964,-0.9377459,-4.292547,-2.269233,0.4689068,1.394932,0.4617932,-1.390925,-0.0313478,0.5,0.2,-0.2832927,-0.5391882,0.8115364,-0.1641658,1.259735,0.8198509,0.626266,1.538468,0.3797982,0.1914487,-0.2255429,-0.3354626,-0.9308211,0.07810346,-0.02204565,0.6828947,1.547296,0.2315736,0.2534516,1.398639,0.2083322,302.8357,133.8965,88.58485,True
3,0.577778,-2.017463,0.9351764,-1.355454,-0.9351009,-4.313427,-2.235682,0.467814,1.398868,0.4613934,-1.390883,0.00403739,0.5,0.2,-0.2261398,-0.5499085,0.7768235,-0.1640209,1.199212,0.8800349,0.6274841,1.538761,0.3793936,0.1919123,-0.2222233,-0.2907315,-0.932541,0.07524362,-0.02253807,0.6835126,1.547201,0.2315307,0.252346,1.411135,0.2082878,303.5945,131.4293,91.43706,True
3,0.5888891,-1.982174,0.8831351,-1.346529,-0.9327556,-4.334158,-2.202266,0.4665286,1.40268,0.4608362,-1.390772,0.009949308,0.5,0.2,-0.2306243,-0.5208521,0.7376479,-0.163704,1.146777,0.9344083,0.6284761,1.539029,0.3789971,0.1643328,-0.2051618,-0.2787616,-0.9352244,0.0729794,-0.02214898,0.6840701,1.547183,0.2314336,0.2511719,1.423703,0.2086781,304.3172,129.22,94.22756,True
3,0.6000003,-1.952295,0.8651807,-1.335762,-0.9318443,-4.355801,-2.168336,0.4656057,1.40647,0.460381,-1.392042,-0.1163811,0.5,0.2,-0.2601959,-0.455685,0.7298341,-0.1616549,1.096336,0.9881477,0.6296036,1.53935,0.3784919,0.1507465,-0.1965929,-0.2530702,-0.9372969,0.07045965,-0.02188985,0.6847116,1.547085,0.2312918,0.2501805,1.436185,0.2094429,305.0467,127.3429,96.96222,True
3,0.6111114,-1.899039,0.8717911,-1.325197,-0.9321101,-4.377741,-2.135728,0.4643685,1.41019,0.4599082,-1.392058,-0.0008031387,0.5,0.2,-0.3312232,-0.4138746,0.7446429,-0.1597188,1.03897,1.050949,0.6303813,1.539709,0.378088,0.1450376,-0.2049746,-0.1880053,-0.9371291,0.06721659,-0.02139797,0.6852449,1.546957,0.2312315,0.2494923,1.448422,0.2103656,305.8658,125.5906,99.63413,True
3,0.6222225,-1.852302,0.9178523,-1.307458,-0.9349666,-4.400338,-2.103068,0.4634657,1.413743,0.4596143,-1.391858,0.01813566,0,0,-0.3756874,-0.3689674,0.750669,-0.1584352,0.9840206,1.110738,0.6312242,1.540053,0.3776953,0.1299117,-0.1634637,-0.2071199,-0.9401438,0.06666305,-0.02213326,0.6857921,1.546818,0.2312722,0.2490804,1.460321,0.2111973,306.7319,123.9241,102.1199,True
3,0.6333337,-1.804454,0.9596547,-1.291849,-0.9384927,-4.422738,-2.071289,0.4623588,1.417343,0.4593225,-1.393071,-0.1110759,0,0,-0.3766313,-0.3391105,0.7466303,-0.1575494,0.9289027,1.16924,0.6318944,1.54041,0.3772614,0.09317671,-0.114575,-0.2547851,-0.9446142,0.06698156,-0.02219958,0.6863225,1.546621,0.2312574,0.2489721,1.471884,0.2118869,307.6256,122.4292,104.2533,True
3,0.6444448,-1.778925,0.9779239,-1.27924,-0.9420394,-4.444415,-2.039595,0.461381,1.420821,0.4589117,-1.393173,-0.008587697,0,0,-0.3873654,-0.3635722,0.7497597,-0.1590386,0.8683404,1.233547,0.6326494,1.540887,0.3768008,0.06620425,-0.09762977,-0.28754,-0.9485141,0.06596157,-0.02151648,0.6868678,1.546422,0.2312727,0.2490709,1.483148,0.2124838,308.5683,120.9794,106.1355,True
3,0.655556,-1.749169,1.014453,-1.249731,-0.9475932,-4.465673,-2.00862,0.4603071,1.424138,0.4586174,-1.393483,-0.02851449,0,0,-0.4355765,-0.4283565,0.7550922,-0.1632731,0.8032815,1.304206,0.6331243,1.541219,0.3763678,0.03060219,-0.07110222,-0.3298434,-0.953629,0.06587875,-0.02069329,0.6873195,1.546267,0.2313256,0.2493386,1.494166,0.2131859,309.4872,119.635,107.8097,True
3,0.6666671,-1.730041,1.04133,-1.225466,-0.9537163,-4.486516,-1.977792,0.4592729,1.427518,0.4582937,-1.392708,0.07069322,0,0,-0.470835,-0.4420046,0.7531824,-0.1665802,0.7470138,1.366276,0.6335765,1.541501,0.3760161,0.008046597,-0.02747171,-0.3467307,-0.9578122,0.06726106,-0.0208704,0.6877583,1.546241,0.231312,0.2496334,1.505036,0.2140587,310.4187,118.3655,109.4559,True
3,0.6777782,-1.692867,1.093982,-1.183284,-0.9622715,-4.506242,-1.949119,0.458165,1.430624,0.4581409,-1.392644,0.004853694,0,0,-0.4957222,-0.4116538,0.6950294,-0.1688631,0.7105139,1.408461,0.6337092,1.541953,0.3756802,-0.01500079,0.02693343,-0.3092823,-0.9592615,0.07001077,-0.02169278,0.6881195,1.546161,0.2313805,0.2499407,1.515777,0.2151243,311.3254,117.2316,111.0938,True
3,0.6888894,-1.639715,1.152049,-1.134793,-0.9721092,-4.525211,-1.922119,0.4571832,1.433573,0.4578066,-1.392148,0.04533287,0,0,-0.5141715,-0.4273492,0.669508,-0.1730916,0.6689603,1.455719,0.6337069,1.542531,0.3753347,-0.03875698,0.02069309,-0.2376424,-0.9592738,0.07006484,-0.02043444,0.688223,1.546144,0.2313778,0.2502624,1.526438,0.2164191,312.1738,116.1643,112.7195,True
3,0.7000005,-1.559854,1.186848,-1.073343,-0.9821743,-4.542314,-1.898023,0.4561049,1.436631,0.4574876,-1.393155,-0.09271596,0,0,-0.5240503,-0.4270898,0.6386878,-0.1772717,0.6320068,1.498115,0.6337593,1.543069,0.3749402,-0.09050789,0.03355758,-0.1955553,-0.9596488,0.07102931,-0.01845784,0.6882426,1.545965,0.2313786,0.2506273,1.537083,0.2179476,312.9664,115.1778,114.3082,True
3,0.7111117,-1.487418,1.202367,-1.021315,-0.9923737,-4.558465,-1.875134,0.4547962,1.439518,0.4570329,-1.393993,-0.07586754,0.2,0,-0.5253857,-0.403358,0.597317,-0.1807008,0.6017913,1.533736,0.6333783,1.543674,0.3745155,-0.1521135,0.05914409,-0.1768631,-0.9609889,0.07288366,-0.01572623,0.6882659,1.545983,0.231286,0.2511069,1.547667,0.2198149,313.7018,114.1063,116.0051,True
3,0.7222228,-1.487418,1.202367,-1.021315,-0.9923737,-4.558465,-1.875134,0.4547962,1.439518,0.4570329,-1.395265,-0.1161296,0.2,0,-0.5253857,-0.403358,0.597317,-0.1807008,0.6017913,1.533736,0.6333783,1.543674,0.3745155,-0.1521135,0.05914409,-0.1768631,-0.9609889,0.07288366,-0.01572623,0.6882659,1.545983,0.231286,0.251686,1.558135,0.221997,314.3948,112.9745,117.8497,True
3,0.7333339,-1.329471,1.165134,-0.9624981,-1.011232,-4.590552,-1.832385,0.4523061,1.445383,0.4563179,-1.408873,-1.243983,0.2,0,-0.5745758,-0.2014462,0.5049052,-0.1804696,0.5546558,1.592806,0.6325761,1.544751,0.3733132,-0.1560071,0.06452829,-0.1373881,-0.9634305,0.07557798,-0.01317093,0.6882833,1.546029,0.2310691,0.2527908,1.567691,0.2246762,314.9545,111.5447,120.3675,True
3,0.7444451,-1.273858,1.140056,-0.9452573,-1.020733,-4.606229,-1.811972,0.4510874,1.448179,0.4560058,-1.381186,2.540862,0.2,0,-0.6302108,-0.1926608,0.5486303,-0.1822422,0.5124959,1.64385,0.6319817,1.545678,0.372551,-0.1600481,0.06248027,-0.1203226,-0.9639578,0.07605349,-0.01204228,0.6882356,1.546056,0.230983,0.2542611,1.574866,0.227528,315.9575,109.7014,122.958,True
3,0.7555562,-1.206616,1.098983,-0.9055623,-1.029228,-4.619197,-1.794046,0.4496943,1.450956,0.4554136,-1.394619,-1.251467,0.2,0,-0.6943887,-0.1833135,0.6270883,-0.18525,0.4600267,1.705262,0.6313374,1.546667,0.3717508,-0.2090031,0.09974349,-0.1156123,-0.9646763,0.07878949,-0.009781791,0.6884373,1.546071,0.230799,0.2533937,1.584264,0.2287051,316.5688,109.9708,122.7002,True
3,0.7666674,-1.162861,1.069502,-0.8755071,-1.038078,-4.631864,-1.776001,0.4485202,1.453862,0.4547451,-1.3954,-0.05846677,0.7,0,-0.6939229,-0.1333858,0.6487383,-0.1862263,0.4183291,1.753837,0.6308478,1.547677,0.3708982,-0.2751611,0.1636176,-0.1235954,-0.966378,0.08364403,-0.007240869,0.6884146,1.546159,0.2305453,0.2523849,1.594025,0.2302613,317.151,109.9495,123.1452,True
3,0.7777785,-1.085012,1.048783,-0.824258,-1.047133,-4.642544,-1.761531,0.4472314,1.456475,0.4541233,-1.395603,-0.01970964,0.7,0,-0.6830103,-0.10691,0.6594905,-0.1881182,0.3794225,1.798873,0.6302255,1.548878,0.3701677,-0.3144424,0.1668441,-0.1104088,-0.9671568,0.08610159,-0.004106594,0.6882886,1.546266,0.2303576,0.2516859,1.603312,0.2325026,317.6233,109.4433,124.5298,True
3,0.7888896,-0.9783832,1.01862,-0.7622882,-1.055988,-4.651925,-1.749729,0.4459204,1.458995,0.4534013,-1.39461,0.09051479,0.7,0,-0.7333611,-0.09653342,0.7367227,-0.1914882,0.3267952,1.86026,0.6292124,1.550014,0.3693879,-0.3571161,0.1614874,-0.1163469,-0.968622,0.08805116,0.0001134507,0.6881282,1.546332,0.2301073,0.2513699,1.611819,0.2351053,318.0729,108.7242,126.3523,True
3,0.8000008,-0.8717843,1.003212,-0.7228106,-1.065229,-4.661761,-1.738776,0.4446454,1.461333,0.4528382,-1.39631,-0.1566804,0.7,0,-0.7643546,-0.07174772,0.714787,-0.193745,0.2930609,1.902781,0.628266,1.550911,0.3686006,-0.3913146,0.1678636,-0.1256026,-0.9705251,0.09079754,0.003951332,0.687969,1.546417,0.2299206,0.2513586,1.619641,0.2376558,318.4917,108.1083,127.9897,True
3,0.8111119,-0.7736875,0.9761163,-0.6757733,-1.073945,-4.670188,-1.729558,0.44313,1.463635,0.4521155,-1.397684,-0.1247091,0.7,0,-0.7976233,-0.01472545,0.6590383,-0.1939921,0.2641347,1.941161,0.6272016,1.551867,0.3677285,-0.4028997,0.1678881,-0.1126983,-0.9713113,0.09303913,0.007541273,0.6877766,1.546508,0.2296596,0.2515563,1.626781,0.2399466,318.952,107.4688,129.4002,True
3,0.8222231,-0.7086247,0.9445304,-0.6478391,-1.082308,-4.678856,-1.719571,0.4417421,1.466114,0.4515793,-1.397897,-0.01923542,2.3,1,-0.7731696,0.05364069,0.6166745,-0.193198,0.2330199,1.97918,0.6262746,1.552851,0.3668103,-0.3933673,0.1604271,-0.1181032,-0.9727643,0.0949365,0.01034904,0.6874657,1.546526,0.2294605,0.2517445,1.633261,0.2418536,319.473,106.8261,130.567,True
3,0.8333342,-0.5762219,0.8226914,-0.6021876,-1.086643,-4.685533,-1.714363,0.4403673,1.468577,0.4508891,-1.39791,-0.001879436,2.3,1,-0.6773639,0.09809282,0.5830795,-0.1931292,0.2015623,2.014073,0.6252876,1.554241,0.3658056,-0.3827026,0.128472,-0.1181416,-0.9740741,0.09529802,0.01397973,0.6871436,1.546613,0.2291501,0.2516879,1.639138,0.2434198,320.0281,106.2961,131.4335,True
3,0.8444453,-0.5099458,0.7378411,-0.5749113,-1.091272,-4.692616,-1.70752,0.4390783,1.470862,0.4501221,-1.396263,0.1499474,2.3,1,-0.6639216,0.05127466,0.5655584,-0.1965349,0.1774032,2.044698,0.6242058,1.555733,0.3648338,-0.429294,0.1093513,-0.0899426,-0.9745635,0.09621508,0.02006505,0.6870319,1.546945,0.2288527,0.2511722,1.644531,0.2446806,320.5052,105.9004,132.0749,True
3,0.8555565,-0.4138259,0.6446801,-0.5294755,-1.094708,-4.698146,-1.703502,0.4377957,1.473005,0.4494131,-1.398957,-0.2482692,2.3,1,-0.6886964,0.03019837,0.546482,-0.1996572,0.15343,2.076652,0.6231907,1.556971,0.363889,-0.4970657,0.1264613,-0.04986103,-0.9736581,0.09865161,0.02651124,0.6867835,1.547066,0.2284849,0.2501915,1.649549,0.2457257,320.7841,105.7602,132.5212,True
3,0.8666676,-0.3519531,0.6130357,-0.5079501,-1.099969,-4.704625,-1.698589,0.43656,1.475064,0.4485569,-1.396847,0.1943846,1.6,0.4,-0.7428577,0.08459193,0.4248541,-0.1979757,0.1434729,2.096677,0.6222248,1.558163,0.3627594,-0.5292015,0.129613,-0.06657802,-0.9749838,0.1007459,0.03226899,0.686478,1.54702,0.2282615,0.2488739,1.653882,0.2466264,321.0174,105.7156,132.9885,True
3,0.8777788,-0.2421619,0.6221237,-0.4814314,-1.107566,-4.711632,-1.696525,0.4353325,1.477149,0.4477432,-1.397714,-0.08177612,1.6,0.4,-0.7296665,0.1729449,0.4210789,-0.1963831,0.1114097,2.135623,0.6213186,1.559304,0.3615565,-0.5075455,0.08582985,-0.1370477,-0.9791676,0.1007475,0.03718226,0.6866657,1.547153,0.2279093,0.2472471,1.657583,0.2473357,321.0916,105.8235,133.3162,True
3,0.8888899,-0.1014698,0.5949262,-0.4567878,-1.112783,1.565968,-1.69762,0.4343049,1.479069,0.4464567,-1.396468,0.1142107,1.6,0.4,-0.6571424,0.2754409,0.4882452,-0.1952406,0.060317,2.190853,0.6207141,1.560173,0.3603752,-0.4428388,0.07727075,-0.1643334,-0.981875,0.1015473,0.039704,0.6865113,1.547188,0.22767,0.2454093,1.660674,0.2478751,321.0855,105.9937,133.4934,True
3,0.900001,-0.05128288,0.5502464,-0.4628448,-1.116734,1.559283,-1.695565,0.4332927,1.480898,0.445322,-1.398455,-0.1833874,1.6,0.4,-0.5964677,0.2751639,0.483406,-0.1961684,0.03017468,2.225034,0.6201721,1.56121,0.3591614,-0.4058557,0.07727295,-0.194573,-0.9850357,0.1034987,0.04198127,0.6863627,1.547292,0.22736,0.2433317,1.663563,0.2482782,320.9779,106.2923,133.4076,True
3,0.9111122,0.007487953,0.4618101,-0.48028,-1.118144,1.552439,-1.694593,0.43248,1.482742,0.4441636,-1.400144,-0.1533885,1.6,0.4,-0.5517142,0.1573067,0.5460637,-0.2029084,0.004658801,2.254495,0.6199303,1.562343,0.3579497,-0.3828706,0.07399005,-0.238483,-0.9891865,0.1045464,0.04484231,0.6861298,1.54741,0.2271726,0.2410655,1.666454,0.2488178,320.8507,106.5511,133.3407,True
3,0.9222233,0.03637162,0.402182,-0.484073,-1.120057,1.546121,-1.692986,0.4315652,1.484626,0.4431934,-1.396528,0.3308717,3.4,1.3,-0.5429082,0.04475382,0.6346601,-0.2120798,-0.02182128,2.286338,0.6193267,1.563394,0.3568535,-0.3947835,0.1005756,-0.2565267,-0.9923695,0.106937,0.04846288,0.6855274,1.547402,0.2269733,0.2386609,1.669119,0.249597,320.7639,106.6821,133.6199,True
3,0.9333345,0.06644155,0.292673,-0.4650986,-1.119156,1.54113,-1.692504,0.4307511,1.485964,0.442445,-1.396313,0.01590607,3.4,1.3,-0.5315197,-0.06733146,0.6582537,-0.2213337,-0.03604629,2.305688,0.6187986,1.564295,0.3558714,-0.4182892,0.1463644,-0.2617097,-0.9953378,0.1109565,0.05173936,0.6851792,1.547518,0.2266908,0.2361282,1.671557,0.2504956,320.6269,106.9467,133.965,True
3,0.9444456,0.0718492,0.2663184,-0.4318653,-1.120975,1.536687,-1.691505,0.429662,1.487426,0.4416795,-1.394717,0.1455213,3.4,1.3,-0.5160744,-0.1314374,0.5212791,-0.224244,-0.02896654,2.303975,0.6175831,1.565488,0.3548973,-0.4521091,0.1506637,-0.2358121,-0.9970459,0.1132195,0.05669684,0.6846794,1.547651,0.2263696,0.2335979,1.6737,0.2513864,320.4907,107.3626,134.2018,True
3,0.9555568,0.0835894,0.271105,-0.3679869,-1.123875,1.534234,-1.691776,0.4285559,1.488501,0.4411094,-1.394454,0.02248612,3.4,1.3,-0.4992074,-0.1249767,0.497736,-0.2284401,-0.04173786,2.32132,0.6166915,1.566434,0.3539393,-0.4518932,0.1304669,-0.2155287,-0.9986705,0.1142038,0.06122155,0.6842248,1.54779,0.2259824,0.2311775,1.675575,0.2522042,320.3132,107.7749,134.3496,True
3,0.9666679,0.09745598,0.2799787,-0.327583,-1.12708,1.531199,-1.692155,0.4274834,1.48986,0.440407,-1.393159,0.1178484,3.4,1.3,-0.393474,0.03227517,0.3327274,-0.2227202,-0.0531286,2.333214,0.6153073,1.567316,0.3529298,-0.4099281,0.09219837,-0.1764652,-0.9993629,0.1136043,0.06443172,0.6837695,1.547991,0.2254252,0.2290144,1.676984,0.2528882,320.1859,108.1006,134.4818,True
3,0.977779,0.1273478,0.2645323,-0.2678128,-1.129256,1.530094,-1.694205,0.4263523,1.49088,0.4398625,-1.392987,0.01449675,2.3,1.7,-0.3297009,0.111198,0.275167,-0.2211287,-0.06887268,2.350194,0.6143003,1.568552,0.3515813,-0.4065971,0.06239721,-0.164718,-1.000873,0.1133788,0.06895324,0.6832229,1.548161,0.2249618,0.2269902,1.678291,0.2533241,320.0412,108.3193,134.4998,True
3,0.9888902,0.1370263,0.2264518,-0.2366206,-1.130191,1.528227,-1.69515,0.4254498,1.491781,0.439321,-1.39296,0.002246485,2.3,1.7,-0.3426702,0.1865158,0.3291003,-0.2218706,-0.1005134,2.385234,0.6130685,1.569391,0.3503215,-0.420075,0.04328394,-0.1293748,-1.00108,0.1130782,0.07424467,0.6827823,1.548341,0.2243659,0.2251374,1.679574,0.2535914,319.8806,108.3994,134.5177,True
3,1.000001,0.1328534,0.1859425,-0.2384235,-1.130458,1.525072,-1.695068,0.424417,1.492632,0.4386306,-1.393407,-0.04123226,2.3,1.7,-0.3732732,0.2848341,0.3087878,-0.2197667,-0.1301852,2.419539,0.612087,1.570182,0.3491428,-0.4184009,0.05190584,-0.0718888,-0.9998849,0.1138085,0.0781976,0.6824936,1.548341,0.2236562,0.2234019,1.680963,0.253731,319.774,108.455,134.5484,True
3,1.011112,0.1286157,0.177514,-0.2255693,-1.13186,1.522604,-1.695263,0.423529,1.493299,0.4379778,-1.392305,0.1009063,2.3,1.7,-0.3944251,0.3864061,0.272429,-0.2159392,-0.1629167,2.456663,0.6110293,1.571155,0.3479776,-0.3958783,0.0263769,-0.05821574,-1.000047,0.1131451,0.08215692,0.6819137,1.548482,0.2230892,0.2218547,1.682154,0.2538654,319.7447,108.4077,134.712,True
3,1.022224,0.1455811,0.2127804,-0.2162686,-1.135171,1.519955,-1.696247,0.4226828,1.493903,0.4373238,-1.3914,0.08152642,1.1,2,-0.3750783,0.3797681,0.2935051,-0.2169448,-0.1875919,2.484049,0.6100917,1.572023,0.3468444,-0.3862401,0.01252416,-0.05402899,-1.000787,0.1125949,0.08637377,0.681392,1.548774,0.2226224,0.2204329,1.683071,0.2539493,319.777,108.4258,134.8795,True
3,1.033335,0.1455811,0.2127804,-0.2162686,-1.135171,1.519955,-1.696247,0.4226828,1.493903,0.4373238,-1.391102,0.02659793,1.1,2,-0.3750783,0.3797681,0.2935051,-0.2169448,-0.1875919,2.484049,0.6100917,1.572023,0.3468444,-0.3862401,0.01252416,-0.05402899,-1.000787,0.1125949,0.08637377,0.681392,1.548774,0.2226224,0.2190203,1.683824,0.2539221,319.8401,108.5664,134.9093,True
3,1.044446,0.2083694,0.2460714,-0.2005801,-1.141163,1.514702,-1.700483,0.4207349,1.495467,0.436265,-1.38973,0.1252314,1.1,2,-0.2673304,0.3093361,0.233385,-0.217331,-0.2143239,2.512735,0.6076303,1.573492,0.3449893,-0.3897083,0.0742346,-0.07863411,-1.002603,0.1164775,0.09296669,0.6801354,1.549072,0.2216523,0.2177856,1.684245,0.2539508,319.76,108.7173,134.8411,True
3,1.055557,0.2223074,0.2067669,-0.1906777,-1.141858,1.51273,-1.702584,0.4196724,1.496332,0.4358554,-1.394338,-0.4225156,1.1,2,-0.2583546,0.29264,0.176727,-0.2158769,-0.2248725,2.525555,0.6064965,1.574012,0.3440683,-0.3809004,0.09217238,-0.1533454,-1.006793,0.1188513,0.09565409,0.6795121,1.549137,0.221158,0.2167514,1.684551,0.2539759,319.6063,108.8817,134.7066,True
3,1.066668,0.2235402,0.1301091,-0.1858047,-1.140588,1.51081,-1.704197,0.4184837,1.496982,0.4353073,-1.393226,0.1051504,1.1,2,-0.2643274,0.2386319,0.1369686,-0.2154668,-0.2289279,2.532771,0.6053624,1.574739,0.3431547,-0.3360551,0.05385306,-0.1452114,-1.008309,0.1179437,0.09841898,0.6788777,1.54942,0.2206564,0.2151431,1.685783,0.2539386,319.7735,108.9246,134.5722,True
3,1.077779,0.2257264,0.1067349,-0.1781572,-1.140738,1.508985,-1.705997,0.4173348,1.497723,0.4347167,-1.391945,0.1154944,3.5,38.6,-0.2590279,0.1669714,0.1726176,-0.2184096,-0.2356103,2.542162,0.6041958,1.575239,0.3422306,-0.3070196,0.02835399,-0.1198856,-1.008673,0.1172913,0.1011703,0.6781503,1.549589,0.22018,0.2132913,1.68707,0.2543249,319.8383,108.85,134.681,True
3,1.08889,0.2374766,0.09736361,-0.1546472,-1.14144,1.507942,-1.708597,0.4161279,1.498188,0.4343193,-1.391052,0.08059983,3.5,38.6,-0.2493548,0.1882448,0.1705487,-0.2183909,-0.2510775,2.559718,0.6030446,1.575754,0.3413475,-0.3012727,0.03695998,-0.07841602,-1.008162,0.1179626,0.1040958,0.6772323,1.549796,0.2196279,0.2112485,1.688097,0.2550303,319.7964,108.818,135.0482,True
3,1.100002,0.240655,0.111487,-0.1217312,-1.143349,1.507506,-1.71112,0.4148405,1.498636,0.4337206,-1.390957,0.007949043,3.5,38.6,-0.2420996,0.2150884,0.1355056,-0.21645,-0.2646411,2.575417,0.601823,1.576315,0.3404565,-0.2836449,0.03175578,-0.02211857,-1.006634,0.1179364,0.1067861,0.6763254,1.549979,0.2191367,0.2090548,1.688701,0.2557888,319.6545,108.9278,135.4485,True
3,1.111113,0.2235977,0.120056,-0.1111358,-1.144776,1.50621,-1.712518,0.4136111,1.499106,0.4332304,-1.391298,-0.03121298,3.5,38.6,-0.2386189,0.193468,0.1768664,-0.2185912,-0.2784829,2.591468,0.6006077,1.576682,0.3396373,-0.2402481,0.01915938,0.05310147,-1.003508,0.1172622,0.1083627,0.6753526,1.55012,0.2186124,0.2067452,1.688986,0.2564247,319.395,109.1374,135.647,True
3,1.122224,0.2076093,0.1254367,-0.09944843,-1.146156,1.505271,-1.713788,0.4124381,1.499537,0.4326484,-1.390869,0.03942548,6.1,46.8,-0.2228664,0.243805,0.127017,-0.2163446,-0.2951339,2.609692,0.5993882,1.576913,0.3388336,-0.2162597,0.03206521,0.1071609,-1.000648,0.1177305,0.1098008,0.6743772,1.550201,0.2180583,0.2043929,1.688992,0.2569099,319.083,109.317,135.7036,True
3,1.133335,0.1894652,0.1424915,-0.0931811,-1.148215,1.504089,-1.714716,0.4112135,1.500068,0.4321196,-1.389955,0.08308666,6.1,46.8,-0.2083055,0.2172701,0.1032499,-0.2158391,-0.3018983,2.618084,0.5982114,1.577409,0.3381417,-0.2096819,0.03423923,0.125199,-0.998598,0.1180189,0.1117212,0.673512,1.550368,0.2176139,0.2019863,1.688939,0.2571758,318.7446,109.4759,135.6897,True
3,1.144446,0.17569,0.1051213,-0.09926514,-1.147845,1.502774,-1.715616,0.4098825,1.500686,0.4314978,-1.389566,0.03487142,6.1,46.8,-0.1974201,0.09594457,0.07777534,-0.2176825,-0.2885388,2.606816,0.5969015,1.578091,0.3374913,-0.2119337,0.0417161,0.1145206,-0.9981112,0.1194593,0.1134552,0.6731863,1.550701,0.2169662,0.1996135,1.688929,0.2572407,318.4371,109.7265,135.5582,True
3,1.155557,0.1587848,0.03783455,-0.1157631,-1.145723,1.501135,-1.716131,0.4085267,1.50138,0.4309328,-1.389339,0.02054649,6.1,46.8,-0.1946496,0.03316585,0.06451752,-0.2189427,-0.28211,2.602496,0.5954856,1.578628,0.3368783,-0.2369331,0.08634728,0.06780373,-0.9987216,0.1224697,0.1153348,0.6724919,1.550902,0.2165296,0.1973934,1.689048,0.2571401,318.1656,109.9932,135.3723,True
3,1.166668,0.1737973,-0.007890761,-0.1100815,-1.14404,1.500337,-1.718152,0.407165,1.502157,0.4302971,-1.389415,-0.007032486,6.1,46.8,-0.1883063,0.06526224,0.04336987,-0.2175552,-0.2897788,2.611945,0.5939255,1.578853,0.3362517,-0.2479897,0.1342536,0.03049221,-0.9995765,0.1269996,0.1161042,0.6718701,1.551139,0.2160537,0.1953796,1.689392,0.2569314,317.9838,110.1902,135.2356,True
3,1.17778,0.176053,-0.06107455,-0.1000731,-1.141391,1.499986,-1.720087,0.405894,1.50268,0.4296865,-1.389254,0.01481405,6.2,71.9,-0.1966444,0.1667432,0.01010624,-0.2143056,-0.3088074,2.632873,0.5926898,1.578923,0.3354979,-0.2291352,0.1277936,-0.001649141,-1.000455,0.1283291,0.1171421,0.6709887,1.551259,0.2154493,0.1935934,1.689856,0.2565978,317.9726,110.3284,135.2201,True
3,1.188891,0.176053,-0.06107455,-0.1000731,-1.141391,1.499986,-1.720087,0.405894,1.50268,0.4296865,-1.390447,-0.1090587,6.2,71.9,-0.1966444,0.1667432,0.01010624,-0.2143056,-0.3088074,2.632873,0.5926898,1.578923,0.3354979,-0.2291352,0.1277936,-0.001649141,-1.000455,0.1283291,0.1171421,0.6709887,1.551259,0.2154493,0.1920056,1.690326,0.256094,318.0679,110.4569,135.1989,True
3,1.200002,0.1249093,-0.05470677,-0.08943461,-1.140251,1.498258,-1.720681,0.4035052,1.503268,0.4286959,-1.387792,0.2429431,6.2,71.9,-0.180987,0.1810695,0.08142862,-0.2152819,-0.3354749,2.662551,0.5904431,1.579348,0.334126,-0.1348474,-0.005382106,-0.05666119,-1.003936,0.1251686,0.1190164,0.6689634,1.551167,0.214762,0.1907074,1.690501,0.2555612,318.1144,110.5364,135.0817,True
3,1.211113,0.09184295,-0.03559735,-0.08850054,-1.140361,1.497173,-1.720129,0.402202,1.503517,0.4282014,-1.38965,-0.1730237,6.2,71.9,-0.1793024,0.1215203,0.06500157,-0.2157896,-0.3324891,2.661542,0.5892577,1.579668,0.3335164,-0.1351761,-0.03612472,0.01478605,-1.001613,0.1230637,0.1216668,0.667878,1.551302,0.2143986,0.1897324,1.690359,0.2550822,318.1335,110.5685,135.0183,True
3,1.222224,0.07371151,-0.02272661,-0.07261266,-1.140478,1.496813,-1.720223,0.4009067,1.503821,0.4277413,-1.385793,0.3528445,6.2,71.9,-0.1832165,0.01408666,0.04507093,-0.2169837,-0.316142,2.64782,0.5878688,1.580185,0.3330526,-0.1550528,0.0001827776,0.05112484,-0.9997262,0.1247216,0.1231784,0.6667693,1.551454,0.2139494,0.1882553,1.690427,0.2542805,318.5108,110.4561,135.1059,True
3,1.233335,0.04599633,-0.009861656,-0.05458713,-1.14084,1.496779,-1.719736,0.3994983,1.5041,0.4272742,-1.382998,0.2505381,3.5,69.2,-0.1943483,0.00060606,0.001397982,-0.2159435,-0.3104869,2.644848,0.5863865,1.580612,0.3325748,-0.1875726,0.121729,0.1034028,-0.9961229,0.1309755,0.1230559,0.6656865,1.551645,0.2135377,0.1864364,1.69034,0.2534832,318.6228,110.4527,134.9386,True
3,1.244446,0.03534136,-0.004389487,-0.03331458,-1.140945,1.497152,-1.719929,0.3979336,1.504471,0.4267597,-1.380803,0.1966947,3.5,69.2,-0.204367,0.03626388,-0.06216896,-0.212589,-0.3119195,2.648876,0.5846043,1.581069,0.3321342,-0.1803198,0.1719983,0.1895114,-0.9908914,0.1348012,0.1227504,0.6646438,1.551799,0.2132051,0.1843066,1.690154,0.2528388,318.5294,110.6113,134.6317,True
3,1.255558,0.03424609,0.01166312,-0.02385332,-1.14164,1.497094,-1.720232,0.3964539,1.504669,0.4261625,-1.377066,0.3375059,3.5,69.2,-0.221469,0.08665186,-0.09465751,-0.2096494,-0.3185163,2.658255,0.5828731,1.581468,0.3315358,-0.1714361,0.1550291,0.2246133,-0.9870176,0.135589,0.12389,0.6636632,1.551962,0.212815,0.1819392,1.689886,0.2524383,318.3259,110.8303,134.3591,True
3,1.266669,0.04156712,0.07903842,0.006504168,-1.145062,1.49778,-1.721256,0.3950115,1.504809,0.4255912,-1.373777,0.2949256,3.5,69.2,-0.2478545,0.201011,-0.1266169,-0.204771,-0.3390561,2.682061,0.581376,1.581434,0.3310087,-0.1803181,0.09636344,0.188597,-0.9865541,0.133985,0.1270844,0.6628366,1.552192,0.2124186,0.1793415,1.689626,0.2522557,318.0598,111.0265,134.217,True
3,1.27778,0.05527166,0.1528439,0.03999981,-1.14956,1.49878,-1.722769,0.3938031,1.504722,0.4248765,-1.369792,0.3585749,2,63.3,-0.2539809,0.2842432,-0.1419296,-0.2004055,-0.3609722,2.706418,0.5801808,1.581559,0.3302701,-0.1693273,0.06425291,0.1161046,-0.9878287,0.1337783,0.1286861,0.6620151,1.552281,0.2119663,0.1765285,1.689372,0.2522337,317.7863,111.1732,134.2087,True
3,1.288891,0.061582,0.1946607,0.07162616,-1.153474,1.500206,-1.724141,0.3929362,1.504584,0.4241257,-1.365335,0.400714,2,63.3,-0.2605445,0.3370617,-0.07437691,-0.1993621,-0.3898215,2.737864,0.5796576,1.581694,0.329427,-0.130126,-0.01165347,-0.01516638,-0.99273,0.1312327,0.1296198,0.6610731,1.551956,0.2118864,0.1735555,1.689054,0.2523837,317.4688,111.3069,134.2153,True
3,1.300002,0.06057493,0.1691365,0.07715707,-1.154468,1.5011,-1.725109,0.3922283,1.504431,0.423491,-1.360221,0.4599638,2,63.3,-0.2133327,0.2202723,0.1342066,-0.2079172,-0.3983685,2.746976,0.5791306,1.581695,0.3286085,-0.1084732,-0.04588649,-0.08563061,-0.9959477,0.1297665,0.1310552,0.6602895,1.552133,0.2113891,0.1704717,1.688705,0.2527755,317.0216,111.356,134.2687,True
3,1.311113,0.06180577,0.09234713,0.06604677,-1.153076,1.501736,-1.726132,0.3915252,1.504259,0.4228494,-1.353902,0.5694193,2,63.3,-0.1479945,0.09884998,0.2339233,-0.2148143,-0.3965099,2.744569,0.5786573,1.58159,0.3280869,-0.1277792,0.06061693,-0.09631035,-0.9969394,0.1348902,0.1303292,0.659469,1.552282,0.2112846,0.1673981,1.688228,0.2534472,316.4568,111.3515,134.4776,True
3,1.322224,0.05765589,0.03902051,0.05902227,-1.151942,1.502471,-1.726887,0.3905001,1.504146,0.4222021,-1.347217,0.6017333,2,63.3,-0.1505727,-0.03364287,0.1424267,-0.2145602,-0.3743231,2.724837,0.5776818,1.581765,0.3278179,-0.1356983,0.1566043,-0.03466602,-0.9948323,0.1402595,0.1293114,0.6587824,1.552648,0.210983,0.164458,1.687505,0.2542948,315.8569,111.4048,134.7986,True
3,1.333336,0.05138381,-0.01206726,0.06688838,-1.150152,1.503884,-1.727819,0.3894424,1.503873,0.4215593,-1.340425,0.6109408,1.3,53.8,-0.1714679,-0.1487772,0.01927624,-0.2135008,-0.3445234,2.698339,0.5765652,1.581881,0.3277729,-0.1086078,0.1886637,0.01080107,-0.9929788,0.1435426,0.1278408,0.6579496,1.552686,0.2106662,0.1616944,1.686405,0.2550984,315.3755,111.5916,135.0918,True
3,1.344447,0.05454411,0.01157568,0.09226246,-1.151512,1.505718,-1.729285,0.3882303,1.503344,0.4207246,-1.332782,0.6883981,1.3,53.8,-0.1681651,-0.146987,-0.08302474,-0.210214,-0.3300308,2.685957,0.5752312,1.581897,0.3275409,-0.08598463,0.1620783,0.03513916,-0.991684,0.1441994,0.1276879,0.6571606,1.552745,0.2102883,0.1589863,1.684933,0.2556016,315.0398,111.8525,135.2263,True
3,1.355558,0.07668909,0.1237981,0.131844,-1.157104,1.507861,-1.731756,0.3871672,1.502696,0.4200902,-1.324938,0.7059025,1.3,53.8,-0.1248114,-0.06996003,-0.1574435,-0.2056616,-0.3298376,2.685577,0.5739065,1.581873,0.327246,-0.08059575,0.08325477,0.03950907,-0.9913542,0.1419502,0.1296358,0.6564149,1.552802,0.2098327,0.156122,1.683238,0.2556563,314.7458,112.0868,135.1729,True
3,1.366669,0.08713049,0.2263448,0.1629848,-1.163633,1.509863,-1.733861,0.3862056,1.502026,0.4195015,-1.317264,0.6900388,1.3,53.8,-0.08287956,0.06747669,-0.1866777,-0.2006511,-0.3478675,2.70285,0.5728543,1.581927,0.3267632,-0.07981776,0.04270167,0.01080969,-0.9925729,0.1408189,0.1312504,0.6556526,1.552711,0.2094581,0.1530535,1.681294,0.2552671,314.4037,112.3061,134.9541,True
3,1.37778,0.1007674,0.3299785,0.1962472,-1.171435,1.512201,-1.736374,0.3853059,1.501244,0.4189677,-1.309841,0.6671277,2.1,58.3,-0.07494661,0.1248148,-0.1660933,-0.1985205,-0.3596967,2.71508,0.5719509,1.581967,0.3262055,-0.08048667,0.01912382,-0.05625421,-0.9957628,0.1406481,0.1322081,0.6549373,1.552865,0.2091935,0.1497511,1.6792,0.2546101,313.9239,112.498,134.5387,True
3,1.388891,0.0954235,0.3417429,0.2036101,-1.175904,1.514035,-1.737969,0.3845121,1.500625,0.4182987,-1.300995,0.797051,2.1,58.3,-0.1194412,0.1237741,-0.1390477,-0.1973477,-0.3643636,2.722405,0.571123,1.581944,0.3255944,-0.09863894,0.07235864,-0.05937679,-0.9962161,0.1435831,0.1323109,0.654102,1.552968,0.2089345,0.1462934,1.677054,0.2540919,313.2908,112.6478,134.004,True
3,1.400002,0.08699015,0.301182,0.1964829,-1.177907,1.515736,-1.739323,0.3836452,1.500073,0.417702,-1.292374,0.7752281,2.1,58.3,-0.140459,0.1311409,-0.1121579,-0.1964108,-0.3707994,2.730997,0.5703219,1.581998,0.3250153,-0.09316167,0.1011504,-0.04351503,-0.9957916,0.1459279,0.131913,0.6532696,1.553096,0.2087629,0.1427499,1.674974,0.2540254,312.5562,112.8053,133.5432,True
3,1.411114,0.08081952,0.1977024,0.1802611,-1.176981,1.517492,-1.740676,0.3828688,1.499842,0.4171894,-1.282671,0.8744541,2.1,58.3,-0.1098955,0.1293604,-0.03362102,-0.1979751,-0.3821037,2.742275,0.5695556,1.582151,0.3245606,-0.06388573,0.1129809,0.007299538,-0.9938832,0.1475004,0.1307892,0.652395,1.553224,0.2085841,0.139205,1.673004,0.2545708,311.7845,112.9014,133.4093,True
3,1.422225,0.08208975,0.09953313,0.1597278,-1.175019,1.519006,-1.742248,0.3820579,1.499568,0.4167781,-1.273282,0.8448767,2.1,58.3,-0.06421109,0.09073192,-0.02686039,-0.1981584,-0.3809192,2.740176,0.5687802,1.582111,0.3242342,-0.03417225,0.1110511,0.1007574,-0.9895555,0.1480869,0.1298616,0.6515924,1.553311,0.2083273,0.1357007,1.671097,0.2555743,311.0677,113.0629,133.5853,True
3,1.433336,0.1015978,-0.05287446,0.1460093,-1.169248,1.521315,-1.744967,0.3812379,1.499667,0.4162204,-1.264034,0.832188,3.7,48.2,-0.06796923,0.06658557,-0.07387599,-0.1959522,-0.3755209,2.735757,0.5679165,1.582121,0.3239267,-0.02954562,0.1185859,0.1369166,-0.9866133,0.1495153,0.1292408,0.6508365,1.553385,0.2079878,0.1322635,1.669155,0.2567558,310.4371,113.3145,133.8687,True
3,1.444447,0.1220179,-0.1371013,0.1317554,-1.165442,1.523277,-1.747796,0.3803519,1.499603,0.4155912,-1.255032,0.8097137,3.7,48.2,-0.106744,0.05533062,-0.1119459,-0.1933018,-0.3711628,2.734285,0.5669926,1.582216,0.32388,-0.02734505,0.09408841,0.1433414,-0.9849744,0.1493599,0.1296853,0.6502507,1.553297,0.2075729,0.1289118,1.667079,0.2578067,309.8754,113.6811,134.0425,True
3,1.455558,0.1316164,-0.1435559,0.1211445,-1.164135,1.524644,-1.750138,0.3796049,1.499154,0.4150381,-1.246449,0.7714651,3.7,48.2,-0.09624445,0.05433053,-0.128027,-0.1914147,-0.3706613,2.7345,0.5662515,1.582096,0.3236558,-0.02448554,0.02477058,0.1083016,-0.9852556,0.1468817,0.131191,0.649697,1.553303,0.2071877,0.125635,1.664759,0.2584983,309.3819,114.1153,134.0555,True
3,1.466669,0.1294048,-0.1062428,0.1251114,-1.164456,1.526241,-1.752148,0.3790068,1.498767,0.414588,-1.2373,0.8236725,3.7,48.2,-0.02210093,0.02863359,-0.1598154,-0.1888075,-0.3618036,2.723668,0.5655968,1.581891,0.3233314,-0.04244331,-0.02337253,0.01802827,-0.9883529,0.1449355,0.1334457,0.6490906,1.553298,0.2068861,0.1223625,1.662093,0.2585738,308.958,114.677,133.8115,True
3,1.47778,0.1208361,-0.0838424,0.1313365,-1.164601,1.528181,-1.753942,0.37849,1.49831,0.4141667,-1.227601,0.8734658,3.7,48.2,-0.01207161,0.05925345,-0.1287912,-0.1878477,-0.3688547,2.730518,0.5648796,1.581783,0.3229094,-0.03843548,-0.004248558,-0.006556508,-0.9891406,0.1459236,0.1331937,0.6484664,1.553313,0.2066333,0.1190503,1.659054,0.2580611,308.5307,115.2963,133.201,True
3,1.488891,0.09849357,-0.09338706,0.1431443,-1.163682,1.530547,-1.755218,0.3781554,1.497915,0.4138284,-1.217757,0.8862935,4.2,45.6,-0.01038032,0.05128164,-0.05855035,-0.1891468,-0.3742021,2.735824,0.5644055,1.581723,0.3225493,-0.009551633,0.07354212,0.007902481,-0.9879529,0.1498129,0.1302025,0.6478136,1.553291,0.2063985,0.1157513,1.65569,0.2572457,308.0139,115.9704,132.2377,True
3,1.500003,0.08043192,-0.1126252,0.1401153,-1.162106,1.532472,-1.7564,0.3776046,1.497465,0.4133873,-1.20807,0.8721033,4.2,45.6,-0.005983669,0.03726009,-0.03738283,-0.1894408,-0.3741077,2.735693,0.5639074,1.581609,0.3221729,0.007528834,0.08740132,0.01195931,-0.9874501,0.1512648,0.1288286,0.6472322,1.553263,0.2060785,0.1125055,1.65222,0.2564135,307.3833,116.7218,131.0956,True
3,1.511114,0.05386559,-0.140331,0.146743,-1.159995,1.534951,-1.757066,0.3771388,1.497089,0.4129341,-1.198163,0.8923507,4.2,45.6,0.008354276,0.02052266,-0.08984263,-0.1870439,-0.3666458,2.727783,0.5634183,1.581591,0.3219514,0.02153423,0.06826152,0.02677263,-0.9866309,0.1513297,0.1280608,0.6466039,1.553328,0.2057486,0.1094173,1.648771,0.2557517,306.7233,117.5251,130.0118,True
3,1.522225,0.04430206,-0.150989,0.148966,-1.158381,1.537176,-1.75816,0.3766344,1.496891,0.4124522,-1.189075,0.8173268,4.2,45.6,0.04311253,-0.008223148,-0.1170079,-0.1854625,-0.3562295,2.71597,0.5628756,1.581549,0.3217394,0.01510712,0.02989159,0.0226608,-0.986666,0.1498497,0.1290328,0.6459507,1.553407,0.2054515,0.1065561,1.645453,0.2552918,306.1143,118.3426,129.0922,True
3,1.533336,0.05173153,-0.1359818,0.158434,-1.157871,1.539626,-1.759998,0.3762571,1.496782,0.4119649,-1.179446,0.8676642,6.3,35.8,0.06040306,0.04069173,-0.1168121,-0.1836159,-0.3632675,2.721565,0.5624898,1.581567,0.3214831,0.01319977,-0.02652646,0.04304226,-0.9858255,0.1469337,0.1305806,0.645413,1.553457,0.2049782,0.1038719,1.642367,0.2549795,305.6227,119.0628,128.3924,True
3,1.544447,0.07725766,-0.1155741,0.172111,-1.157806,1.542356,-1.76278,0.3758497,1.496751,0.4113736,-1.171151,0.7453126,6.3,35.8,0.05965225,0.08108963,-0.1037252,-0.1820745,-0.3737953,2.73139,0.562143,1.58156,0.3211594,0.03165043,-0.0775997,0.07492335,-0.9842569,0.1434561,0.1315138,0.6449327,1.553542,0.204531,0.101356,1.639569,0.2547254,305.1512,119.7067,127.8155,True
3,1.555558,0.09316389,-0.08139163,0.1792861,-1.158368,1.544671,-1.765221,0.375491,1.49659,0.4107468,-1.16321,0.7141459,6.3,35.8,0.02351835,0.08120503,-0.09485003,-0.1811647,-0.3768454,2.735276,0.5619699,1.581523,0.3207593,0.05731016,-0.1223205,0.08221171,-0.9835523,0.139975,0.1318688,0.6445374,1.553544,0.2041111,0.09898181,1.637112,0.2544848,304.7004,120.2736,127.2863,True
3,1.566669,0.08137457,-0.04945159,0.1801055,-1.159266,1.546768,-1.766613,0.3752231,1.496389,0.4101198,-1.155469,0.6959455,6.3,35.8,-0.04530346,0.0662517,-0.04211584,-0.1821059,-0.3805459,2.741739,0.5618942,1.581453,0.3204663,0.07721206,-0.1383737,0.04796133,-0.9843028,0.1375271,0.1317018,0.6441473,1.553504,0.2037892,0.09677459,1.634939,0.2542893,304.2556,120.6953,126.8729,True
3,1.577781,0.06431809,-0.04962435,0.1630749,-1.15887,1.548218,-1.767273,0.3749301,1.496218,0.4095831,-1.14675,0.7855154,6.3,35.8,-0.06880297,0.0375476,-0.03463726,-0.1823189,-0.3775686,2.74024,0.5618574,1.581319,0.3201208,0.08417877,-0.1331475,-6.104601E-05,-0.9860674,0.1363345,0.1312499,0.6438109,1.553455,0.2035162,0.09469493,1.632929,0.2541528,303.8611,120.9382,126.6549,True
3,1.588892,0.04415307,-0.09364085,0.1261493,-1.156438,1.548862,-1.767322,0.3747275,1.496273,0.4090426,-1.13734,0.8481433,6.5,24.6,-0.03276647,-0.06727326,-0.0005874671,-0.1847983,-0.3582764,2.72049,0.5618208,1.581213,0.3198946,0.07475354,-0.1248213,-0.08840291,-0.9901447,0.1356313,0.1311415,0.6434867,1.553354,0.2033808,0.09270278,1.630938,0.2540993,303.4926,121.1126,126.5265,True
3,1.600003,0.02088954,-0.1802413,0.09382746,-1.151653,1.549981,-1.767301,0.374594,1.496507,0.4086599,-1.128602,0.7864573,6.5,24.6,-0.004860874,-0.07719126,0.02677812,-0.1862455,-0.3561541,2.717538,0.5616589,1.581084,0.3197296,0.05071853,-0.07381904,-0.1457966,-0.9934203,0.1371417,0.1306105,0.6432039,1.553357,0.2032065,0.09075207,1.628928,0.2541097,303.1105,121.3796,126.3374,True
3,1.611114,-0.0002365187,-0.2645713,0.07852833,-1.146132,1.551591,-1.767294,0.3744031,1.496797,0.4082794,-1.120357,0.7420539,6.5,24.6,0.02508971,-0.02717505,0.01407425,-0.185511,-0.3621749,2.722155,0.5615149,1.580918,0.3195217,0.06150976,-0.03543372,-0.1310709,-0.9942284,0.1383613,0.1289361,0.6428748,1.553373,0.2029762,0.08881219,1.626888,0.2541343,302.7733,121.8712,125.968,True
3,1.622225,-0.02036314,-0.3146607,0.08213282,-1.141506,1.55388,-1.767388,0.3742851,1.496972,0.4078445,-1.11247,0.7100239,6.5,24.6,0.05090522,0.05804974,-0.002589187,-0.1834961,-0.3788809,2.737389,0.5614885,1.580893,0.3193409,0.09174909,-0.06304496,-0.09083168,-0.9938731,0.1360356,0.1282296,0.6423926,1.553385,0.202672,0.08691049,1.62481,0.2541071,302.4984,122.6507,125.3436,True
3,1.633336,-0.0405151,-0.3541207,0.08245744,-1.13644,1.556035,-1.767115,0.3742495,1.497262,0.4074759,-1.104922,0.6794201,6.8,23.8,0.06811279,0.07494979,0.0058941,-0.183258,-0.3867762,2.743812,0.5614988,1.580883,0.3191917,0.1320418,-0.1342284,-0.006926602,-0.991555,0.1308849,0.1281516,0.6419531,1.553448,0.202374,0.08512308,1.622661,0.25394,302.2736,123.5897,124.5513,True
3,1.644447,-0.05120857,-0.3349032,0.0908342,-1.133923,1.558058,-1.767086,0.3742454,1.497319,0.4071178,-1.09761,0.6581366,6.8,23.8,0.07643969,0.02800259,0.009739769,-0.1842375,-0.3795677,2.735763,0.5616153,1.58086,0.3191257,0.1379873,-0.1713837,0.05274928,-0.9895177,0.1267342,0.1287513,0.641637,1.553517,0.2020731,0.08347456,1.620456,0.2535307,302.0509,124.5054,123.7264,True
3,1.655559,-0.05670301,-0.2570642,0.1019382,-1.133895,1.55972,-1.767017,0.3742618,1.497286,0.4067953,-1.09048,0.6420044,6.8,23.8,0.0664058,-0.03789952,-0.004489537,-0.1848873,-0.3649122,2.720894,0.5618107,1.580792,0.3189912,0.1103927,-0.1756367,0.06262518,-0.9889222,0.1242263,0.1298504,0.6414287,1.55349,0.2016969,0.08202116,1.618215,0.2528294,301.8024,125.344,122.8923,True
3,1.66667,-0.07607596,-0.1675198,0.1140227,-1.135239,1.561237,-1.766147,0.3742142,1.497144,0.406549,-1.084226,0.5622699,6.8,23.8,0.0334244,-0.07092279,0.01795173,-0.1864053,-0.3579268,2.714902,0.5620056,1.580742,0.3188591,0.1102267,-0.176733,0.04665116,-0.9891769,0.1219121,0.1299732,0.641287,1.55345,0.2014081,0.08110447,1.616284,0.2521992,302.0086,126.7849,121.5861,True
3,1.677781,-0.08895542,-0.1217047,0.1189951,-1.135402,1.562848,-1.765489,0.3740874,1.497135,0.4061594,-1.078066,0.5544038,6.8,23.8,0.02494045,-0.08267049,0.02860044,-0.1874636,-0.3545472,2.711626,0.5620804,1.580673,0.3186908,0.1077572,-0.1778745,0.01365004,-0.9904546,0.1196163,0.1300914,0.6410978,1.553387,0.2011483,0.08119617,1.61633,0.2518134,302.3622,127.0395,121.3444,True
3,1.688892,-0.1092798,-0.08556494,0.1144595,-1.135915,1.563975,-1.764047,0.3739849,1.497129,0.405889,-1.071225,0.6168139,4.9,26.8,0.02375375,-0.08684887,0.01792752,-0.1877848,-0.3488355,2.705792,0.5621213,1.580632,0.3185232,0.09430044,-0.1726931,-0.05227609,-0.9935173,0.1180148,0.1303724,0.6410279,1.553345,0.2009778,0.08148579,1.616534,0.2517481,302.5563,126.3945,122.2019,True
3,1.700003,-0.1092798,-0.08556494,0.1144595,-1.135915,1.563975,-1.764047,0.3739849,1.497129,0.405889,-1.065521,0.5126227,4.9,26.8,0.02375375,-0.08684887,0.01792752,-0.1877848,-0.3488355,2.705792,0.5621213,1.580632,0.3185232,0.09430044,-0.1726931,-0.05227609,-0.9935173,0.1180148,0.1303724,0.6410279,1.553345,0.2009778,0.08179285,1.616777,0.2517805,302.9652,125.8163,122.8437,True
3,1.711114,-0.1252645,-0.08999103,0.09851876,-1.134614,1.564795,-1.76247,0.3738993,1.497237,0.4056003,-1.061314,0.3767753,4.9,26.8,0.02161529,-0.07186309,0.009531867,-0.1876639,-0.3470156,2.70379,0.5620805,1.580578,0.3183665,0.08443537,-0.1567867,-0.07884438,-0.9953682,0.1166535,0.130545,0.6409206,1.553308,0.2007833,0.08184933,1.617151,0.251886,302.8892,125.2976,123.481,True
3,1.722225,-0.1571561,-0.1330326,0.05306541,-1.129303,1.566606,-1.757132,0.373818,1.49744,0.4047949,-1.052315,0.8162866,4.9,26.8,0.04083139,-0.00677589,-0.01893863,-0.1860186,-0.3508646,2.705734,0.5618939,1.580549,0.3179722,0.06410333,-0.07051283,-0.08521704,-0.9988217,0.1174961,0.1284823,0.6403805,1.553272,0.200377,0.08178088,1.617359,0.2520363,302.7946,124.9085,123.9434,True
3,1.733337,-0.1677725,-0.1512315,0.04469603,-1.126998,1.567324,-1.755153,0.3737677,1.497686,0.4047403,-1.046801,0.4938821,4.1,26,0.03029228,0.01777457,-0.01971943,-0.1854039,-0.3557327,2.710593,0.5618573,1.58071,0.3178403,0.06359169,-0.05227987,-0.02985643,-0.9968536,0.1173662,0.1279004,0.6402435,1.5533,0.2001953,0.08151944,1.617452,0.2520827,302.7319,125.0098,124.1296,True
3,1.744448,-0.158167,-0.1586463,0.04687471,-1.125144,1.568349,-1.754227,0.3737863,1.497827,0.4045925,-1.043975,0.2515441,4.1,26,0.03282576,0.04952842,0.007121587,-0.1858034,-0.3676474,2.721914,0.5619442,1.580778,0.3176553,0.05528468,-0.05435802,-0.008461873,-0.9961591,0.116557,0.1281116,0.6401642,1.553304,0.1999962,0.08133935,1.617699,0.2519687,302.9998,125.7191,124.0741,True
3,1.755559,-0.1453963,-0.1532291,0.05427695,-1.123882,1.569567,-1.753595,0.3738333,1.497946,0.4044416,-1.039367,0.4162344,4.1,26,0.02867533,0.05373621,0.01678002,-0.1860559,-0.372113,2.726109,0.5620772,1.580707,0.3174622,0.0288677,-0.06816069,0.01206996,-0.9955407,0.1149579,0.1297716,0.6401374,1.553286,0.1997697,0.08124565,1.61784,0.2517606,303.1839,125.8377,124.0506,True
3,1.76667,-0.1369421,-0.1212015,0.06041009,-1.123954,1.570568,-1.75282,0.3738577,1.498056,0.4042585,-1.035729,0.3260088,4.1,26,-0.004326493,0.05601805,0.01817458,-0.185993,-0.3761286,2.731426,0.5622545,1.58071,0.3173397,0.02778975,-0.09586322,0.0100094,-0.9957793,0.1123136,0.1309918,0.6402021,1.55328,0.1996136,0.08113297,1.617837,0.2514561,303.3074,125.9181,123.8428,True
3,1.777781,-0.1306266,-0.0881457,0.06227764,-1.124465,-4.711829,-1.751847,0.3738198,1.498142,0.4040053,-1.03164,0.3683259,4.1,26,-0.007480753,0.04210314,0.02981686,-0.1866674,-0.3771569,2.732636,0.5622301,1.580641,0.3172817,0.03729255,-0.0926609,0.001366186,-0.9964648,0.1117651,0.1303537,0.640161,1.553284,0.1995261,0.08112631,1.617816,0.2511741,303.5905,126.2425,123.6612,True
3,1.788892,-0.1243594,-0.03273781,0.06183458,-1.126494,-4.711516,-1.750875,0.3738319,1.49821,0.403729,-1.027355,0.385938,3,16.1,-0.007709317,-0.006906402,0.03052856,-0.1879041,-0.3674036,2.723134,0.5624356,1.580589,0.3172367,0.03070706,-0.06180786,-0.01674361,-0.9973192,0.1126287,0.1298094,0.6402128,1.553204,0.1994588,0.07963546,1.616034,0.250216,302.8394,123.3896,125.4843,True
3,1.800003,-0.1212255,-0.007217623,0.0552384,-1.127359,-4.711326,-1.749685,0.3738405,1.49821,0.4034774,-1.023149,0.3786861,3,16.1,0.0006258748,-0.04529812,0.03017014,-0.1890333,-0.3577949,2.713317,0.562536,1.580642,0.3171396,0.01871106,-0.04693894,-0.04329577,-0.9989538,0.1133127,0.1297934,0.6402213,1.553043,0.1992605,0.08002875,1.619441,0.2494631,303.8148,124.225,124.9025,True
3,1.811115,-0.1212255,-0.007217623,0.0552384,-1.127359,-4.711326,-1.749685,0.3738405,1.49821,0.4034774,-1.019774,0.3033102,3,16.1,0.0006258748,-0.04529812,0.03017014,-0.1890333,-0.3577949,2.713317,0.562536,1.580642,0.3171396,0.01871106,-0.04693894,-0.04329577,-0.9989538,0.1133127,0.1297934,0.6402213,1.553043,0.1992605,0.07940128,1.618007,0.2489469,303.3511,122.0177,126.5932,True
3,1.822226,-0.1106326,0.01723969,0.04651564,-1.128652,-4.711433,-1.748866,0.3738558,1.498328,0.4031677,-1.01779,0.1771259,3,16.1,0.01435263,-0.06130642,0.0246035,-0.1897406,-0.3519158,2.706703,0.5626847,1.580629,0.316992,0.005471826,-0.04171123,-0.08791722,-1.001918,0.11348,0.1302342,0.6402676,1.552989,0.1991687,0.07806685,1.61528,0.2484865,302.2449,121.923,126.2351,True
3,1.833337,-0.07324094,-0.03715379,0.02774273,-1.125992,-4.711038,-1.74865,0.3738179,1.498724,0.4025862,-1.01318,0.418514,1.8,14.6,-0.02046096,-0.04642989,0.05380248,-0.1917231,-0.3547112,2.711202,0.5627412,1.580716,0.3167048,0.01650588,-0.05652397,-0.05072466,-1.002091,0.1116589,0.1303529,0.6402909,1.553108,0.1989913,0.07854651,1.620556,0.2479794,302.9417,122.1637,125.8862,True
3,1.844448,-0.05497193,-0.1107007,0.01766225,-1.121758,-4.71044,-1.749053,0.3737356,1.499051,0.4023132,-1.012616,0.04673351,1.8,14.6,-0.04260537,-0.02938619,0.07011179,-0.1927868,-0.3600393,2.717967,0.5626833,1.580748,0.3164997,0.005242292,-0.05536738,-0.005867828,-1.000359,0.1107049,0.1312643,0.6402684,1.553132,0.198879,0.07835823,1.618867,0.248618,303.1663,121.4276,127.1765,True
3,1.855559,-0.04211894,-0.1448077,0.01153422,-1.118961,-4.709983,-1.749214,0.3736523,1.499382,0.4020801,-1.010622,0.1810151,1.8,14.6,-0.04130866,0.02068557,0.06940235,-0.1925519,-0.372476,2.730523,0.5626931,1.580654,0.3163316,-0.002952542,-0.05104336,0.02724244,-0.9987536,0.1099357,0.1321567,0.640172,1.553044,0.198725,0.07761159,1.616735,0.2493475,302.0319,120.6523,128.0409,True
3,1.86667,-0.03887931,-0.1628677,0.01700225,-1.116443,-4.709018,-1.749359,0.37351,1.499591,0.4019332,-1.00925,0.1227697,1.8,14.6,-0.04029465,0.05814297,0.0451621,-0.1912549,-0.3821016,2.740395,0.5626981,1.580668,0.3162563,0.00908762,-0.04458048,0.05906712,-0.9968579,0.1093848,0.1318757,0.6402268,1.553024,0.1986434,0.07806296,1.62185,0.2490784,302.7058,120.8722,128.1097,True
3,1.877781,-0.04526876,-0.1596047,0.02656732,-1.115162,-4.707986,-1.749043,0.3734679,1.499731,0.4018025,-1.007549,0.153661,1.8,14.6,-0.04263579,0.04548363,0.02910748,-0.1909487,-0.3802864,2.739118,0.5626869,1.580724,0.3162327,0.01010986,-0.04670627,0.05479576,-0.996647,0.1088303,0.132011,0.6403542,1.553095,0.1986094,0.07789242,1.619988,0.2497367,303.1859,120.3565,129.31,True
3,1.888893,-0.04639308,-0.1296699,0.04017979,-1.115145,-4.706834,-1.748973,0.373468,1.499743,0.4016578,-1.005938,0.1451953,0.6,7.4,-0.05887999,0.01582593,0.0162608,-0.1910616,-0.3742933,2.73456,0.5627438,1.580793,0.3162098,-0.008381275,-0.03613762,0.01767378,-0.9979898,0.1090716,0.1327128,0.640512,1.553101,0.1985638,0.07723457,1.617901,0.2504463,302.0688,118.9077,130.7614,True
3,1.900004,-0.03688175,-0.09447207,0.04309145,-1.115661,-4.706275,-1.749246,0.3735154,1.499727,0.4014459,-1.004296,0.1482534,0.6,7.4,-0.06548566,0.003193859,0.000256517,-0.1907505,-0.3708228,2.732188,0.5628813,1.580841,0.3161376,-0.02888464,-0.01809244,-0.006653987,-0.9990109,0.10979,0.1336768,0.6405007,1.553014,0.1984794,0.07612561,1.615902,0.251531,301.1337,118.4833,131.4328,True
3,1.911115,-0.0221213,-0.02407226,0.04998187,-1.118589,-4.705877,-1.749809,0.3735816,1.499582,0.4012785,-1.00351,0.07013909,0.6,7.4,-0.06019686,-0.01497977,0.005400935,-0.1913774,-0.3665893,2.728471,0.5629987,1.580794,0.3160448,-0.0333632,-0.01387765,-0.02792454,-1.000225,0.1100254,0.1341155,0.6406574,1.552959,0.1984565,0.07625758,1.623075,0.2510602,301.6311,119.3872,130.7343,True
3,1.922226,-0.002047198,0.05268063,0.05042935,-1.122283,-4.705929,-1.750635,0.373462,1.499348,0.4011068,-1.003336,0.01497178,0.6,7.4,-0.06732716,0.01153147,0.02696371,-0.191958,-0.375359,2.738117,0.5630953,1.580722,0.315974,-0.02149731,-0.00530011,-0.0120823,-0.999601,0.1105137,0.133696,0.6407787,1.552896,0.1984892,0.07668027,1.624592,0.2505741,302.2174,119.6718,130.3966,True
3,1.933337,0.008570587,0.06866047,0.04710247,-1.123528,-4.705727,-1.751229,0.3734003,1.499325,0.4009328,-1.003027,0.02763474,0,6.4,-0.06318361,0.001984559,0.01938683,-0.1918184,-0.3734249,2.736751,0.5630906,1.580694,0.3159137,-0.01392061,0.001140047,0.0006131685,-0.9989443,0.1110342,0.1333706,0.6408055,1.552946,0.1984591,0.0771375,1.621697,0.250373,302.7128,118.4185,131.9669,True
3,1.944448,0.01815269,0.06860588,0.03750938,-1.124297,-4.705858,-1.751764,0.3733984,1.499266,0.4007463,-1.002825,0.01786832,0,6.4,-0.06009012,-0.01078267,0.01500286,-0.1920581,-0.3702579,2.73415,0.563211,1.580642,0.3158951,-0.02244517,0.009659965,0.000681661,-0.9988569,0.1115256,0.1336875,0.6409011,1.552912,0.1984708,0.07703716,1.619029,0.2506901,301.6459,116.707,133.3334,True
3,1.955559,0.02351605,0.05150633,0.03018535,-1.12399,-4.705726,-1.75231,0.3734324,1.4992,0.400624,-1.001886,0.08524152,0,6.4,-0.0644854,-0.02990419,0.01064894,-0.1925439,-0.3650242,2.72993,0.563318,1.580691,0.3158607,-0.03652832,0.01920534,-0.02157722,-1.000065,0.1125609,0.1342002,0.6411324,1.552839,0.1984439,0.07637554,1.617022,0.2516044,300.8508,115.6615,134.3211,True
3,1.966671,0.02351605,0.05150633,0.03018535,-1.12399,-4.705726,-1.75231,0.3734324,1.4992,0.400624,-1.001371,0.04607081,0,6.4,-0.0644854,-0.02990419,0.01064894,-0.1925439,-0.3650242,2.72993,0.563318,1.580691,0.3158607,-0.03652832,0.01920534,-0.02157722,-1.000065,0.1125609,0.1342002,0.6411324,1.552839,0.1984439,0.07642827,1.623902,0.2510326,301.2023,116.6441,133.2787,True
3,1.977782,0.0215515,-0.02646781,0.005237434,-1.120307,-4.705873,-1.75273,0.373709,1.498885,0.4006565,-1.00033,0.09460293,0,6.4,-0.04866701,-0.01275314,-0.01495106,-0.1912155,-0.3632233,2.728725,0.5633243,1.58076,0.3157763,-0.03676385,0.0212967,-0.04396226,-1.001896,0.1136039,0.1345554,0.6414501,1.552806,0.1984267,0.07666288,1.622259,0.2513996,302.6357,117.1234,133.4307,True
3,1.988893,0.02149462,0.0002059586,0.01035253,-1.121394,-4.705726,-1.75301,0.373872,1.498609,0.400806,-1.000605,-0.02613267,0,3.1,-0.02326396,0.02253472,-0.0500915,-0.1886589,-0.3672916,2.731897,0.5632744,1.580683,0.3156912,-0.04844712,0.01490833,-0.04063415,-1.002241,0.1135705,0.1355994,0.6415514,1.552815,0.1983953,0.07656599,1.620149,0.2519131,301.9804,116.1235,134.4435,True
3,2.000004,0.03099216,0.04293291,0.02280769,-1.123212,-4.705343,-1.753942,0.3740252,1.498421,0.4009128,-0.9998875,0.06563822,0,3.1,-0.02284421,0.07571559,-0.03583727,-0.187625,-0.3800816,2.744214,0.5632514,1.580626,0.3156242,-0.04506746,0.005348645,-0.02253621,-1.001747,0.112867,0.1363978,0.6414911,1.552778,0.1983442,0.07614747,1.617864,0.2529202,301.274,115.334,135.4467,True
3,2.011115,0.03733638,0.0674686,0.02472498,-1.125597,-4.705261,-1.754705,0.3741286,1.498164,0.4011881,-0.9995201,0.03287257,0,3.1,-0.03437302,0.07559234,-0.01337546,-0.1881129,-0.3874042,2.752617,0.5633217,1.580613,0.3156319,-0.02763077,-0.00734916,0.01566649,-0.9999999,0.1118107,0.1364979,0.641536,1.552777,0.1983178,0.07768939,1.620649,0.2530581,299.6047,116.4789,133.7546,True
