loc,t,aDotUA,bDotUA,gDotUA,aUA,bUA,gUA,xUA,yUA,zUA,qE,qDotE,emgA,emgB,aDotSH,bDotSH,gDotSH,aSH,bSH,gSH,xSH,ySH,zSH,aDotUB,bDotUB,gDotUB,aUB,bUB,gUB,xUB,yUB,zUB,xHand,yHand,zHand,aHand,bHand,gHand,enable
0,0,-0.3438525,-1.103874,-0.3062247,-1.321149,-3.921451,3.024616,0.5573537,1.306327,0.4998927,-1.319826,-0.02690014,0,0,-0.3591738,0.2447974,0.05397933,-0.3677975,-4.137369,-0.198695,0.5771805,1.526931,0.399179,-0.08090402,0.1372343,0.04264762,-0.7731774,0.1574444,-0.02593759,0.6467926,1.555571,0.2404292,0.4105374,1.074776,0.3042143,316.2897,220.4448,359.1329,True
0,0.01111111,-0.3438525,-1.103874,-0.3062247,-1.321149,-3.921451,3.024616,0.5573537,1.306327,0.4998927,-1.319791,0.003350464,0,0,-0.3591738,0.2447974,0.05397933,-0.3677975,-4.137369,-0.198695,0.5771805,1.526931,0.399179,-0.08090402,0.1372343,0.04264762,-0.7731774,0.1574444,-0.02593759,0.6467926,1.555571,0.2404292,0.4103349,1.075162,0.3026909,316.403,219.0685,359.6104,True
0,0.02222222,-0.3226817,-1.034507,-0.2939608,-1.317578,-3.898747,3.02561,0.5542064,1.307077,0.4993162,-1.323187,-0.3106688,0,0,-0.3344496,0.2498852,0.07401424,-0.3668105,-4.12029,-0.2079148,0.5765861,1.527207,0.3986897,-0.07707085,0.1094953,0.001085088,-0.7750075,0.1608925,-0.02641323,0.6470156,1.555496,0.2404549,0.4105807,1.075604,0.3008302,316.3704,218.3006,359.5757,True
0,0.03333334,-0.3110451,-0.9939693,-0.2900198,-1.315623,-3.888598,3.026061,0.5528536,1.307516,0.4990132,-1.316414,0.6217804,0,0,-0.3291265,0.2455995,0.07499322,-0.3665761,-4.112722,-0.2115951,0.5762644,1.527302,0.3984742,-0.07388306,0.1020638,0.002124872,-0.7750694,0.1625956,-0.02657622,0.6468402,1.555339,0.240514,0.4112419,1.076111,0.2990575,316.1078,217.8529,359.3891,True
0,0.04444445,-0.2962754,-0.9096724,-0.2758064,-1.313889,-3.880749,3.02684,0.5517629,1.308122,0.4987242,-1.319423,-0.2807834,0,0,-0.299338,0.1984831,0.09140965,-0.3651588,-4.110434,-0.2114654,0.5761781,1.527548,0.3982177,-0.06521346,0.08399209,0.01593236,-0.7743967,0.1629956,-0.02645771,0.6469661,1.55529,0.2405219,0.4120556,1.076289,0.2967382,316.2788,216.6274,359.7389,True
0,0.05555556,-0.2922117,-0.8083603,-0.2573505,-1.312435,-3.874537,3.028363,0.5508977,1.308729,0.4985344,-1.317345,0.1930617,0,0,-0.2667929,0.1915081,0.1538978,-0.3618144,-4.102801,-0.2167182,0.5760548,1.527917,0.3980196,-0.06628101,0.09790157,0.01905574,-0.7747732,0.1663502,-0.02770167,0.6470888,1.555357,0.2404921,0.4131198,1.076528,0.2941837,316.4652,215.4609,359.8355,True
0,0.06666667,-0.2859641,-0.7325994,-0.2430197,-1.310856,-3.868707,3.029831,0.5500649,1.309349,0.4984303,-1.322798,-0.5004486,0,0,-0.2388099,0.18477,0.1855354,-0.3590708,-4.095738,-0.2216746,0.5760498,1.528194,0.3977647,-0.06111871,0.08934048,0.001979902,-0.775374,0.1673385,-0.02790194,0.6473134,1.55539,0.2404659,0.4142624,1.076986,0.2915066,316.6736,214.4179,359.6848,True
0,0.07777778,-0.2808951,-0.6013831,-0.2184282,-1.30966,-3.866262,3.032236,0.5494679,1.309933,0.4983439,-1.320131,0.2481681,0,0,-0.218646,0.1419792,0.1978175,-0.3565728,-4.093979,-0.2213769,0.5760929,1.528554,0.3974793,-0.06252646,0.06053388,-0.03206071,-0.7774486,0.1674991,-0.02693787,0.6476413,1.555494,0.240293,0.4153562,1.077841,0.2894045,316.3824,214.0319,359.1376,True
0,0.08888889,-0.281072,-0.5118039,-0.2063235,-1.308061,-3.863796,3.034724,0.5489735,1.310486,0.49825,-1.31969,0.03759596,0,0,-0.2166014,0.09821859,0.20814,-0.3537983,-4.093893,-0.2191292,0.576306,1.528925,0.397207,-0.05626652,0.03280309,-0.04696934,-0.7785347,0.166463,-0.02581349,0.6479406,1.555528,0.2401338,0.4161284,1.078822,0.2878631,316.1349,213.6616,358.8929,True
0,0.1,-0.2611682,-0.3411798,-0.1863255,-1.306536,-3.86567,3.03737,0.5490562,1.310884,0.4980597,-1.31951,0.01624011,0.2,0,-0.1985274,0.006243691,0.2456667,-0.3489625,-4.100827,-0.210806,0.5768614,1.529262,0.3969152,-0.0466411,-0.02257555,-0.04480658,-0.7790167,0.1632592,-0.02313914,0.6483421,1.555522,0.2398157,0.4164363,1.079835,0.2868012,316.0158,213.1674,358.9318,True
0,0.1111111,-0.239055,-0.2163938,-0.1723802,-1.304922,-3.867101,3.039716,0.5491461,1.311292,0.4978821,-1.319339,0.01554376,0.2,0,-0.1678141,-0.03758365,0.2461145,-0.3459771,-4.104854,-0.2062818,0.5771781,1.529505,0.3966522,-0.04021633,-0.03637688,-0.04060788,-0.7796798,0.1627815,-0.02232528,0.6486346,1.555525,0.2395964,0.4161383,1.080871,0.2861599,315.948,212.8712,359.0151,True
0,0.1222222,-0.2137449,-0.08945154,-0.157388,-1.303353,-3.870337,3.042114,0.5493302,1.311687,0.4978807,-1.320212,-0.08000176,0.2,0,-0.09052236,-0.1048996,0.226764,-0.3434327,-4.114276,-0.1991509,0.5777518,1.529784,0.3963742,-0.03269485,-0.05659999,-0.0353054,-0.7798247,0.1608714,-0.02085255,0.6489893,1.555435,0.2393587,0.4152724,1.081947,0.2858775,315.8645,212.7414,359.2222,True
0,0.1333333,-0.2053741,-0.0201163,-0.1440765,-1.301982,-3.871648,3.044817,0.5494741,1.312009,0.4977005,-1.320374,-0.01418665,0.2,0,-0.05239041,-0.1166671,0.2092573,-0.3414492,-4.118302,-0.1961109,0.5781425,1.530074,0.396081,-0.03274481,-0.05125396,-0.03959247,-0.780597,0.1609896,-0.02048983,0.649307,1.555347,0.2391696,0.4139506,1.083087,0.2859496,315.6912,212.8052,359.5182,True
0,0.1444445,-0.1842435,0.06519873,-0.1383545,-1.300309,-3.875552,3.047107,0.5498719,1.312438,0.4974368,-1.320632,-0.02368599,0.8,0,-0.002221718,-0.1030648,0.213124,-0.3388532,-4.118543,-0.197553,0.5786819,1.53027,0.3957636,-0.03184023,-0.05552088,-0.05452993,-0.782124,0.1606347,-0.01963921,0.6496771,1.555276,0.2389081,0.4123876,1.084264,0.2863362,315.4756,212.92,359.9118,True
0,0.1555556,-0.1779606,0.1120209,-0.1429807,-1.298263,-3.877624,3.04955,0.5501822,1.312937,0.4972672,-1.319687,0.08647228,0.8,0,0.03420109,-0.07132624,0.2204557,-0.3360611,-4.115966,-0.2014186,0.5792079,1.530606,0.3954566,-0.01172863,-0.06619765,-0.06854689,-0.7832831,0.1590733,-0.01913188,0.6499025,1.555129,0.2386045,0.4107471,1.085424,0.2869719,315.2426,213.0715,0.3355957,True
0,0.1666667,-0.1790474,0.1161992,-0.1536641,-1.296029,-3.878935,3.051934,0.5505013,1.313402,0.4970367,-1.320537,-0.07864057,0.8,0,0.065588,-0.03975785,0.2565941,-0.3320658,-4.110998,-0.2080648,0.5800576,1.530857,0.3950925,-0.001212753,-0.0854042,-0.08351807,-0.7847105,0.1567354,-0.01784611,0.6503526,1.555049,0.2383475,0.4091699,1.086479,0.2876169,315.0956,213.2396,0.7901361,True
0,0.1777778,-0.1929256,0.1202823,-0.171782,-1.293491,-3.879958,3.054923,0.5510322,1.313897,0.4969318,-1.319869,0.06180494,0.8,0,0.07224083,-0.0196722,0.2737252,-0.3284647,-4.107537,-0.2123317,0.5811749,1.531128,0.3947563,0.01242727,-0.1248352,-0.1059543,-0.7870206,0.1533213,-0.01589907,0.6510618,1.555026,0.2380774,0.4077875,1.087462,0.2882018,314.9941,213.3951,1.182616,True
0,0.1888889,-0.2153079,0.1190546,-0.1845299,-1.290955,-3.880814,3.058357,0.5516764,1.314414,0.4968026,-1.319517,0.0314314,1.4,0,0.08514572,-0.05081648,0.2989594,-0.3237967,-4.110439,-0.2110225,0.582456,1.531455,0.3943894,0.03904697,-0.1589174,-0.1093286,-0.7883202,0.1490672,-0.01425803,0.6515937,1.554951,0.2377684,0.4067098,1.088376,0.2886532,314.934,213.4385,1.55962,True
0,0.2,-0.2430686,0.1380423,-0.2016817,-1.287968,-3.882896,3.062662,0.5524102,1.315018,0.4968894,-1.318757,0.0693014,1.4,0,0.1199686,-0.1383481,0.303321,-0.3194078,-4.122227,-0.202352,0.5838216,1.531683,0.3941016,0.06558152,-0.1791338,-0.1201972,-0.7899383,0.146119,-0.01376508,0.6520779,1.555084,0.2375255,0.4059939,1.089232,0.2888931,314.884,213.365,1.9052,True
0,0.2111111,-0.2665846,0.1623136,-0.2242126,-1.284525,-3.885289,3.067087,0.553188,1.315662,0.4968319,-1.318208,0.04962251,1.4,0,0.1665488,-0.1746902,0.2898293,-0.3159862,-4.1311,-0.1973554,0.5851045,1.531982,0.3938117,0.08255045,-0.1695262,-0.126793,-0.7917242,0.1445473,-0.01406016,0.6524559,1.554989,0.2373364,0.405683,1.090097,0.2889249,314.8451,213.2281,2.172007,True
0,0.2222222,-0.2996711,0.1801993,-0.2445508,-1.280948,-3.887755,3.072238,0.5540313,1.316322,0.4969978,-1.317723,0.04404405,1.4,0,0.2508559,-0.1452479,0.2924073,-0.3125811,-4.130127,-0.2039555,0.5866034,1.532167,0.3936453,0.09734325,-0.1620901,-0.1386773,-0.7937317,0.1423832,-0.01419944,0.6529608,1.554931,0.237175,0.4057018,1.091034,0.2887383,314.8209,213.0437,2.329944,True
0,0.2333333,-0.3242374,0.201333,-0.2595989,-1.277349,-3.890509,3.0775,0.5549092,1.31689,0.4970646,-1.317789,-0.006265805,1.4,0,0.3551334,-0.1530824,0.2828092,-0.309291,-4.133997,-0.2080262,0.5881544,1.532411,0.3934386,0.1143929,-0.1843715,-0.1388235,-0.7956902,0.1399739,-0.01423779,0.6535545,1.555127,0.2370963,0.4058558,1.092128,0.2883938,314.7972,212.8203,2.380739,True
0,0.2444444,-0.3499358,0.2479557,-0.28549,-1.272917,-3.894943,3.083694,0.5558167,1.317546,0.497216,-1.317273,0.04733539,0.7,0,0.4227132,-0.2138522,0.2476181,-0.3068979,-4.148073,-0.2016831,0.5897704,1.532637,0.3932803,0.1356886,-0.2302415,-0.144202,-0.796755,0.1328618,-0.01178928,0.6537775,1.554709,0.2367127,0.4059362,1.093436,0.2879587,314.7172,212.5397,2.448567,True
0,0.2555556,-0.3650681,0.3297646,-0.3084745,-1.268183,-3.901247,3.090307,0.5568399,1.318203,0.4973779,-1.317387,-0.0106376,0.7,0,0.4181499,-0.2307131,0.2251727,-0.3045751,-4.156791,-0.1977261,0.5913886,1.532926,0.3930964,0.1558273,-0.2739458,-0.1560093,-0.7988343,0.1262651,-0.009453157,0.6544538,1.554526,0.2360637,0.4058208,1.09501,0.2875443,314.5453,212.2382,2.585325,True
0,0.2666667,-0.3834001,0.4211754,-0.3304513,-1.263362,-3.90926,3.0976,0.5578371,1.318897,0.4975049,-1.317186,0.01864049,0.7,0,0.3830032,-0.2487303,0.2339091,-0.3010991,-4.165767,-0.1921484,0.5932059,1.533263,0.3928771,0.170631,-0.3091959,-0.1730652,-0.8006389,0.1186123,-0.007064834,0.6548094,1.554283,0.2357605,0.4053847,1.096826,0.2871899,314.2772,211.9445,2.814394,True
0,0.2777778,-0.3974125,0.4870477,-0.3501159,-1.258332,-3.917135,3.104879,0.5589063,1.319587,0.4975059,-1.317523,-0.0307718,0.7,0,0.3779432,-0.2574427,0.2648008,-0.2963752,-4.17335,-0.188942,0.5950322,1.533548,0.3925533,0.1812051,-0.3369133,-0.1826872,-0.8029569,0.1119905,-0.004841627,0.6554431,1.554161,0.2354116,0.404506,1.098891,0.2870023,313.962,211.6704,3.097599,True
0,0.2888889,-0.4221088,0.5591954,-0.3815274,-1.252631,-3.926219,3.113327,0.5600842,1.320295,0.4975064,-1.317618,-0.008276244,0.7,0,0.4060307,-0.2802874,0.3144355,-0.2903479,-4.183324,-0.1849869,0.5972273,1.533935,0.3922091,0.1884154,-0.3849691,-0.2124374,-0.8060041,0.1027149,-0.001066596,0.6560067,1.554039,0.2351315,0.4030836,1.101213,0.2870983,313.5953,211.4735,3.439572,True
0,0.3,-0.4574063,0.6068089,-0.4148697,-1.246606,-3.934973,3.122399,0.5611535,1.321002,0.4975221,-1.317805,-0.01682601,0.3,0,0.427477,-0.3371071,0.3532413,-0.2840208,-4.199996,-0.1746054,0.599242,1.534361,0.3918757,0.2000712,-0.398842,-0.2221067,-0.8088399,0.09574184,0.000850081,0.6567142,1.553856,0.234858,0.4010633,1.103773,0.2875309,313.1849,211.3931,3.906006,True
0,0.3111111,-0.4744851,0.6184512,-0.4191951,-1.241852,-3.942381,3.130636,0.5621881,1.321724,0.4975817,-1.31724,0.05176445,0.3,0,0.4444689,-0.4814024,0.4095774,-0.2756904,-4.235785,-0.1458517,0.6014098,1.534665,0.3915644,0.1981564,-0.3903155,-0.2007762,-0.8100111,0.08931696,0.003104979,0.6574051,1.553841,0.2346258,0.3985793,1.106529,0.2883004,312.73,211.3485,4.602089,True
0,0.3222222,-0.5011668,0.6440003,-0.4140306,-1.237328,-3.950968,3.139978,0.563126,1.322446,0.4976051,-1.316715,0.04771069,0.3,0,0.4269207,-0.5472118,0.3869063,-0.2712557,-4.265616,-0.1212356,0.6033574,1.534997,0.3914163,0.198639,-0.3699491,-0.1507625,-0.809772,0.08463739,0.004159058,0.657946,1.553772,0.2343884,0.3957543,1.109439,0.2893489,312.273,211.3022,5.453062,True
0,0.3333333,-0.5043701,0.6514758,-0.4098205,-1.232983,-3.958806,-3.135109,0.5641381,1.323192,0.497638,-1.317356,-0.05875203,0.3,0,0.4202971,-0.5438077,0.3624927,-0.2676301,-4.284653,-0.107193,0.605203,1.53534,0.3913136,0.2062459,-0.3475524,-0.1359642,-0.8106311,0.08006088,0.004597681,0.6586983,1.553763,0.2340941,0.3927487,1.11248,0.2905612,311.8334,211.2681,6.385096,True
0,0.3444445,-0.5022408,0.6601153,-0.3949737,-1.229202,-3.967057,-3.126812,0.5649649,1.323914,0.497529,-1.316983,0.03478467,0,0,0.4359158,-0.5478839,0.3271473,-0.2646394,-4.307217,-0.09092618,0.6068941,1.535676,0.3911276,0.209298,-0.3625296,-0.152985,-0.8129182,0.07326396,0.00667761,0.6596114,1.55382,0.2337241,0.3898384,1.115622,0.2917993,311.3724,211.29,7.302256,True
0,0.3555556,-0.4916055,0.6719594,-0.3801696,-1.225524,-3.975399,-3.118874,0.5659401,1.324608,0.4973991,-1.318169,-0.1085743,0,0,0.4388082,-0.5369876,0.2920421,-0.2621355,-4.32761,-0.07622659,0.6084077,1.536078,0.3908141,0.2187385,-0.3966615,-0.1689705,-0.8153811,0.06533813,0.009478723,0.6603152,1.553765,0.2331879,0.3870972,1.118793,0.2928671,310.9263,211.3508,8.118518,True
0,0.3666667,-0.483079,0.6763097,-0.3695572,-1.222046,-3.983651,-3.111008,0.5668026,1.325281,0.4972169,-1.318407,-0.02071993,0,0,0.4058599,-0.4813328,0.2757111,-0.2593168,-4.340335,-0.06732365,0.6098278,1.536381,0.3904667,0.2178466,-0.3966329,-0.1519058,-0.8164527,0.05899341,0.01142736,0.6610351,1.553813,0.2328107,0.3846837,1.121953,0.2937036,310.4586,211.33,8.877592,True
0,0.3777778,-0.4681373,0.6668108,-0.3631015,-1.218437,-3.991481,-3.103565,0.5675213,1.325936,0.4972777,-1.318907,-0.04552557,0,0,0.3516653,-0.3999819,0.2544425,-0.2571468,-4.346625,-0.06332864,0.6111156,1.536707,0.3901265,0.2212282,-0.3774054,-0.1317465,-0.8171931,0.05417096,0.01218103,0.6616838,1.553817,0.2324584,0.3825561,1.125004,0.2942173,309.9967,211.2773,9.50351,True
0,0.3888889,-0.4606924,0.6678644,-0.3652526,-1.214609,-3.999479,-3.095896,0.5683647,1.326522,0.4971864,-1.319054,-0.01312779,0,0,0.3126139,-0.330631,0.2617146,-0.2538067,-4.351764,-0.06045056,0.6126446,1.537081,0.3897395,0.2182674,-0.3539016,-0.1062084,-0.8174993,0.0500878,0.01272245,0.6623405,1.553823,0.2321746,0.3807482,1.127915,0.2944634,309.5392,211.1657,10.03524,True
0,0.4,-0.4425185,0.6434443,-0.3608237,-1.211058,-4.006413,-3.089276,0.568988,1.327147,0.4971271,-1.319358,-0.02775179,0,0,0.2716822,-0.2090749,0.2714963,-0.2506098,-4.342604,-0.07087258,0.6138967,1.537373,0.3893013,0.2045154,-0.3325652,-0.09441019,-0.8181934,0.04618201,0.01375363,0.6631033,1.553741,0.2316775,0.3791875,1.130645,0.2945095,309.1138,210.9722,10.47522,True
0,0.4111111,-0.4371441,0.6189043,-0.3659733,-1.207065,-4.012916,-3.082325,0.5698685,1.32777,0.4971707,-1.31922,0.01282938,0,0,0.2286906,-0.1132238,0.3002983,-0.2464591,-4.333877,-0.08032759,0.6154289,1.537718,0.3888388,0.2053822,-0.3592554,-0.1156572,-0.8202909,0.03940839,0.01612251,0.6638211,1.553653,0.2311656,0.3778106,1.133191,0.2945151,308.7179,210.6974,10.86269,True
0,0.4222222,-0.4189674,0.5847994,-0.3731943,-1.203006,-4.018855,-3.076136,0.5705767,1.328272,0.4969611,-1.319852,-0.0579787,0,0,0.2088605,-0.0942035,0.3336501,-0.2416052,-4.33546,-0.08050337,0.6169212,1.537952,0.3884776,0.2126467,-0.3731513,-0.1359355,-0.8226254,0.03309897,0.01777953,0.6644976,1.553589,0.2307327,0.376497,1.135553,0.2945673,308.3895,210.4358,11.2381,True
0,0.4333333,-0.3955093,0.5719978,-0.3805847,-1.198906,-4.025356,-3.070271,0.5714396,1.3287,0.4968388,-1.319397,0.04207161,0,0,0.2202534,-0.153853,0.3256497,-0.2380925,-4.350437,-0.0688563,0.6184406,1.538136,0.3881893,0.2381019,-0.3827385,-0.1478775,-0.8246979,0.02731125,0.01818966,0.6651051,1.553542,0.2302368,0.375237,1.137761,0.2947682,308.1045,210.1794,11.65701,True
0,0.4444444,-0.3774017,0.573103,-0.3806139,-1.195165,-4.032541,-3.064105,0.5721854,1.329115,0.4966853,-1.319842,-0.0411935,0,0,0.2376142,-0.2324613,0.2833739,-0.2360274,-4.371574,-0.05159448,0.6199591,1.538347,0.3878846,0.2521634,-0.3911812,-0.1266815,-0.8253328,0.0213475,0.01907809,0.6657072,1.553583,0.2298021,0.3740446,1.13984,0.2951598,307.8772,209.9432,12.14823,True
0,0.4555556,-0.3401133,0.5764189,-0.3732418,-1.191638,-4.039636,-3.059107,0.573009,1.329457,0.4964948,-1.320343,-0.04543227,0,0,0.249957,-0.2920298,0.2636491,-0.2335848,-4.393198,-0.03381336,0.6213803,1.538511,0.3876646,0.2566381,-0.3847283,-0.1043704,-0.8258122,0.01589881,0.01985999,0.6662889,1.553521,0.2293701,0.3728148,1.141762,0.2956478,307.6798,209.7186,12.69751,True
0,0.4666667,-0.3038805,0.5712221,-0.3657896,-1.188358,-4.046537,-3.054356,0.5737144,1.329814,0.4964488,-1.320221,0.01139956,0,0,0.2503394,-0.3631269,0.2247788,-0.2323832,-4.420216,-0.01035384,0.6226248,1.538531,0.387501,0.2429643,-0.3580325,-0.08509948,-0.825882,0.01211219,0.02031433,0.6669716,1.55359,0.2290282,0.3715671,1.143547,0.2962703,307.489,209.5337,13.21339,True
0,0.4777778,-0.2643242,0.525735,-0.3356643,-1.185966,-4.051592,-3.050844,0.5743399,1.330101,0.4965501,-1.321175,-0.08741555,0,0,0.2402509,-0.3744764,0.1789863,-0.231899,-4.439731,0.006293316,0.6237481,1.538542,0.3873301,0.2196299,-0.3185925,-0.07111654,-0.8262143,0.009149689,0.02079396,0.6675248,1.553446,0.2287879,0.3702162,1.145216,0.2970004,307.325,209.4534,13.6533,True
0,0.4888889,-0.2493003,0.4896749,-0.320482,-1.183366,-4.056716,-3.046673,0.575019,1.330464,0.4966357,-1.321241,-0.005456539,0,0,0.2338542,-0.3349093,0.1612183,-0.2306718,-4.449533,0.0134218,0.6248889,1.538593,0.3871524,0.2003918,-0.2845245,-0.07525922,-0.8270452,0.006480802,0.021015,0.6679879,1.553282,0.2285712,0.3688465,1.146791,0.2978834,307.1451,209.3918,14.1171,True
0,0.5,-0.2192881,0.4152929,-0.3039762,-1.180732,-4.059306,-3.044239,0.5755817,1.330849,0.496737,-1.321517,-0.02552065,0,0,0.2383638,-0.2635072,0.1552898,-0.2290617,-4.450451,0.01144147,0.6257746,1.538677,0.3868785,0.1851964,-0.2494451,-0.1007616,-0.8290463,0.004369715,0.02087093,0.6684119,1.553109,0.2284698,0.3675276,1.148264,0.2989368,306.962,209.3513,14.5807,True
0,0.5111111,-0.1967701,0.3420336,-0.28103,-1.179054,-4.061777,-3.041284,0.5762158,1.331337,0.4972577,-1.32065,0.07925873,0,0,0.2177786,-0.1795073,0.1912431,-0.2256912,-4.447626,0.00681423,0.6264507,1.538831,0.3866792,0.1531449,-0.2207188,-0.1079771,-0.8305467,0.002276736,0.02164751,0.668965,1.552972,0.2282801,0.3663984,1.149589,0.30012,306.7786,209.3473,15.04274,True
0,0.5222223,-0.1806715,0.2974561,-0.263668,-1.176916,-4.063946,-3.038992,0.576775,1.331686,0.4974306,-1.321091,-0.04114048,0,0,0.1945028,-0.1485244,0.1938189,-0.2235378,-4.45076,0.008409197,0.6273231,1.538895,0.3864977,0.1318589,-0.2004878,-0.1046221,-0.8316125,6.125271E-05,0.02231543,0.6694498,1.552844,0.2281439,0.365476,1.150744,0.3013042,306.6848,209.3748,15.47897,True
0,0.5333334,-0.1517999,0.2529849,-0.2388331,-1.175727,-4.066074,-3.037261,0.5772506,1.332215,0.4975543,-1.320368,0.06633829,0,0,0.1529423,-0.07353126,0.1606663,-0.2229971,-4.443107,0.0007014766,0.6280731,1.539041,0.3863413,0.1116677,-0.1845043,-0.09806762,-0.8324498,-0.001925332,0.0231426,0.6699231,1.552832,0.2280836,0.3649036,1.151734,0.302416,306.6498,209.3208,15.89775,True
0,0.5444446,-0.1207982,0.2137483,-0.2215423,-1.173779,-4.067307,-3.036453,0.5780383,1.332546,0.4976416,-1.32063,-0.02468125,0,0,0.1318518,-0.01055691,0.1559943,-0.2214285,-4.434344,-0.008576178,0.6290309,1.539195,0.3861427,0.1138107,-0.1813053,-0.09703334,-0.8335609,-0.004552141,0.02347683,0.6704381,1.552789,0.2280281,0.3646885,1.152593,0.3033948,306.6552,209.3125,16.13828,True
0,0.5555557,-0.09306763,0.1946589,-0.2224804,-1.171649,-4.069898,-3.035184,0.5788015,1.332826,0.4976072,-1.32101,-0.03469608,0,0,0.1258199,0.02234167,0.1775946,-0.2186791,-4.427762,-0.01625993,0.6299079,1.539308,0.3859169,0.1051592,-0.1760121,-0.1097469,-0.8353058,-0.006832073,0.02409362,0.6709241,1.552765,0.2280111,0.364631,1.153302,0.3040811,306.6951,209.3032,16.2951,True
0,0.5666668,-0.08241361,0.1936091,-0.2235506,-1.169373,-4.072462,-3.033636,0.5795323,1.33311,0.4977338,-1.321381,-0.03375984,0,0,0.1534186,-0.0044204,0.1792606,-0.2166098,-4.432765,-0.01402154,0.6307799,1.539367,0.3857863,0.09342863,-0.1387363,-0.1086565,-0.8364643,-0.007183078,0.02370586,0.6713893,1.552743,0.2280273,0.3647314,1.153923,0.3044921,306.7264,209.2917,16.39877,True
0,0.577778,-0.07179135,0.2064807,-0.2183205,-1.167629,-4.076124,-3.031678,0.5802989,1.333327,0.4978514,-1.321208,0.01588549,0,0,0.1671431,-0.004384905,0.1663381,-0.215275,-4.432794,-0.01638989,0.6316885,1.539485,0.3856988,0.08822399,-0.1269877,-0.09585296,-0.8371087,-0.008514525,0.02376658,0.6718841,1.552759,0.2280028,0.3650718,1.154445,0.3047197,306.7049,209.1281,16.59019,True
0,0.5888891,-0.06434292,0.2119148,-0.2087722,-1.16608,-4.079469,-3.029772,0.5810189,1.333675,0.4979453,-1.320639,0.05162668,0,0,0.1724656,0.002004981,0.1631299,-0.2136297,-4.43112,-0.020105,0.6326264,1.539542,0.3857427,0.08439662,-0.1141007,-0.05110846,-0.8362171,-0.009961687,0.02394315,0.6723852,1.552798,0.2280805,0.3654911,1.15485,0.3048427,306.6835,208.8982,16.72023,True
0,0.6000003,-0.06218681,0.2045191,-0.2012615,-1.164347,-4.081896,-3.028195,0.5817336,1.334048,0.4981654,-1.320387,0.02248859,0,0.9,0.1947065,-0.004405558,0.1522119,-0.2122619,-4.432295,-0.02193965,0.6336153,1.539713,0.3857439,0.08657868,-0.09597304,-0.04478434,-0.8365042,-0.01054838,0.02329813,0.6728726,1.552812,0.2282038,0.3658727,1.155183,0.3050092,306.6908,208.6937,16.74995,True
0,0.6111114,-0.06100707,0.1544995,-0.1945007,-1.162328,-4.082192,-3.02741,0.5826227,1.334472,0.4982767,-1.320126,0.02356241,0,0.9,0.2256969,-0.001392454,0.1593852,-0.2101735,-4.431453,-0.02650405,0.6347489,1.539952,0.3856668,0.08646688,-0.09280469,-0.05545327,-0.8377026,-0.01177317,0.02317962,0.6734653,1.552821,0.2283752,0.3660917,1.155519,0.3053265,306.7192,208.6291,16.70535,True
0,0.6222225,-0.07150871,0.09055486,-0.193995,-1.160176,-4.08132,-3.026772,0.5833613,1.335325,0.4984407,-1.319929,0.01773634,0,0.9,0.252566,-0.02623993,0.1930288,-0.2069468,-4.435893,-0.02595943,0.635915,1.540287,0.38554,0.07750461,-0.0982606,-0.1000973,-0.8404047,-0.01361115,0.02383609,0.6740831,1.552845,0.2285447,0.3661464,1.155941,0.3058546,306.7695,208.6456,16.72593,True
0,0.6333337,-0.0778072,0.04900445,-0.1936774,-1.157882,-4.080892,-3.02592,0.5843117,1.335968,0.4985578,-1.319743,0.01672024,0,0.9,0.2573107,-0.0896377,0.2681719,-0.2014191,-4.450393,-0.01481996,0.6373172,1.540701,0.3852737,0.08669497,-0.1079376,-0.1406471,-0.8433688,-0.01549028,0.02383423,0.6746376,1.552861,0.2286999,0.3661715,1.156495,0.3066088,306.8037,208.6418,16.93697,True
0,0.6444448,-0.1011941,0.02010725,-0.2040786,-1.155244,-4.080439,-3.024196,0.5854096,1.336762,0.4988196,-1.319322,0.03831443,0,0.9,0.2366866,-0.1156781,0.348095,-0.1950025,-4.460419,-0.006957242,0.6387167,1.540976,0.3850083,0.08646682,-0.115461,-0.1640654,-0.8459233,-0.01748725,0.02420334,0.6751664,1.552903,0.2288351,0.3663707,1.157176,0.3074819,306.8598,208.611,17.29452,True
0,0.655556,-0.1225416,0.03067686,-0.2115776,-1.152902,-4.081938,-3.021428,0.5865331,1.337433,0.4992137,-1.319189,0.01179419,1.2,3.6,0.2371691,-0.110674,0.3939318,-0.1891649,-4.465353,-0.004815794,0.6402258,1.541249,0.3847694,0.1046086,-0.13568,-0.1620627,-0.8476687,-0.02031233,0.02435328,0.6757165,1.553001,0.2288747,0.3667878,1.157981,0.3082919,306.9652,208.5459,17.64796,True
0,0.6666671,-0.1225416,0.03067686,-0.2115776,-1.152902,-4.081938,-3.021428,0.5865331,1.337433,0.4992137,-1.318298,0.08149187,1.2,3.6,0.2371691,-0.110674,0.3939318,-0.1891649,-4.465353,-0.004815794,0.6402258,1.541249,0.3847694,0.1046086,-0.13568,-0.1620627,-0.8476687,-0.02031233,0.02435328,0.6757165,1.553001,0.2288747,0.367428,1.158886,0.3089362,307.0231,208.3954,17.98653,True
0,0.6777782,-0.1667018,0.2489721,-0.2131709,-1.149642,-4.09549,-3.010826,0.5894798,1.338288,0.4999826,-1.320104,-0.1658258,1.2,3.6,0.3223456,-0.2221166,0.4359684,-0.1784643,-4.509396,0.02867026,0.6432558,1.541769,0.384481,0.1467561,-0.2324495,-0.1079048,-0.848791,-0.03066284,0.02674533,0.6768532,1.553023,0.2289021,0.3680494,1.159831,0.3092595,307.0267,208.1871,18.22263,True
0,0.6888894,-0.1691759,0.4066721,-0.2090302,-1.148827,-4.106431,-3.00442,0.591138,1.33873,0.5002918,-1.315581,0.4150843,1.2,3.6,0.3762369,-0.2925676,0.4221471,-0.1747044,-4.5431,0.05577325,0.6448117,1.542111,0.3843515,0.1617657,-0.2516009,-0.09948531,-0.8497886,-0.03528595,0.02750406,0.6774343,1.553006,0.2288861,0.368558,1.160726,0.309333,306.868,207.9634,18.33799,True
0,0.7000005,-0.1705703,0.5579283,-0.2101683,-1.148059,-4.118693,-2.997462,0.5926983,1.339214,0.5005765,-1.317624,-0.1904908,4.6,11.1,0.4111839,-0.3459916,0.4235545,-0.170298,-4.578295,0.08457534,0.6462532,1.542551,0.3842647,0.1670264,-0.2462852,-0.1059464,-0.8513072,-0.03852222,0.0275789,0.6778935,1.552945,0.2289526,0.3693843,1.162049,0.3097905,306.9374,207.7782,18.29596,True
0,0.7111117,-0.1675638,0.646363,-0.2108363,-1.147256,-4.130117,-2.991073,0.5942105,1.339833,0.500829,-1.318633,-0.08980157,4.6,11.1,0.4218094,-0.3513663,0.4234055,-0.1660726,-4.604247,0.1052918,0.6476039,1.54314,0.3842027,0.171242,-0.2441621,-0.1102551,-0.8527351,-0.04194332,0.02783323,0.6784582,1.552831,0.229028,0.3696424,1.163815,0.3104978,306.8341,207.7606,18.18826,True
0,0.7222228,-0.1634777,0.7316006,-0.2082962,-1.146683,-4.142104,-2.984554,0.5955911,1.340574,0.5009782,-1.318786,-0.0133216,4.6,11.1,0.4251027,-0.3343686,0.4266888,-0.1616379,-4.626348,0.1223802,0.6490606,1.543972,0.3839827,0.1734818,-0.2601207,-0.1006442,-0.8535601,-0.04657922,0.02885695,0.679001,1.552829,0.2291944,0.3691838,1.166043,0.3115961,306.5287,207.9,18.23863,True
0,0.7333339,-0.1634988,0.7433331,-0.2073174,-1.145824,-4.151862,-2.978774,0.5969324,1.341641,0.5010977,-1.319047,-0.02388944,4.6,11.1,0.4098192,-0.3326522,0.4950382,-0.1544996,-4.656471,0.148007,0.6505982,1.544787,0.3836412,0.1701551,-0.2452317,-0.1134335,-0.855288,-0.04933,0.02882898,0.679581,1.55286,0.2294185,0.3680246,1.168678,0.3131644,306.1108,208.0719,18.58503,True
0,0.7444451,-0.1709082,0.7112572,-0.2219813,-1.143994,-4.159759,-2.973336,0.5982857,1.342776,0.5011852,-1.319181,-0.01211727,4.6,11.1,0.3715016,-0.3503754,0.6135499,-0.1446927,-4.698102,0.1864024,0.6524131,1.54555,0.3831656,0.1689937,-0.2420667,-0.1230161,-0.8570297,-0.05270542,0.02920689,0.6802899,1.55296,0.2295203,0.3664007,1.171633,0.3152036,305.654,208.2677,19.18539,True
0,0.7555562,-0.1815044,0.6770409,-0.2355585,-1.142034,-4.16707,-2.967928,0.5995105,1.343824,0.5013475,-1.319013,0.0155303,36.7,12.2,0.3386659,-0.3963106,0.6508408,-0.1378415,1.530774,0.2373524,0.6539851,1.546145,0.3827052,0.1592709,-0.2666106,-0.1388374,-0.8591922,-0.05766023,0.03098215,0.6809491,1.553182,0.2294738,0.3645302,1.174802,0.3176048,305.2092,208.561,19.88847,True
0,0.7666674,-0.2027096,0.6279309,-0.2436867,-1.140019,-4.173352,-2.962409,0.6007414,1.344837,0.5015838,-1.318581,0.03926573,36.7,12.2,0.268495,-0.4206966,0.675859,-0.1315777,1.475017,0.292042,0.6556559,1.546748,0.3821745,0.161396,-0.3017761,-0.1419652,-0.8610207,-0.06355993,0.03294037,0.6816871,1.553234,0.2293487,0.362775,1.178074,0.3201806,304.8237,208.8455,20.72584,True
0,0.7777785,-0.2196969,0.5958636,-0.253011,-1.137941,-4.17987,-2.956645,0.601783,1.345756,0.5018511,-1.318379,0.01813815,36.7,12.2,0.2227518,-0.3949103,0.6711633,-0.1258344,1.431854,0.333847,0.6571927,1.547264,0.3817458,0.1679499,-0.3390158,-0.1280905,-0.8621579,-0.06997469,0.03504534,0.6823397,1.553216,0.2291927,0.3613499,1.18129,0.3226494,304.4976,208.9635,21.66813,True
0,0.7888896,-0.2303168,0.5712263,-0.2698623,-1.135437,-4.186893,-2.950842,0.6029741,1.346599,0.5020721,-1.317922,0.04180303,36.7,12.2,0.2232248,-0.3923648,0.611513,-0.1228186,1.386325,0.3764946,0.6586198,1.547705,0.3813329,0.1775056,-0.3507438,-0.1324161,-0.8639177,-0.07547665,0.03629489,0.6827672,1.553188,0.2291381,0.360299,1.184305,0.3247766,304.191,208.9488,22.52238,True
0,0.8000008,-0.2303048,0.5540292,-0.2899734,-1.132654,-4.193708,-2.945394,0.6039919,1.347407,0.502285,-1.317858,0.005510902,54.8,12.9,0.2398466,-0.379316,0.5624397,-0.1199328,1.341131,0.4179568,0.6601855,1.5482,0.3808591,0.1713947,-0.3453475,-0.1036062,-0.8643412,-0.0801943,0.03772421,0.6832494,1.553178,0.2289429,0.3596124,1.187033,0.3264159,303.9258,208.8521,23.18845,True
0,0.8111119,-0.223945,0.5441215,-0.3346537,-1.128662,-4.201096,-2.940032,0.6049734,1.348178,0.5024385,-1.318173,-0.02865655,54.8,12.9,0.2606448,-0.3298888,0.4901398,-0.1180909,1.316657,0.4386485,0.661515,1.548507,0.3804936,0.1779122,-0.3698153,-0.09295657,-0.8652179,-0.08651292,0.03959029,0.6837471,1.553076,0.2288158,0.359158,1.18945,0.3275321,303.7161,208.669,23.66712,True
0,0.8222231,-0.2165118,0.5439893,-0.3549035,-1.125418,-4.208752,-2.93462,0.6061168,1.349064,0.5025699,-1.318593,-0.03814495,54.8,12.9,0.2743415,-0.2785314,0.4509415,-0.1153191,1.291703,0.459859,0.662928,1.549053,0.3800538,0.1715322,-0.3686779,-0.09079958,-0.8666145,-0.0905785,0.04075009,0.6846114,1.553309,0.2286246,0.3588913,1.19161,0.3282628,303.5602,208.3833,24.04239,True
0,0.8333342,-0.2144267,0.5534269,-0.3762787,-1.122036,-4.216955,-2.928754,0.6070384,1.349982,0.5027585,-1.319036,-0.04017726,54.8,12.9,0.2883613,-0.2658902,0.4626115,-0.1115518,1.249584,0.4980119,0.6642796,1.549534,0.3795907,0.1661452,-0.3463104,-0.09506767,-0.8679338,-0.09434048,0.04153439,0.6851915,1.553295,0.228478,0.3586715,1.193561,0.328773,303.4515,207.9847,24.39032,True
0,0.8444453,-0.1995399,0.5575966,-0.3933748,-1.118604,-4.225038,-2.923531,0.6079508,1.35095,0.5028794,-1.319175,-0.01239051,54.8,12.9,0.2885823,-0.3130504,0.5038235,-0.1080737,1.176346,0.5674826,0.6654608,1.550043,0.378979,0.1510926,-0.3292666,-0.1077769,-0.8699647,-0.09762096,0.04249793,0.6859372,1.553476,0.2283397,0.3584168,1.195386,0.3293084,303.3979,207.535,24.73766,True
0,0.8555565,-0.1898974,0.5244896,-0.4069861,-1.114815,-4.231431,-2.91893,0.6085933,1.351841,0.5030389,-1.318984,0.01756077,73.1,10.7,0.2641273,-0.3258,0.5135678,-0.1053637,1.113104,0.628216,0.666685,1.550443,0.3784099,0.1295228,-0.29311,-0.1321568,-0.8723536,-0.09993738,0.04324441,0.6865386,1.553417,0.2280118,0.3580987,1.197212,0.3300779,303.3721,207.2376,25.00411,True
0,0.8666676,-0.1887177,0.4626609,-0.4150457,-1.110823,-4.236405,-2.914514,0.609243,1.3527,0.5032735,-1.319554,-0.05222417,73.1,10.7,0.2182837,-0.3063581,0.5024413,-0.1029775,1.061673,0.6785132,0.6678802,1.550691,0.377913,0.12517,-0.2696632,-0.1396226,-0.8740628,-0.1021904,0.04343563,0.686715,1.553327,0.2278235,0.3575338,1.199125,0.3311587,303.363,207.0587,25.28364,True
0,0.8777788,-0.1907338,0.4083038,-0.4178294,-1.106845,-4.240604,-2.910431,0.6097543,1.353482,0.5034573,-1.31948,0.007188711,73.1,10.7,0.1924484,-0.273995,0.4613765,-0.1013903,1.024706,0.7139583,0.6689789,1.550948,0.3775659,0.1372973,-0.2663543,-0.0982052,-0.8739259,-0.1059519,0.04391979,0.6871251,1.553405,0.2276709,0.3567107,1.201172,0.3325907,303.3201,206.8845,25.75018,True
0,0.8888899,-0.1937516,0.3262229,-0.4236008,-1.102309,-4.242986,-2.907138,0.6102505,1.354305,0.5036232,-1.31949,-0.0003915722,73.1,10.7,0.16638,-0.1923246,0.3769923,-0.1000113,1.022165,0.715553,0.6699138,1.551148,0.3771284,0.1430194,-0.2790378,-0.05987554,-0.8735275,-0.1106215,0.04513525,0.6875644,1.553253,0.2274101,0.3556797,1.203309,0.3342895,303.2411,206.6688,26.4394,True
0,0.900001,-0.1947015,0.2707804,-0.4295751,-1.097771,-4.245815,-2.903651,0.6106955,1.355128,0.5036933,-1.320411,-0.08320116,73.1,10.7,0.1606554,-0.1321687,0.3103538,-0.0986371,1.016975,0.7189552,0.6709434,1.551242,0.3767188,0.1570275,-0.2864436,-0.0440109,-0.8736393,-0.1150665,0.04584339,0.6883125,1.553099,0.2271662,0.3545984,1.205501,0.3360985,303.1561,206.4536,27.24762,True
0,0.9111122,-0.1978115,0.2324282,-0.4303454,-1.093444,-4.248724,-2.900062,0.6111102,1.355922,0.5037692,-1.321937,-0.1373231,65.4,8.6,0.1613813,-0.1447487,0.2814917,-0.09834148,0.985608,0.7483174,0.6719558,1.551394,0.3762615,0.1482881,-0.283275,-0.06524043,-0.875241,-0.1183597,0.04667163,0.6888173,1.553168,0.2269673,0.3535678,1.20771,0.3377967,303.0791,206.2337,28.0985,True
0,0.9222233,-0.198858,0.2281885,-0.4271132,-1.089538,-4.252751,-2.896012,0.6117105,1.356656,0.5038044,-1.324107,-0.1954025,65.4,8.6,0.1511957,-0.1474945,0.2229818,-0.09923045,0.9670661,0.7653549,0.6730555,1.551565,0.3757901,0.1491297,-0.2758563,-0.08752554,-0.8757736,-0.1217788,0.047302,0.6894716,1.553114,0.2267125,0.3527389,1.209914,0.33918,303.0473,205.9402,28.94956,True
0,0.9333345,-0.21591,0.2378454,-0.4143737,-1.086267,-4.25733,-2.890927,0.6122086,1.357257,0.5037444,-1.326753,-0.2379719,65.4,8.6,0.1460045,-0.1411568,0.2337364,-0.09795693,0.9351475,0.7956319,0.6740526,1.551754,0.3752568,0.1543043,-0.2748105,-0.1035627,-0.8775696,-0.1253722,0.04764368,0.6899172,1.553003,0.2261114,0.3520997,1.212134,0.3401007,303.0408,205.5669,29.69428,True
0,0.9444456,-0.2212332,0.2464571,-0.4016462,-1.08311,-4.261778,-2.886343,0.6127168,1.357842,0.5036867,-1.330101,-0.301512,65.4,8.6,0.1590499,-0.1221493,0.2507837,-0.0961806,0.9055303,0.8228278,0.6748627,1.551848,0.3748896,0.1607129,-0.2769451,-0.1035959,-0.8785337,-0.1296095,0.0482136,0.6898395,1.552962,0.225908,0.3516513,1.214436,0.340538,303.0132,205.1113,30.3214,True
0,0.9555568,-0.240457,0.2839003,-0.3752714,-1.081041,-4.267542,-2.880331,0.6132827,1.358273,0.5036638,-1.33318,-0.2759329,57.7,5,0.1848049,-0.09247363,0.2560637,-0.09422956,0.88168,0.8435392,0.6758291,1.551989,0.3744578,0.1652525,-0.2417005,-0.07390261,-0.878498,-0.1315403,0.04737684,0.6902033,1.552768,0.2256184,0.3513663,1.216902,0.3405621,302.9185,204.5648,30.89178,True
0,0.9666679,-0.2479602,0.3138427,-0.3573761,-1.078934,-4.273365,-2.874579,0.6138215,1.358701,0.5036561,-1.337987,-0.4337727,57.7,5,0.2153285,-0.09555125,0.2205852,-0.09426632,0.8633452,0.8583989,0.6766699,1.552022,0.3741434,0.1665851,-0.2288667,-0.0472979,-0.8780724,-0.1346466,0.04733795,0.6902859,1.552817,0.2254,0.3510904,1.219599,0.3402094,302.7585,203.9543,31.45997,True
0,0.977779,-0.2479602,0.3138427,-0.3573761,-1.078934,-4.273365,-2.874579,0.6138215,1.358701,0.5036561,-1.342211,-0.3787732,57.7,5,0.2153285,-0.09555125,0.2205852,-0.09426632,0.8633452,0.8583989,0.6766699,1.552022,0.3741434,0.1665851,-0.2288667,-0.0472979,-0.8780724,-0.1346466,0.04733795,0.6902859,1.552817,0.2254,0.3508434,1.222576,0.3396088,302.5183,203.1868,32.13342,True
0,0.9888902,-0.2864121,0.3887059,-0.3099412,-1.076556,-4.287196,-2.860744,0.6146671,1.359209,0.5035114,-1.350767,-0.7751837,57.7,5,0.1885759,-0.08925529,0.09836401,-0.09680165,0.860679,0.857437,0.6783584,1.552028,0.3736105,0.1615846,-0.2521973,-0.01842957,-0.8780463,-0.1424029,0.04858511,0.6912073,1.552721,0.2249477,0.3505608,1.225834,0.3388332,302.1297,202.39,32.8949,True
0,1.000001,-0.3034177,0.3878111,-0.2822097,-1.075617,-4.292495,-2.854364,0.6150231,1.35951,0.5032914,-1.350516,0.0340039,57.7,5,0.1865459,-0.07435556,0.1016883,-0.09619071,0.8475251,0.8684821,0.6790582,1.552099,0.3733487,0.1559821,-0.2235012,-0.04506396,-0.8792501,-0.144162,0.0480373,0.6914511,1.552644,0.2247272,0.3504075,1.229136,0.3379493,301.5917,201.3445,33.86134,True
0,1.011112,-0.310818,0.3730128,-0.2661089,-1.074341,-4.297436,-2.848389,0.6153648,1.359781,0.5030119,-1.358949,-0.7670267,49.3,4.7,0.1940801,-0.06161758,0.1038377,-0.09558937,0.8357078,0.8777931,0.6798284,1.552179,0.3729887,0.1418801,-0.2150425,-0.07158079,-0.8809662,-0.1466504,0.04825062,0.6917741,1.552516,0.2245171,0.3499273,1.23279,0.3372184,301.3692,200.5253,34.46082,True
0,1.022224,-0.3182324,0.3603281,-0.2510939,-1.073116,-4.302198,-2.842313,0.6157897,1.360028,0.5027707,-1.366153,-0.6466184,49.3,4.7,0.2026556,-0.07343736,0.113261,-0.09548391,0.8142253,0.8965268,0.6807321,1.552119,0.3726935,0.1449921,-0.2054687,-0.08015589,-0.8821236,-0.1490881,0.04797605,0.692117,1.552495,0.2242475,0.3491772,1.236927,0.3366609,301.0151,199.7015,35.34965,True
0,1.033335,-0.3351766,0.3317625,-0.2220901,-1.072543,-4.305984,-2.836243,0.6159034,1.359865,0.5026207,-1.373566,-0.6674814,49.3,4.7,0.1833299,-0.1181211,0.1173963,-0.0967585,0.784881,0.9243904,0.6814556,1.551939,0.3725996,0.1481846,-0.1969464,-0.07807342,-0.8829758,-0.1516304,0.04799283,0.6922512,1.552469,0.224118,0.3483878,1.241427,0.336168,300.498,198.785,36.61597,True
0,1.044446,-0.3404801,0.3329844,-0.1997228,-1.072201,-4.310703,-2.830001,0.6162407,1.359764,0.5024276,-1.380818,-0.6523169,49.3,4.7,0.1583081,-0.1582541,0.08327028,-0.09938917,0.7680082,0.9403476,0.6820766,1.551739,0.3724372,0.1507702,-0.2117488,-0.0333062,-0.881917,-0.155513,0.04873665,0.6925691,1.552428,0.2238514,0.3477444,1.246109,0.3356254,299.9169,197.6285,38.18493,True
0,1.055557,-0.3458022,0.3535036,-0.1625777,-1.073139,-4.316061,-2.823429,0.6163496,1.359469,0.502229,-1.387986,-0.6445662,50.2,4.5,0.142352,-0.1659929,-0.0178434,-0.1034265,0.786577,0.9208,0.6825888,1.551402,0.3724232,0.1457244,-0.2233843,-0.006600007,-0.8812997,-0.1590456,0.04948899,0.692723,1.552237,0.2232645,0.3473186,1.250796,0.3349504,299.3095,196.2463,39.87918,True
0,1.066668,-0.3437123,0.3877751,-0.1415258,-1.074019,-4.322574,-2.816681,0.616578,1.359339,0.5019629,-1.396075,-0.728724,50.2,4.5,0.1578288,-0.1240315,-0.08587806,-0.1052412,0.8114151,0.8937614,0.6828872,1.551194,0.3723278,0.1438396,-0.211606,0.01896699,-0.8802291,-0.1616352,0.04960404,0.692894,1.552126,0.2230968,0.3470257,1.255306,0.3340331,298.6843,194.7757,41.52913,True
0,1.077779,-0.3235418,0.4435155,-0.1014853,-1.076533,-4.32997,-2.810284,0.6167576,1.359084,0.5014462,-1.404113,-0.7231738,50.2,4.5,0.1773891,-0.03997186,-0.08334666,-0.1039368,0.8316672,0.8708752,0.6831337,1.551073,0.3721955,0.1178997,-0.176546,-0.0160297,-0.8817471,-0.1623094,0.04953213,0.6930881,1.551903,0.2229004,0.346887,1.259573,0.3328946,298.1208,193.3549,42.98961,True
0,1.08889,-0.3172006,0.4939086,-0.06138164,-1.079381,-4.337356,-2.803572,0.6169398,1.358787,0.5008748,-1.412633,-0.7673064,50.2,4.5,0.1316694,0.03420432,0.0007383749,-0.1000145,0.8271842,0.8752993,0.6832857,1.55101,0.3720386,0.09693964,-0.1021668,-0.08205864,-0.8847581,-0.1604463,0.04796193,0.6932591,1.55187,0.2229593,0.3467557,1.2636,0.3315635,297.6134,192.0781,44.19739,True
0,1.100002,-0.3118752,0.5068489,-0.04230309,-1.081486,-4.343677,-2.797338,0.6170377,1.358438,0.5004106,-1.421657,-0.8129151,50.2,4.5,0.1135619,0.03214274,0.001969637,-0.09975243,0.8285602,0.8732649,0.6835875,1.550881,0.3718987,0.08070257,-0.07561342,-0.1053991,-0.886528,-0.160544,0.04767112,0.6935612,1.551886,0.2227392,0.3466039,1.267486,0.330161,297.185,190.9609,45.20488,True
0,1.111113,-0.3161392,0.5326983,-0.004142344,-1.084877,-4.350468,-2.790586,0.6170365,1.357764,0.4998956,-1.42956,-0.7102596,43.9,3.2,0.02696099,0.03701001,-0.03122971,-0.1005168,0.8444827,0.8598461,0.6836931,1.550477,0.3720889,0.07008777,-0.05748449,-0.1010835,-0.8874558,-0.160275,0.04690892,0.6937071,1.551678,0.2224224,0.3463697,1.271312,0.328779,296.7205,189.9525,46.16266,True
0,1.122224,-0.3193334,0.5521563,0.03406247,-1.088602,-4.357071,-2.783813,0.617016,1.357039,0.4993083,-1.437596,-0.7233837,43.9,3.2,0.003005965,0.01610316,-0.07375975,-0.1023943,0.8575665,0.8475292,0.6840496,1.550185,0.3721604,0.0681861,-0.06170332,-0.07867656,-0.8875597,-0.1615473,0.04698801,0.6938642,1.551616,0.2222328,0.3460839,1.275112,0.3274868,296.238,188.9063,47.24562,True
0,1.133335,-0.3193334,0.5521563,0.03406247,-1.088602,-4.357071,-2.783813,0.617016,1.357039,0.4993083,-1.445396,-0.7015846,43.9,3.2,0.003005965,0.01610316,-0.07375975,-0.1023943,0.8575665,0.8475292,0.6840496,1.550185,0.3721604,0.0681861,-0.06170332,-0.07867656,-0.8875597,-0.1615473,0.04698801,0.6938642,1.551616,0.2222328,0.3457921,1.278869,0.3263144,295.7657,187.6732,48.54679,True
0,1.144446,-0.3171925,0.5684177,0.07016742,-1.092867,-4.36362,-2.777334,0.6167711,1.356145,0.4987738,-1.456948,-1.0449,43.9,3.2,0.02615517,-0.03111816,-0.1893885,-0.1077994,0.8872175,0.8168861,0.6841001,1.549843,0.372335,0.06415659,-0.08188275,-0.05834186,-0.8875458,-0.1634656,0.04745726,0.6939644,1.551306,0.2220292,0.345589,1.282558,0.3252634,295.2793,186.4355,49.91614,True
0,1.155557,-0.2979892,0.5805034,0.1137257,-1.100936,-4.375944,-2.765681,0.6163977,1.354481,0.497484,-1.458215,-0.1015699,43.9,3.2,0.04056485,-0.08425564,-0.2165438,-0.1140504,0.9011927,0.8017452,0.6840622,1.549233,0.372412,0.03994799,-0.02216122,-0.02202938,-0.8867586,-0.1619925,0.04657203,0.6940035,1.551209,0.2221341,0.3456534,1.285966,0.3243286,294.8164,184.838,51.5477,True
0,1.166668,-0.2777624,0.5966637,0.1316863,-1.105468,-4.382638,-2.76033,0.6161932,1.353644,0.4968297,-1.469618,-1.036605,59.2,2.3,-0.01499454,-0.07857254,-0.2340614,-0.1168377,0.9172288,0.7882573,0.6836355,1.548876,0.3726344,0.01734504,0.01504116,-0.04214218,-0.8879166,-0.1601372,0.04602235,0.6939611,1.551097,0.2222118,0.344899,1.289394,0.3232265,294.1615,184.0069,52.49591,True
0,1.17778,-0.2490094,0.6193234,0.1613129,-1.111107,-4.389537,-2.755648,0.6156439,1.352527,0.4962437,-1.478512,-0.7982707,59.2,2.3,-0.09857191,-0.07787016,-0.2822308,-0.1209001,0.9418302,0.7680312,0.683072,1.548398,0.3729904,-0.0107212,0.05435726,-0.07605305,-0.8898591,-0.1572304,0.04528865,0.6940174,1.550812,0.2219992,0.3441031,1.292876,0.3221832,293.6409,183.003,53.73631,True
0,1.188891,-0.2245085,0.6356134,0.1941823,-1.117089,-4.396189,-2.750986,0.6150646,1.35133,0.4957137,-1.48712,-0.7751355,59.2,2.3,-0.1930871,-0.05341808,-0.3684741,-0.1260575,0.9829251,0.7328516,0.6823338,1.547866,0.3734622,-0.02581514,0.07774037,-0.09194703,-0.8914031,-0.1549,0.04466441,0.6941289,1.550743,0.2219961,0.3434668,1.296355,0.3211986,293.1908,181.816,55.14177,True
0,1.200002,-0.1977693,0.6018092,0.2242281,-1.127236,-4.406262,-2.743057,0.6137207,1.34876,0.4946454,-1.495819,-0.78365,40.9,0.7,-0.2488741,0.1116547,-0.4775422,-0.1319586,1.098716,0.6251643,0.6809584,1.546647,0.3744855,-0.04740135,0.1064319,-0.118438,-0.8946506,-0.150038,0.04317996,0.6940045,1.550268,0.2216506,0.3429838,1.29981,0.3202993,292.7074,180.4086,56.66783,True
0,1.211113,-0.1977693,0.6018092,0.2242281,-1.127236,-4.406262,-2.743057,0.6137207,1.34876,0.4946454,-1.501949,-0.5484514,40.9,0.7,-0.2488741,0.1116547,-0.4775422,-0.1319586,1.098716,0.6251643,0.6809584,1.546647,0.3744855,-0.04740135,0.1064319,-0.118438,-0.8946506,-0.150038,0.04317996,0.6940045,1.550268,0.2216506,0.3422226,1.303186,0.3194529,292.0466,178.5385,58.55565,True
0,1.222224,-0.15179,0.5478973,0.2661257,-1.138042,-4.413984,-2.737872,0.612118,1.346165,0.4936342,-1.513078,-1.007635,40.9,0.7,-0.253749,0.05654395,-0.5162405,-0.1430299,1.145892,0.5837069,0.6792403,1.545595,0.3755472,-0.09027872,0.1982452,-0.0298187,-0.8920849,-0.1406345,0.04058764,0.6936778,1.550342,0.2219906,0.3410031,1.306447,0.3187132,291.2224,176.9205,60.38548,True
0,1.233335,-0.15179,0.5478973,0.2661257,-1.138042,-4.413984,-2.737872,0.612118,1.346165,0.4936342,-1.518138,-0.4486938,40.9,0.7,-0.253749,0.05654395,-0.5162405,-0.1430299,1.145892,0.5837069,0.6792403,1.545595,0.3755472,-0.09027872,0.1982452,-0.0298187,-0.8920849,-0.1406345,0.04058764,0.6936778,1.550342,0.2219906,0.3404024,1.309286,0.3182294,290.8673,175.2101,62.34501,True
0,1.244446,-0.1197728,0.5353924,0.2938766,-1.144225,-4.417866,-2.736073,0.6112879,1.344793,0.4932566,-1.528797,-0.9658032,40.9,0.7,-0.31432,0.07699633,-0.5090998,-0.1467918,1.176284,0.5594308,0.6780888,1.545206,0.3762307,-0.1005002,0.266543,0.02017825,-0.8895816,-0.1332835,0.03751062,0.6934308,1.550288,0.2223108,0.3395339,1.311843,0.3176726,290.342,173.9408,63.84996,True
0,1.255558,-0.07818326,0.5325111,0.3236755,-1.150822,-4.421754,-2.735152,0.6104314,1.343451,0.4929581,-1.536378,-0.6794721,40.9,0.7,-0.339884,0.08992761,-0.5140768,-0.1510193,1.205746,0.5349534,0.6769983,1.54473,0.3768177,-0.1249101,0.2963786,0.03206536,-0.8886707,-0.1278849,0.03638943,0.6933175,1.550046,0.2226753,0.3394515,1.314007,0.3172331,290.157,173.0275,64.94209,True
0,1.266669,-0.05364575,0.5231155,0.341823,-1.157092,-4.425404,-2.733866,0.6096466,1.342101,0.4925416,-1.544291,-0.7130479,49,1.9,-0.3592626,0.1254103,-0.5487885,-0.156213,1.244563,0.5013699,0.6755569,1.544346,0.3775802,-0.1409905,0.2931295,0.02158204,-0.8886175,-0.1240426,0.03616466,0.6932576,1.549972,0.2228639,0.3394135,1.315925,0.3166425,289.8478,171.9381,66.03484,True
0,1.27778,0.003956795,0.5020941,0.3632116,-1.163371,-4.428203,-2.734985,0.608755,1.340777,0.4919975,-1.552646,-0.7529201,49,1.9,-0.3742044,0.1906791,-0.5790681,-0.1608507,1.292996,0.4582283,0.674143,1.543962,0.3781857,-0.1539636,0.2856127,0.00148926,-0.8892742,-0.1202465,0.03588024,0.6929166,1.550138,0.2230415,0.3391828,1.317675,0.3159158,289.4043,170.7046,67.18139,True
0,1.288891,0.02527135,0.4957849,0.3674893,-1.169277,-4.431785,-2.734417,0.6080509,1.339516,0.4915466,-1.559595,-0.6240825,49,1.9,-0.3837505,0.2184678,-0.5862306,-0.1654329,1.329608,0.4267652,0.6727416,1.543432,0.3788345,-0.1681,0.3036254,-0.02611453,-0.890422,-0.1151523,0.03506131,0.6927322,1.549964,0.2232454,0.338764,1.319254,0.3151682,288.9662,169.4373,68.36372,True
0,1.300002,0.06254434,0.5001325,0.3674039,-1.175183,-4.435866,-2.734788,0.6073673,1.338117,0.4912636,-1.568795,-0.831119,49,1.9,-0.4060322,0.2110193,-0.5743423,-0.1699336,1.354667,0.4073561,0.67116,1.542834,0.3795547,-0.1853852,0.3312548,-0.04625923,-0.8915944,-0.1089166,0.0341308,0.6924187,1.549959,0.2235124,0.3382007,1.320683,0.3144453,288.5801,168.4018,69.39684,True
0,1.311113,0.08383457,0.5098118,0.373705,-1.181637,-4.439943,-2.734955,0.6066644,1.336666,0.4911246,-1.574735,-0.5312381,49,1.9,-0.4659149,0.1729763,-0.5804114,-0.1758698,1.372167,0.3976294,0.6692226,1.541974,0.3804066,-0.1959217,0.3557734,-0.03236279,-0.8910868,-0.1028807,0.0328674,0.691929,1.54987,0.2237246,0.3376341,1.321919,0.3138088,288.2242,167.3872,70.44741,True
0,1.322224,0.09869384,0.5440435,0.3883455,-1.189052,-4.445223,-2.734666,0.6059366,1.334728,0.4912341,-1.582863,-0.7340458,26,0,-0.5366124,0.2023933,-0.6306377,-0.1828936,1.408487,0.3706161,0.6672494,1.541018,0.3817708,-0.2007876,0.3963858,0.01871544,-0.8887698,-0.09527858,0.03056936,0.6914057,1.549671,0.2236667,0.3371103,1.323009,0.3133266,287.9198,166.5941,71.25352,True
0,1.333336,0.09964673,0.6177669,0.4176298,-1.198218,-4.452209,-2.733241,0.6049149,1.332556,0.4914806,-1.590026,-0.6436061,26,0,-0.5471003,0.2190968,-0.7273673,-0.1929551,1.445675,0.3403459,0.6653636,1.540241,0.3830273,-0.1883612,0.4029828,0.09101931,-0.8848401,-0.0893103,0.02834908,0.6910248,1.549572,0.2238648,0.3366536,1.324007,0.3131107,287.6346,165.7054,72.11246,True
0,1.344447,0.1134191,0.672372,0.4502298,-1.207875,-4.459051,-2.732599,0.6039845,1.330652,0.4915252,-1.597198,-0.6454908,26,0,-0.4852483,0.235258,-0.9409448,-0.2102726,1.490162,0.2997345,0.6630054,1.539659,0.384459,-0.1766748,0.3585112,0.1911626,-0.8785443,-0.08669228,0.02810514,0.6903391,1.549467,0.2243972,0.3361813,1.324963,0.3132317,287.3029,164.634,73.15323,True
0,1.355558,0.1507292,0.6865884,0.4884304,-1.217405,-4.46406,-2.734125,0.6029816,1.32933,0.4913771,-1.603857,-0.5985827,26,0,-0.4287863,0.3386573,-0.984453,-0.2202716,1.541853,0.2515201,0.6609099,1.539104,0.3855619,-0.1860265,0.385195,0.2167592,-0.87498,-0.08003212,0.0261858,0.689795,1.549506,0.2249718,0.3355259,1.3259,0.313775,286.9051,163.2026,74.56126,True
0,1.366669,0.2193043,0.4538933,0.4080626,-1.224203,-4.463686,-2.741555,0.6014968,1.327946,0.4903517,-1.611666,-0.7041003,29.6,3.3,-0.251835,0.6828416,-0.801577,-0.2262419,-4.608463,0.1208297,0.6570529,1.538218,0.3863962,-0.2287808,0.5116313,0.1082299,-0.8750727,-0.05880047,0.01942776,0.6888634,1.54964,0.226352,0.3344169,1.326931,0.314772,286.393,161.8766,75.98138,True
0,1.37778,0.2193043,0.4538933,0.4080626,-1.224203,-4.463686,-2.741555,0.6014968,1.327946,0.4903517,-1.624047,-1.121112,29.6,3.3,-0.251835,0.6828416,-0.801577,-0.2262419,-4.608463,0.1208297,0.6570529,1.538218,0.3863962,-0.2287808,0.5116313,0.1082299,-0.8750727,-0.05880047,0.01942776,0.6888634,1.54964,0.226352,0.3327661,1.328165,0.316118,285.7239,160.925,77.29854,True
0,1.388891,0.2247604,0.3683683,0.3660813,-1.226749,-4.463559,-2.744222,0.6007314,1.326972,0.4900098,-1.624356,-0.01397887,29.6,3.3,-0.2438685,0.6830679,-0.537445,-0.2208442,-4.576517,0.09194404,0.6555846,1.537806,0.3864224,-0.233766,0.4986386,0.03266498,-0.8777981,-0.05242765,0.01804665,0.6884245,1.549635,0.2268441,0.3309609,1.329324,0.3176799,284.8875,159.8838,79.12747,True
0,1.400002,0.2206064,0.2902458,0.3197998,-1.228364,-4.46295,-2.746688,0.6001405,1.325771,0.4899995,-1.633833,-0.8624114,29.6,3.3,-0.3660422,0.4795754,-0.3107512,-0.2155387,-4.591652,0.1157058,0.6543746,1.537185,0.3868065,-0.237389,0.4750818,-0.01091549,-0.8793902,-0.0467185,0.01740482,0.6878498,1.549621,0.2270188,0.329946,1.330226,0.3190395,284.6626,160.6149,79.38393,True
0,1.411114,0.2226717,0.321172,0.3227605,-1.233839,-4.466363,-2.748051,0.5994425,1.324383,0.4900367,-1.640198,-0.5697118,29.6,3.3,-0.4657851,0.296706,-0.3004099,-0.2192319,-4.608035,0.1409875,0.652718,1.536421,0.3873773,-0.2330662,0.4335386,-0.009790709,-0.8795143,-0.04257782,0.01708977,0.6870955,1.549675,0.2271924,0.3295451,1.331028,0.3196801,284.6308,160.6406,79.95991,True
0,1.422225,0.2342079,0.4269388,0.3592449,-1.242376,-4.472963,-2.748897,0.5988634,1.322669,0.4904473,-1.646405,-0.5584679,15.7,1.3,-0.5333585,0.002541244,-0.5415441,-0.2368962,-4.648175,0.1888226,0.6512282,1.535877,0.3885818,-0.2141932,0.3612893,0.06157678,-0.8762327,-0.04115076,0.01794917,0.6864104,1.549667,0.2273142,0.3296483,1.331681,0.3195461,284.5139,159.4381,81.25706,True
0,1.433336,0.2532823,0.49536,0.3853456,-1.250517,-4.47893,-2.750688,0.5980505,1.321164,0.4906499,-1.653195,-0.6117437,15.7,1.3,-0.4863911,-0.03008944,-0.625348,-0.2470993,-4.64554,0.1896325,0.6493234,1.535311,0.389631,-0.1953371,0.3519146,0.1359896,-0.8717325,-0.03666707,0.01647005,0.6856377,1.549732,0.2276528,0.3300894,1.33214,0.3187827,284.4537,157.5948,82.73674,True
0,1.444447,0.2883976,0.5286258,0.4074205,-1.258041,-4.483658,-2.753824,0.5974364,1.320071,0.4906642,-1.660223,-0.6331013,15.7,1.3,-0.3354676,0.05285931,-0.6965802,-0.2565279,-4.621613,0.1638571,0.6473323,1.535003,0.3907888,-0.1735056,0.3861788,0.1942777,-0.8673191,-0.02908798,0.01286786,0.6849868,1.549746,0.2280478,0.3304015,1.332574,0.3178093,284.3655,155.7375,83.85207,True
0,1.455558,0.3418947,0.3649631,0.3031135,-1.261955,-4.484991,-2.762947,0.5958352,1.318893,0.4900866,-1.667216,-0.6299636,9.8,0.4,-0.1208856,0.3404149,-0.6657786,-0.2683177,-4.551054,0.09089129,0.6433132,1.534183,0.3916848,-0.1965379,0.3945089,0.1284151,-0.8666033,-0.01727406,0.0104063,0.6835492,1.549942,0.2290041,0.3303238,1.333102,0.3172395,284.1646,153.9406,84.91231,True
0,1.466669,0.353684,0.2866317,0.2248497,-1.26145,-4.485418,-2.767177,0.59517,1.318084,0.4899669,-1.678909,-1.05999,9.8,0.4,-0.1686957,0.3867958,-0.566957,-0.2701697,-4.528461,0.07289711,0.641492,1.533629,0.3919473,-0.1958767,0.3848102,0.08794825,-0.8671327,-0.0123086,0.00944277,0.6828419,1.549963,0.2292612,0.3295431,1.333805,0.3173209,283.8593,152.2921,86.20837,True
0,1.47778,0.3600712,0.2661077,0.1845132,-1.262828,-4.48753,-2.770741,0.5944809,1.317079,0.4899561,-1.680158,-0.1015685,9.8,0.4,-0.2929917,0.3660135,-0.4156498,-0.2684243,-4.516884,0.06998601,0.6397771,1.533125,0.3920236,-0.1811582,0.3975713,0.06964309,-0.8672243,-0.005703026,0.006631804,0.6820862,1.549994,0.2294717,0.3282038,1.334334,0.3181735,283.4368,150.1409,88.6337,True
0,1.488891,0.3706146,0.307541,0.1660812,-1.265717,-4.49208,-2.773833,0.5938553,1.315864,0.4904411,-1.684611,-0.4034621,9.8,0.4,-0.3836563,0.2948852,-0.3960705,-0.2721266,-4.514419,0.07537758,0.6379828,1.53254,0.392458,-0.1809901,0.4008061,0.0877407,-0.8654453,0.0001239702,0.004944425,0.6810995,1.549963,0.2298253,0.3269199,1.334278,0.3194083,283.2816,149.5942,89.94038,True
0,1.500003,0.3833541,0.3396701,0.185003,-1.270224,-4.49593,-2.777413,0.5932322,1.314931,0.4906101,-1.68972,-0.4598975,9.8,0.4,-0.3868007,0.2873784,-0.3875717,-0.2760057,-4.502547,0.06818891,0.636245,1.532205,0.3929136,-0.1953686,0.456356,0.1473759,-0.8618155,0.009645037,0.001495631,0.6802306,1.550057,0.2302749,0.3258923,1.333652,0.3207228,283.3003,150.1361,89.99255,True
0,1.511114,0.4174139,0.3643986,0.2050274,-1.275014,-4.499707,-2.782243,0.5925201,1.314137,0.4908977,-1.695143,-0.4884567,10.9,0.7,-0.2872157,0.2392683,-0.4230044,-0.2820181,-4.497267,0.06235525,0.6342627,1.531948,0.3935776,-0.2151865,0.4948154,0.1943267,-0.8581866,0.01880991,-0.001341434,0.6794773,1.550125,0.2307169,0.3249781,1.332697,0.3220392,283.2201,151.0125,89.35552,True
0,1.522225,0.4174139,0.3643986,0.2050274,-1.275014,-4.499707,-2.782243,0.5925201,1.314137,0.4908977,-1.700436,-0.4765079,10.9,0.7,-0.2872157,0.2392683,-0.4230044,-0.2820181,-4.497267,0.06235525,0.6342627,1.531948,0.3935776,-0.2151865,0.4948154,0.1943267,-0.8581866,0.01880991,-0.001341434,0.6794773,1.550125,0.2307169,0.3240142,1.331667,0.3234722,283.0112,151.9687,88.46323,True
0,1.533336,0.4515467,0.3506329,0.2061595,-1.278346,-4.502139,-2.787968,0.5917813,1.313421,0.4909217,-1.700225,0.02586394,10.9,0.7,-0.2289592,0.21467,-0.4461288,-0.2877407,-4.491476,0.0571525,0.6323463,1.531564,0.3941314,-0.2216781,0.5001104,0.1847887,-0.8565013,0.02643294,-0.003612045,0.6786572,1.550185,0.2311463,0.3230156,1.330765,0.3249402,282.6561,153.3104,87.43884,True
0,1.544447,0.4665108,0.3196762,0.1935889,-1.280686,-4.503861,-2.793259,0.5910436,1.312726,0.4909568,-1.7096,-0.85531,10.9,0.7,-0.1916357,0.2604375,-0.4621554,-0.293229,-4.47403,0.04110296,0.630324,1.531264,0.3945808,-0.2144899,0.4872664,0.1570401,-0.8561264,0.03288112,-0.005650695,0.677745,1.550352,0.2314668,0.322157,1.330261,0.3260925,282.4557,155.5096,85.66786,True
0,1.555558,0.4761947,0.2641092,0.1684233,-1.281693,-4.504308,-2.798833,0.59023,1.31217,0.4908566,-1.713987,-0.391598,10.9,0.7,-0.2103447,0.3446016,-0.4507154,-0.2974927,-4.448821,0.02023097,0.6282065,1.530911,0.3948853,-0.1944661,0.4413937,0.1324561,-0.8556545,0.03675016,-0.006604107,0.6769323,1.550398,0.2314177,0.3213372,1.330191,0.3270272,282.295,155.5308,85.80724,True
0,1.566669,0.4762439,0.2191006,0.1325337,-1.281983,-4.505091,-2.803921,0.5894407,1.311507,0.4908309,-1.71592,-0.1726038,17.7,0,-0.2600319,0.3958305,-0.4338771,-0.3016925,-4.427197,0.004346812,0.6262207,1.530501,0.3951356,-0.1752321,0.3817676,0.1313433,-0.8543964,0.03974129,-0.007391337,0.6761302,1.550525,0.2314184,0.3205835,1.330208,0.3278288,282.1118,153.9223,87.54062,True
0,1.577781,0.4783282,0.217734,0.09206602,-1.282398,-4.507569,-2.808696,0.5885931,1.310614,0.4911556,-1.71789,-0.1776601,17.7,0,-0.289736,0.4001488,-0.4228889,-0.305978,-4.41173,-0.006077333,0.6241906,1.529977,0.395385,-0.1708558,0.329581,0.1388937,-0.8525567,0.04202495,-0.006978814,0.6752245,1.55039,0.2315745,0.3198414,1.330004,0.3284775,282.001,152.1307,89.47115,True
0,1.588892,0.4804224,0.2304611,0.08344403,-1.284038,-4.51045,-2.813297,0.587752,1.309744,0.4913235,-1.719351,-0.1309907,17.7,0,-0.2857507,0.3917628,-0.4464314,-0.3118562,-4.399018,-0.01511823,0.6221246,1.529563,0.3957047,-0.1682397,0.3201331,0.185756,-0.8490211,0.04656071,-0.008296546,0.6742194,1.550472,0.2316763,0.3190728,1.329368,0.3289089,281.9725,151.0625,90.65937,True
0,1.600003,0.4899551,0.2549561,0.08005416,-1.286006,-4.513867,-2.818168,0.586837,1.308987,0.4915249,-1.721102,-0.1581213,17.7,0,-0.2422441,0.3799575,-0.4586605,-0.3175021,-4.386562,-0.02583186,0.6200629,1.529272,0.3961127,-0.171047,0.3329723,0.2262834,-0.8445001,0.05163097,-0.009762882,0.6733823,1.550297,0.2318871,0.3182484,1.328188,0.3291956,282.0247,150.8756,90.80654,True
0,1.611114,0.5016406,0.2687895,0.0746079,-1.287731,-4.517041,-2.823333,0.585981,1.308386,0.4917352,-1.722469,-0.1227385,17.7,0,-0.1931929,0.3519228,-0.4412353,-0.3218425,-4.377584,-0.03373053,0.6180017,1.528933,0.3963869,-0.1867208,0.3724591,0.2625588,-0.8402635,0.05888129,-0.01178981,0.6723551,1.550496,0.2322881,0.3172508,1.326487,0.3295723,282.0705,151.4567,90.02416,True
0,1.622225,0.4995031,0.2665827,0.06503903,-1.28899,-4.519793,-2.828084,0.5852765,1.307873,0.4919035,-1.724074,-0.1450837,24.7,2.5,-0.1744895,0.3781383,-0.3932876,-0.3247698,-4.361795,-0.04739228,0.6159827,1.528521,0.3966238,-0.1999408,0.4128028,0.2210568,-0.8390667,0.06670033,-0.01451876,0.6712521,1.550561,0.232671,0.3159331,1.324423,0.3301961,281.9823,152.9443,88.39438,True
0,1.633336,0.4728731,0.2524709,0.03747434,-1.289091,-4.522249,-2.831707,0.5846848,1.307512,0.4921348,-1.725334,-0.1134703,24.7,2.5,-0.1773939,0.3897015,-0.3686627,-0.3281952,-4.347332,-0.05894721,0.6140243,1.527992,0.3969212,-0.1992725,0.4158866,0.1816227,-0.838508,0.07277887,-0.01637791,0.6703534,1.550607,0.2329094,0.3142837,1.322158,0.3311694,281.8222,155.2237,86.14227,True
0,1.644447,0.4536867,0.2544764,0.02576393,-1.289917,-4.52522,-2.83533,0.5838041,1.306889,0.4923632,-1.725658,-0.02816238,24.7,2.5,-0.1985191,0.38967,-0.350347,-0.3318277,-4.334407,-0.06816334,0.611887,1.527495,0.3972003,-0.1795797,0.3901676,0.121847,-0.839267,0.07696229,-0.01808207,0.6692522,1.550665,0.23313,0.3124757,1.319807,0.3325182,281.6493,158.0557,83.54092,True
0,1.655559,0.4227448,0.2767749,0.02456908,-1.291315,-4.528923,-2.837876,0.5831463,1.305925,0.4926591,-1.72516,0.04614514,24.7,2.5,-0.2286954,0.3601358,-0.3726203,-0.3368909,-4.326288,-0.0722433,0.6099595,1.526894,0.3975613,-0.156257,0.3667117,0.1099602,-0.8384217,0.08117715,-0.01979261,0.6683189,1.550587,0.233032,0.3107153,1.317485,0.3341615,281.5053,161.1622,80.82684,True
0,1.66667,0.4152407,0.3066211,0.02968174,-1.29312,-4.533027,-2.841271,0.5823532,1.305102,0.4928441,-1.725927,-0.07010396,27.3,18,-0.232378,0.3348424,-0.4100582,-0.3430151,-4.319466,-0.07592273,0.6080035,1.526335,0.3978987,-0.1441796,0.3199089,0.1408475,-0.8359476,0.08346693,-0.02020407,0.6673017,1.550596,0.2330806,0.3090505,1.315368,0.3359388,281.4409,164.104,78.31312,True
0,1.677781,0.4151522,0.3567923,0.04315538,-1.295738,-4.538407,-2.844368,0.5815793,1.304317,0.4929805,-1.725804,0.01240882,27.3,18,-0.1965946,0.3552859,-0.4614063,-0.3502845,-4.307778,-0.08593541,0.606255,1.525983,0.3982019,-0.1385043,0.2986927,0.174942,-0.8327902,0.08699402,-0.02109703,0.6661757,1.55067,0.233217,0.3074242,1.313558,0.3377497,281.3698,166.0191,76.77035,True
0,1.688892,0.4183547,0.3535638,0.03784941,-1.296976,-4.541996,-2.848245,0.5807509,1.303759,0.4929128,-1.727326,-0.1389659,27.3,18,-0.1373771,0.38879,-0.4138216,-0.3537999,-4.292924,-0.1002797,0.6045537,1.525701,0.3983693,-0.1114335,0.3009415,0.2183502,-0.8288738,0.09138784,-0.02397085,0.6650975,1.550805,0.2333965,0.305888,1.312056,0.3395694,281.2346,167.1637,75.96825,True
0,1.700003,0.4194628,0.3257734,0.02527221,-1.297561,-4.544646,-2.852204,0.579893,1.303294,0.4929242,-1.728026,-0.06241188,27.3,18,-0.06878474,0.3743123,-0.3666705,-0.3568146,-4.28333,-0.1106376,0.6029786,1.525434,0.3983865,-0.1009035,0.300908,0.2075785,-0.8273349,0.09571334,-0.0259304,0.6642996,1.550858,0.2336249,0.3043446,1.310862,0.3413517,281.0746,167.8367,75.61678,True
0,1.711114,0.4025486,0.2369506,-0.02304398,-1.295653,-4.544816,-2.856081,0.5790302,1.303191,0.4928734,-1.728743,-0.06481081,27.3,18,-0.04814875,0.3440348,-0.3138114,-0.3588972,-4.275533,-0.1178854,0.6014427,1.525058,0.3984029,-0.09156913,0.2965812,0.1829963,-0.8261861,0.09982313,-0.02783296,0.663303,1.550958,0.2337971,0.3027582,1.309915,0.343103,280.8904,168.3221,75.49422,True
0,1.722225,0.3834365,0.1962649,-0.04508588,-1.294785,-4.546086,-2.859442,0.5782305,1.302862,0.4928827,-1.728938,-0.01713833,33.7,30.4,-0.06276879,0.2498434,-0.2440304,-0.3592849,-4.276871,-0.1153215,0.6001028,1.524692,0.398334,-0.08125812,0.2783705,0.1456464,-0.8259869,0.1029515,-0.02949717,0.662478,1.550969,0.2339065,0.3012166,1.309072,0.3447101,280.7479,168.6848,75.57192,True
0,1.733337,0.3557934,0.1598519,-0.06288936,-1.293744,-4.547078,-2.862211,0.5774232,1.302492,0.4929929,-1.728479,0.04229139,33.7,30.4,-0.1236974,0.1434033,-0.21967,-0.3608514,-4.282006,-0.1071435,0.5986432,1.524246,0.39838,-0.0814181,0.269795,0.1296935,-0.8250526,0.1064825,-0.03082928,0.661491,1.551129,0.2339752,0.2998284,1.308181,0.3460468,280.6725,169.1003,75.58744,True
0,1.744448,0.3344491,0.1876106,-0.04922239,-1.294507,-4.55016,-2.864467,0.576771,1.301932,0.4930203,-1.728504,-0.002610199,33.7,30.4,-0.1710204,0.07554503,-0.2356623,-0.3638911,-4.285954,-0.1000914,0.597133,1.523956,0.3985033,-0.08674254,0.2399421,0.1266285,-0.8237668,0.1087417,-0.03128123,0.6605998,1.551182,0.2339611,0.2986636,1.307152,0.3469408,280.7267,169.7868,75.20875,True
0,1.755559,0.3344491,0.1876106,-0.04922239,-1.294507,-4.55016,-2.864467,0.576771,1.301932,0.4930203,-1.728172,0.03081022,33.7,30.4,-0.1710204,0.07554503,-0.2356623,-0.3638911,-4.285954,-0.1000914,0.597133,1.523956,0.3985033,-0.08674254,0.2399421,0.1266285,-0.8237668,0.1087417,-0.03128123,0.6605998,1.551182,0.2339611,0.2976868,1.305975,0.3474267,280.8163,170.4686,74.5916,True
0,1.76667,0.2947741,0.3456177,0.007173035,-1.299319,-4.561442,-2.867057,0.5756602,1.300762,0.4928801,-1.725518,0.2426195,21.4,54.3,-0.1499319,0.1429105,-0.285458,-0.3721017,-4.275758,-0.1067448,0.594189,1.523506,0.3987303,-0.08328941,0.2112214,0.1501131,-0.8197785,0.1139368,-0.0329425,0.6585006,1.551342,0.2340734,0.2969633,1.304677,0.3476191,280.8807,171.6253,73.36874,True
0,1.777781,0.2904879,0.363798,0.01769555,-1.301119,-4.565959,-2.868939,0.5750846,1.300363,0.4927876,-1.731458,-0.5448444,21.4,54.3,-0.1127793,0.2265041,-0.2277093,-0.3732921,-4.261169,-0.1203336,0.5927976,1.523327,0.398803,-0.07906334,0.2101301,0.1436825,-0.8185449,0.1170723,-0.03452415,0.6575326,1.551501,0.2341585,0.2963327,1.303536,0.3475747,280.9691,173.1803,71.61478,True
0,1.788892,0.2734269,0.3647911,0.01237334,-1.302017,-4.569955,-2.870265,0.5744399,1.300087,0.4925671,-1.729438,0.1897645,21.4,54.3,-0.0814238,0.2463357,-0.1895317,-0.3744756,-4.252424,-0.1285716,0.5914972,1.523046,0.3987734,-0.07931347,0.2058039,0.1191888,-0.8181353,0.1198871,-0.03557611,0.6564866,1.551504,0.234268,0.295188,1.302602,0.3477672,280.9956,172.7459,71.69805,True
0,1.800003,0.254236,0.35709,-0.01524326,-1.302005,-4.57405,-2.871427,0.5738052,1.299718,0.492377,-1.729447,-0.002841313,21.4,54.3,-0.06755631,0.1949816,-0.1655227,-0.37556,-4.251471,-0.1290858,0.5904168,1.522703,0.3986628,-0.06583859,0.1706018,0.07863513,-0.8189465,0.1216495,-0.03628983,0.6558965,1.551712,0.234333,0.2937892,1.30179,0.3485135,280.886,173.1123,71.26144,True
0,1.811115,0.2307978,0.3429998,-0.04067718,-1.301715,-4.577772,-2.872275,0.5732497,1.29933,0.4922578,-1.728985,0.04255826,21.4,54.3,-0.08701593,0.1290244,-0.1657924,-0.3773412,-4.25374,-0.1252684,0.589257,1.522396,0.3985837,-0.05419968,0.1588661,0.07003062,-0.818391,0.1234735,-0.03722167,0.6549484,1.551791,0.2343011,0.2923037,1.301069,0.3497663,280.7769,174.0353,70.63266,True
0,1.822226,0.2169783,0.3280032,-0.04800438,-1.301845,-4.581191,-2.87346,0.5725561,1.298867,0.4922607,-1.729025,-0.003847703,20.9,55.8,-0.1048087,0.02384607,-0.1961948,-0.3801673,-4.263675,-0.1142307,0.5881562,1.521988,0.3986461,-0.04440336,0.1568408,0.093371,-0.8166237,0.1265647,-0.03882676,0.6541283,1.551658,0.2342689,0.2908076,1.300435,0.3513408,280.7136,175.1358,70.05004,True
0,1.833337,0.19255,0.2960271,-0.04347511,-1.302157,-4.583548,-2.874214,0.5719398,1.298567,0.4923975,-1.728874,0.01401578,20.9,55.8,-0.07097441,-0.01563986,-0.2053387,-0.3825945,-4.267318,-0.1112336,0.5869465,1.521663,0.3986647,-0.04415624,0.1686163,0.1231734,-0.81445,0.1296822,-0.04050961,0.6530756,1.551626,0.2343173,0.2893997,1.299856,0.3530793,280.6885,175.9279,69.8175,True
0,1.844448,0.1851287,0.2789979,-0.03907397,-1.302565,-4.586203,-2.87531,0.5714276,1.298296,0.4923811,-1.729358,-0.04412498,20.9,55.8,-0.02197354,-0.02332584,-0.2026885,-0.3846787,-4.269388,-0.1107686,0.5857542,1.521402,0.3987043,-0.02902158,0.1740568,0.143218,-0.812637,0.1331811,-0.04285372,0.6517837,1.551621,0.2343483,0.2881166,1.299315,0.3548351,280.6532,176.476,69.76867,True
0,1.855559,0.1745748,0.2375019,-0.02916272,-1.302895,-4.587448,-2.876574,0.5707381,1.298201,0.4924729,-1.728935,0.0392106,20.9,55.8,0.04135181,0.01774061,-0.1731996,-0.3857978,-4.265655,-0.1167871,0.5845986,1.521446,0.3986237,-0.02693054,0.1644509,0.1378922,-0.8114577,0.1351568,-0.04402551,0.6508334,1.551722,0.2343261,0.2869242,1.298794,0.3564856,280.5751,176.8909,69.76195,True
0,1.86667,0.1693342,0.1980804,-0.02886168,-1.302845,-4.58848,-2.878051,0.5700696,1.298042,0.492521,-1.729524,-0.05410504,20.9,55.8,0.0311424,0.0634166,-0.1482668,-0.3869083,-4.260289,-0.1216838,0.5834704,1.521334,0.3985066,-0.0196227,0.1314051,0.1197908,-0.8108665,0.1359505,-0.04447506,0.6498147,1.551772,0.2342262,0.2858506,1.298301,0.3579097,280.483,177.6002,69.40341,True
0,1.877781,0.172682,0.1213223,-0.03681333,-1.301828,-4.587356,-2.880403,0.5692343,1.298115,0.492444,-1.729591,-0.005423924,12.1,41.9,-0.001131468,0.11431,-0.09537794,-0.3865722,-4.252533,-0.1278528,0.5826015,1.521281,0.3982565,-0.008189008,0.0951072,0.0878045,-0.8110364,0.1357168,-0.04446946,0.6489205,1.551733,0.2340267,0.2848963,1.297854,0.3590195,280.4214,178.3416,68.95331,True
0,1.888893,0.1727966,0.05940652,-0.05339435,-1.300397,-4.586372,-2.882645,0.5683882,1.298224,0.4924662,-1.729914,-0.02944644,12.1,41.9,-0.02411105,0.1194303,-0.05142778,-0.3859943,-4.248308,-0.1307415,0.5816935,1.5213,0.398067,-0.005101494,0.06950685,0.07399245,-0.8106955,0.1355966,-0.04443884,0.6480575,1.551774,0.2339048,0.2840168,1.297466,0.3597404,280.3908,178.9303,68.55352,True
0,1.900004,0.1802874,0.03264785,-0.07237963,-1.298877,-4.586269,-2.884938,0.5676691,1.298295,0.4923699,-1.730385,-0.04268381,12.1,41.9,-0.02808821,0.07009554,-0.002734554,-0.3844204,-4.249866,-0.1288999,0.5807742,1.521161,0.397856,-0.02883115,0.05767044,0.04335144,-0.8113432,0.1356416,-0.04331046,0.6471109,1.551843,0.2337744,0.2832242,1.297098,0.3600457,280.3901,179.1994,68.39064,True
0,1.911115,0.1855961,0.03578116,-0.08200042,-1.297848,-4.587163,-2.886935,0.5669926,1.298108,0.492352,-1.729956,0.03887734,12.1,41.9,-0.02507798,0.02533909,-0.002017576,-0.3843586,-4.252764,-0.1260213,0.5797896,1.52108,0.3978438,-0.03297444,0.07474758,0.05613218,-0.8103259,0.1377334,-0.04440901,0.6461926,1.551939,0.2338116,0.2825083,1.296669,0.3598816,280.4459,179.203,68.38853,True
0,1.922226,0.1834183,0.0581973,-0.07684511,-1.297521,-4.588901,-2.88831,0.5664046,1.297921,0.4922945,-1.729323,0.05660048,11,33.6,-0.01926191,-0.01701067,-0.0418008,-0.3860556,-4.257389,-0.1217435,0.5786616,1.520962,0.3978317,-0.03271505,0.09719774,0.08482785,-0.8085368,0.1403893,-0.04590491,0.6453288,1.552073,0.233794,0.2818589,1.296091,0.3593451,280.575,179.0675,68.3457,True
0,1.933337,0.1726908,0.1008798,-0.06436347,-1.29793,-4.591453,-2.889192,0.5658038,1.297602,0.4922857,-1.727959,0.122926,11,33.6,-0.01026311,-0.02838052,-0.0952445,-0.3888311,-4.259501,-0.1198819,0.5775567,1.520729,0.397862,-0.0262734,0.1089332,0.0911236,-0.807447,0.1424581,-0.0472546,0.6443843,1.552102,0.2338293,0.2812574,1.295284,0.3586558,280.7448,178.8501,68.24815,True
0,1.944448,0.1662816,0.1137332,-0.05380013,-1.298074,-4.593215,-2.890316,0.5652494,1.297363,0.492208,-1.725701,0.2038273,11,33.6,0.002237153,-0.01970072,-0.126204,-0.3912322,-4.260302,-0.1194446,0.5765887,1.520544,0.3978167,-0.02312478,0.1227725,0.08784685,-0.8068781,0.144868,-0.04876088,0.6436628,1.552127,0.2337558,0.2806214,1.29419,0.3580919,280.8937,178.7837,67.94735,True
0,1.955559,0.1471108,0.1180433,-0.04208944,-1.298365,-4.594656,-2.890938,0.5647038,1.297069,0.4920015,-1.72311,0.233261,11,33.6,0.007684961,0.0795619,-0.1553747,-0.3942837,-4.250423,-0.12884,0.575528,1.520207,0.3976357,-0.01771505,0.1100001,0.09421387,-0.8057346,0.1458151,-0.04943679,0.6429458,1.552177,0.2335565,0.2798286,1.292834,0.3578779,280.9969,179.3433,67.09737,True
0,1.966671,0.139671,0.1148937,-0.03460269,-1.298473,-4.595936,-2.891958,0.5642039,1.296976,0.4918749,-1.720485,0.2360244,11,33.6,-0.01327492,0.1435212,-0.1472483,-0.3960366,-4.241534,-0.1361504,0.5745151,1.520121,0.3974032,-0.006051406,0.09081039,0.08669156,-0.8050395,0.1462952,-0.05007222,0.6421195,1.552216,0.233552,0.2788106,1.291273,0.3581555,281.0495,180.5876,65.75477,True
0,1.977782,0.1247501,0.1190986,-0.03780916,-1.298349,-4.597559,-2.892512,0.5636132,1.296922,0.4915848,-1.716973,0.3169203,8.6,33.8,-0.05745955,0.1764286,-0.1050161,-0.3961559,-4.234005,-0.1409659,0.5736927,1.520056,0.3971071,0.002436064,0.07588533,0.08131764,-0.8043876,0.1467317,-0.05066664,0.6412718,1.552277,0.2335021,0.2776418,1.289549,0.3588968,281.0774,182.4296,64.07475,True
0,1.988893,0.1215692,0.1148535,-0.03458011,-1.298325,-4.598754,-2.89351,0.5631291,1.296849,0.4913492,-1.714071,0.2602995,8.6,33.8,-0.08047797,0.17623,-0.06323691,-0.3956909,-4.228657,-0.1441838,0.5728356,1.520004,0.3968809,-0.003956608,0.07694364,0.08137792,-0.8035161,0.1480518,-0.05133083,0.640478,1.552363,0.2334609,0.2763808,1.287734,0.3599528,281.1016,184.7974,62.05178,True
0,2.000004,0.1279899,0.1128593,-0.01859408,-1.298939,-4.599923,-2.894926,0.5626531,1.296775,0.4911871,-1.710308,0.339472,8.6,33.8,-0.05780537,0.1374549,-0.0168715,-0.3944956,-4.22759,-0.1452951,0.5720506,1.520104,0.3968117,-0.0295838,0.08008538,0.07523099,-0.8029431,0.1493322,-0.05107943,0.6397692,1.552377,0.2333419,0.2750965,1.285916,0.361166,281.1599,187.3555,59.90059,True
0,2.011115,0.1269594,0.1098357,0.004867818,-1.300009,-4.600853,-2.896055,0.5622462,1.296676,0.490963,-1.706946,0.3018846,8.6,33.8,-0.002758898,0.08190952,-0.02847296,-0.3951108,-4.229654,-0.1450589,0.5713311,1.52011,0.3967965,-0.03910369,0.07155923,0.08067137,-0.8019326,0.1500233,-0.0509263,0.6390085,1.552501,0.2331972,0.2737847,1.284177,0.3623784,281.2429,189.7857,57.88307,True
0,2.022226,0.1301837,0.1024949,0.0198327,-1.30092,-4.601544,-2.897362,0.5617533,1.296623,0.490845,-1.703534,0.306696,10.7,33.9,0.02254941,0.04459155,-0.03858618,-0.3958528,-4.231487,-0.1443606,0.5705368,1.52017,0.3967488,-0.03051329,0.05772174,0.08594866,-0.8008211,0.1501481,-0.05098595,0.6381863,1.552565,0.2330914,0.2725919,1.282529,0.3634929,281.3104,191.8759,56.14233,True
0,2.033337,0.1388101,0.06754228,0.04458769,-1.302128,-4.600786,-2.899398,0.5613375,1.296517,0.4906609,-1.699178,0.3928369,10.7,33.9,0.03390295,0.01702275,-0.06339694,-0.3971902,-4.233732,-0.1429982,0.5698908,1.520164,0.3966246,-0.02408597,0.03641914,0.08700342,-0.7998794,0.1497021,-0.05066371,0.6374512,1.552647,0.2328713,0.2715662,1.280951,0.3644482,281.3253,193.6561,54.6288,True
0,2.044448,0.1377659,0.06117133,0.04783528,-1.302864,-4.60109,-2.900856,0.560946,1.296418,0.4904633,-1.695187,0.3587092,10.7,33.9,0.0338801,0.01918147,-0.0665814,-0.3981319,-4.232911,-0.1440805,0.5692266,1.520086,0.3965232,-0.01662876,0.02043531,0.08484052,-0.7990043,0.1492305,-0.05042882,0.6368139,1.55267,0.2327061,0.2706803,1.279424,0.3651812,281.3188,195.281,53.20767,True
0,2.055559,0.1399387,0.03341382,0.03844772,-1.302797,-4.600619,-2.902536,0.5605869,1.296275,0.4901345,-1.691478,0.3334434,10.7,33.9,0.03958201,0.03063799,-0.0335266,-0.3974299,-4.230708,-0.1466747,0.5687119,1.519903,0.3962913,0.0003950447,-0.01045823,0.07942855,-0.7982357,0.1475329,-0.04981363,0.6360946,1.552778,0.2325313,0.2698986,1.277922,0.3656608,281.3278,196.7188,51.9046,True
0,2.06667,0.1399387,0.03341382,0.03844772,-1.302797,-4.600619,-2.902536,0.5605869,1.296275,0.4901345,-1.687151,0.3900906,10.7,33.9,0.03958201,0.03063799,-0.0335266,-0.3974299,-4.230708,-0.1466747,0.5687119,1.519903,0.3962913,0.0003950447,-0.01045823,0.07942855,-0.7982357,0.1475329,-0.04981363,0.6360946,1.552778,0.2325313,0.269275,1.276374,0.3658533,281.3399,198.0001,50.69771,True
0,2.077781,0.1302421,0.07911043,0.02641042,-1.303859,-4.603381,-2.904473,0.5600535,1.295827,0.4893856,-1.681568,0.504409,8.2,39.1,0.02270377,0.03808056,-0.02051094,-0.3976158,-4.22788,-0.1494915,0.567399,1.519838,0.3956995,0.007965975,-0.0242847,0.08898686,-0.7958468,0.1462073,-0.04936568,0.6346165,1.552832,0.2322109,0.2688035,1.274741,0.3658291,281.4333,199.1293,49.52538,True
0,2.088892,0.1300894,0.150457,0.02267936,-1.304904,-4.607389,-2.904871,0.5599723,1.295504,0.4889607,-1.680284,0.1105087,8.2,39.1,0.001219807,0.0276171,-0.03421952,-0.3984366,-4.228318,-0.1484832,0.56675,1.51959,0.3956797,0.009079918,-0.010427,0.09532939,-0.7946329,0.1466699,-0.04984399,0.6339499,1.552825,0.2321389,0.2684066,1.273091,0.3656537,281.5958,200.333,48.25091,True
0,2.100003,0.1310336,0.2144665,0.03391771,-1.306697,-4.611787,-2.905216,0.5598619,1.295184,0.4886746,-1.675024,0.4774413,8.2,39.1,-0.002151988,0.02347953,-0.05020143,-0.3995924,-4.228665,-0.14808,0.5661173,1.519321,0.3955941,0.008920997,0.02148782,0.08245839,-0.7943065,0.1483888,-0.05118276,0.6332657,1.552732,0.2320621,0.2678219,1.271379,0.3653339,281.6963,201.0382,47.47933,True
0,2.111114,0.1299257,0.2422577,0.04650038,-1.308512,-4.615076,-2.905777,0.559706,1.294903,0.4884026,-1.67089,0.3709714,8.2,39.1,0.02421161,0.03958578,-0.08337356,-0.4017165,-4.226739,-0.1509765,0.5653726,1.519242,0.395643,0.008669853,0.04379616,0.05896395,-0.7945371,0.1500595,-0.05252206,0.6326708,1.552759,0.2319779,0.2671566,1.269575,0.3651417,281.8238,202.0422,46.31913,True
0,2.122225,0.1288792,0.243421,0.05927272,-1.310164,-4.617578,-2.906568,0.5593899,1.294612,0.4882417,-1.666919,0.3572687,9.5,30.2,0.06132276,0.06840356,-0.1133748,-0.4042561,-4.223383,-0.1560317,0.5646896,1.519126,0.3956041,0.010724,0.04803272,0.05147799,-0.794193,0.1508359,-0.0532768,0.6320059,1.552827,0.2318749,0.2664105,1.267751,0.3653309,281.9776,203.3442,44.88174,True
0,2.133336,0.1215062,0.2083053,0.06700142,-1.311342,-4.618368,-2.907457,0.559207,1.29445,0.4881022,-1.662832,0.3680688,9.5,30.2,0.07965519,0.1205291,-0.1131876,-0.405968,-4.216168,-0.1641077,0.5640907,1.519054,0.3953373,0.03004083,0.0395626,0.06516071,-0.792961,0.1509693,-0.05434287,0.6313336,1.5529,0.2317328,0.2655792,1.265977,0.3660492,282.0942,205.0204,43.23072,True
0,2.144447,0.1162771,0.1614146,0.0662934,-1.312037,-4.618287,-2.908564,0.5589041,1.294337,0.4878905,-1.658837,0.359472,9.5,30.2,0.07785694,0.133128,-0.08644641,-0.4062897,-4.211626,-0.169156,0.5636609,1.519042,0.3951712,0.04211384,0.0247451,0.0991733,-0.7905988,0.1506717,-0.05504301,0.6308061,1.552994,0.2315838,0.2646841,1.264279,0.3672364,282.1625,206.9035,41.61487,True
0,2.155558,0.1121866,0.07395022,0.05310274,-1.31157,-4.615991,-2.910298,0.558652,1.294291,0.4878204,-1.654498,0.3909535,9.5,30.2,0.0547995,0.1126494,-0.03948355,-0.4051946,-4.210099,-0.1702743,0.5633595,1.519042,0.3950598,0.05059024,0.009823903,0.0927381,-0.7897775,0.1501906,-0.05553889,0.6302603,1.553051,0.2316039,0.2637776,1.262642,0.3687176,282.2036,208.8167,40.15154,True
0,2.166669,0.1059261,0.008902306,0.04720272,-1.311365,-4.61376,-2.911861,0.5582513,1.294331,0.4876976,-1.650481,0.3613038,9.5,30.2,0.02927257,0.0667831,-0.01611784,-0.4044106,-4.211858,-0.1680939,0.5630381,1.519062,0.3949087,0.05578332,0.005527318,0.07885095,-0.789403,0.1500229,-0.05618684,0.6297575,1.553118,0.2314897,0.2630027,1.261038,0.3702223,282.2609,210.7702,38.74982,True
0,2.17778,0.1081448,-0.03375977,0.04006276,-1.311122,-4.611853,-2.91375,0.5579133,1.29435,0.4875412,-1.646578,0.3512276,6.2,30.1,0.02149232,-0.008812767,-0.01658187,-0.4043366,-4.218048,-0.1624672,0.5625257,1.519146,0.3948629,0.05570337,0.004435156,0.07033028,-0.7889524,0.1500266,-0.0568252,0.6291976,1.553246,0.2313397,0.2623821,1.259443,0.3714565,282.3524,212.4839,37.56599,True
0,2.188891,0.1134994,-0.04868452,0.03697232,-1.311233,-4.610829,-2.915456,0.557602,1.29424,0.4872668,-1.64247,0.3699501,6.2,30.1,0.03514365,-0.04398912,-0.02122905,-0.404417,-4.221908,-0.1597423,0.562107,1.519116,0.394707,0.05673026,0.003349528,0.06605957,-0.7883474,0.1499083,-0.05744119,0.6285943,1.553179,0.2311301,0.261994,1.257801,0.3721744,282.5006,213.804,36.60496,True
0,2.200002,0.1188049,-0.04016355,0.0347699,-1.3115,-4.610624,-2.916985,0.5573577,1.294196,0.487102,-1.638888,0.3217478,6.2,30.1,0.04365031,-0.03440259,-0.02657381,-0.4049097,-4.222168,-0.1602264,0.561586,1.519116,0.3945913,0.05674443,-0.01050799,0.06609552,-0.787558,0.148998,-0.05742654,0.6280486,1.553274,0.2309506,0.2616938,1.25613,0.3722638,282.6937,214.9116,35.59993,True
0,2.211113,0.1251719,-0.03167724,0.02830667,-1.311571,-4.610543,-2.918631,0.5570953,1.294076,0.4868922,-1.634979,0.351942,6.2,30.1,0.05340612,-0.004639845,-0.02219272,-0.4051243,-4.219471,-0.1636092,0.5611353,1.51905,0.394563,0.05781642,-0.02116169,0.06504788,-0.7868208,0.1482279,-0.05766756,0.6275022,1.553388,0.2308061,0.2614662,1.254418,0.3717949,282.8986,215.7049,34.67675,True
0,2.222224,0.1272868,-0.02207648,0.02822977,-1.311897,-4.610687,-2.920119,0.5569259,1.293977,0.4867399,-1.630999,0.358235,6.2,30.1,0.05995026,0.01125352,-0.01468736,-0.4051147,-4.218067,-0.1658907,0.5607305,1.519062,0.3944197,0.05569711,-0.01903836,0.06612565,-0.786073,0.1479566,-0.05805318,0.6269775,1.553334,0.2306647,0.2612667,1.252655,0.3709582,283.1079,216.2928,33.78017,True
0,2.233335,0.1251784,-0.03166137,0.02937928,-1.312233,-4.609828,-2.921651,0.5567207,1.29387,0.486659,-1.627121,0.3487966,8,28.7,0.05586021,0.04641284,-0.01226207,-0.405479,-4.213896,-0.1701861,0.5602306,1.519001,0.3943324,0.04716513,-0.00413534,0.06723676,-0.7852805,0.1486025,-0.05868728,0.626502,1.553361,0.230547,0.261073,1.250854,0.3700214,283.3366,216.8026,32.86821,True
0,2.244446,0.1230606,-0.03590297,0.03260953,-1.312588,-4.609175,-2.923109,0.5564836,1.293766,0.486515,-1.623002,0.3709589,8,28.7,0.04840671,0.07528332,-0.02370245,-0.4064612,-4.209945,-0.1740466,0.5597338,1.518968,0.3942349,0.04185265,-0.006272536,0.06835863,-0.784497,0.1483788,-0.05884148,0.6260844,1.553422,0.2304237,0.2608703,1.249014,0.369215,283.5699,217.3066,31.99027,True
0,2.255557,0.1199257,-0.06034384,0.04132313,-1.313074,-4.607471,-2.92477,0.5562307,1.293723,0.4863603,-1.618754,0.3825824,8,28.7,0.04102675,0.1030434,-0.02768716,-0.4072368,-4.204877,-0.178925,0.5592848,1.519011,0.3940651,0.03976037,-0.01160098,0.07158555,-0.7836192,0.1478082,-0.05883695,0.6256424,1.55351,0.2302799,0.2606819,1.247144,0.3687101,283.7995,218.0161,31.01476,True
0,2.266668,0.1242724,-0.09757856,0.046925,-1.313299,-4.60502,-2.926958,0.5559545,1.293702,0.4860952,-1.614704,0.3643401,8,28.7,0.03568961,0.0977308,-0.02660101,-0.4075286,-4.2029,-0.1810031,0.5589481,1.519016,0.393867,0.03874434,-0.01798271,0.07587377,-0.7825922,0.1472646,-0.05884281,0.6252383,1.553571,0.2301266,0.2604827,1.245258,0.3685347,284.0226,218.9554,29.9697,True
0,2.277779,0.124314,-0.1167348,0.0491972,-1.313494,-4.602998,-2.928827,0.5557548,1.293715,0.4858661,-1.610651,0.3649203,5.4,24,0.02821176,0.08281805,-0.02237145,-0.4076996,-4.201975,-0.1819091,0.5585796,1.519057,0.3937306,0.0387703,-0.0201097,0.07801116,-0.7816064,0.1469141,-0.05907238,0.6248448,1.553603,0.2299869,0.2602306,1.243382,0.3686389,284.2481,220.082,28.89086,True
0,2.28889,0.1222447,-0.1444202,0.0515394,-1.313636,-4.600319,-2.930803,0.555586,1.293719,0.4856281,-1.606987,0.3292442,5.4,24,0.01116669,0.05831189,-0.01278496,-0.4073816,-4.202796,-0.1807684,0.5583681,1.519054,0.3935852,0.03447462,-0.01479797,0.07483725,-0.7809699,0.1470016,-0.05938476,0.6244985,1.553598,0.2298691,0.2599664,1.241529,0.3688816,284.4729,221.3642,27.79122,True
0,2.300001,0.1158699,-0.1486359,0.05903612,-1.314179,-4.598388,-2.932367,0.5555696,1.293665,0.4853759,-1.60281,0.3763965,5.4,24,0.006711705,0.02961678,-0.01933955,-0.4077321,-4.204501,-0.1790683,0.5580257,1.519037,0.3934019,0.02158938,-0.006323423,0.06535158,-0.7806135,0.1471255,-0.05926093,0.6242566,1.553656,0.2297697,0.2597523,1.239683,0.3690864,284.7028,222.5547,26.82073,True
0,2.311112,0.1137273,-0.1389976,0.06642914,-1.314957,-4.596924,-2.933926,0.5555271,1.29356,0.4852204,-1.598722,0.3678779,5.4,24,0.008607525,0.02871029,-0.04173867,-0.4090514,-4.204044,-0.1795647,0.5576637,1.518986,0.3933947,0.01515945,0.008577032,0.06324594,-0.7799786,0.1480081,-0.0598367,0.6239199,1.553692,0.229744,0.259632,1.237841,0.3691539,284.9486,223.6092,25.91688,True
0,2.322223,0.1083598,-0.1080308,0.07792865,-1.316243,-4.596515,-2.935169,0.5554682,1.29338,0.485009,-1.594507,0.3796189,5.4,24,0.0215038,0.0574275,-0.04272767,-0.4098392,-4.200222,-0.1837355,0.557234,1.518922,0.3933611,0.01519734,0.0128461,0.06749693,-0.7790859,0.148375,-0.06028678,0.6235158,1.553665,0.2296629,0.2596487,1.236002,0.3690133,285.1944,224.5336,25.04987,True
0,2.333334,0.1061855,-0.07807771,0.09474956,-1.317792,-4.596335,-2.936268,0.5554307,1.2932,0.4847758,-1.590624,0.3491632,5.4,19.8,0.03745922,0.06592459,-0.04815517,-0.4107468,-4.197985,-0.1866322,0.5568349,1.518933,0.393343,0.0162741,0.01391364,0.06854865,-0.7783014,0.1486647,-0.06075496,0.6231641,1.553799,0.2296231,0.2597875,1.234185,0.3686766,285.4336,225.3555,24.16724,True
0,2.344445,0.1019076,-0.0652405,0.1031848,-1.31919,-4.595716,-2.9374,0.5553786,1.293041,0.4846144,-1.586618,0.360662,5.4,19.8,0.03665387,0.1042153,-0.03935058,-0.4113572,-4.192551,-0.1921175,0.5566298,1.518874,0.3932309,0.02161745,0.01072418,0.06956404,-0.7775711,0.1487342,-0.06127428,0.6228865,1.553852,0.22948,0.2599427,1.232405,0.368222,285.651,226.058,23.30021,True
0,2.355556,0.09446142,-0.0695003,0.1053558,-1.320181,-4.594497,-2.938489,0.5553261,1.292894,0.4843681,-1.582676,0.3548637,5.4,19.8,0.03364398,0.1404271,-0.03585739,-0.4120587,-4.185768,-0.1985602,0.5564268,1.518833,0.3930364,0.03545198,-0.005253226,0.06627257,-0.7769123,0.1478579,-0.0614844,0.6226026,1.553868,0.2293563,0.2600116,1.230682,0.3677654,285.8441,226.7825,22.38784,True
0,2.366668,0.07639229,-0.09086773,0.1023459,-1.320938,-4.592554,-2.939207,0.5553138,1.292831,0.4841003,-1.578869,0.3427069,5.4,19.8,0.03178075,0.1348986,-0.006049611,-0.4114626,-4.182182,-0.2019984,0.5564757,1.518827,0.3928165,0.04717866,-0.032947,0.06409435,-0.7762731,0.1459861,-0.06109771,0.622345,1.553898,0.2292428,0.2600027,1.229035,0.3673981,286.0262,227.5582,21.47671,True
0,2.377779,0.06683765,-0.1057685,0.1067287,-1.321853,-4.590644,-2.94007,0.5553281,1.292782,0.4838011,-1.575066,0.3424808,4.8,17.7,0.03397422,0.09210339,0.01812488,-0.4103095,-4.182905,-0.2017954,0.5564396,1.518852,0.3926792,0.03632645,-0.03515206,0.04396346,-0.7764201,0.1452234,-0.06052566,0.6221273,1.553831,0.2291193,0.2599746,1.22746,0.3671458,286.2038,228.3107,20.67608,True
0,2.38889,0.06150444,-0.100431,0.109892,-1.322978,-4.589465,-2.940901,0.5553425,1.292721,0.4835207,-1.571381,0.3323371,4.8,17.7,0.03783365,-0.0176837,0.02369121,-0.4090754,-4.192356,-0.193758,0.5564231,1.518871,0.3926568,0.02776581,-0.02877798,0.04083521,-0.7760675,0.1451252,-0.06047293,0.6219243,1.553851,0.2290289,0.2599913,1.225965,0.3669507,286.3971,229.0487,19.98237,True
0,2.400001,0.06036022,-0.05990161,0.1159817,-1.324565,-4.589901,-2.941406,0.5554871,1.292587,0.4831569,-1.568836,0.2284253,4.8,17.7,0.02982277,-0.07281177,-0.009652492,-0.4097944,-4.199055,-0.1878943,0.5562978,1.518974,0.3926477,0.0224063,-0.02347266,0.03766981,-0.7758294,0.1449152,-0.06046414,0.6218161,1.553869,0.2290499,0.260093,1.224601,0.366709,286.6227,229.7978,19.31166,True
0,2.411112,0.06560255,-0.01401459,0.1252202,-1.326439,-4.590795,-2.94212,0.5556458,1.292468,0.4828022,-1.566753,0.1873086,4.8,17.7,0.02111939,-0.08653808,-0.02138437,-0.4101391,-4.202424,-0.1846876,0.5562167,1.518989,0.392745,0.01917475,-0.02455394,0.03344175,-0.7755993,0.1444757,-0.06033791,0.6216747,1.553966,0.2290182,0.2602687,1.223429,0.3663494,286.8329,230.465,18.67835,True
0,2.422223,0.06447881,0.0136878,0.1260812,-1.328057,-4.591518,-2.942609,0.5557613,1.292364,0.4824548,-1.564895,0.1672247,4.8,17.7,0.008365069,-0.06513675,-0.02749701,-0.4106445,-4.202686,-0.1841235,0.5560664,1.518967,0.3927381,0.01172616,-0.02242807,0.03457236,-0.7751977,0.1442543,-0.06005641,0.6215514,1.554016,0.2289808,0.2604638,1.222484,0.3658904,286.9837,230.991,18.09795,True
0,2.433334,0.0633483,0.04565991,0.1279718,-1.329755,-4.592717,-2.94297,0.5559628,1.292248,0.4821157,-1.56353,0.1224779,2.5,16,0.002265768,-0.02898443,-0.01332462,-0.4104719,-4.200255,-0.1861901,0.55597,1.518969,0.3925772,0.002122361,-0.02031435,0.03359679,-0.7748254,0.1440313,-0.0595355,0.6214525,1.554006,0.2288725,0.260637,1.221783,0.3654336,287.0548,231.4397,17.54607,True
0,2.444445,0.05905567,0.05840041,0.1236212,-1.331163,-4.593509,-2.943315,0.55617,1.292127,0.4818134,-1.561829,0.1536638,2.5,16,0.001532203,0.002836538,0.006084605,-0.409999,-4.197413,-0.1888205,0.5559258,1.51897,0.3924878,0.004165012,-0.01820462,0.02504653,-0.7748275,0.1438066,-0.05946572,0.6213099,1.554003,0.2288437,0.2607689,1.221303,0.3650698,287.0487,231.8259,17.08229,True
0,2.455556,0.0558639,0.05626692,0.1236402,-1.332638,-4.593818,-2.94375,0.5563262,1.29204,0.4815807,-1.560524,0.1172887,2.5,16,0.01355622,0.02714804,0.0263827,-0.4092011,-4.193953,-0.19255,0.5558852,1.518937,0.3924839,0.007282429,-0.01183306,0.018605,-0.7748446,0.1437708,-0.0595102,0.6211494,1.554119,0.2288611,0.2608501,1.220992,0.3648328,287.0063,232.1423,16.74692,True
0,2.466667,0.04524705,0.03811928,0.121654,-1.333846,-4.593457,-2.94401,0.5564768,1.291801,0.4813452,-1.55934,0.106663,2.5,16,0.0378105,0.01972832,0.004776642,-0.4098648,-4.194917,-0.1929029,0.5559706,1.518962,0.3924654,0.006194821,-0.001184083,0.01752245,-0.7746922,0.1442869,-0.05988197,0.6210955,1.554116,0.2288024,0.2609271,1.2208,0.3647485,286.9397,232.4335,16.49493,True
0,2.477778,0.03890277,0.01250825,0.1175911,-1.334897,-4.592574,-2.944444,0.5565392,1.291678,0.4812212,-1.558398,0.08474993,3.6,14.8,0.04916478,0.01352907,-0.02840368,-0.4112246,-4.195659,-0.19304,0.5559106,1.518916,0.3925142,0.0157837,-0.002243241,0.01636099,-0.774581,0.1442114,-0.06046681,0.6210554,1.55413,0.228719,0.2610241,1.22067,0.3647896,286.8669,232.7259,16.29443,True
0,2.488889,0.03890277,0.01250825,0.1175911,-1.334897,-4.592574,-2.944444,0.5565392,1.291678,0.4812212,-1.557305,0.0989025,3.6,14.8,0.04916478,0.01352907,-0.02840368,-0.4112246,-4.195659,-0.19304,0.5559106,1.518916,0.3925142,0.0157837,-0.002243241,0.01636099,-0.774581,0.1442114,-0.06046681,0.6210554,1.55413,0.228719,0.2614195,1.220647,0.3650343,286.6992,232.8441,16.27684,True
0,2.5,0.04851584,-0.008872855,0.1038887,-1.336735,-4.591547,-2.94601,0.5567868,1.291388,0.4809296,-1.556472,0.07498048,3.6,14.8,0.07329602,0.008353997,-0.06382956,-0.4134776,-4.196724,-0.194357,0.556022,1.518787,0.3925207,0.03381805,-0.01503722,0.006631448,-0.7745703,0.1430924,-0.06101622,0.6210408,1.554052,0.2285414,0.2613812,1.220393,0.3650582,286.7397,233.0543,16.24926,True
0,2.511111,0.04847367,0.003814867,0.09101008,-1.337391,-4.591918,-2.94646,0.5569133,1.291258,0.4807487,-1.556806,-0.03147415,3.6,14.8,0.07226273,0.01688489,-0.06375498,-0.4141951,-4.195701,-0.1959908,0.5560472,1.518752,0.3924501,0.04340776,-0.02674782,0.005502103,-0.7745,0.1420712,-0.06112647,0.6210607,1.554036,0.2284,0.2613482,1.220106,0.3650273,286.7605,233.4019,15.94859,True
0,2.522222,0.04839636,0.0260145,0.06740852,-1.337581,-4.593096,-2.946651,0.557111,1.291201,0.4806356,-1.556193,0.05611084,3.6,14.8,0.05968064,0.01999797,-0.04548921,-0.4140054,-4.195024,-0.1968886,0.5561672,1.518789,0.3923647,0.04973202,-0.04167328,-0.003044772,-0.7747785,0.1406968,-0.06091022,0.6210976,1.553963,0.2283664,0.2614878,1.219758,0.3648522,286.722,233.9099,15.51675,True
0,2.533333,0.04621533,0.04080436,0.05132073,-1.337761,-4.594095,-2.946859,0.5573016,1.291165,0.480478,-1.555588,0.05453772,3.3,12,0.03255039,0.006891446,0.01648071,-0.4116986,-4.194538,-0.1967586,0.5564197,1.518851,0.3922322,0.03903719,-0.03743476,-0.00721166,-0.7749985,0.1403732,-0.06075762,0.6211478,1.553972,0.2283392,0.2617423,1.219319,0.3645299,286.7334,234.143,15.26923,True
0,2.544444,0.04724322,0.04708605,0.03529158,-1.337757,-4.594939,-2.947131,0.5574365,1.291216,0.4803696,-1.555553,0.0024305,3.3,12,0.02841222,-0.02630542,0.04291753,-0.4100959,-4.197478,-0.1942262,0.5565041,1.518868,0.3921473,0.03366646,-0.03744961,-0.01142173,-0.7752771,0.1398293,-0.06051181,0.6211302,1.553915,0.2282703,0.2618995,1.217588,0.3643829,287.467,233.9632,15.44649,True
0,2.555555,0.05149172,0.04484924,0.02038755,-1.337514,-4.595345,-2.947797,0.5576156,1.291181,0.4803243,-1.554373,0.1077594,3.3,12,0.03558252,-0.0881052,0.04027586,-0.4091436,-4.204975,-0.1880543,0.5566536,1.518813,0.3920326,0.02410159,-0.02360713,-0.007102821,-0.7752132,0.1400982,-0.06055149,0.6212404,1.553825,0.2281814,0.2619513,1.215531,0.3644447,288.0997,234.5866,14.8332,True
0,2.566666,0.05467648,0.04695011,0.01504179,-1.337624,-4.596005,-2.948354,0.5577111,1.291118,0.480274,-1.554492,-0.01199773,3.3,12,0.04281493,-0.100809,0.02306334,-0.4092767,-4.209394,-0.1847712,0.5568186,1.518741,0.3920107,0.01448427,-0.01403759,-0.009162148,-0.7753634,0.1403632,-0.06056481,0.6212831,1.553853,0.2281125,0.2619871,1.214049,0.3646708,288.5511,236.0026,13.32704,True
0,2.577777,0.0525367,0.04580015,0.004395552,-1.337307,-4.596534,-2.948744,0.5578672,1.291049,0.4801373,-1.554627,-0.01223407,3.3,12,0.04887609,-0.0728141,-0.02154137,-0.4112251,-4.209329,-0.1855864,0.5568241,1.518723,0.3919237,0.01017563,-0.005533326,-0.01340354,-0.7757027,0.1406338,-0.06077334,0.6213586,1.55384,0.2279665,0.2619645,1.213157,0.3649267,288.8227,236.5708,12.79906,True
0,2.588888,0.04189461,0.03934032,-0.001934531,-1.337103,-4.596782,-2.94882,0.5580053,1.29106,0.4801662,-1.5544,0.02073945,4.2,8.7,0.04888668,-0.02793917,-0.03933091,-0.4125854,-4.206168,-0.1890176,0.5568182,1.518578,0.3918865,0.01647208,-0.007678419,-0.02305265,-0.7763498,0.14041,-0.0609784,0.6214809,1.553764,0.2278891,0.2620186,1.21255,0.3652425,289.0489,236.4515,13.03134,True
0,2.599999,0.02589814,0.03813382,-0.01682527,-1.336433,-4.597396,-2.948364,0.5583082,1.291105,0.4801359,-1.554005,0.03575683,4.2,8.7,0.03545123,0.04769334,-0.03012916,-0.4131724,-4.197472,-0.196859,0.5569447,1.518628,0.39182,0.02168478,-0.02048776,-0.03585701,-0.7771993,0.1393444,-0.06063618,0.6215883,1.553771,0.2278755,0.2620433,1.212066,0.3655542,289.1675,236.5468,13.05194,True
0,2.61111,0.01414228,0.04973458,-0.02861921,-1.335851,-4.598435,-2.947899,0.5585963,1.291188,0.4801805,-1.553465,0.04898911,4.2,8.7,0.02849795,0.0505617,0.01897645,-0.4110653,-4.195006,-0.199124,0.5573069,1.518839,0.39167,0.02048988,-0.026917,-0.04967792,-0.7782215,0.1384556,-0.06018478,0.6217305,1.553762,0.2278087,0.2620797,1.211701,0.3658087,289.2176,236.683,13.02352,True
0,2.622221,0.004510684,0.06565335,-0.03511986,-1.335508,-4.599988,-2.947212,0.5589684,1.291204,0.4802809,-1.552903,0.05097002,4.2,8.7,0.0382492,0.01087048,0.05162068,-0.4089987,-4.197944,-0.1972827,0.5576267,1.518816,0.3917022,0.01730279,-0.02265948,-0.0485931,-0.7786902,0.1382428,-0.06013311,0.6218103,1.553786,0.2277749,0.2622551,1.211575,0.3660759,289.3001,236.6375,13.12528,True
0,2.633332,0.002340626,0.08374008,-0.03738656,-1.335288,-4.601657,-2.946816,0.5592447,1.291317,0.4803102,-1.552929,-0.002773066,2.5,4.6,0.05185656,-0.04350811,0.05003251,-0.4080618,-4.203704,-0.1931295,0.557916,1.518917,0.3916392,0.02379001,-0.03115042,-0.04011175,-0.7787594,0.1373476,-0.06003138,0.6219217,1.553765,0.2277274,0.2623917,1.211643,0.3662768,289.2646,236.4889,13.33254,True
0,2.644443,0.005508533,0.09867864,-0.03537259,-1.335297,-4.603454,-2.946586,0.5595977,1.291437,0.4804204,-1.552849,0.007386981,2.5,4.6,0.06213446,-0.09351042,0.03359032,-0.4077086,-4.210971,-0.187522,0.5581577,1.518963,0.3917091,0.02386205,-0.0407225,-0.0336967,-0.7788915,0.1362008,-0.05947638,0.6219904,1.553799,0.2275956,0.2626145,1.211989,0.3665614,289.2423,236.2007,13.61364,True
0,2.655554,0.007624146,0.1039725,-0.03967681,-1.334926,-4.604821,-2.946426,0.5598405,1.291617,0.4806409,-1.553163,-0.0287845,2.5,4.6,0.06839981,-0.1169501,0.03122704,-0.4070951,-4.215743,-0.1840545,0.5583941,1.519068,0.3918104,0.02500459,-0.04603245,-0.02623523,-0.7788574,0.135114,-0.0589789,0.6221051,1.553792,0.2274997,0.262819,1.212516,0.3669173,289.1175,236.1257,13.674,True
0,2.666665,0.01083435,0.09968302,-0.04390496,-1.334523,-4.605851,-2.94658,0.5599604,1.291706,0.4807744,-1.553378,-0.01945311,2.5,4.6,0.07572554,-0.1318522,0.02465315,-0.4066913,-4.22086,-0.180451,0.5585699,1.519081,0.3918324,0.02834055,-0.05025639,-0.01240907,-0.7784479,0.1340902,-0.05868489,0.6222177,1.553779,0.2273505,0.2629971,1.213228,0.3673729,288.9434,236.0346,13.80097,True
0,2.677776,0.01616113,0.09105013,-0.05982809,-1.333349,-4.60675,-2.946763,0.5601228,1.291826,0.4809198,-1.553331,0.004448859,1.6,2.1,0.07579827,-0.09770837,0.01744898,-0.4066743,-4.220194,-0.1819256,0.5587595,1.519043,0.3917155,0.0283648,-0.05344882,-0.01027043,-0.778459,0.1330549,-0.05824866,0.622375,1.553674,0.2272549,0.2631418,1.214068,0.3679402,288.6939,235.8554,14.06536,True
0,2.688887,0.01297556,0.07382775,-0.08206573,-1.331709,-4.607233,-2.946666,0.5602968,1.292058,0.4811273,-1.55351,-0.01644575,1.6,2.1,0.06230473,-0.03166234,0.025515,-0.40649,-4.214884,-0.1869507,0.5589384,1.51919,0.3915503,0.02943735,-0.06090254,-0.01025814,-0.7784708,0.1317925,-0.05768806,0.6225376,1.553648,0.227133,0.2632262,1.215069,0.3686275,288.4036,235.4492,14.60614,True
0,2.699998,0.009814113,0.04383103,-0.1031443,-1.329669,-4.606905,-2.946689,0.5605278,1.2923,0.4812226,-1.553473,0.003434942,1.6,2.1,0.050877,-0.006170675,0.04391851,-0.4055611,-4.212039,-0.1896666,0.5591463,1.519341,0.3914804,0.03786367,-0.0737057,-0.02095845,-0.77898,0.1299351,-0.05701055,0.6226842,1.55355,0.2270794,0.2632578,1.216133,0.3693556,288.0655,235.0746,15.13875,True
0,2.711109,0.008760168,0.02985987,-0.1190175,-1.327779,-4.607066,-2.946715,0.5607803,1.292527,0.4813168,-1.553045,0.03916014,1.6,2.1,0.02344856,-0.01693399,0.07500555,-0.40352,-4.212925,-0.1881132,0.5595298,1.519457,0.3912716,0.0324569,-0.07692967,-0.02941946,-0.7795498,0.1285325,-0.0561919,0.6228204,1.553485,0.2269835,0.2632844,1.217232,0.3700373,287.6199,234.8096,15.54577,True
0,2.72222,0.002319149,0.04140519,-0.140406,-1.32565,-4.608463,-2.946181,0.5611789,1.292763,0.4813571,-1.552909,0.01202267,1.6,2.1,0.004342899,-0.03078722,0.0868172,-0.4019855,-4.214859,-0.1858362,0.5598789,1.519475,0.3910623,0.01853488,-0.0588534,-0.03465638,-0.7801166,0.1284634,-0.0557618,0.6229417,1.55348,0.2269211,0.2634071,1.218318,0.3705774,287.2303,234.5334,15.90056,True
0,2.733331,0.00333358,0.06590881,-0.1405939,-1.324437,-4.610437,-2.945793,0.5615544,1.292896,0.4813952,-1.553022,-0.01040561,1.6,2.1,0.02213534,-0.02849672,0.0546905,-0.4026156,-4.215472,-0.1861542,0.5601327,1.519451,0.391089,0.02299044,-0.04493894,-0.01342724,-0.7794423,0.1286325,-0.05631387,0.6230313,1.553578,0.2268734,0.2636426,1.219238,0.3709064,286.9927,233.7857,16.71682,True
0,2.744442,-0.002067555,0.1064591,-0.130237,-1.323932,-4.613376,-2.944829,0.5621122,1.292947,0.4815903,-1.552784,0.02191519,2.4,2.8,0.05483356,-0.0262596,0.02028034,-0.4036686,-4.216419,-0.1871797,0.5605097,1.519421,0.3910961,0.03468006,-0.04919274,-0.01673312,-0.7797496,0.1276561,-0.05642413,0.6232704,1.553661,0.2267084,0.2639507,1.219886,0.3710755,286.8827,233.0034,17.4901,True
0,2.755553,-0.002135355,0.1448886,-0.1198719,-1.323557,-4.616548,-2.944057,0.5626483,1.293033,0.4817433,-1.553054,-0.02491115,2.4,2.8,0.07919624,-0.03267176,0.009332858,-0.4038311,-4.217888,-0.1875228,0.5608014,1.519453,0.391073,0.03144263,-0.04281954,-0.01884799,-0.7800409,0.1270597,-0.05602599,0.6234286,1.55365,0.2264998,0.2642661,1.220256,0.3712022,286.8749,232.4301,17.9742,True
0,2.766664,-0.004308619,0.1672911,-0.1157773,-1.322969,-4.619548,-2.943194,0.5631114,1.293168,0.4818726,-1.55276,0.02713343,2.4,2.8,0.1090197,-0.03600602,0.01006889,-0.403675,-4.219326,-0.1885369,0.5611923,1.519671,0.3909371,0.02827846,-0.0502748,-0.01667545,-0.780246,0.1258871,-0.05540999,0.6236018,1.553699,0.2262843,0.2645474,1.220381,0.3714305,286.9102,232.1531,18.12826,True
0,2.777775,-0.005398896,0.1800816,-0.1148047,-1.322267,-4.622272,-2.942442,0.5636573,1.293477,0.4819126,-1.552988,-0.0210946,2.4,2.8,0.1157313,-0.05335715,0.049297,-0.4014422,-4.221187,-0.1882652,0.5616555,1.519877,0.3906813,0.03257611,-0.06411248,-0.01455084,-0.780221,0.1241193,-0.05469121,0.6237589,1.553714,0.2260756,0.2648091,1.220338,0.371908,286.9845,232.1926,18.00641,True
0,2.788886,-0.003254384,0.1693552,-0.125385,-1.320761,-4.624127,-2.942087,0.5641075,1.293849,0.4819789,-1.552896,0.008623986,3.7,4.8,0.09675529,-0.1164712,0.09591201,-0.3980281,-4.229245,-0.181169,0.5621487,1.520144,0.3904848,0.02505958,-0.07372567,-0.02084003,-0.7805715,0.1224359,-0.05336522,0.623898,1.55374,0.2259212,0.2650028,1.220219,0.3726884,287.0938,232.405,17.84037,True
0,2.799997,-8.358434E-05,0.173534,-0.1371385,-1.319232,-4.626629,-2.941552,0.5646251,1.2942,0.4820366,-1.552936,-0.003758075,3.7,4.8,0.08074249,-0.1537734,0.108585,-0.3959897,-4.236197,-0.1749963,0.5625576,1.520347,0.3903992,0.01030374,-0.07263345,-0.004721413,-0.7801011,0.1214476,-0.05228664,0.6239556,1.553737,0.2257783,0.265117,1.22012,0.3737399,287.2403,232.7322,17.70556,True
