loc,t,aDotUA,bDotUA,gDotUA,aUA,bUA,gUA,xUA,yUA,zUA,qE,qDotE,emgA,emgB,aDotSH,bDotSH,gDotSH,aSH,bSH,gSH,xSH,ySH,zSH,aDotUB,bDotUB,gDotUB,aUB,bUB,gUB,xUB,yUB,zUB,xHand,yHand,zHand,aHand,bHand,gHand,enable
1,0,-0.4241661,-0.9644475,-0.3327975,-1.368546,-3.867289,2.898938,0.5234232,1.300144,0.5056701,-1.402664,0.04191965,0.1,9.9,-0.3065882,0.07724851,0.275016,-0.4734696,-3.828884,-0.4089265,0.5190714,1.517658,0.3980823,-0.08348854,0.01863435,-0.007204656,-0.6356092,0.2714181,-0.06635719,0.606095,1.560134,0.2442601,0.4044009,1.062456,0.3072744,319.1268,220.2071,355.2661,True
1,0.01111111,-0.4241661,-0.9644475,-0.3327975,-1.368546,-3.867289,2.898938,0.5234232,1.300144,0.5056701,-1.402609,0.00461669,0.1,9.9,-0.3065882,0.07724851,0.275016,-0.4734696,-3.828884,-0.4089265,0.5190714,1.517658,0.3980823,-0.08348854,0.01863435,-0.007204656,-0.6356092,0.2714181,-0.06635719,0.606095,1.560134,0.2442601,0.4040072,1.062765,0.305676,319.2209,219.2187,355.6471,True
1,0.02222222,-0.4284273,-0.952754,-0.3307385,-1.36765,-3.855844,2.901446,0.5217855,1.300376,0.5049353,-1.407114,-0.4119931,0.1,9.9,-0.2915918,0.07286108,0.285484,-0.4706152,-3.824023,-0.4105718,0.5192835,1.518124,0.3976812,-0.0888727,0.01969524,-0.0124953,-0.636144,0.2721201,-0.06565251,0.6064055,1.56016,0.244103,0.4040562,1.063404,0.3035646,319.1296,218.5272,355.6607,True
1,0.03333334,-0.4422098,-0.9380071,-0.3240256,-1.365702,-3.834076,2.90773,0.5185589,1.300712,0.5033433,-1.3975,0.8822553,0.1,9.9,-0.251202,0.05790201,0.298643,-0.4654476,-3.819122,-0.4112781,0.5196841,1.518741,0.3969657,-0.08680916,0.01221181,-0.02104026,-0.6367506,0.2716836,-0.06356034,0.6068349,1.560111,0.2438333,0.4045043,1.064291,0.3014032,318.6979,218.1081,355.4735,True
1,0.04444445,-0.4626004,-0.9004386,-0.3023288,-1.364026,-3.813254,2.914242,0.5152989,1.301071,0.5016618,-1.395904,0.1380692,0.1,9.9,-0.299124,-0.01076892,0.212564,-0.4619812,-3.819945,-0.4017203,0.5199499,1.519253,0.3962841,-0.07843915,0.0356434,-0.03286316,-0.6380071,0.274514,-0.06418724,0.6073527,1.560008,0.2436454,0.4048879,1.064785,0.2981646,318.7542,216.8887,355.9073,True
1,0.05555556,-0.4679294,-0.8875054,-0.2789713,-1.364093,-3.803145,2.917778,0.5136919,1.301121,0.5009046,-1.401763,-0.5356858,0.4,9,-0.2927751,-0.01290822,0.2092894,-0.4598571,-3.818517,-0.3998742,0.520105,1.519534,0.3960202,-0.09558848,0.07822071,-0.03812286,-0.6387187,0.2788509,-0.0659468,0.6076331,1.55995,0.2437737,0.4053321,1.065354,0.2938017,318.9533,215.3565,356.1757,True
1,0.06666667,-0.470079,-0.8565435,-0.2642583,-1.363799,-3.794008,2.921152,0.5122578,1.301151,0.5001068,-1.402444,-0.05735437,0.4,9,-0.2509614,-0.01646888,0.2365505,-0.4562496,-3.815316,-0.4016755,0.5203075,1.519754,0.395689,-0.1063049,0.08566476,-0.04337765,-0.6396348,0.2809924,-0.06600964,0.6080753,1.559971,0.2438128,0.4060733,1.066605,0.2893187,318.6589,214.3466,355.7867,True
1,0.07777778,-0.4733153,-0.8309056,-0.2537892,-1.363217,-3.785207,2.924767,0.5107738,1.301222,0.4993236,-1.40229,0.01406069,0.4,9,-0.2284961,-0.02625097,0.2501079,-0.452919,-3.813761,-0.4014223,0.5204487,1.520021,0.3954141,-0.1129584,0.08559099,-0.07101357,-0.6415981,0.2823688,-0.0655633,0.608464,1.55991,0.2438076,0.4069802,1.068386,0.2851717,318.0233,213.5907,355.298,True
1,0.08888889,-0.4829941,-0.777507,-0.2306699,-1.363345,-3.77823,2.929372,0.5093588,1.301404,0.4989955,-1.402581,-0.02689229,0.4,9,-0.2168182,-0.04657514,0.2551868,-0.4495895,-3.813716,-0.3994539,0.5205386,1.520139,0.3950388,-0.1226683,0.08556606,-0.08372052,-0.643286,0.2840742,-0.06518433,0.6088822,1.559944,0.2437944,0.4078552,1.07034,0.2814799,317.2809,212.8417,355.0024,True
1,0.1,-0.4958715,-0.7091211,-0.198138,-1.36347,-3.77259,2.934283,0.5080267,1.301358,0.4982805,-1.402387,0.01802994,0.4,9,-0.217109,-0.05066019,0.2285285,-0.4479629,-3.813907,-0.3967955,0.520677,1.520199,0.394825,-0.132257,0.0866186,-0.0836323,-0.6442916,0.2856564,-0.06456301,0.609226,1.559864,0.2437739,0.4085195,1.072158,0.2782795,316.6224,212.0993,354.879,True
1,0.1111111,-0.5141395,-0.6237396,-0.1710114,-1.363425,-3.768635,2.940171,0.5068776,1.301184,0.4975071,-1.401712,0.06153273,2.3,7.6,-0.17588,-0.03783345,0.1919686,-0.4473413,-3.81304,-0.3970976,0.5207143,1.52037,0.3946309,-0.145009,0.111099,-0.07716522,-0.6447918,0.2889243,-0.06513719,0.6095495,1.559652,0.2437456,0.4088525,1.073685,0.275614,316.1563,211.4226,354.8076,True
1,0.1222222,-0.530328,-0.51287,-0.1558292,-1.36248,-3.766523,2.946192,0.5057028,1.30111,0.496511,-1.401624,0.007511079,2.3,7.6,-0.1377254,-0.02185979,0.1650489,-0.4467809,-3.811487,-0.398542,0.5206983,1.520468,0.3944471,-0.1503637,0.1196088,-0.07926237,-0.645848,0.2915935,-0.06545464,0.6099125,1.559537,0.2437568,0.4087552,1.074924,0.2734947,315.8874,210.9648,354.719,True
1,0.1333333,-0.5422044,-0.4351217,-0.1553262,-1.361098,-3.764382,2.952265,0.5045244,1.30109,0.4956558,-1.401054,0.05209009,2.3,7.6,-0.1133847,0.003776982,0.137274,-0.4468065,-3.808682,-0.4007919,0.5206642,1.520562,0.3943648,-0.1525052,0.1185236,-0.08029325,-0.6466805,0.2932581,-0.06498885,0.6103097,1.559436,0.2438478,0.4080878,1.075812,0.2716643,315.7429,210.6951,354.7599,True
1,0.1444445,-0.5647771,-0.334031,-0.1603124,-1.359136,-3.763639,2.959217,0.50337,1.30102,0.4945607,-1.401327,-0.02525936,2.3,7.6,-0.1514888,0.0347901,0.1474463,-0.4455719,-3.803277,-0.402299,0.520653,1.520762,0.3941319,-0.1526394,0.09824303,-0.09729096,-0.6485255,0.2933978,-0.06338057,0.6107589,1.559285,0.2438529,0.4068679,1.076447,0.2699548,315.6965,210.5418,354.914,True
1,0.1555556,-0.5958317,-0.259573,-0.1672206,-1.35698,-3.763352,2.967,0.5022342,1.300974,0.4935555,-1.401395,-0.00585281,2.2,11.3,-0.2074705,0.05291227,0.1864872,-0.4427132,-3.797114,-0.4032795,0.5208086,1.52099,0.3938699,-0.1484666,0.08116814,-0.1100664,-0.6501953,0.2933472,-0.06201277,0.6111169,1.559208,0.2440104,0.4051633,1.077031,0.2682889,315.688,210.3936,355.1547,True
1,0.1666667,-0.6172161,-0.2213887,-0.1802705,-1.354689,-3.7616,2.974173,0.5009648,1.300978,0.4925473,-1.4009,0.04527477,2.2,11.3,-0.2318201,0.06147391,0.1985098,-0.4406498,-3.792575,-0.4037962,0.5210803,1.521137,0.3935368,-0.152805,0.0822057,-0.1185502,-0.6518758,0.2948054,-0.06135284,0.6117898,1.559125,0.2440157,0.4031337,1.077769,0.2666794,315.6253,210.2134,355.4616,True
1,0.1777778,-0.6577417,-0.219604,-0.2143244,-1.351356,-3.758354,2.982465,0.499511,1.300881,0.4913621,-1.40025,0.0591956,2.2,11.3,-0.2581831,0.05394632,0.228559,-0.4372452,-3.788314,-0.4036503,0.5215003,1.521326,0.3932471,-0.1571452,0.08111469,-0.1270294,-0.6536825,0.2960382,-0.06037759,0.6123247,1.559011,0.2440891,0.4007955,1.078743,0.2649929,315.4827,210.0479,355.7927,True
1,0.1888889,-0.6577417,-0.219604,-0.2143244,-1.351356,-3.758354,2.982465,0.499511,1.300881,0.4913621,-1.400663,-0.038094,2.2,11.3,-0.2581831,0.05394632,0.228559,-0.4372452,-3.788314,-0.4036503,0.5215003,1.521326,0.3932471,-0.1571452,0.08111469,-0.1270294,-0.6536825,0.2960382,-0.06037759,0.6123247,1.559011,0.2440891,0.3982654,1.080065,0.2631926,315.2346,209.8751,356.1682,True
1,0.2,-0.7438142,-0.3480358,-0.2644415,-1.34577,-3.744214,2.998494,0.4962981,1.300757,0.4890869,-1.408199,-0.6887112,2.2,11.3,-0.3183499,-0.04053694,0.2221571,-0.43117,-3.793058,-0.3904277,0.5225547,1.521556,0.3928697,-0.1478552,0.08531532,-0.158024,-0.6583536,0.2987987,-0.05973071,0.6135226,1.558809,0.244252,0.3959174,1.081901,0.261449,314.8026,209.6834,356.6041,True
1,0.2111111,-0.775735,-0.3759143,-0.2780451,-1.342964,-3.738359,3.007039,0.4947582,1.30079,0.4880254,-1.390731,1.602932,1,8.3,-0.326314,-0.06902541,0.1858296,-0.4300004,-3.79666,-0.3832398,0.5229471,1.521677,0.3928123,-0.1554763,0.1002032,-0.1729116,-0.6611031,0.3017794,-0.05997093,0.6141969,1.558705,0.2443843,0.3942207,1.083966,0.2600868,313.922,209.3908,357.1463,True
1,0.2222222,-0.8215574,-0.3761947,-0.2992972,-1.339361,-3.73351,3.016616,0.4931954,1.300582,0.4868772,-1.397843,-0.6641654,1,8.3,-0.2879682,-0.1347625,0.1104265,-0.430223,-3.807287,-0.3720641,0.5230289,1.521536,0.3929019,-0.1575668,0.115129,-0.1665388,-0.6628123,0.3046491,-0.06043112,0.6146501,1.558617,0.244494,0.3920272,1.085362,0.2572048,313.8055,208.591,357.8659,True
1,0.2333333,-0.8642986,-0.3221185,-0.3198966,-1.33523,-3.731682,3.027295,0.4916054,1.300474,0.4858017,-1.399477,-0.141785,1,8.3,-0.271304,-0.1345965,0.07297386,-0.4302704,-3.810961,-0.3664092,0.5231971,1.521584,0.3928363,-0.1585669,0.1151515,-0.1590698,-0.6642696,0.3066599,-0.06018664,0.6152193,1.558375,0.2445683,0.3901956,1.087084,0.2536992,313.5657,207.695,358.4045,True
1,0.2444444,-0.9146097,-0.2180096,-0.3408482,-1.33047,-3.732752,3.039635,0.4900779,1.30045,0.4846568,-1.399117,0.03382866,1,8.3,-0.272461,-0.09393196,0.04555137,-0.4309953,-3.809913,-0.3641881,0.5232531,1.521602,0.3927939,-0.1554394,0.114076,-0.1654936,-0.6665248,0.3084747,-0.05988757,0.615837,1.558211,0.2446773,0.3888889,1.08927,0.2499886,313.0476,206.9629,358.6259,True
1,0.2555556,-0.9574694,-0.1106118,-0.3554442,-1.325541,-3.735349,3.052688,0.4883643,1.30055,0.4833276,-1.398994,0.01112719,1,8.3,-0.296663,-0.03523964,0.04831482,-0.4310401,-3.804909,-0.3644118,0.5233874,1.521802,0.3926342,-0.1428034,0.09488727,-0.1836804,-0.6694212,0.308903,-0.05912404,0.616552,1.558235,0.2447989,0.3878405,1.091742,0.246142,312.3498,206.1452,358.7505,True
1,0.2666667,-0.9767927,-0.050063,-0.3707937,-1.320621,-3.736377,3.064543,0.4867163,1.300636,0.482095,-1.398391,0.0553062,0.2,9.6,-0.3187669,-0.01392788,0.06466226,-0.4298832,-3.802161,-0.3624799,0.5236433,1.521959,0.3924108,-0.1343781,0.07251972,-0.1964961,-0.6722074,0.30896,-0.0578902,0.6172346,1.558077,0.2448578,0.3866128,1.094413,0.2422886,311.6395,205.2806,358.7821,True
1,0.2777778,-1.022861,0.05392262,-0.4088075,-1.314176,-3.740415,3.078625,0.4849317,1.300883,0.4805257,-1.398412,-0.002011557,0.2,9.6,-0.3608524,0.005167842,0.1078294,-0.427382,-3.797594,-0.3608229,0.5239822,1.522189,0.3920522,-0.1290146,0.0522887,-0.1954342,-0.6743529,0.3083628,-0.0562156,0.6177986,1.557942,0.244868,0.3847021,1.097257,0.2385021,311.0073,204.4996,358.8184,True
1,0.2888889,-1.036772,0.07512204,-0.4185322,-1.309074,-3.741653,3.091157,0.4831971,1.300977,0.4792118,-1.399654,-0.1131957,0.2,9.6,-0.3964457,0.0166862,0.1647362,-0.4236812,-3.7927,-0.359405,0.5244365,1.522339,0.3916829,-0.1290969,0.0384458,-0.204994,-0.6770959,0.3086621,-0.05483742,0.6182411,1.557828,0.2449348,0.381847,1.100346,0.2348922,310.3894,203.8208,359.087,True
1,0.3,-1.083859,0.1503518,-0.4616465,-1.301811,-3.746234,3.106454,0.481277,1.301307,0.4776208,-1.398684,0.0898612,0.2,9.6,-0.4209414,-0.02807945,0.1860006,-0.4201254,-3.794865,-0.3516965,0.5248592,1.522508,0.3913324,-0.1312461,0.03737273,-0.2071018,-0.679512,0.3090564,-0.05358653,0.6187803,1.557726,0.2449584,0.3781956,1.10372,0.2316503,309.6784,203.1529,359.7288,True
1,0.3111111,-1.114944,0.220376,-0.4908883,-1.29506,-3.751295,3.121415,0.4794187,1.301555,0.4763072,-1.399768,-0.09965754,0.1,8.4,-0.4447368,-0.09719139,0.1825952,-0.4169887,-3.802191,-0.3391208,0.5251446,1.522588,0.3910966,-0.1374847,0.05767888,-0.1868688,-0.681129,0.3118804,-0.05384139,0.6194661,1.557709,0.2449911,0.3737189,1.107338,0.2286863,308.9544,202.5508,0.6128016,True
1,0.3222222,-1.132104,0.2670892,-0.5040022,-1.288944,-3.75599,3.135654,0.4776031,1.301695,0.4749224,-1.398372,0.1287051,0.1,8.4,-0.4588401,-0.116196,0.1666336,-0.4153573,-3.806274,-0.329869,0.5253826,1.522672,0.3909328,-0.1448126,0.06519651,-0.169792,-0.6827216,0.3139337,-0.05324937,0.6200382,1.557604,0.2449756,0.368819,1.111192,0.2260828,308.1423,201.9828,1.707649,True
1,0.3333333,-1.157849,0.3415354,-0.511975,-1.283097,-3.76284,-3.131959,0.4755888,1.302007,0.4735403,-1.399085,-0.06602106,0.1,8.4,-0.4402005,-0.1319756,0.1215888,-0.4152965,-3.811331,-0.3211533,0.5254572,1.522781,0.3908424,-0.1459238,0.06944641,-0.1740528,-0.6848202,0.3152484,-0.05264297,0.6205275,1.557493,0.2449563,0.3634602,1.115199,0.2235859,307.413,201.3893,2.847634,True
1,0.3444445,-1.157849,0.3415354,-0.511975,-1.283097,-3.76284,-3.131959,0.4755888,1.302007,0.4735403,-1.400186,-0.09968971,0.1,8.4,-0.4402005,-0.1319756,0.1215888,-0.4152965,-3.811331,-0.3211533,0.5254572,1.522781,0.3908424,-0.1459238,0.06944641,-0.1740528,-0.6848202,0.3152484,-0.05264297,0.6205275,1.557493,0.2449563,0.3578803,1.119421,0.221266,306.6393,200.8122,4.03125,True
1,0.3555556,-1.17724,0.4373741,-0.508402,-1.272367,-3.776042,-3.101753,0.4718374,1.302697,0.4707277,-1.413091,-1.179214,0.1,8.4,-0.3688193,-0.1333817,0.1229904,-0.4116959,-3.815986,-0.3111582,0.5256985,1.523185,0.3903074,-0.166358,0.07260865,-0.1930607,-0.6901161,0.3183509,-0.05061817,0.6216264,1.557245,0.2447908,0.3527575,1.123931,0.2194205,305.7182,200.4838,5.261394,True
1,0.3666667,-1.18053,0.4789155,-0.5055102,-1.267257,-3.783295,-3.086614,0.4700557,1.303034,0.4693236,-1.387706,2.330807,0,8.5,-0.3622882,-0.1270868,0.1336276,-0.409436,-3.817028,-0.3063914,0.5258631,1.5234,0.389966,-0.1748745,0.06943318,-0.1908666,-0.6924698,0.3196588,-0.04913213,0.6220928,1.557165,0.2447243,0.3489563,1.128155,0.218472,304.361,199.9537,6.513588,True
1,0.3777778,-1.182803,0.5471503,-0.4974886,-1.262605,-3.792887,-3.070662,0.4680157,1.303412,0.4677377,-1.398632,-1.019789,0,8.5,-0.3886476,-0.1292734,0.161581,-0.4061949,-3.818433,-0.2997795,0.5257275,1.523688,0.3895216,-0.1801459,0.07370229,-0.1844345,-0.6942861,0.321058,-0.04805221,0.6224858,1.557088,0.2446113,0.3435439,1.131489,0.2155472,304.3412,199.3954,7.062268,True
1,0.3888889,-1.180842,0.6249744,-0.485298,-1.258251,-3.803318,-3.054426,0.4661303,1.303468,0.4661381,-1.401231,-0.2260376,0,8.5,-0.4437972,-0.1313001,0.1866411,-0.4027142,-3.819778,-0.291365,0.5256262,1.523884,0.3889458,-0.1832705,0.07481322,-0.1769594,-0.6961492,0.3229304,-0.0473558,0.6229005,1.556959,0.2445004,0.3378098,1.135292,0.2123124,304.1674,198.7648,7.828426,True
1,0.4,-1.185286,0.7091783,-0.4720879,-1.254366,-3.814986,-3.037709,0.4642291,1.303669,0.4645226,-1.401459,-0.0198123,0,8.5,-0.4927043,-0.1086915,0.1862242,-0.4006864,-3.819026,-0.2846965,0.5253329,1.524018,0.3883972,-0.1981478,0.07800004,-0.1725648,-0.6979123,0.3243546,-0.04563566,0.6231866,1.556835,0.2442949,0.3323219,1.1397,0.2093348,303.5537,198.2428,8.752372,True
1,0.4111111,-1.18007,0.7625319,-0.4618336,-1.250734,-3.826567,-3.021116,0.4622703,1.303927,0.4629476,-1.401557,-0.008821787,0,6.9,-0.5086215,-0.08194384,0.180173,-0.3990363,-3.817329,-0.2800205,0.5250282,1.524105,0.3878236,-0.207654,0.08549444,-0.1618519,-0.6996167,0.3266599,-0.04458105,0.6235777,1.556597,0.2439466,0.3270299,1.14457,0.2065787,302.6405,197.6468,9.795564,True
1,0.4222222,-1.180194,0.8287327,-0.4420811,-1.248105,-3.839472,-3.004083,0.4602069,1.304254,0.4612963,-1.401564,-0.0006271874,0,6.9,-0.5138978,-0.03920925,0.165592,-0.3982496,-3.813147,-0.2780178,0.5245129,1.524166,0.3872204,-0.217144,0.0855314,-0.1511302,-0.7012263,0.328427,-0.0431219,0.6237322,1.556657,0.2437649,0.3218359,1.1497,0.2040196,301.5853,196.9348,10.93305,True
1,0.4333333,-1.177106,0.8875194,-0.4169505,-1.246092,-3.852595,-2.986905,0.458197,1.304595,0.4596362,-1.401753,-0.01716521,0,6.9,-0.497682,0.03109074,0.1563002,-0.3977974,-3.804635,-0.2810106,0.5237622,1.524211,0.386647,-0.2213106,0.09833637,-0.1394012,-0.7023922,0.3308077,-0.04233654,0.6239071,1.556571,0.2435145,0.3165864,1.154948,0.2016191,300.5742,196.2091,12.05743,True
1,0.4444444,-1.16864,0.917464,-0.4033425,-1.243784,-3.864878,-2.970178,0.4562295,1.304937,0.4579265,-1.40182,-0.006021578,0,6.9,-0.4870133,0.05987394,0.1446622,-0.3970347,-3.799956,-0.2802663,0.5233274,1.524337,0.3860843,-0.2222739,0.1015841,-0.1276972,-0.7036998,0.3331216,-0.04151069,0.6240256,1.556524,0.2432361,0.311183,1.160224,0.199358,299.6556,195.5104,13.16924,True
1,0.4555556,-1.153792,0.955988,-0.3844658,-1.242369,-3.878308,-2.953479,0.4541794,1.305166,0.4560964,-1.401805,0.001528563,0,6.9,-0.4794885,0.08330244,0.1404772,-0.3962086,-3.794281,-0.2804165,0.5226781,1.52445,0.3854334,-0.2286748,0.1090333,-0.1276538,-0.7051923,0.3353269,-0.04037512,0.6240655,1.556482,0.242949,0.3055256,1.1655,0.1972052,298.8064,194.9587,14.20763,True
1,0.4666667,-1.130411,0.9881472,-0.3634141,-1.241437,-3.891627,-2.937367,0.4522473,1.305377,0.4543498,-1.402029,-0.0205194,0,8.6,-0.472005,0.0896579,0.1404366,-0.3949937,-3.790441,-0.278846,0.5220484,1.524471,0.3847249,-0.2349973,0.118659,-0.1191117,-0.7065632,0.3383043,-0.03974715,0.6242418,1.556341,0.2426984,0.2997016,1.170776,0.1952108,297.9802,194.487,15.31098,True
1,0.4777778,-1.116603,1.014943,-0.3455155,-1.240934,-3.905249,-2.920981,0.4502271,1.305576,0.4525402,-1.402458,-0.03914439,0,8.6,-0.4753496,0.07908481,0.1308133,-0.3940072,-3.788564,-0.2750763,0.5213376,1.524564,0.3840272,-0.2454104,0.1197689,-0.09344786,-0.7066671,0.3404116,-0.03817482,0.6241575,1.556304,0.2423995,0.2938476,1.176018,0.1933649,297.1687,193.9472,16.56517,True
1,0.4888889,-1.082625,1.079222,-0.3087212,-1.242169,-3.920717,-2.905148,0.4482988,1.305783,0.4509561,-1.403013,-0.0503836,0,8.6,-0.4871247,0.07383484,0.1277033,-0.3928919,-3.786119,-0.2715106,0.5205237,1.524767,0.3833158,-0.248443,0.1251394,-0.07531689,-0.7068242,0.3429733,-0.03725842,0.6239527,1.556313,0.2420957,0.2880018,1.18119,0.1916236,296.3469,193.4378,17.79105,True
1,0.5,-1.082625,1.079222,-0.3087212,-1.242169,-3.920717,-2.905148,0.4482988,1.305783,0.4509561,-1.402803,0.01954545,0,8.6,-0.4871247,0.07383484,0.1277033,-0.3928919,-3.786119,-0.2715106,0.5205237,1.524767,0.3833158,-0.248443,0.1251394,-0.07531689,-0.7068242,0.3429733,-0.03725842,0.6239527,1.556313,0.2420957,0.2822873,1.186255,0.1900369,295.5253,192.9506,18.97897,True
1,0.5111111,-1.062464,1.104908,-0.288734,-1.242563,-3.934451,-2.88965,0.4465729,1.305794,0.4491558,-1.414272,-1.049163,0,8.6,-0.4966732,0.07492286,0.1310023,-0.3916115,-3.782789,-0.2687137,0.5196971,1.524901,0.3826077,-0.2526211,0.1262183,-0.06675779,-0.7073382,0.3451241,-0.03599182,0.6237589,1.556308,0.2417812,0.2773306,1.191212,0.1889829,294.6749,192.5537,20.28496,True
1,0.5222223,-1.032699,1.153227,-0.2496723,-1.24513,-3.949944,-2.874105,0.4445612,1.306225,0.447577,-1.403929,0.9541523,0,9.3,-0.5094359,0.08244467,0.1301136,-0.3905952,-3.778805,-0.2661529,0.5185797,1.525097,0.3818972,-0.2557999,0.1358382,-0.06249771,-0.708126,0.3484568,-0.03537504,0.6236881,1.556342,0.2413805,0.2745475,1.195432,0.1891922,293.5428,191.4846,22.14542,True
1,0.5333334,-1.017771,1.167272,-0.2295423,-1.246865,-3.96396,-2.859051,0.4424966,1.306499,0.4458704,-1.40187,0.1785177,0,9.3,-0.4966057,0.08555889,0.133195,-0.3893707,-3.775158,-0.2645113,0.5175689,1.52521,0.3811171,-0.2578862,0.1454416,-0.05504092,-0.7085292,0.3515427,-0.03462349,0.6234789,1.556295,0.2410128,0.2713166,1.198659,0.1885557,292.9645,191.201,22.62506,True
1,0.5444446,-0.9953907,1.177121,-0.200875,-1.249536,-3.977705,-2.844688,0.4404862,1.30667,0.4440849,-1.402203,-0.03126064,0,9.3,-0.4807127,0.09942967,0.1182089,-0.3890442,-3.770645,-0.2639922,0.5165563,1.525275,0.3803511,-0.2576793,0.1636341,-0.03059458,-0.7082618,0.3558693,-0.03503761,0.6231731,1.556288,0.2405999,0.2671365,1.201397,0.1870449,292.846,191.364,22.4725,True
1,0.5555557,-0.9687194,1.167702,-0.1859397,-1.251555,-3.990696,-2.830908,0.4385412,1.306824,0.4422443,-1.402237,-0.002489797,0,9.3,-0.4667523,0.1569947,0.1024561,-0.3896434,-3.760718,-0.2685529,0.5153434,1.525328,0.3795853,-0.2565556,0.1679448,-0.02423896,-0.7086639,0.3594475,-0.03498355,0.622836,1.55627,0.2402623,0.2620649,1.204247,0.1851498,292.8513,191.8644,22.0527,True
1,0.5666668,-0.9431331,1.140037,-0.1815503,-1.253041,-4.002536,-2.817563,0.4365596,1.306804,0.4403431,-1.402759,-0.04785793,0,9.3,-0.4578736,0.2112196,0.1123083,-0.3892476,-3.748852,-0.2748025,0.5142415,1.525305,0.3787599,-0.2490126,0.1626458,-0.01577527,-0.7085841,0.3619071,-0.03441416,0.6224294,1.55626,0.2398682,0.2565002,1.207557,0.1833437,292.6794,192.2062,22.09061,True
1,0.577778,-0.9217448,1.11028,-0.1792406,-1.254657,-4.014342,-2.804533,0.4343873,1.306884,0.4385276,-1.403049,-0.02612512,0.4,10.3,-0.4589206,0.229376,0.1060443,-0.389123,-3.740264,-0.2775887,0.5131069,1.525383,0.3779094,-0.2296721,0.1563421,0.002150346,-0.7082581,0.36463,-0.03445278,0.622096,1.556283,0.2393043,0.2508688,1.211462,0.1819281,292.2048,192.3152,22.63532,True
1,0.5888891,-0.889675,1.067764,-0.1768695,-1.256049,-4.025267,-2.792462,0.4321348,1.307117,0.4365532,-1.403005,0.00403282,0.4,10.3,-0.4665255,0.2230963,0.09435903,-0.3891512,-3.734349,-0.2776497,0.512055,1.525419,0.3770921,-0.2179363,0.1489224,0.005235618,-0.7084701,0.3671022,-0.03402428,0.6217428,1.556325,0.2388718,0.2454398,1.215882,0.1809424,291.48,192.0026,23.76414,True
1,0.6000003,-0.8341517,1.016822,-0.168032,-1.257878,-4.035215,-2.782074,0.4297689,1.307294,0.4345341,-1.403154,-0.01380493,0.4,10.3,-0.4976852,0.1689212,0.09325306,-0.3882431,-3.733604,-0.271794,0.5108842,1.525428,0.3762426,-0.2093506,0.1457504,0.01155423,-0.7081755,0.3694026,-0.03376755,0.6212944,1.556345,0.2384229,0.2402701,1.220622,0.1802073,290.6232,191.2532,25.32526,True
1,0.6111114,-0.8074378,0.9838893,-0.1635514,-1.25981,-4.045556,-2.770791,0.4276093,1.307569,0.4327471,-1.403686,-0.04858192,0.4,10.3,-0.5042292,0.119899,0.1015199,-0.3868146,-3.733043,-0.2664985,0.5097152,1.525498,0.3754308,-0.2040096,0.1436794,0.01467948,-0.708338,0.3726194,-0.03382135,0.6207635,1.55635,0.2378891,0.2352606,1.225504,0.1795101,289.7552,190.3081,26.98276,True
1,0.6222225,-0.7775115,0.9435021,-0.1600914,-1.261644,-4.055169,-2.760172,0.4253646,1.307734,0.4308736,-1.404877,-0.1086964,0.2,9.2,-0.515232,0.04644597,0.1011514,-0.3851602,-3.737515,-0.2561689,0.5084852,1.525421,0.3745675,-0.216832,0.160705,0.01263162,-0.7083651,0.3762726,-0.0337023,0.6201631,1.556317,0.2374268,0.2303596,1.23035,0.1786796,288.925,189.2568,28.69103,True
1,0.6333337,-0.7593571,0.9232372,-0.16852,-1.263052,-4.065594,-2.748955,0.42316,1.307798,0.4290228,-1.403927,0.08763497,0.2,9.2,-0.5316448,0.009409428,0.07550172,-0.3849855,-3.739963,-0.2474191,0.5070753,1.525277,0.3736513,-0.2210423,0.1830796,0.02115178,-0.7078165,0.3804385,-0.03419099,0.6191888,1.556088,0.2369125,0.2256666,1.234938,0.17772,288.1207,188.0882,30.43377,True
1,0.6444448,-0.7422861,0.9159698,-0.1482631,-1.265911,-4.075789,-2.73796,0.4210386,1.307699,0.4272392,-1.403958,-0.003900617,0.2,9.2,-0.5342579,0.006526768,0.02970137,-0.3861003,-3.740591,-0.2407242,0.5054969,1.525189,0.3727772,-0.2325601,0.2086871,0.04570642,-0.7065707,0.3854815,-0.03503362,0.6185015,1.556096,0.2364988,0.2212431,1.239148,0.1766934,287.4361,187.0049,31.9888,True
1,0.655556,-0.7305681,0.92573,-0.1291724,-1.269402,-4.086522,-2.726933,0.4188457,1.30769,0.4256465,-1.403383,0.05250199,0.2,9.2,-0.5206174,0.02903098,-0.00117965,-0.3873158,-3.73823,-0.2375529,0.5038444,1.525141,0.3719182,-0.237651,0.2299941,0.07343792,-0.7044296,0.3895434,-0.03541365,0.6173875,1.555788,0.2360377,0.2170194,1.242918,0.1755734,286.8662,185.8933,33.48183,True
1,0.6666671,-0.6997049,0.9494642,-0.09742302,-1.274006,-4.097533,-2.716858,0.4167645,1.307678,0.4240005,-1.403258,0.01076961,0,6.2,-0.4809745,0.1024271,-0.01281828,-0.3887288,-3.728905,-0.2421474,0.5020218,1.525172,0.3709764,-0.261002,0.2491108,0.08216204,-0.703033,0.3938679,-0.03547597,0.6164477,1.555973,0.2356462,0.2128989,1.246269,0.1744132,286.416,184.9011,34.76075,True
1,0.6777782,-0.6485921,0.9786108,-0.06253725,-1.279201,-4.1087,-2.70822,0.4146987,1.307925,0.4224873,-1.403196,0.005652524,0,6.2,-0.4176612,0.2054808,-0.01811741,-0.3904855,-3.715126,-0.2527303,0.5001829,1.525229,0.3699999,-0.2823509,0.2522721,0.07809414,-0.7023986,0.3984032,-0.03508369,0.615685,1.555993,0.2351799,0.2088452,1.2493,0.173316,286.0117,184.3394,35.5621,True
1,0.6888894,-0.5899588,0.9756967,-0.04339176,-1.283712,-4.118755,-2.700797,0.4125652,1.308166,0.4209361,-1.404004,-0.07408342,0,6.2,-0.4047401,0.2299132,-0.01915225,-0.3914181,-3.707927,-0.2556741,0.4985633,1.525118,0.368922,-0.2866797,0.2447377,0.06752025,-0.7017845,0.401226,-0.03438088,0.6150905,1.55609,0.234622,0.2047658,1.252172,0.1723649,285.6517,184.2035,35.93132,True
1,0.7000005,-0.5334049,0.9375092,-0.03890675,-1.287417,-4.127587,-2.694193,0.4103632,1.30827,0.4192328,-1.405263,-0.1146332,0,6.2,-0.4447947,0.2415842,0.01755423,-0.3908892,-3.699119,-0.2575724,0.4967636,1.52517,0.3677435,-0.2898721,0.2255538,0.06546238,-0.7012375,0.404176,-0.0333244,0.614236,1.556098,0.2340422,0.2006319,1.255032,0.1716486,285.2854,184.3765,36.05761,True
1,0.7111117,-0.5013627,0.9024307,-0.03974879,-1.290802,-4.136224,-2.687082,0.4080843,1.308342,0.4177232,-1.405858,-0.05369329,0,6.2,-0.4953733,0.2542884,0.06611148,-0.3892146,-3.689393,-0.2593376,0.4949933,1.525209,0.3666279,-0.2886832,0.2191593,0.07615432,-0.6996987,0.4072977,-0.0327931,0.6135998,1.556066,0.2335548,0.1964497,1.257956,0.1712518,284.8785,184.5349,36.28986,True
1,0.7222228,-0.4713732,0.8321767,-0.04139695,-1.293402,-4.142923,-2.681006,0.4056447,1.308271,0.4161208,-1.405884,-0.002421318,0,6.3,-0.5397853,0.2478767,0.1016791,-0.387508,-3.681068,-0.2593751,0.4931076,1.525132,0.3655052,-0.2841167,0.2160398,0.1080786,-0.6974915,0.4110516,-0.0326381,0.6127156,1.556076,0.2330065,0.192214,1.260884,0.1711135,284.4011,184.2869,37.06941,True
1,0.7333339,-0.4605809,0.753469,-0.0343318,-1.297158,-4.149066,-2.673685,0.4030795,1.30847,0.4151559,-1.40484,0.09507887,0,6.3,-0.536817,0.2340969,0.08663688,-0.3877158,-3.675901,-0.2583234,0.4910933,1.524982,0.364357,-0.2817931,0.2235078,0.1282874,-0.695476,0.414767,-0.03261573,0.6119632,1.556332,0.2324414,0.1879497,1.263676,0.1710969,283.8858,183.6209,38.33927,True
1,0.7444451,-0.4519163,0.6927838,-0.03176948,-1.299488,-4.154384,-2.667496,0.4006478,1.308477,0.4136419,-1.404815,0.001196072,0,6.3,-0.5106621,0.2535134,0.03110377,-0.3900775,-3.66792,-0.2608052,0.4891958,1.524806,0.3632557,-0.2806673,0.2395075,0.1367638,-0.6937566,0.419927,-0.03346928,0.6110992,1.556381,0.2319405,0.1836787,1.266244,0.1710925,283.403,182.9021,39.64721,True
1,0.7555562,-0.4314771,0.6023592,-0.02472064,-1.301595,-4.158244,-2.661946,0.398376,1.308732,0.4120805,-1.403111,0.1556438,0,6.3,-0.4661474,0.2748271,-0.001173889,-0.3921595,-3.65878,-0.2654431,0.4872998,1.524636,0.3619742,-0.2626871,0.2490623,0.1248741,-0.6926994,0.4243755,-0.03449886,0.610379,1.556349,0.2313719,0.1795203,1.268509,0.1710152,282.995,182.3137,40.73078,True
1,0.7666674,-0.4090815,0.5821481,-0.03312057,-1.304042,-4.164659,-2.656017,0.3962697,1.308725,0.410574,-1.403602,-0.0463483,0,6.3,-0.4373872,0.2896508,-0.00775864,-0.3932679,-3.649462,-0.2699244,0.4855223,1.524575,0.3608434,-0.2640835,0.2564425,0.0907893,-0.6928608,0.4292579,-0.03528928,0.6095664,1.556431,0.2308991,0.1755393,1.270564,0.1708274,282.681,182.4029,41.04367,True
1,0.7777785,-0.3676171,0.6076453,-0.05572307,-1.30638,-4.172266,-2.651234,0.3943216,1.308776,0.4090199,-1.403726,-0.01095551,0,6.4,-0.4199268,0.2903715,0.03255277,-0.3925563,-3.63993,-0.2746683,0.4838493,1.524527,0.3597109,-0.2824259,0.2627343,0.06645779,-0.6928336,0.433753,-0.03505998,0.6085915,1.556397,0.2304866,0.1718056,1.272462,0.170373,282.4279,182.475,41.43444,True
1,0.7888896,-0.349592,0.6396258,-0.06128293,-1.309844,-4.18043,-2.645505,0.3921835,1.308898,0.4074006,-1.40381,-0.007790736,0,6.4,-0.4260616,0.2923762,0.05712771,-0.392224,-3.630472,-0.2782774,0.4821295,1.524523,0.3586447,-0.2835141,0.2691451,0.05903615,-0.6924725,0.4388567,-0.0358046,0.6075883,1.556493,0.2300439,0.1684679,1.274249,0.1696019,282.2327,182.3998,41.87907,True
1,0.8000008,-0.3198575,0.6823191,-0.05949706,-1.313608,-4.188971,-2.640765,0.390133,1.308916,0.4059968,-1.405001,-0.1089604,0,6.4,-0.4237816,0.266626,0.08357068,-0.3910937,-3.623728,-0.2798689,0.4806089,1.524449,0.3576124,-0.2570393,0.2637769,0.04705391,-0.6921976,0.4429652,-0.03704217,0.6066812,1.556556,0.229543,0.165423,1.275982,0.1686088,282.0506,181.9261,42.48745,True
1,0.8111119,-0.2751559,0.7049732,-0.03732309,-1.318255,-4.196686,-2.636849,0.3879069,1.308976,0.4046662,-1.404008,0.09137492,0,6.4,-0.4091543,0.195147,0.08935364,-0.3899049,-3.622892,-0.2764111,0.4791533,1.524313,0.3565731,-0.2380838,0.2456217,0.02135726,-0.6926962,0.4461418,-0.03740143,0.6057389,1.556474,0.2289691,0.1624709,1.277696,0.1675826,281.8549,181.126,43.25252,True
1,0.8222231,-0.231342,0.6486743,-0.02843839,-1.320766,-4.20152,-2.634534,0.3856812,1.309072,0.4032168,-1.40464,-0.0587797,0,4.7,-0.407547,0.1099925,0.07706209,-0.3890133,-3.626846,-0.2682719,0.4776993,1.524221,0.3555908,-0.2348987,0.2381639,0.01921291,-0.6926237,0.4499227,-0.03779638,0.6047652,1.556434,0.2284303,0.1593017,1.279475,0.1666349,281.6271,180.5774,43.74456,True
1,0.8333342,-0.1917294,0.5646248,-0.02575329,-1.322059,-4.204684,-2.632926,0.3836116,1.308747,0.4017134,-1.404986,-0.03122431,0,4.7,-0.4255084,-0.04213256,0.05707419,-0.3876886,-3.641246,-0.2495385,0.4760122,1.524172,0.3546245,-0.2411465,0.2413905,0.03417806,-0.6918301,0.454513,-0.03846323,0.6037546,1.55635,0.2277868,0.1559159,1.281307,0.1660151,281.3381,180.0454,44.31828,True
1,0.8444453,-0.2149777,0.4804064,-0.0261804,-1.323126,-4.207348,-2.62901,0.381934,1.30835,0.4003665,-1.405498,-0.04691146,0,4.7,-0.4399002,-0.1314779,0.04598136,-0.3865163,-3.651714,-0.2342343,0.4741519,1.524023,0.353632,-0.2589539,0.2563579,0.06841555,-0.6899787,0.4599763,-0.03918708,0.602512,1.556442,0.2271826,0.1523323,1.283121,0.1657789,280.9612,179.6288,45.02359,True
1,0.8555565,-0.2362891,0.4813912,-0.03042844,-1.325385,-4.212506,-2.624451,0.3802239,1.308187,0.3990941,-1.405421,0.007120436,0,4.7,-0.4240173,-0.1218746,0.03203259,-0.386414,-3.654496,-0.2275133,0.4723743,1.523892,0.3525946,-0.2683972,0.264899,0.08446828,-0.6886455,0.4650435,-0.03986619,0.6013998,1.556448,0.2266359,0.1488177,1.284691,0.1658081,280.573,178.7179,46.52114,True
1,0.8666676,-0.2341634,0.4889202,-0.02196613,-1.328335,-4.217811,-2.62065,0.3784546,1.308025,0.3980088,-1.402636,0.2543056,0,4.7,-0.3252626,0.03638199,0.03312581,-0.3874447,-3.639158,-0.2413583,0.4704331,1.523602,0.3514371,-0.2597578,0.2638731,0.09717417,-0.6872473,0.4697347,-0.04084277,0.600215,1.556501,0.2260547,0.1456769,1.285734,0.1659205,280.2172,177.4613,48.45733,True
1,0.8777788,-0.2171292,0.4996968,-0.01034537,-1.331525,-4.222967,-2.617566,0.3766735,1.307923,0.3968477,-1.402128,0.04408305,0.8,11.2,-0.2811868,0.1374269,0.02587912,-0.3886058,-3.626503,-0.2514082,0.4686018,1.52344,0.3502398,-0.2479885,0.2564315,0.1013326,-0.686206,0.473678,-0.04162015,0.5991098,1.556448,0.225456,0.142932,1.286284,0.1658573,280.0255,177.4309,48.99591,True
1,0.8888899,-0.1851213,0.4988755,0.01199767,-1.335038,-4.227471,-2.615782,0.3748304,1.307892,0.3958256,-1.40283,-0.06430885,0.8,11.2,-0.2444434,0.2608524,0.02205798,-0.3901504,-3.609073,-0.2657579,0.4668726,1.523203,0.3491893,-0.2277622,0.2457972,0.09797446,-0.6852809,0.4774068,-0.04277143,0.5980043,1.556455,0.2248483,0.1403037,1.286655,0.1655079,280.0004,178.5908,48.03291,True
1,0.900001,-0.1510335,0.5075899,0.0278759,-1.338722,-4.232267,-2.614175,0.3730678,1.307843,0.3946717,-1.403477,-0.05860206,0.8,11.2,-0.2398081,0.3332497,0.02567935,-0.3914314,-3.593106,-0.2780652,0.4652813,1.523069,0.3480687,-0.2193646,0.2393841,0.08405852,-0.6849975,0.4812462,-0.04356718,0.5968902,1.556565,0.2243137,0.1376832,1.287087,0.1649915,279.9973,179.9277,46.72788,True
1,0.9111122,-0.1307604,0.4991253,0.02897486,-1.341537,-4.236798,-2.612402,0.3712511,1.307904,0.3935316,-1.404477,-0.09114382,0.8,11.2,-0.241914,0.3364485,0.02785644,-0.3919811,-3.583897,-0.283531,0.463785,1.523158,0.3470709,-0.20765,0.2180799,0.08079852,-0.6842433,0.483785,-0.04361246,0.5958863,1.556551,0.2236352,0.1350355,1.287705,0.164421,279.9272,180.8733,45.81229,True
1,0.9222233,-0.1029751,0.4554481,0.02074154,-1.343251,-4.239923,-2.611592,0.3694871,1.307914,0.3923516,-1.404534,-0.004701472,3.8,64.3,-0.2453761,0.2639768,0.03487628,-0.3914452,-3.582499,-0.2820096,0.4624189,1.523104,0.3460567,-0.1959506,0.2010407,0.07646371,-0.6836212,0.4863721,-0.04386999,0.5948064,1.556558,0.2229943,0.1324186,1.288498,0.1639229,279.7461,181.2128,45.55444,True
1,0.9333345,-0.1017825,0.3870866,-0.004331946,-1.343349,-4.242112,-2.609983,0.3678066,1.30788,0.391377,-1.403992,0.04925408,3.8,64.3,-0.2651041,0.1404676,0.03852792,-0.3901797,-3.589203,-0.2720369,0.4608917,1.522968,0.3450761,-0.1907843,0.1924883,0.05831834,-0.6837858,0.4893841,-0.04425908,0.593707,1.556557,0.2223301,0.1298074,1.289402,0.1635293,279.4943,181.1218,45.8077,True
1,0.9444456,-0.1123376,0.3358289,-0.01779473,-1.343719,-4.244102,-2.607917,0.3661293,1.307832,0.3902311,-1.404289,-0.02778488,3.8,64.3,-0.295284,0.03619316,0.04802409,-0.3889131,-3.594023,-0.2635712,0.4593928,1.522912,0.3440967,-0.1970882,0.1914364,0.06797086,-0.6827471,0.4928047,-0.04446201,0.5925803,1.556582,0.2216995,0.1271902,1.29035,0.1632262,279.2609,180.7294,46.43845,True
1,0.9555568,-0.1196814,0.270635,-0.04393658,-1.342968,-4.245455,-2.605978,0.3644264,1.307825,0.3893061,-1.403083,0.1104495,3.8,64.3,-0.2997212,0.005264282,0.0497227,-0.3876764,-3.597986,-0.2560315,0.457764,1.522971,0.3431509,-0.202426,0.1935662,0.06694532,-0.6822044,0.4965397,-0.04495176,0.5914449,1.556563,0.2212632,0.1247253,1.291187,0.1629988,279.0599,179.8358,47.62983,True
1,0.9666679,-0.1100065,0.2312086,-0.04898121,-1.343076,-4.246963,-2.604841,0.3627809,1.307884,0.3882482,-1.402289,0.07144894,7.4,100,-0.2762554,0.02971023,0.04218879,-0.3878399,-3.594061,-0.2573743,0.4560993,1.522939,0.3420465,-0.2076949,0.1978375,0.0744454,-0.6812227,0.5003808,-0.04534298,0.590197,1.556689,0.2206824,0.1224682,1.291823,0.1627556,278.9426,178.96,48.78248,True
1,0.977779,-0.07799512,0.2143053,-0.03929517,-1.344031,-4.248614,-2.604804,0.3610808,1.307973,0.3872826,-1.402143,0.01288224,7.4,100,-0.2430955,0.09571421,0.02523566,-0.3890388,-3.585696,-0.2636135,0.4544972,1.522873,0.3409779,-0.2034273,0.1957124,0.07547735,-0.6804147,0.5036767,-0.04575151,0.5891166,1.55678,0.2200491,0.1203364,1.292297,0.1623465,278.8843,178.5485,49.41619,True
1,0.9888902,-0.04596643,0.1835142,-0.03591228,-1.344368,-4.249834,-2.605057,0.3594854,1.307925,0.3862224,-1.402429,-0.02702346,7.4,100,-0.2182596,0.158418,0.03071897,-0.3894873,-3.575546,-0.2711652,0.4529018,1.522743,0.3398814,-0.1950142,0.1967652,0.06474318,-0.6801841,0.5072211,-0.04659839,0.5880557,1.55679,0.2194777,0.1183415,1.292633,0.161744,278.8967,178.3209,49.7626,True
1,1.000001,-0.03950634,0.1569598,-0.027203,-1.344792,-4.250631,-2.604649,0.3579325,1.307798,0.3853405,-1.402543,-0.01127324,7.4,100,-0.212961,0.1594794,0.02747584,-0.3898234,-3.570683,-0.2734907,0.4513734,1.522668,0.33882,-0.1951659,0.1988643,0.04875831,-0.6803434,0.5108793,-0.04729295,0.5869625,1.556686,0.2187452,0.1164299,1.292853,0.1609602,278.8967,178.3326,49.76966,True
1,1.011112,-0.0490158,0.1196723,-0.02372307,-1.344726,-4.250807,-2.6036,0.356477,1.307705,0.3845341,-1.401102,0.1302733,7.4,100,-0.213955,0.1530195,0.03810148,-0.3893435,-3.566881,-0.2744449,0.4498968,1.522646,0.3378701,-0.1941614,0.1903293,0.04131228,-0.6801863,0.5138976,-0.04750627,0.5858471,1.556695,0.2180519,0.114576,1.292885,0.1600916,278.8373,178.2092,49.86317,True
1,1.022224,-0.05322863,0.09620374,-0.02674321,-1.344527,-4.251254,-2.60277,0.3550073,1.307592,0.3836181,-1.39797,0.2830413,7.4,100,-0.2064375,0.1497406,0.04546114,-0.3890005,-3.562397,-0.2765746,0.4484783,1.522493,0.3368776,-0.1908795,0.1786318,0.04876457,-0.6794661,0.5164695,-0.04749934,0.5847146,1.556719,0.2173688,0.1127976,1.292579,0.1592117,278.7763,177.8334,50.21804,True
1,1.033335,-0.05106155,0.08025518,-0.02341212,-1.344924,-4.25166,-2.602202,0.3534451,1.307496,0.3829803,-1.394127,0.3464621,11.3,92.2,-0.1980109,0.1465538,0.03789552,-0.3893158,-3.558389,-0.2783115,0.4469866,1.52237,0.3358569,-0.1822197,0.1680202,0.06147833,-0.6784925,0.5189632,-0.04774595,0.5834842,1.556709,0.2166314,0.1110872,1.29186,0.1583715,278.7673,177.9312,50.08811,True
1,1.044446,-0.04572345,0.07818291,-0.01701087,-1.345367,-4.252336,-2.601723,0.3519481,1.307356,0.3820302,-1.390728,0.3050044,11.3,92.2,-0.1878063,0.1329034,0.0004163608,-0.3908445,-3.556661,-0.2781475,0.4455962,1.522157,0.3349252,-0.1648905,0.1563882,0.09010575,-0.6766128,0.5213078,-0.04826473,0.5822526,1.556757,0.2159481,0.1093941,1.29076,0.1575513,278.852,178.8586,49.14396,True
1,1.055557,-0.02766143,0.09640888,-0.006496582,-1.346774,-4.253691,-2.601527,0.350398,1.30721,0.3811407,-1.386692,0.3629934,11.3,92.2,-0.1817107,0.1202348,-0.02210475,-0.3921073,-3.555041,-0.277666,0.4440503,1.521991,0.3340852,-0.1519993,0.1585603,0.1016891,-0.6752988,0.5243574,-0.04935104,0.5810984,1.556775,0.2153199,0.1076267,1.289349,0.1567438,279.0117,180.2818,47.67647,True
1,1.066668,-0.005344981,0.1295918,0.008154519,-1.348677,-4.255695,-2.60184,0.3489261,1.307135,0.380095,-1.381741,0.4455597,11.3,92.2,-0.173257,0.1063403,-0.02120548,-0.3922676,-3.553054,-0.2776574,0.4427372,1.52203,0.3331311,-0.1468243,0.1617271,0.08565518,-0.6749846,0.527446,-0.0503468,0.5800877,1.556746,0.2146881,0.1057317,1.287682,0.1560157,279.1736,182.0796,45.82135,True
1,1.077779,0.01804712,0.1488761,0.01652185,-1.350365,-4.257376,-2.602328,0.3476646,1.307198,0.3793066,-1.376337,0.4858965,10.8,75.5,-0.161617,0.08282942,-0.01828124,-0.3924003,-3.552937,-0.2763909,0.4413943,1.522001,0.332191,-0.1458891,0.153175,0.07074247,-0.674926,0.5297219,-0.05048554,0.5790376,1.556884,0.2140505,0.1036307,1.285801,0.1553528,279.3252,184.1551,43.75979,True
1,1.08889,0.02974123,0.153202,0.02076068,-1.351915,-4.258745,-2.602477,0.346391,1.306963,0.3782275,-1.370412,0.5326087,10.8,75.5,-0.1636546,0.06567702,-0.0002651308,-0.3919001,-3.552015,-0.2751557,0.4399689,1.5218,0.3311341,-0.1513897,0.1456681,0.05163344,-0.6750938,0.5318747,-0.05023361,0.5779099,1.556907,0.2134025,0.1013042,1.283735,0.1548062,279.464,186.5935,41.38341,True
1,1.100002,-0.01709587,0.1371184,0.02092955,-1.352633,-4.259476,-2.600644,0.345314,1.306674,0.3773744,-1.363151,0.6537899,10.8,75.5,-0.1750877,0.0730283,0.02440278,-0.3911049,-3.548572,-0.2759799,0.4385646,1.521667,0.3301623,-0.1534894,0.1499359,0.05590098,-0.6744456,0.5348929,-0.05072683,0.576794,1.556953,0.2127857,0.09884799,1.281472,0.154459,279.6163,189.3575,38.75695,True
1,1.111113,-0.1086932,0.1274676,0.03924851,-1.354629,-4.259858,-2.596042,0.3441057,1.306361,0.3764434,-1.354644,0.7662995,10.8,75.5,-0.169663,0.09430666,0.02555053,-0.3914032,-3.543586,-0.2787105,0.437104,1.521481,0.3292398,-0.1415981,0.1553211,0.07495251,-0.673,0.5381511,-0.05207252,0.5755504,1.556886,0.2121356,0.09643927,1.278966,0.1543798,279.8008,192.1593,36.18579,True
1,1.122224,-0.1182435,0.1157977,0.04893189,-1.355837,-4.260175,-2.594303,0.3428728,1.306079,0.3754814,-1.343894,0.9701597,7.4,65.6,-0.1590552,0.1242029,0.007526068,-0.3926128,-3.537865,-0.2826362,0.4357123,1.521306,0.3282599,-0.1339628,0.1543093,0.09406306,-0.6713696,0.5410185,-0.05302087,0.5743835,1.556951,0.2115102,0.09409447,1.276171,0.1544386,279.9884,194.7843,33.89877,True
1,1.133335,-0.0297307,0.08092695,0.06080334,-1.356677,-4.259322,-2.597287,0.3414612,1.305867,0.3743412,-1.331866,1.085093,7.4,65.6,-0.1624001,0.1456837,-0.01680582,-0.3942879,-3.532802,-0.2853897,0.434344,1.521203,0.3273218,-0.1253884,0.146873,0.09932587,-0.6702047,0.5432902,-0.05357694,0.5733218,1.556973,0.2108963,0.09186386,1.27314,0.1544954,280.2791,197.6517,31.36794,True
1,1.144446,0.07792351,0.05566229,0.06834649,-1.357804,-4.258587,-2.602047,0.3402408,1.305548,0.3731198,-1.325084,0.604458,7.4,65.6,-0.1680505,0.1459107,-0.04763259,-0.396117,-3.529854,-0.2859108,0.4330459,1.520964,0.3264024,-0.126515,0.1489873,0.0929389,-0.6694963,0.5461256,-0.05440519,0.5723373,1.55692,0.2103071,0.08958847,1.270157,0.154284,280.7001,201.1248,28.20055,True
1,1.155557,0.1141418,0.06437356,0.08315566,-1.359478,-4.258717,-2.604498,0.3392065,1.305206,0.3720417,-1.319878,0.4640699,7.4,65.6,-0.1779137,0.1247614,-0.06471467,-0.3974571,-3.52904,-0.2843729,0.4317596,1.520742,0.3254826,-0.1244304,0.1521737,0.08865004,-0.6687895,0.5489879,-0.05531039,0.5713005,1.556946,0.209599,0.08742972,1.267296,0.153788,281.1043,203.7093,25.85604,True
1,1.166668,0.1236999,0.08150799,0.09260742,-1.361407,-4.259394,-2.605744,0.3381046,1.304842,0.3709874,-1.311309,0.771863,7.4,65.6,-0.189749,0.1088669,-0.06896154,-0.3985021,-3.528002,-0.2828381,0.4304574,1.520508,0.3245366,-0.1275592,0.1639069,0.09717696,-0.6675613,0.5526333,-0.05666967,0.5702969,1.556965,0.2090168,0.08559638,1.26428,0.153093,281.3123,205.1539,24.55168,True
1,1.17778,0.1129998,0.1125156,0.1115713,-1.364203,-4.260446,-2.606457,0.3373185,1.304242,0.3700721,-1.298033,1.199047,6.9,62.2,-0.1758235,0.1440104,-0.07739941,-0.4003882,-3.522177,-0.2866733,0.4291576,1.520165,0.3236024,-0.1328421,0.1703064,0.1025295,-0.6664683,0.5561665,-0.05779992,0.5692415,1.556858,0.2083693,0.0841735,1.26071,0.1523238,281.4193,206.3251,23.38619,True
1,1.188891,0.09917213,0.1103894,0.1158672,-1.365991,-4.260742,-2.607066,0.3364675,1.303836,0.3690903,-1.28529,1.147046,6.9,62.2,-0.1587046,0.1780793,-0.08481861,-0.4025421,-3.515196,-0.2917868,0.4278542,1.519909,0.3227415,-0.1318326,0.180951,0.09823488,-0.6656896,0.5601091,-0.05945321,0.568305,1.556812,0.2077701,0.08291075,1.256461,0.151513,281.7365,208.2335,21.35927,True
1,1.200002,0.08743975,0.1189161,0.1200805,-1.368095,-4.261373,-2.607508,0.3357615,1.30336,0.3681192,-1.273374,1.072198,6.9,62.2,-0.1427104,0.2068438,-0.096513,-0.4049251,-3.508316,-0.2970959,0.4266763,1.519624,0.3218739,-0.1169196,0.1703169,0.09598745,-0.6648358,0.5627534,-0.06082793,0.5673305,1.556833,0.2072356,0.08158536,1.251656,0.1507248,282.3529,210.7909,18.64706,True
1,1.211113,0.06076499,0.1423,0.1199439,-1.370416,-4.262801,-2.607258,0.3349601,1.302837,0.3671837,-1.261872,1.035252,6.9,62.2,-0.1480191,0.1790803,-0.08172633,-0.4056468,-3.506021,-0.2972516,0.4253498,1.519353,0.3210125,-0.1043006,0.1649667,0.07776757,-0.6647223,0.5654241,-0.06220132,0.5661895,1.556844,0.206625,0.08024803,1.246501,0.1501072,283.1776,213.6815,15.69183,True
1,1.222224,0.02556868,0.1624849,0.1230348,-1.372966,-4.264217,-2.606076,0.3342594,1.302336,0.3662446,-1.250631,1.011649,6.9,62.2,-0.1428502,0.1385548,-0.07884695,-0.4064431,-3.506159,-0.2957049,0.4241197,1.519155,0.3201962,-0.1041514,0.1692652,0.09374179,-0.6632203,0.5689453,-0.06383517,0.565033,1.556906,0.2060282,0.07889406,1.241254,0.1496482,284.1396,216.3243,13.10832,True
1,1.233335,0.01170402,0.1785343,0.1367871,-1.376021,-4.265382,-2.605519,0.3332705,1.301889,0.3653157,-1.239033,1.044572,6.9,67.1,-0.1252043,0.07892799,-0.09645636,-0.4076708,-3.510143,-0.2911261,0.4229297,1.519036,0.3194294,-0.1094198,0.1692717,0.1001803,-0.6620208,0.5721381,-0.06489991,0.5640107,1.556828,0.2054086,0.07755262,1.236139,0.1493528,285.0875,218.6049,10.93808,True
1,1.244446,0.09058388,0.1606984,0.1496024,-1.378391,-4.265432,-2.609204,0.3323641,1.30153,0.364367,-1.227062,1.078285,6.9,67.1,-0.1201751,0.05344692,-0.1137235,-0.4094541,-3.511904,-0.2882608,0.4216684,1.51884,0.3186328,-0.1029658,0.1586395,0.1054727,-0.6607233,0.5747043,-0.06596331,0.5630105,1.556901,0.2047637,0.07613953,1.231351,0.1492016,285.9427,220.6254,9.046084,True
1,1.255558,0.1652793,0.105478,0.1509817,-1.379532,-4.263947,-2.613925,0.3316312,1.301189,0.3634648,-1.216746,0.9269912,6.9,67.1,-0.1300131,0.04189849,-0.1328751,-0.4114909,-3.513088,-0.285387,0.4205379,1.518661,0.3177299,-0.09444039,0.1447997,0.1043531,-0.6597704,0.5766795,-0.06670446,0.562053,1.556924,0.2041805,0.07463147,1.22706,0.1491469,286.7034,222.498,7.354057,True
1,1.266669,0.1749188,0.08525471,0.148987,-1.381074,-4.263575,-2.616207,0.3309251,1.300796,0.3625727,-1.21005,0.5973061,6.9,67.1,-0.1365108,0.05054063,-0.1466044,-0.4137402,-3.51232,-0.2842778,0.4192688,1.518449,0.3168802,-0.1029756,0.1319986,0.1012702,-0.6587611,0.5784908,-0.06670926,0.5611415,1.556927,0.2035434,0.07304259,1.223335,0.1491129,287.306,224.1534,5.946745,True
1,1.27778,0.1556361,0.1245036,0.1316795,-1.383155,-4.265389,-2.616992,0.3306167,1.300224,0.361737,-1.20027,0.8820001,7,57.8,-0.1273923,0.1526903,-0.1343125,-0.4162585,-3.501156,-0.2933118,0.4181109,1.518108,0.3159811,-0.106181,0.1362537,0.1012853,-0.6578269,0.5813233,-0.06757851,0.5602404,1.556936,0.2029257,0.07179306,1.21992,0.1491719,287.5987,225.2647,5.151891,True
1,1.288891,0.136403,0.1499692,0.1219288,-1.38544,-4.26734,-2.617489,0.3301265,1.299683,0.3610005,-1.187109,1.188138,7,57.8,-0.08983319,0.2153843,-0.1353417,-0.4188748,-3.491653,-0.3021766,0.4170431,1.517778,0.3150606,-0.09650299,0.1416169,0.1118392,-0.65631,0.5844265,-0.06926083,0.5593548,1.556902,0.2023268,0.07106654,1.216407,0.1492662,287.744,225.9942,4.694015,True
1,1.300002,0.1150613,0.1615782,0.1133468,-1.387393,-4.26882,-2.617765,0.329605,1.299279,0.3603113,-1.174994,1.090372,7,57.8,-0.04369897,0.2833433,-0.1343034,-0.4219416,-3.479979,-0.313931,0.4160357,1.517465,0.3142242,-0.07828727,0.1533847,0.1254876,-0.6545917,0.5880039,-0.07174529,0.558568,1.556988,0.2017128,0.07058082,1.2126,0.1492538,288.0419,226.8285,3.978717,True
1,1.311113,0.1162336,0.1136291,0.1115724,-1.38837,-4.267819,-2.61941,0.3288334,1.298901,0.35972,-1.164114,0.9787956,7,57.8,-0.03512168,0.299302,-0.1353574,-0.4246394,-3.472542,-0.3203695,0.4149772,1.517266,0.3133831,-0.05381103,0.1427549,0.1210144,-0.6535568,0.5901367,-0.07368328,0.5577362,1.556964,0.2011161,0.0701406,1.208515,0.1491899,288.5714,227.8377,2.958172,True
1,1.322224,0.1184754,0.06572763,0.1161784,-1.389179,-4.266279,-2.621111,0.328188,1.298712,0.3590612,-1.153454,0.9596214,7,57.8,-0.03189212,0.283239,-0.1248412,-0.426411,-3.46735,-0.3248617,0.4142691,1.51712,0.3127174,-0.03909415,0.1139574,0.09644379,-0.6532286,0.590766,-0.07418235,0.5569969,1.556952,0.200479,0.06956355,1.204264,0.1491338,289.2863,228.9006,1.852918,True
1,1.333336,0.1240836,-0.06856897,0.1054326,-1.387462,-4.261312,-2.623639,0.3275804,1.298616,0.3585749,-1.144204,0.8310645,7.1,51.2,-0.01700239,0.2041221,-0.09141608,-0.4262751,-3.467803,-0.3246559,0.4138399,1.517197,0.3121767,-0.02003206,0.07346061,0.07930612,-0.6528537,0.5899807,-0.07385505,0.5562359,1.556956,0.1998823,0.06890164,1.201376,0.1492222,289.5265,230.4227,0.3545921,True
1,1.344447,0.1188937,-0.136851,0.09315072,-1.386276,-4.257913,-2.625425,0.3270654,1.298503,0.3579948,-1.134257,0.8959207,7.1,51.2,-0.01065204,0.1346702,-0.06423359,-0.4258991,-3.469381,-0.3233126,0.4133054,1.517202,0.3115721,-0.01589917,0.04146767,0.06123272,-0.6526039,0.5891125,-0.07313706,0.5554093,1.557042,0.1992626,0.06869231,1.200226,0.1495171,289.3438,232.1155,358.6467,True
1,1.355558,0.104079,-0.1935051,0.07120655,-1.384295,-4.254266,-2.626775,0.3268771,1.298446,0.3575535,-1.124542,0.8740303,7.1,51.2,-0.03500583,0.04281027,-0.008128253,-0.4235545,-3.473956,-0.3179103,0.412785,1.517266,0.3110826,-0.01275899,0.02760318,0.05376976,-0.652295,0.5889843,-0.07289551,0.5546322,1.557054,0.1986313,0.06887797,1.199525,0.1497042,288.998,232.8619,357.9719,True
1,1.366669,0.09770724,-0.2063668,0.06171754,-1.383461,-4.252014,-2.628122,0.3266183,1.298316,0.3570595,-1.114313,0.9213649,7.1,51.2,-0.04358665,-0.009466436,0.009729903,-0.4222692,-3.477802,-0.3136192,0.4123291,1.51728,0.3105538,-0.0009187348,0.01912228,0.06539562,-0.6512036,0.5890222,-0.07331283,0.5539528,1.557083,0.1980317,0.0693848,1.198927,0.1497158,288.5327,232.4857,358.4684,True
1,1.37778,0.1061343,-0.1626645,0.0624562,-1.383888,-4.251322,-2.629718,0.3266795,1.298093,0.3567975,-1.104131,0.9167916,7.1,51.2,-0.0472463,-0.05509892,-0.01397913,-0.4228013,-3.483007,-0.3079695,0.4117108,1.517019,0.3101513,0.004457705,0.01168176,0.06962291,-0.6502747,0.5889292,-0.0734838,0.5532479,1.557135,0.197463,0.06993862,1.198346,0.1496699,288.059,231.7294,359.3369,True
1,1.388891,0.1124317,-0.1135989,0.06955703,-1.385034,-4.251035,-2.631307,0.3265053,1.29777,0.3563645,-1.09482,0.8372576,7.6,51.4,-0.04507286,-0.02628756,-0.0223386,-0.4237366,-3.481304,-0.3090979,0.41109,1.516973,0.3096292,0.002302572,0.007410603,0.06645692,-0.6496243,0.5888892,-0.07340844,0.5525623,1.557176,0.1968935,0.07043206,1.197773,0.149694,287.5932,231.201,359.9616,True
1,1.400002,0.1176235,-0.04528438,0.08610194,-1.387178,-4.251775,-2.632597,0.3264605,1.297487,0.3562226,-1.085945,0.7981451,7.6,51.4,-0.01625394,0.02589674,-0.04040371,-0.4253691,-3.477312,-0.3134999,0.4105408,1.516905,0.3091075,0.01947191,0.01492425,0.08118812,-0.6482571,0.5898751,-0.074903,0.5518454,1.55725,0.1963403,0.07077117,1.197186,0.1498673,287.1447,231.3274,359.8875,True
1,1.411114,0.1228589,0.002757084,0.09853125,-1.389309,-4.252469,-2.634024,0.3264922,1.297282,0.3560765,-1.076653,0.8365952,7.6,51.4,0.03809914,0.07478828,-0.05981961,-0.4274065,-3.472212,-0.3202595,0.4099134,1.516936,0.3085568,0.03014743,0.0224081,0.0853336,-0.6471822,0.5909381,-0.07634004,0.5514838,1.557173,0.1958444,0.07100391,1.196548,0.1502409,286.6548,232.3026,358.9383,True
1,1.422225,0.1217769,0.006969399,0.09210996,-1.390165,-4.252294,-2.635371,0.3265195,1.297183,0.3559458,-1.067284,0.8434379,7.6,51.4,0.0754138,0.1119924,-0.07380738,-0.4294518,-3.467436,-0.3267318,0.4094188,1.516909,0.3080418,0.02366212,0.01704925,0.07475364,-0.6467279,0.5909919,-0.07641701,0.5509529,1.557193,0.1953111,0.0709518,1.195855,0.15038,285.9016,235.2111,356.0099,True
1,1.433336,0.1207774,-0.0336927,0.06683658,-1.389188,-4.250784,-2.636996,0.3265317,1.297228,0.3557343,-1.058302,0.8081089,7,46.2,0.09026033,0.1269288,-0.08664169,-0.4313085,-3.464181,-0.3310605,0.4090042,1.517013,0.3075342,0.02888023,-0.008545956,0.05984502,-0.6465553,0.5893849,-0.07555841,0.5506194,1.557093,0.1947708,0.07102162,1.195173,0.150841,285.4668,236.757,354.3915,True
1,1.444447,0.1176386,-0.0722102,0.04474974,-1.388012,-4.249029,-2.638498,0.3265126,1.297195,0.3556066,-1.049139,0.8250732,7,46.2,0.07960309,0.1141596,-0.08128943,-0.4322928,-3.462884,-0.3327513,0.4086758,1.517049,0.3070972,0.03841664,-0.02346433,0.05233087,-0.6461777,0.5882025,-0.0753568,0.5501682,1.557084,0.1941993,0.07113937,1.194522,0.1513431,285.0332,238.646,352.4887,True
1,1.455558,0.1006479,-0.1129522,0.01417059,-1.385992,-4.2471,-2.639408,0.3266617,1.29717,0.3555572,-1.040355,0.7904087,7,46.2,0.08950134,0.1139132,-0.05049454,-0.4321027,-3.460017,-0.3364438,0.4084329,1.517092,0.3067212,0.04376127,-0.033044,0.0523084,-0.6454331,0.5872239,-0.07531952,0.549638,1.557068,0.1936405,0.07133088,1.193909,0.1517839,284.5895,240.2304,350.9046,True
1,1.466669,0.08893412,-0.1216034,0.0003947616,-1.384867,-4.245941,-2.640218,0.3267355,1.297182,0.3553963,-1.031521,0.7953439,7,46.2,0.1045853,0.1201464,-0.03675779,-0.432557,-3.456491,-0.3413235,0.408204,1.517094,0.306294,0.05242471,-0.04472145,0.06504182,-0.6441537,0.5860329,-0.07527185,0.5491261,1.557164,0.1930361,0.07134118,1.193303,0.1516463,283.8705,243.6836,347.4617,True
1,1.47778,0.07825756,-0.1142164,-0.006038837,-1.38414,-4.245211,-2.64084,0.3268913,1.297217,0.3554747,-1.022331,0.8278433,7,46.2,0.1252066,0.1336924,-0.004909255,-0.4321266,-3.451112,-0.3481982,0.4082797,1.517072,0.3060117,0.06732459,-0.06495225,0.06068501,-0.6435305,0.5838124,-0.0747323,0.5487957,1.557149,0.1925044,0.0716201,1.1927,0.1518523,283.3777,243.7115,347.3412,True
1,1.488891,0.07819649,-0.0790407,-0.002076875,-1.383859,-4.245604,-2.641751,0.3269753,1.296089,0.3520937,-1.013881,0.7600146,8.4,36.7,0.1325884,0.121954,-0.006126851,-0.4326646,-3.448916,-0.3516979,0.4081985,1.516997,0.3057082,0.08213375,-0.07668442,0.04778503,-0.6433516,0.5817865,-0.07448862,0.5486429,1.55715,0.1920044,0.07191946,1.192131,0.1521147,282.9158,244.3949,346.6541,True
1,1.500003,0.08245338,-0.07475699,-0.001047276,-1.383584,-4.244984,-2.642975,0.326939,1.296102,0.3520241,-1.005572,0.7479795,8.4,36.7,0.1355191,0.07082175,-0.008623615,-0.4325996,-3.451154,-0.3511159,0.4081728,1.517072,0.3056252,0.08631095,-0.08202694,0.03816937,-0.6431726,0.5799885,-0.07413841,0.5483949,1.557146,0.1915061,0.07215048,1.191597,0.1524377,282.5084,245.5814,345.4588,True
1,1.511114,0.09095924,-0.06728094,-0.001111664,-1.383323,-4.244536,-2.64434,0.326892,1.296164,0.3519003,-0.9980191,0.6789754,8.4,36.7,0.1436602,0.004791558,-0.0165901,-0.4322896,-3.45595,-0.3486262,0.4081991,1.51713,0.3050828,0.0798507,-0.08738355,0.0297207,-0.6430394,0.5781339,-0.07333706,0.5481175,1.557238,0.1909733,0.07228193,1.190977,0.1525458,282.28,247.8678,343.31,True
1,1.522225,0.0962798,-0.06839432,-0.009634599,-1.382578,-4.24406,-2.645688,0.3268135,1.296249,0.3517537,-0.9902788,0.6967424,8.4,36.7,0.1487543,-0.03140572,-0.02220634,-0.4322657,-3.459255,-0.3472978,0.4081343,1.51721,0.3048987,0.0766289,-0.0905908,0.0265624,-0.6427699,0.5762922,-0.07259911,0.5479325,1.557234,0.1904905,0.07251042,1.190224,0.1515274,281.5671,249.7106,341.7695,True
1,1.533336,0.1015538,-0.06421277,-0.02455383,-1.382169,-4.243911,-2.646688,0.3267916,1.296376,0.3518746,-0.9826377,0.6875878,6.7,34.8,0.1528963,-0.07088278,-0.01611706,-0.4315844,-3.464123,-0.3446876,0.408204,1.517358,0.3047597,0.07763648,-0.09912836,0.02018177,-0.6426378,0.573939,-0.07149123,0.5477058,1.557255,0.1900797,0.07300491,1.189662,0.1512649,281.1343,248.6642,342.8961,True
1,1.544447,0.09942537,-0.07279882,-0.03194599,-1.381127,-4.243181,-2.647749,0.3268058,1.296616,0.3517814,-0.9749023,0.6963056,6.7,34.8,0.1360401,-0.06024264,-0.002021152,-0.431023,-3.464119,-0.3456019,0.4083895,1.517442,0.3045652,0.08504786,-0.1023313,0.01479159,-0.6425526,0.571774,-0.07097963,0.5476352,1.557277,0.1896608,0.07328384,1.18918,0.1514939,280.7759,249.5248,342.0277,True
1,1.555558,0.08028042,-0.1102088,-0.04651526,-1.379936,-4.241429,-2.647895,0.3268641,1.296867,0.3520327,-0.9671083,0.7018791,6.7,34.8,0.124539,-0.04215722,0.01100239,-0.4305437,-3.46306,-0.3475713,0.4084695,1.517583,0.3042333,0.08606548,-0.1161971,0.008422842,-0.6425015,0.5687984,-0.0695157,0.5475865,1.557074,0.1887631,0.0733702,1.18868,0.1519883,280.4987,251.7753,339.672,True
1,1.566669,0.05687236,-0.1284132,-0.05167944,-1.37831,-4.239896,-2.647949,0.3269545,1.296982,0.3520293,-0.9597532,0.6618147,6.7,34.8,0.1088566,-0.02303615,0.03152477,-0.4297373,-3.461054,-0.3500797,0.408573,1.517583,0.3040285,0.09030196,-0.108736,0.007304695,-0.642356,0.5672445,-0.06933939,0.5474159,1.556907,0.1883562,0.07341065,1.188336,0.1525082,280.2514,254.1415,337.121,True
1,1.577781,0.02600187,-0.1455958,-0.06109794,-1.376495,-4.238348,-2.64741,0.3271413,1.297072,0.3519232,-0.951597,0.7355865,6.7,34.8,0.1078946,-0.002797157,0.03273125,-0.4295956,-3.459278,-0.3528542,0.4086966,1.517636,0.3038092,0.09027812,-0.1034092,0.005159422,-0.6423502,0.5658341,-0.06924246,0.5473291,1.556921,0.1880081,0.07354216,1.188075,0.1528639,279.9771,255.6884,335.4093,True
1,1.588892,0.005700953,-0.1200586,-0.06020109,-1.375706,-4.238452,-2.646749,0.3273467,1.297101,0.3518202,-0.9446035,0.6287585,3.3,39.2,0.1184844,0.01214874,0.02099258,-0.4301261,-3.457983,-0.3555498,0.4087934,1.517719,0.3037026,0.09895264,-0.1108251,0.02000949,-0.6414921,0.5633441,-0.06865896,0.5472268,1.55699,0.1875856,0.07336532,1.187913,0.1521681,279.433,259.3912,331.368,True
1,1.600003,0.005655076,-0.09875404,-0.06035793,-1.374942,-4.238494,-2.646851,0.3275129,1.297227,0.351856,-0.9373783,0.6510604,3.3,39.2,0.1417451,-0.0006686598,0.01002151,-0.4301453,-3.459105,-0.3567744,0.4090401,1.517806,0.3035629,0.1095821,-0.1214655,0.0156657,-0.6414325,0.5605937,-0.06810661,0.5472298,1.557001,0.1872699,0.07364833,1.187638,0.1520336,279.088,258.865,331.7833,True
1,1.611114,0.008796502,-0.06887407,-0.05311984,-1.374797,-4.238734,-2.647076,0.3276557,1.297472,0.35179,-0.9310203,0.5715688,3.3,39.2,0.1564663,-0.0326739,0.00539878,-0.4297703,-3.462613,-0.3557839,0.4092804,1.517939,0.3034494,0.104095,-0.1215125,-0.001326803,-0.642005,0.5582604,-0.06719448,0.5474286,1.557059,0.1868181,0.0739159,1.187401,0.1520277,278.8032,259.1643,331.5087,True
1,1.622225,0.007696,-0.04965697,-0.04686658,-1.374528,-4.238911,-2.647079,0.3278244,1.297685,0.3518395,-0.9253707,0.5075428,3.3,39.2,0.1530061,-0.07095455,-0.003334538,-0.4293064,-3.467298,-0.3530766,0.4095936,1.518114,0.3032827,0.09237005,-0.1268507,-0.003338648,-0.6420903,0.5557992,-0.06589752,0.5475304,1.557132,0.1863987,0.07411342,1.187205,0.1521481,278.567,260.0284,330.6251,True
1,1.633336,0.009817708,-0.04006062,-0.04374722,-1.373932,-4.238714,-2.647392,0.3280303,1.297813,0.3515782,-0.919198,0.5558016,1.5,37.5,0.135993,-0.08051178,0.004236239,-0.4286081,-3.469635,-0.3518859,0.409869,1.51823,0.3031089,0.0785367,-0.1343181,-0.002119267,-0.6418261,0.5529662,-0.06396886,0.5477442,1.557029,0.1860371,0.07425659,1.187024,0.152363,278.3603,261.3508,329.2278,True
1,1.644447,0.005507967,-0.01878508,-0.04709569,-1.373609,-4.239516,-2.64719,0.328326,1.298025,0.3515258,-0.9127036,0.584941,1.5,37.5,0.1010111,-0.07832108,0.02059007,-0.427578,-3.470441,-0.3510757,0.4101713,1.518428,0.302943,0.06458458,-0.1258359,-0.01159244,-0.6421552,0.5510758,-0.06271425,0.5479358,1.557075,0.1857831,0.07436131,1.186847,0.1525919,278.1863,262.8698,327.6223,True
1,1.655559,0.003305753,0.01632505,-0.05055367,-1.373451,-4.240892,-2.647035,0.3286132,1.298215,0.3512394,-0.906808,0.5301276,1.5,37.5,0.07906112,-0.04857622,0.04870767,-0.4263252,-3.468343,-0.3531514,0.4104755,1.518563,0.3027682,0.05809621,-0.1162759,-0.02007225,-0.642527,0.549386,-0.06175578,0.548054,1.557144,0.1855373,0.07447594,1.186661,0.1527893,278.0111,264.3326,326.0834,True
1,1.66667,6.549247E-05,0.0365695,-0.04963523,-1.373505,-4.242141,-2.64667,0.3289308,1.298353,0.3512287,-0.9005677,0.5622294,1.5,37.5,0.07608023,-0.02839774,0.06164959,-0.4255103,-3.466386,-0.3556111,0.4107547,1.51861,0.3026145,0.04848363,-0.1003091,-0.02001616,-0.6426852,0.5483506,-0.0610764,0.548236,1.55712,0.1853743,0.07464357,1.186461,0.1529232,277.8051,265.6055,324.7776,True
1,1.677781,-0.01915689,0.06099107,-0.05299923,-1.373362,-4.243699,-2.645646,0.3292696,1.298406,0.3509457,-0.8948844,0.5110608,1.5,37.5,0.06464078,0.002471104,0.07475948,-0.4246597,-3.462716,-0.3593965,0.4110906,1.518651,0.3024399,0.04641169,-0.09816851,-0.01361059,-0.6425601,0.5466155,-0.06016054,0.5484036,1.557036,0.1850727,0.07400367,1.186356,0.152655,277.9572,273.3726,317.0473,True
1,1.688892,-0.04581861,0.07685225,-0.06054945,-1.373011,-4.245308,-2.644139,0.3295515,1.298326,0.3508794,-0.8889861,0.5312769,0.4,34.9,0.04233422,0.01000252,0.07822672,-0.4239124,-3.461324,-0.3603182,0.4114138,1.518689,0.3024573,0.04526167,-0.08433525,-0.0210852,-0.6429931,0.5458533,-0.06006627,0.5485812,1.556993,0.1850116,0.0739075,1.186184,0.152879,278.1166,276.2371,314.0861,True
1,1.700003,-0.04581861,0.07685225,-0.06054945,-1.373011,-4.245308,-2.644139,0.3295515,1.298326,0.3508794,-0.8828065,0.5568619,0.4,34.9,0.04233422,0.01000252,0.07822672,-0.4239124,-3.461324,-0.3603182,0.4114138,1.518689,0.3024573,0.04526167,-0.08433525,-0.0210852,-0.6429931,0.5458533,-0.06006627,0.5485812,1.556993,0.1850116,0.0735157,1.186134,0.1542381,278.7202,285.3693,305.2171,True
1,1.711114,-0.0702332,0.04595732,-0.05284745,-1.37206,-4.246034,-2.641924,0.3299483,1.298543,0.3509042,-0.8780069,0.4305548,0.4,34.9,0.03746219,-0.02057429,0.03226741,-0.4238155,-3.464596,-0.3579363,0.412082,1.518715,0.3025992,0.03354035,-0.06837003,-0.01995411,-0.6434719,0.5440513,-0.05911126,0.5491999,1.557077,0.1849437,0.07317796,1.185957,0.1534727,278.8425,288.956,301.3948,True
1,1.722225,-0.06275332,0.0374751,-0.04959848,-1.371734,-4.246347,-2.641434,0.3301561,1.298642,0.3509181,-0.8703402,0.6936663,0.4,34.9,0.04358573,-0.03645631,0.01292893,-0.42389,-3.46699,-0.3564708,0.4124706,1.518753,0.3026702,0.03460525,-0.07582814,-0.02101271,-0.6436919,0.5422115,-0.05806597,0.5494707,1.557058,0.1848438,0.0734478,1.185716,0.1531042,278.524,287.8455,302.2998,True
1,1.733337,-0.04881179,0.008885335,-0.03024787,-1.371375,-4.245522,-2.641658,0.3302938,1.298826,0.3509443,-0.8659588,0.3909579,0.4,34.9,0.05089859,-0.03960092,5.243206E-05,-0.4240402,-3.468527,-0.3559038,0.4129215,1.518788,0.3027251,0.03675514,-0.080084,-0.01888478,-0.6436573,0.5404007,-0.05703932,0.5498732,1.556981,0.1846561,0.07359648,1.185557,0.1530554,278.3384,287.9809,302.1421,True
1,1.744448,-0.03708409,0.005740604,-0.02704254,-1.3712,-4.245646,-2.641595,0.3305591,1.298887,0.351028,-0.861122,0.4353417,1.1,30.4,0.05734871,-0.02791331,5.99639E-05,-0.4240796,-3.468249,-0.3570593,0.4133855,1.518863,0.3028295,0.04002114,-0.08752254,-0.01250685,-0.6434852,0.5383301,-0.05594369,0.5502355,1.556973,0.1846006,0.07371188,1.185428,0.153171,278.2472,289.1715,300.9373,True
1,1.755559,-0.04132636,0.002568376,-0.02276316,-1.370936,-4.245711,-2.641041,0.3308819,1.299178,0.3512087,-0.8559906,0.4615883,1.1,30.4,0.06405953,-0.01853064,0.02669007,-0.4229004,-3.466828,-0.3593792,0.4139584,1.519019,0.3029187,0.04634364,-0.08859897,-0.02002593,-0.6440173,0.536535,-0.05526565,0.5505776,1.556862,0.1845529,0.07382864,1.185274,0.1533452,278.1889,290.9266,299.1565,True
1,1.76667,-0.05307056,0.01314406,-0.03027759,-1.370758,-4.246463,-2.639959,0.3313706,1.299383,0.3513131,-0.8496272,0.5739018,1.1,30.4,0.05140618,-0.04846828,0.05325961,-0.4208689,-3.469107,-0.3573656,0.4145292,1.519221,0.3030384,0.04616051,-0.06946701,-0.03711008,-0.6450325,0.5362406,-0.05557831,0.5510099,1.556978,0.1846325,0.07401234,1.185102,0.1535257,278.0731,292.8595,297.1859,True
1,1.777781,-0.06268491,0.02263222,-0.04100221,-1.370116,-4.247498,-2.638812,0.3318413,1.299653,0.3515518,-0.8443179,0.4766291,1.1,30.4,0.0258477,-0.07079634,0.0640274,-0.4192993,-3.472044,-0.3540465,0.4150867,1.519429,0.3031659,0.0353102,-0.0567406,-0.05621508,-0.6463715,0.5357943,-0.0552044,0.5514579,1.556955,0.1848295,0.0741846,1.184934,0.1537074,277.982,294.8326,295.1718,True
1,1.788892,-0.0690912,0.02147621,-0.05270723,-1.369351,-4.24829,-2.637622,0.3321046,1.299792,0.3517294,-0.8376228,0.6042237,0.5,24.4,-0.009299994,-0.1123021,0.08329038,-0.4168545,-3.476929,-0.3481324,0.4155599,1.519601,0.3033268,0.02133168,-0.03868382,-0.06784202,-0.6475327,0.5357756,-0.05498815,0.5518293,1.556987,0.1850023,0.07430629,1.18473,0.1539031,277.9666,297.0076,292.9553,True
1,1.800003,-0.06376411,0.01931585,-0.05909536,-1.36858,-4.24893,-2.637046,0.3324917,1.300082,0.3520806,-0.8316988,0.5325913,0.5,24.4,-0.01573755,-0.1261393,0.08539283,-0.4152704,-3.480748,-0.3441915,0.416048,1.51972,0.3034859,0.008462708,-0.02486534,-0.07521351,-0.6486885,0.5360433,-0.0549024,0.5522647,1.55696,0.1852446,0.07434478,1.184582,0.1541927,278.0701,299.3246,290.6457,True
1,1.811115,-0.05523816,0.02252079,-0.06021557,-1.36787,-4.249712,-2.636747,0.3327901,1.300244,0.3521762,-0.8258111,0.5299491,0.5,24.4,-0.01258183,-0.09514448,0.06745013,-0.4152704,-3.480355,-0.3446234,0.416425,1.519699,0.3036735,0.00102108,-0.01527892,-0.07196587,-0.6493218,0.5362321,-0.05477909,0.5526985,1.556954,0.1854537,0.07424551,1.184454,0.1549701,278.5947,303.9526,286.0569,True
1,1.822226,-0.04886805,0.03752113,-0.05074592,-1.36813,-4.25068,-2.636227,0.3330359,1.300314,0.35238,-0.8206819,0.4607571,0.5,24.4,-0.01165193,-0.05980776,0.03890789,-0.4159772,-3.479524,-0.3452216,0.4168073,1.519697,0.3038402,-0.007448673,0.0007099509,-0.06446794,-0.6498379,0.5372458,-0.05521585,0.5531715,1.55691,0.1857519,0.0735999,1.184387,0.1548991,279.6333,309.6508,280.1575,True
1,1.833337,-0.05100835,0.04822236,-0.04337214,-1.368247,-4.251627,-2.635465,0.3333132,1.300381,0.3526561,-0.8154051,0.4749056,0.5,24.4,-0.008478284,-0.04058075,0.02834544,-0.4161056,-3.479119,-0.3455862,0.4171627,1.519717,0.3039863,-0.01279837,0.01454605,-0.06551409,-0.6506411,0.5380605,-0.05562385,0.5537044,1.556906,0.1859918,0.0737191,1.184223,0.154864,279.7256,310.4354,279.0587,True
1,1.844448,-0.06059729,0.04821192,-0.04122347,-1.368185,-4.252179,-2.634269,0.3335097,1.300432,0.3529344,-0.809659,0.5176041,0.4,21.4,-0.0009292476,0.01916257,0.01054514,-0.4174191,-3.47414,-0.3504627,0.41756,1.519775,0.3041439,-0.01275404,0.02309008,-0.05913519,-0.6510018,0.5391238,-0.05625102,0.5542263,1.55686,0.1862347,0.0739941,1.184041,0.1546961,279.4369,310.9072,278.4583,True
1,1.855559,-0.07227885,0.03647089,-0.04006926,-1.367642,-4.252356,-2.633153,0.3338687,1.300541,0.3530374,-0.8038768,0.5206011,0.4,21.4,-0.0007087439,0.04358801,0.02135277,-0.4172907,-3.470801,-0.3534904,0.4180645,1.519842,0.3042908,-0.008542858,0.01775425,-0.0655597,-0.6520196,0.5390018,-0.0562718,0.5547838,1.55681,0.1864011,0.07426285,1.183851,0.1546088,279.1656,311.7763,277.5252,True
1,1.86667,-0.07970003,0.01511805,-0.04416734,-1.366765,-4.252177,-2.63196,0.3343579,1.300824,0.353301,-0.7979305,0.5357506,0.4,21.4,-0.002569901,0.05731696,0.04170556,-0.4164912,-3.467206,-0.356658,0.4186777,1.519865,0.304496,-0.00432387,0.0006998535,-0.07195263,-0.6530161,0.5378415,-0.05540147,0.555428,1.556814,0.1866088,0.07450064,1.183656,0.1545637,278.9641,312.8054,276.4237,True
1,1.877781,-0.07325805,-0.01052997,-0.05678051,-1.365214,-4.251864,-2.631585,0.3347247,1.301238,0.3536818,-0.7925764,0.4814987,0.4,21.4,-0.01208046,0.02524927,0.06396165,-0.4148475,-3.468244,-0.3551807,0.4194087,1.520063,0.3049355,-0.002204377,-0.01315014,-0.07513922,-0.6539301,0.5367654,-0.05462782,0.5560381,1.556851,0.1868973,0.07457093,1.183462,0.1548809,279.1407,314.8231,274.4081,True
1,1.888893,-0.06361767,-0.03397812,-0.06089424,-1.363791,-4.251305,-2.631411,0.3351254,1.301574,0.3539264,-0.7872027,0.4838369,0.4,21.4,-0.01423875,-0.002496123,0.07339382,-0.4134472,-3.469602,-0.3537232,0.4201328,1.520233,0.3052299,-0.00115075,-0.02061027,-0.0772626,-0.6548052,0.5359114,-0.05397215,0.5566373,1.556854,0.1871824,0.07459953,1.183323,0.1552136,279.3878,316.6005,272.6141,True
1,1.900004,-0.06361319,-0.03718959,-0.0630013,-1.36285,-4.251204,-2.630726,0.3355682,1.301815,0.3542149,-0.7827744,0.3973397,0.6,21.4,-0.02493277,-0.04729497,0.08919114,-0.4113071,-3.473158,-0.3498254,0.4208795,1.52052,0.3056104,-0.004339326,-0.008889733,-0.07513016,-0.6556101,0.5364204,-0.05423687,0.5572479,1.556854,0.1875882,0.07467603,1.183226,0.1554785,279.5564,318.0659,271.1041,True
1,1.911115,-0.07215857,-0.02442876,-0.06309717,-1.362205,-4.251813,-2.629548,0.3360707,1.301872,0.3545368,-0.7779142,0.4377348,0.6,21.4,-0.03156122,-0.08450886,0.08262479,-0.4098946,-3.4779,-0.344906,0.4216658,1.520599,0.3060338,0.003150836,-0.01100499,-0.07199775,-0.656254,0.5360202,-0.05422515,0.557851,1.556865,0.1879382,0.07478985,1.18313,0.1557122,279.6793,319.5056,269.6086,True
1,1.922226,-0.08501385,0.001111553,-0.06434476,-1.361923,-4.253183,-2.627663,0.3367717,1.301896,0.3549097,-0.7725351,0.4848196,0.6,21.4,-0.03287068,-0.1260149,0.0770397,-0.4083084,-3.484121,-0.3387999,0.4223701,1.520733,0.3065019,0.006255362,-0.009956114,-0.08161757,-0.6575116,0.5357926,-0.05424539,0.5585174,1.556798,0.1882849,0.07466283,1.183045,0.1549524,280.0979,322.2566,266.2841,True
1,1.933337,-0.08718346,0.02671754,-0.0581404,-1.362076,-4.254416,-2.626533,0.3372845,1.302118,0.3553391,-0.7673228,0.4693185,0.6,21.4,-0.02874914,-0.1473081,0.07259614,-0.4069502,-3.488908,-0.3342315,0.4229858,1.520712,0.3069158,-0.003416773,-0.007861499,-0.0911209,-0.658915,0.5355902,-0.05382515,0.5592942,1.556707,0.1886997,0.07489724,1.182868,0.1548631,279.9487,323.1901,265.2103,True
1,1.944448,-0.08613496,0.03638875,-0.048627,-1.362271,-4.255285,-2.625343,0.3377266,1.302253,0.355737,-0.7620896,0.4714949,13.4,14,-0.01926397,-0.1472817,0.06184752,-0.406115,-3.492354,-0.3313004,0.4237638,1.520798,0.307337,-0.006664313,-0.007876676,-0.09641353,-0.660122,0.5353602,-0.05343286,0.5599974,1.556641,0.1890872,0.07506233,1.182704,0.1550239,279.9713,324.6513,263.7354,True
1,1.955559,-0.08293484,0.04501613,-0.03485175,-1.362647,-4.255957,-2.624521,0.3382471,1.302557,0.3560498,-0.7582361,0.3454449,13.4,14,0.006330147,-0.1271177,0.05532626,-0.4055227,-3.49369,-0.3310549,0.424444,1.520877,0.3075838,-0.01194943,-0.007878611,-0.0921098,-0.6610711,0.5350281,-0.05288479,0.5607328,1.556664,0.1894441,0.07515868,1.182601,0.1552916,280.1334,325.9948,262.3794,True
1,1.966671,-0.08292834,0.04506291,-0.02952253,-1.362836,-4.25655,-2.623457,0.3387578,1.302792,0.3564377,-0.7537246,0.4066567,13.4,14,0.01809725,-0.09514965,0.04582189,-0.4054103,-3.493407,-0.3319271,0.4251437,1.520869,0.307966,-0.01197561,-0.01108654,-0.09530133,-0.6622791,0.5344394,-0.05228158,0.5614766,1.556638,0.1898444,0.0752122,1.182527,0.1555829,280.3625,327.1131,261.2309,True
1,1.977782,-0.0829218,0.04184189,-0.03269955,-1.362471,-4.257098,-2.622489,0.3394026,1.303076,0.3568265,-0.7497374,0.3583414,13.4,14,0.006539643,-0.07169756,0.05141921,-0.4047003,-3.492817,-0.33206,0.4258903,1.520961,0.3083174,-0.005587883,-0.01427614,-0.09642359,-0.6634381,0.5338921,-0.05206107,0.5622261,1.556617,0.1902523,0.07524125,1.182455,0.1558441,280.5897,328.0114,260.3047,True
1,1.988893,-0.09143775,0.03750626,-0.04010152,-1.362153,-4.257581,-2.621125,0.3398939,1.303252,0.3572407,-0.7457538,0.3590904,13.4,14,0.001379825,-0.04506107,0.05484287,-0.4040995,-3.491127,-0.333611,0.4266317,1.521082,0.3086944,0.004071876,-0.02170863,-0.09010807,-0.6641737,0.5329078,-0.0517383,0.5629807,1.556633,0.1905992,0.07530692,1.182407,0.1560459,280.7277,328.8287,259.4674,True
1,2.000004,-0.09889618,0.03637805,-0.04647696,-1.361691,-4.258268,-2.61967,0.3405757,1.303635,0.3577781,-0.742575,0.285794,27.6,9.9,0.0079046,-0.01099435,0.05286437,-0.4040042,-3.488299,-0.3365426,0.4275252,1.521283,0.3091302,0.01056091,-0.0355331,-0.0816104,-0.6646307,0.5313627,-0.05084747,0.5637971,1.556684,0.1909175,0.07540594,1.182374,0.1561978,280.7935,329.6204,258.6581,True
1,2.011115,-0.104213,0.03212205,-0.04537703,-1.361443,-4.258822,-2.618177,0.3412503,1.303989,0.3581977,-0.7394144,0.2850917,27.6,9.9,0.01340186,-0.000449989,0.0646018,-0.4029,-3.486801,-0.3383349,0.428471,1.521502,0.3095009,0.02010276,-0.04511946,-0.08807167,-0.6658318,0.5299223,-0.0503175,0.5646453,1.556689,0.1912894,0.07553022,1.182353,0.1563302,280.8232,330.4407,257.8181,True
