loc,t,aDotUA,bDotUA,gDotUA,aUA,bUA,gUA,xUA,yUA,zUA,qE,qDotE,emgA,emgB,aDotSH,bDotSH,gDotSH,aSH,bSH,gSH,xSH,ySH,zSH,aDotUB,bDotUB,gDotUB,aUB,bUB,gUB,xUB,yUB,zUB,xHand,yHand,zHand,aHand,bHand,gHand,enable
1,0,-0.3208183,-1.093594,-0.1339683,-1.39361,-4.01896,2.957714,0.5498441,1.299424,0.4820926,-1.309432,0.7100921,0,10.7,-0.6256217,0.3673477,-0.2082602,-0.409787,-3.954763,-0.3035636,0.5450802,1.528662,0.3896132,-0.3285554,0.2533436,0.05885591,-0.6322419,0.2092801,-0.05144322,0.618407,1.562351,0.233474,0.4088143,1.056792,0.300316,319.3793,230.3761,351.8087,True
1,0.01111111,-0.3208183,-1.093594,-0.1339683,-1.39361,-4.01896,2.957714,0.5498441,1.299424,0.4820926,-1.300158,0.8365908,0,10.7,-0.6256217,0.3673477,-0.2082602,-0.409787,-3.954763,-0.3035636,0.5450802,1.528662,0.3896132,-0.3285554,0.2533436,0.05885591,-0.6322419,0.2092801,-0.05144322,0.618407,1.562351,0.233474,0.4083664,1.053962,0.2996686,319.9207,228.9928,352.833,True
1,0.02222222,-0.446532,-1.086325,-0.1115891,-1.395026,-4.006793,2.964823,0.5473936,1.2987,0.4812407,-1.295056,0.4544397,0,10.7,-0.558607,0.3746819,-0.2216642,-0.4140017,-3.946444,-0.3071789,0.5442517,1.528064,0.3891184,-0.3155575,0.2693656,0.08107717,-0.6307047,0.2149895,-0.05316548,0.6183474,1.562282,0.2333186,0.4085281,1.051059,0.2992947,320.52,228.4809,353.1291,True
1,0.03333334,-0.4643803,-1.190427,-0.0831648,-1.399528,-3.975289,2.969311,0.5424175,1.297235,0.4792075,-1.27478,1.84575,0,10.7,-0.5468243,0.40174,-0.1903892,-0.4197158,-3.924024,-0.3157113,0.542472,1.527329,0.3879271,-0.306927,0.2875062,0.08110993,-0.6295052,0.2274079,-0.05698419,0.6182626,1.562135,0.2331696,0.4093171,1.048288,0.2993762,321.0402,228.4239,353.0848,True
1,0.04444445,-0.3414153,-1.376956,-0.1172524,-1.402201,-3.938826,2.967641,0.537675,1.296325,0.4767866,-1.275102,-0.049199,0,10.7,-0.5243975,0.4067168,-0.115195,-0.4233377,-3.903361,-0.3234255,0.5404183,1.526601,0.3870416,-0.2880349,0.309687,0.05090798,-0.6294765,0.2392515,-0.06073685,0.6181617,1.562028,0.2330577,0.4094846,1.044748,0.2979936,322.1759,227.8737,353.5357,True
1,0.05555556,-0.3243094,-1.406925,-0.1458324,-1.402437,-3.921359,2.967664,0.5353795,1.295947,0.4756103,-1.269578,0.5029915,0,10.7,-0.484552,0.3399683,-0.04903444,-0.4215949,-3.898876,-0.3237413,0.5397413,1.526398,0.3865426,-0.2805974,0.3022158,0.04980523,-0.6291596,0.24459,-0.0621944,0.6181378,1.562023,0.2329099,0.4100236,1.041625,0.2952152,323.078,226.9632,354.081,True
1,0.06666667,-0.3050731,-1.427193,-0.1531528,-1.403627,-3.904284,2.967647,0.5331849,1.295571,0.4743397,-1.268876,0.05619811,0,10.7,-0.4701933,0.2463607,-0.07127325,-0.423115,-3.902339,-0.3158182,0.5388985,1.526126,0.3860807,-0.2741703,0.283042,0.05621711,-0.6282504,0.2484059,-0.06265432,0.6179292,1.562043,0.2327359,0.4113455,1.03902,0.2907079,323.6651,225.4919,354.4657,True
1,0.07777778,-0.1142979,-1.459678,-0.1445156,-1.405687,-3.886742,2.958973,0.5311321,1.295321,0.4730542,-1.263192,0.5164764,0,10.7,-0.4758271,0.2177875,-0.09169868,-0.4252589,-3.900839,-0.311657,0.5382044,1.526142,0.3854892,-0.2654579,0.2681979,0.08176094,-0.6264682,0.2526815,-0.06353184,0.617802,1.56204,0.2325289,0.4139774,1.037631,0.2856754,323.695,224.1273,353.9079,True
1,0.08888889,-0.1218603,-1.414971,-0.1448024,-1.406661,-3.872458,2.958426,0.5293255,1.29522,0.4721839,-1.258624,0.410245,0,6.8,-0.4702328,0.2207566,-0.0661721,-0.4259407,-3.89403,-0.3127872,0.5373617,1.526065,0.384866,-0.266547,0.2522061,0.08076711,-0.6255962,0.2563922,-0.06364901,0.617653,1.562059,0.2323451,0.4173304,1.037087,0.2806828,323.4621,222.9019,352.888,True
1,0.1,-0.1443455,-1.366989,-0.1291186,-1.408263,-3.859031,2.958833,0.5279687,1.29556,0.4713521,-1.263048,-0.4103436,0,6.8,-0.44012,0.2375067,-0.04396022,-0.4266357,-3.886118,-0.3162555,0.5365847,1.526118,0.3842001,-0.2848605,0.251088,0.0564193,-0.6261166,0.2610558,-0.06348816,0.6175789,1.56207,0.2321653,0.4208052,1.036939,0.2759587,323.2192,221.7582,351.9449,True
1,0.1111111,-0.1658351,-1.292347,-0.1061685,-1.410012,-3.847251,2.960126,0.526337,1.295619,0.4703584,-1.252527,0.9631448,0,6.8,-0.3516607,0.3089375,0.03991436,-0.4252045,-3.868356,-0.3321316,0.5356778,1.526302,0.3835876,-0.2870921,0.249968,0.0426055,-0.6262807,0.2655164,-0.06400828,0.6174526,1.562054,0.2319481,0.42446,1.036851,0.2721204,322.7347,220.6247,351.2235,True
1,0.1222222,-0.1735052,-1.203812,-0.08438629,-1.411587,-3.837068,2.960767,0.5252141,1.295978,0.469732,-1.247628,0.4372849,0,6.8,-0.2361995,0.3434436,0.06780277,-0.4253995,-3.855022,-0.3460868,0.5349581,1.526513,0.3830171,-0.2870996,0.2307948,0.04373456,-0.625788,0.2686556,-0.06354382,0.6172469,1.562127,0.2317822,0.4277808,1.036366,0.2692515,322.6816,219.7793,350.5242,True
1,0.1333333,-0.1705248,-1.115244,-0.06043268,-1.413614,-3.827755,2.961188,0.5242093,1.296304,0.4692204,-1.244474,0.2838357,0,6.8,-0.1880748,0.3164022,0.09586217,-0.4243247,-3.847737,-0.3524542,0.5342605,1.526755,0.3824682,-0.2785514,0.2116179,0.0501263,-0.6249486,0.271297,-0.06289561,0.6170725,1.562145,0.2315085,0.430456,1.03558,0.267233,323.0806,219.1154,350.0876,True
1,0.1444445,-0.1548384,-1.005358,-0.04083622,-1.415493,-3.82051,2.961508,0.5231718,1.296638,0.4689155,-1.243347,0.09974502,0,6.6,-0.1973864,0.3001903,0.128844,-0.422731,-3.83914,-0.357556,0.5336848,1.526869,0.3818724,-0.2646999,0.1903024,0.05327659,-0.6242897,0.2735462,-0.06239786,0.6169443,1.562138,0.2312667,0.4322155,1.03462,0.265794,323.6837,218.5671,349.953,True
1,0.1555556,-0.1402239,-0.8859761,-0.03628378,-1.416247,-3.815037,2.961681,0.5224232,1.297174,0.4685099,-1.242097,0.1125597,0,6.6,-0.2048229,0.2841831,0.1362448,-0.4219017,-3.831582,-0.3616863,0.5335153,1.527267,0.3810918,-0.2382573,0.1688864,0.0339499,-0.6246924,0.2750328,-0.06203621,0.6167776,1.562047,0.2311406,0.432542,1.034576,0.2652172,323.8915,218.0729,350.5636,True
1,0.1666667,-0.1191338,-0.7964909,-0.04326966,-1.416511,-3.809151,2.961235,0.5216385,1.297726,0.4680383,-1.241019,0.09665617,0,6.6,-0.165897,0.3092064,0.1850719,-0.4199906,-3.817735,-0.3739432,0.5330033,1.527662,0.3805587,-0.2350883,0.1677985,0.03073311,-0.6245651,0.278144,-0.06201304,0.6166362,1.561972,0.2308459,0.4325116,1.034643,0.2649858,324.0763,218.0145,350.677,True
1,0.1777778,-0.05985835,-0.6676045,-0.06855059,-1.415659,-3.806392,2.959627,0.5210302,1.298584,0.4679172,-1.240089,0.08335419,0,3.9,-0.07529676,0.3111542,0.2949818,-0.4141924,-3.802124,-0.3910234,0.5330178,1.528103,0.3799853,-0.2159902,0.1507062,0.02423768,-0.6246066,0.2799287,-0.06183008,0.6166329,1.561972,0.230628,0.4324062,1.034827,0.2648594,324.1832,217.9954,350.8102,True
1,0.1888889,-0.05985835,-0.6676045,-0.06855059,-1.415659,-3.806392,2.959627,0.5210302,1.298584,0.4679172,-1.239417,0.06001187,0,3.9,-0.07529676,0.3111542,0.2949818,-0.4141924,-3.802124,-0.3910234,0.5330178,1.528103,0.3799853,-0.2159902,0.1507062,0.02423768,-0.6246066,0.2799287,-0.06183008,0.6166329,1.561972,0.230628,0.4322772,1.035123,0.2647403,324.2692,217.8708,350.9957,True
1,0.2,-0.01781324,-0.446265,-0.1200727,-1.411895,-3.802841,2.957682,0.5199816,1.300286,0.4675579,-1.238761,0.05875233,0,3.9,-0.0653701,0.1525152,0.2797009,-0.4082605,-3.80223,-0.3900796,0.5331213,1.529317,0.3786576,-0.190933,0.1068227,-0.03014938,-0.6270956,0.2808868,-0.05922897,0.6165993,1.561796,0.2302835,0.4321907,1.035464,0.2645674,324.2437,217.6779,351.1574,True
1,0.2111111,-0.05435475,-0.3176081,-0.1400663,-1.409441,-3.803396,2.959974,0.5197292,1.30109,0.4669747,-1.240322,-0.1438808,0,3.9,-0.1287109,0.1319691,0.3451501,-0.402647,-3.793806,-0.3935265,0.533538,1.530247,0.3780813,-0.1844973,0.110015,-0.02594603,-0.6271276,0.2832136,-0.05934135,0.6166669,1.561854,0.2300599,0.4321307,1.035853,0.2644963,324.2372,217.6094,351.111,True
1,0.2222222,-0.1035845,-0.2305233,-0.161911,-1.406743,-3.803731,2.96309,0.5191649,1.302446,0.4667082,-1.236756,0.3265271,0,3.9,-0.1486827,0.1147215,0.3782327,-0.397652,-3.786936,-0.3973423,0.533911,1.531108,0.3774502,-0.1858924,0.06091061,-0.05773572,-0.6288879,0.2807965,-0.05526112,0.6169534,1.561886,0.2298281,0.4321425,1.036462,0.2647527,324.3713,217.2446,351.1503,True
1,0.2333333,-0.381969,-0.1079976,-0.2104949,-1.402082,-3.806254,2.978917,0.5188907,1.304088,0.4666569,-1.233495,0.2947571,0,3.9,-0.1193265,0.06711586,0.4542511,-0.3896855,-3.781108,-0.4028375,0.5343958,1.532188,0.3767672,-0.1694128,0.006358489,-0.116289,-0.6324129,0.2765678,-0.05054946,0.6174074,1.561902,0.2294264,0.4318572,1.036938,0.2650883,324.5096,217.0283,351.2021,True
1,0.2444444,-0.4691738,-0.152127,-0.2326082,-1.400355,-3.801723,2.984659,0.5190175,1.305447,0.4670465,-1.231946,0.1391416,0.2,7.1,-0.04394588,0.02878335,0.5479977,-0.3801753,-3.773065,-0.4130065,0.5351681,1.533277,0.3760259,-0.1538071,-0.03533335,-0.1546335,-0.6354995,0.272874,-0.04655818,0.6176639,1.561933,0.2291059,0.4310649,1.037323,0.2652831,324.7799,217.0096,351.2989,True
1,0.2555556,-0.5384218,-0.1758862,-0.2621799,-1.39597,-3.79776,2.994159,0.5182689,1.30695,0.4668303,-1.219684,1.120254,0.2,7.1,0.03748322,0.03450951,0.5919775,-0.3727126,-3.76209,-0.4270938,0.5362346,1.534367,0.375355,-0.1379098,-0.05988039,-0.1610768,-0.6373493,0.2700761,-0.04346918,0.6178882,1.562002,0.2288179,0.4298247,1.038037,0.2654273,325.0861,216.9246,351.4596,True
1,0.2666667,-0.6128687,-0.2373082,-0.3363221,-1.39011,-3.79147,3.002779,0.5166779,1.308173,0.4657385,-1.227956,-0.7653035,0.2,7.1,0.0706435,0.003289059,0.6169562,-0.3652456,-3.755809,-0.4348569,0.5373243,1.535509,0.3747346,-0.1145486,-0.1195752,-0.1610748,-0.6387587,0.2636696,-0.03806483,0.6181259,1.562081,0.2284966,0.4277994,1.039521,0.265066,325.5949,216.8394,351.7897,True
1,0.2777778,-0.6659834,-0.3092484,-0.4018762,-1.383978,-3.783992,3.010953,0.5156426,1.309403,0.4651227,-1.226061,0.181291,0.2,7.1,0.03198674,-0.08607195,0.6187264,-0.3569728,-3.759239,-0.4305423,0.5386074,1.536419,0.3741324,-0.09246142,-0.196376,-0.1823189,-0.6414372,0.2544701,-0.03054593,0.6185995,1.562106,0.2279916,0.4256964,1.042316,0.2643177,325.3567,216.496,352.4989,True
1,0.2888889,-0.7010797,-0.34179,-0.4719649,-1.376818,-3.777695,3.018742,0.514047,1.31048,0.4638584,-1.226723,-0.06232517,2.4,11.1,-0.003590465,-0.1753411,0.6087511,-0.3488943,-3.766133,-0.4225582,0.5396258,1.537448,0.3734543,-0.06919774,-0.2380053,-0.1962204,-0.6439646,0.2471806,-0.02483051,0.6189225,1.562073,0.2275391,0.4232399,1.045825,0.2626302,324.8036,215.9693,353.147,True
1,0.3,-0.7202627,-0.3441433,-0.4985735,-1.370765,-3.772913,3.026526,0.512973,1.311502,0.4629536,-1.227548,-0.07435775,2.4,11.1,-0.02886355,-0.2921457,0.5739351,-0.3411382,-3.782803,-0.4055486,0.5407738,1.538303,0.3729122,-0.03190884,-0.2700002,-0.1911006,-0.6457271,0.2400282,-0.02034628,0.6194063,1.56195,0.2269788,0.4203155,1.04966,0.2598056,323.9322,215.1652,353.7846,True
1,0.3111111,-0.7823234,-0.242318,-0.5375653,-1.363186,-3.773493,3.037551,0.5122791,1.312706,0.462199,-1.228611,-0.09623545,2.4,11.1,-0.02593264,-0.3378835,0.5639366,-0.3336579,-3.790512,-0.3982393,0.5419482,1.539094,0.3724322,-0.01792467,-0.2678397,-0.1752443,-0.6469707,0.2352768,-0.01687512,0.6199291,1.561822,0.2264323,0.4173496,1.053806,0.2563377,322.7721,214.2399,354.3629,True
1,0.3222222,-0.8337802,-0.1200752,-0.5564479,-1.355873,-3.776444,3.049323,0.5110676,1.313638,0.4611435,-1.229296,-0.06158821,2.4,11.1,-0.02295703,-0.3601437,0.5498697,-0.3267145,-3.797419,-0.3916596,0.5430981,1.539603,0.3717821,0.002108365,-0.2764653,-0.1988207,-0.6500621,0.2296786,-0.01324683,0.6205932,1.56171,0.22596,0.414358,1.057935,0.2524723,321.5326,213.3247,354.8233,True
1,0.3333333,-0.8554049,-0.008509025,-0.5901881,-1.347604,-3.779765,3.060376,0.51006,1.314554,0.4600995,-1.227465,0.1680268,1.3,12.9,-0.04867813,-0.3385478,0.5268741,-0.3210025,-3.799732,-0.3879032,0.5442408,1.540342,0.37111,0.002828509,-0.2659603,-0.2425373,-0.6545027,0.2252175,-0.009775399,0.6212859,1.561599,0.2255383,0.4116144,1.062019,0.2488078,320.3141,212.557,355.1463,True
1,0.3444445,-0.8554049,-0.008509025,-0.5901881,-1.347604,-3.779765,3.060376,0.51006,1.314554,0.4600995,-1.227396,0.00534544,1.3,12.9,-0.04867813,-0.3385478,0.5268741,-0.3210025,-3.799732,-0.3879032,0.5442408,1.540342,0.37111,0.002828509,-0.2659603,-0.2425373,-0.6545027,0.2252175,-0.009775399,0.6212859,1.561599,0.2255383,0.4087673,1.065862,0.2455161,319.3953,211.9573,355.2949,True
1,0.3555556,-0.9250449,0.1392028,-0.61456,-1.332729,-3.786594,3.084277,0.5074772,1.316213,0.4581163,-1.238638,-1.027783,1.3,12.9,-0.1213301,-0.2558237,0.4771583,-0.3117725,-3.797168,-0.385067,0.5462592,1.541561,0.3698556,-0.007851362,-0.1999412,-0.2554359,-0.6604677,0.2213541,-0.00616149,0.6225142,1.561544,0.2250543,0.4055474,1.069422,0.2426777,318.6039,211.5809,355.5254,True
1,0.3666667,-0.9752352,0.1836284,-0.6404035,-1.324502,-3.789669,3.097451,0.5058014,1.317216,0.4569049,-1.219288,1.778033,1.3,12.9,-0.1639159,-0.1744744,0.4516302,-0.3086827,-3.788308,-0.3899709,0.5474365,1.542126,0.3691342,-0.02276593,-0.1775639,-0.258577,-0.6633343,0.2193702,-0.003692739,0.6233418,1.561465,0.2246764,0.4027036,1.072567,0.2409178,317.4961,211.2864,355.9745,True
1,0.3777778,-1.02528,0.1629315,-0.6871128,-1.315158,-3.790142,3.11101,0.5040492,1.318262,0.4555631,-1.226225,-0.6501116,1.3,12.9,-0.19722,-0.07242413,0.4932992,-0.3034272,-3.769305,-0.4045126,0.5487199,1.542655,0.3684363,-0.01222119,-0.1850735,-0.2703594,-0.6667868,0.2156479,-0.001005343,0.6241474,1.561474,0.2244141,0.3983585,1.074688,0.238823,317.7649,210.6633,356.3767,True
1,0.3888889,-1.08049,0.0846296,-0.7441099,-1.304857,-3.787466,3.12438,0.5021185,1.319358,0.4540644,-1.227603,-0.1179751,0.6,10.7,-0.2245152,-0.06196591,0.5298843,-0.2965217,-3.760586,-0.4094064,0.5501416,1.543258,0.3677788,0.007881552,-0.2160325,-0.2810825,-0.670357,0.2094849,0.002945723,0.6247524,1.56157,0.2241681,0.3928866,1.07699,0.2368764,317.9358,210.1427,357.0298,True
1,0.4,-1.116594,0.03208992,-0.7789047,-1.294968,-3.785366,3.137691,0.5003263,1.320447,0.4526372,-1.227122,0.04463218,0.6,10.7,-0.2435754,-0.1090073,0.5584484,-0.2885386,-3.760308,-0.4062285,0.5515168,1.543814,0.3671966,0.01419345,-0.2288488,-0.2885513,-0.6739427,0.2044697,0.006416088,0.6255721,1.561565,0.2238529,0.3867975,1.079884,0.235151,317.7403,209.8363,358.0431,True
1,0.4111111,-1.170751,-0.04392524,-0.8146076,-1.284568,-3.781707,-3.131178,0.4982111,1.321648,0.4510472,-1.226913,0.01889519,0.6,10.7,-0.2727681,-0.214322,0.5536082,-0.280434,-3.774256,-0.3887549,0.5528904,1.544256,0.3667266,0.02296537,-0.2245006,-0.2588011,-0.6754559,0.2011657,0.008520517,0.6263352,1.561376,0.2234497,0.3806003,1.083463,0.2334457,317.2432,209.3509,359.498,True
1,0.4222222,-1.220666,-0.1038446,-0.8323001,-1.274753,-3.778381,-3.116665,0.4960827,1.322631,0.4494886,-1.227561,-0.05906412,0.6,10.7,-0.2938673,-0.3257234,0.5081483,-0.2739786,-3.795545,-0.3643191,0.5542857,1.544733,0.3663747,0.01556429,-0.2159565,-0.2534379,-0.6780562,0.1977225,0.0112942,0.6271462,1.561316,0.2231824,0.3746993,1.087654,0.231467,316.5681,208.585,1.124443,True
1,0.4333333,-1.251432,-0.1551822,-0.8500587,-1.264613,-3.774927,-3.102556,0.4938434,1.323651,0.448046,-1.226665,0.08290118,0.6,10.7,-0.3007715,-0.3658782,0.4716597,-0.2683843,-3.81075,-0.3460743,0.5555418,1.545012,0.3660717,0.01335248,-0.1893676,-0.2673532,-0.6816446,0.1961293,0.01252192,0.6280527,1.561195,0.2230089,0.3693246,1.092317,0.229013,315.761,207.7026,2.585753,True
1,0.4444444,-1.279107,-0.1681304,-0.8616768,-1.254429,-3.773044,-3.087721,0.4919086,1.324684,0.4466119,-1.226916,-0.0234307,1.6,10.3,-0.2978065,-0.3518,0.4429894,-0.2635624,-3.816648,-0.3372393,0.5567511,1.54536,0.3656526,0.01642498,-0.1840998,-0.2833765,-0.6854678,0.1930832,0.01452994,0.628973,1.561296,0.2230086,0.3644697,1.097225,0.225828,314.9293,206.6518,3.869051,True
1,0.4555556,-1.325022,-0.1321653,-0.8821285,-1.243729,-3.773623,-3.07095,0.4895981,1.325664,0.4451635,-1.227781,-0.07840761,1.6,10.3,-0.277909,-0.3141902,0.3951609,-0.2605509,-3.82093,-0.3308014,0.5577059,1.5454,0.3653409,0.01424527,-0.1617565,-0.2930181,-0.6891867,0.1916716,0.01555526,0.6298106,1.561155,0.2228966,0.3601445,1.10225,0.2219143,314.0231,205.4337,4.982333,True
1,0.4666667,-1.348631,-0.06518738,-0.8879095,-1.23354,-3.776011,-3.054392,0.4875762,1.326542,0.4437516,-1.228016,-0.02054393,1.6,10.3,-0.2822155,-0.2553677,0.3701245,-0.2571612,-3.819578,-0.3287286,0.5587214,1.545511,0.3649735,0.0175302,-0.1468253,-0.2856289,-0.6919638,0.1900224,0.01638936,0.6306961,1.560948,0.2226138,0.3563656,1.10733,0.217533,313.0615,204.038,5.975388,True
1,0.4777778,-1.360476,-0.01835419,-0.8892727,-1.223682,-3.778703,-3.037845,0.4853373,1.327561,0.4423051,-1.227261,0.06946348,1.6,10.3,-0.3002546,-0.2104815,0.3610902,-0.2534744,-3.817305,-0.3268732,0.5596604,1.545678,0.3646047,0.01870316,-0.1329437,-0.2750299,-0.6946041,0.1886494,0.01717313,0.6315402,1.560767,0.2224994,0.3529498,1.112392,0.21294,312.1302,202.5494,6.83717,True
1,0.4888889,-1.380871,0.04336181,-0.8865064,-1.214055,-3.782423,-3.020635,0.4832249,1.32852,0.4407768,-1.228391,-0.1034845,0.5,8.6,-0.3334363,-0.19312,0.3381299,-0.2502295,-3.819541,-0.3198877,0.5605958,1.545811,0.3642914,0.009027511,-0.1191231,-0.2877804,-0.6983613,0.1874672,0.01839792,0.6325288,1.560554,0.2223892,0.3494095,1.11739,0.2082708,311.3072,201.0668,7.577419,True
1,0.5,-1.380871,0.04336181,-0.8865064,-1.214055,-3.782423,-3.020635,0.4832249,1.32852,0.4407768,-1.229004,-0.05480525,0.5,8.6,-0.3334363,-0.19312,0.3381299,-0.2502295,-3.819541,-0.3198877,0.5605958,1.545811,0.3642914,0.009027511,-0.1191231,-0.2877804,-0.6983613,0.1874672,0.01839792,0.6325288,1.560554,0.2223892,0.3455458,1.12243,0.203855,310.5163,199.6773,8.377799,True
1,0.5111111,-1.403629,0.1904109,-0.8735895,-1.196562,-3.794503,-2.985148,0.4787342,1.330374,0.4377773,-1.244467,-1.413687,0.5,8.6,-0.4438354,-0.2006999,0.2741889,-0.2448372,-3.834211,-0.2926449,0.5617197,1.545695,0.3637769,-0.01996356,-0.06273612,-0.3239372,-0.7068371,0.1881975,0.01923069,0.6340933,1.560289,0.2222462,0.3416632,1.12771,0.2001818,309.619,198.6176,9.367308,True
1,0.5222223,-1.411197,0.2373046,-0.86009,-1.188096,-3.800068,-2.967474,0.476675,1.331107,0.4363492,-1.214734,2.730354,0.5,8.6,-0.4662874,-0.1652952,0.2534001,-0.2426997,-3.833833,-0.2872552,0.5623779,1.545555,0.3636255,-0.02812515,-0.01893075,-0.2877909,-0.7086352,0.1902892,0.01820377,0.6346824,1.560232,0.2223375,0.3385563,1.132629,0.1979376,308.1466,197.5016,10.65477,True
1,0.5333334,-1.42734,0.3024351,-0.8306747,-1.181199,-3.807869,-2.948346,0.4744189,1.33179,0.4348786,-1.227266,-1.17032,0.5,8.6,-0.4686967,-0.0817104,0.1955233,-0.2434385,-3.8249,-0.290638,0.5625503,1.545268,0.363616,-0.03838767,0.006787982,-0.2451744,-0.7097468,0.1918657,0.01778885,0.6353742,1.560158,0.2223465,0.3329227,1.136576,0.1942544,308.4934,196.5192,11.28464,True
1,0.5444446,-1.443369,0.3291914,-0.8042095,-1.174267,-3.814137,-2.929737,0.4720169,1.332708,0.4334671,-1.230065,-0.2424231,1.3,6.8,-0.461551,-0.0729346,0.1614202,-0.2426289,-3.827073,-0.2837968,0.5627332,1.54506,0.3636158,-0.0639068,0.02813486,-0.2429021,-0.7124627,0.1933161,0.01825783,0.6360351,1.559889,0.2222283,0.326339,1.141247,0.1907808,308.5248,195.5343,12.38529,True
1,0.5555557,-1.444506,0.3591469,-0.7841614,-1.167634,-3.821329,-2.911106,0.4697478,1.333465,0.4319994,-1.22983,0.02257393,1.3,6.8,-0.4522414,-0.07273892,0.1336285,-0.2419354,-3.829706,-0.2766271,0.5630144,1.544848,0.3635645,-0.07143907,0.03131037,-0.2524377,-0.7155477,0.194111,0.01870098,0.636701,1.55973,0.222213,0.3196142,1.146761,0.1879137,307.8951,194.8147,13.86386,True
1,0.5666668,-1.436136,0.404203,-0.7502671,-1.162592,-3.830254,-2.89155,0.4674901,1.334698,0.4313011,-1.229907,-0.007309317,1.3,6.8,-0.4281899,-0.05535516,0.08240102,-0.2426635,-3.830688,-0.2717468,0.5633068,1.544748,0.3635011,-0.08299704,0.0505556,-0.2375001,-0.7178263,0.1960427,0.0184099,0.6375427,1.559587,0.2223847,0.3130572,1.152921,0.1854541,306.9345,194.1453,15.53141,True
1,0.577778,-1.436136,0.404203,-0.7502671,-1.162592,-3.830254,-2.89155,0.4674901,1.334698,0.4313011,-1.230415,-0.0463063,1.3,6.8,-0.4281899,-0.05535516,0.08240102,-0.2426635,-3.830688,-0.2717468,0.5633068,1.544748,0.3635011,-0.08299704,0.0505556,-0.2375001,-0.7178263,0.1960427,0.0184099,0.6375427,1.559587,0.2223847,0.3068997,1.159489,0.183144,305.9214,193.253,17.35277,True
1,0.5888891,-1.420259,0.4373973,-0.7185743,-1.157022,-3.838115,-2.872862,0.4656187,1.335412,0.4299295,-1.245895,-1.415231,1.3,6.8,-0.4046434,-0.05125597,0.09178779,-0.2412574,-3.830755,-0.2679766,0.5635702,1.544676,0.3634243,-0.1082967,0.08050921,-0.2096901,-0.719143,0.1990781,0.01827381,0.6381534,1.559507,0.222538,0.3017097,1.166306,0.1811043,304.7737,192.3301,19.25761,True
1,0.6000003,-1.39899,0.4568498,-0.6856749,-1.152329,-3.846127,-2.854789,0.4633415,1.336492,0.4281487,-1.230754,1.395834,1.6,4.3,-0.4151224,-0.07166478,0.1162258,-0.2386863,-3.834461,-0.2594063,0.5637639,1.544585,0.3632803,-0.1178402,0.1167439,-0.2107918,-0.7215217,0.2030333,0.01687832,0.6387465,1.559429,0.2226615,0.2988681,1.172582,0.1803039,303.0248,190.9409,21.38556,True
1,0.6111114,-1.386258,0.4760807,-0.6677676,-1.147116,-3.853792,-2.836908,0.4615335,1.337288,0.4265826,-1.228933,0.1528273,1.6,4.3,-0.4386102,-0.09931439,0.1215608,-0.2366783,-3.841075,-0.2472865,0.563982,1.544543,0.3631001,-0.134943,0.1380337,-0.2213783,-0.7243963,0.2062018,0.01646633,0.6393409,1.55921,0.2228696,0.2960865,1.177518,0.1788089,302.2685,189.9082,22.39196,True
1,0.6222225,-1.384223,0.5157173,-0.6392409,-1.143532,-3.863425,-2.817657,0.4594635,1.338152,0.4248924,-1.229803,-0.07959572,1.6,4.3,-0.5055307,-0.12487,0.1507739,-0.2337739,-3.847996,-0.2326484,0.5639224,1.544387,0.362958,-0.1509842,0.1571971,-0.2319595,-0.7273146,0.2098629,0.01594461,0.6399173,1.559038,0.2229819,0.2926804,1.181562,0.1762096,302.2239,189.1159,22.9132,True
1,0.6333337,-1.386438,0.5509635,-0.6224288,-1.139831,-3.873232,-2.798031,0.4571863,1.339192,0.4233623,-1.230162,-0.03185394,1.6,4.3,-0.5406136,-0.1333486,0.1617038,-0.2313701,-3.852868,-0.2207537,0.5638985,1.544236,0.3628533,-0.1531148,0.1582735,-0.2319468,-0.729851,0.2127079,0.01554913,0.6406159,1.558943,0.2232153,0.288666,1.185364,0.1727799,302.3527,188.5378,23.2825,True
1,0.6444448,-1.388741,0.614006,-0.5940599,-1.137636,-3.884761,-2.777668,0.4552639,1.339801,0.4217813,-1.229788,0.03445702,1.6,4.3,-0.5816435,-0.1519768,0.1140167,-0.2312833,-3.863217,-0.2029097,0.5636834,1.544049,0.3627098,-0.162708,0.1540257,-0.2318534,-0.7324103,0.2151081,0.01590253,0.641133,1.558797,0.2233005,0.2845193,1.189431,0.1691598,302.2977,187.8625,23.88304,True
1,0.655556,-1.376147,0.6899695,-0.5487599,-1.136892,-3.897211,-2.757396,0.4531361,1.340386,0.4202783,-1.229623,0.01499411,10,4.2,-0.6120428,-0.1396431,0.05262825,-0.2325153,-3.869822,-0.1886972,0.5632077,1.543666,0.3626339,-0.1605063,0.1540515,-0.2233578,-0.7347294,0.2177217,0.01570732,0.6414508,1.558574,0.2233183,0.2802875,1.194106,0.1656036,302.0234,187.1373,24.56356,True
1,0.6666671,-1.344362,0.7616792,-0.5119522,-1.136763,-3.910196,-2.737978,0.4508739,1.341024,0.4187121,-1.229774,-0.01384133,10,4.2,-0.6154783,-0.07745165,0.006300844,-0.2342298,-3.865689,-0.1856836,0.5627127,1.543471,0.3625691,-0.1593069,0.167943,-0.2095627,-0.7365622,0.2213106,0.01479279,0.6418676,1.558434,0.2234681,0.2759767,1.199589,0.1623219,301.5289,186.2111,25.50959,True
1,0.6777782,-1.300765,0.7918859,-0.4737985,-1.136953,-3.922064,-2.719588,0.4487557,1.341594,0.417145,-1.230426,-0.05926346,10,4.2,-0.5899743,-0.0796234,0.0006924048,-0.2342314,-3.869563,-0.1761604,0.5622231,1.543138,0.362479,-0.1569366,0.184007,-0.1830005,-0.7376589,0.2253261,0.01353312,0.6421546,1.55825,0.2235808,0.271528,1.20589,0.1593763,300.7483,185.1471,26.76839,True
1,0.6888894,-1.268871,0.7972773,-0.4547668,-1.135946,-3.932458,-2.701837,0.4469693,1.341853,0.4155064,-1.231637,-0.1101764,10,4.2,-0.5791671,-0.08940637,0.01968123,-0.2330884,-3.874727,-0.1649969,0.5618016,1.542924,0.3623579,-0.1729721,0.2159516,-0.1946871,-0.7402261,0.230577,0.01219062,0.6423734,1.558115,0.2238693,0.2668169,1.212882,0.1567238,299.745,183.9652,28.29245,True
1,0.7000005,-1.21875,0.7902218,-0.4185253,-1.136444,-3.94278,-2.685567,0.4448373,1.342397,0.4138958,-1.232262,-0.05631827,5.8,1.3,-0.5855879,-0.1171407,0.02697088,-0.2320817,-3.884043,-0.1491274,0.5613235,1.542736,0.3622339,-0.1975207,0.2521684,-0.2063172,-0.7429373,0.2367466,0.01072455,0.6426254,1.558015,0.2240844,0.261844,1.220321,0.154369,298.6024,182.5883,30.18135,True
1,0.7111117,-1.177256,0.7946842,-0.3856054,-1.137072,-3.952462,-2.669557,0.4429704,1.342799,0.4124835,-1.232206,0.005368974,5.8,1.3,-0.6329426,-0.1902974,0.005530119,-0.2321834,-3.904202,-0.1209312,0.5606598,1.542428,0.3622789,-0.2071367,0.2777393,-0.2137753,-0.7454507,0.2426811,0.008896822,0.6428967,1.557949,0.22434,0.2568627,1.227843,0.1523662,297.3911,180.9567,32.55688,True
1,0.7222228,-1.159166,0.8055486,-0.3611819,-1.138574,-3.963334,-2.652622,0.4408658,1.34317,0.4109571,-1.233452,-0.1142218,5.8,1.3,-0.6764331,-0.2610021,-0.05641998,-0.234274,-3.928157,-0.0886585,0.5598227,1.542173,0.3621802,-0.2295148,0.304386,-0.2190006,-0.7480808,0.2490476,0.007522631,0.6429777,1.557807,0.2245359,0.2521223,1.235046,0.1506193,296.2833,179.1632,35.17307,True
1,0.7333339,-1.120934,0.8658571,-0.2838156,-1.143624,-3.97519,-2.636418,0.4386363,1.343861,0.4095211,-1.233325,0.01254299,5.8,1.3,-0.6519991,-0.231117,-0.07452671,-0.2355577,-3.935576,-0.07502764,0.5587342,1.542176,0.3620734,-0.2507116,0.3225538,-0.2092892,-0.7499638,0.2551198,0.006504238,0.6431701,1.557594,0.2246361,0.2477021,1.24167,0.1490082,295.3168,177.5288,37.49309,True
1,0.7444451,-1.077399,0.9281721,-0.2235108,-1.149151,-3.987411,-2.620741,0.4365407,1.344302,0.4080677,-1.232589,0.06684636,5.8,1.3,-0.5836306,-0.156728,-0.08311702,-0.236738,-3.933099,-0.07309578,0.5574589,1.542126,0.361762,-0.2801404,0.3674666,-0.1687043,-0.7504074,0.2635254,0.004539891,0.6430745,1.557488,0.2247851,0.2436581,1.247546,0.1474637,294.5246,176.1387,39.40736,True
1,0.7555562,-1.04128,0.9689968,-0.1875648,-1.154341,-3.99949,-2.605278,0.4346398,1.344679,0.4066141,-1.23337,-0.07203811,15.5,1.6,-0.5697191,-0.1183592,-0.09146209,-0.2379801,-3.934052,-0.06631538,0.556228,1.542063,0.3613384,-0.280956,0.3696958,-0.1399359,-0.7508889,0.2697074,0.003019492,0.6429,1.557346,0.2248566,0.2397123,1.252757,0.1457605,293.9409,175.315,40.52885,True
1,0.7666674,-0.9838917,1.019444,-0.1527728,-1.160419,-4.011957,-2.591215,0.4328163,1.344816,0.4051263,-1.233812,-0.03977922,15.5,1.6,-0.6237802,-0.03396767,-0.09447394,-0.2393271,-3.924093,-0.06715347,0.5546837,1.542062,0.3607879,-0.2970528,0.3600895,-0.1525577,-0.7530732,0.2750329,0.00297262,0.6426896,1.557283,0.2248824,0.235762,1.257571,0.1439521,293.4046,175.109,40.91978,True
1,0.7777785,-0.9243437,1.068856,-0.1179786,-1.167133,-4.024625,-2.577846,0.430903,1.344841,0.4034705,-1.233613,0.01810895,15.5,1.6,-0.7074289,0.02682334,-0.06543197,-0.2392344,-3.914984,-0.06528313,0.553045,1.541963,0.3604143,-0.3119116,0.3697069,-0.1482014,-0.754628,0.281509,0.0021268,0.6425321,1.557175,0.2250195,0.231832,1.26215,0.142189,292.8563,174.9224,41.33846,True
1,0.7888896,-0.8839519,1.10753,-0.08734858,-1.174551,-4.03719,-2.564433,0.4289336,1.344888,0.4019394,-1.234711,-0.1008668,15.5,1.6,-0.740409,0.06964862,-0.0764671,-0.2406054,-3.906495,-0.06418112,0.5515303,1.541831,0.3599427,-0.3297475,0.3677061,-0.1160854,-0.7547899,0.2874545,0.001842375,0.6422821,1.557083,0.2250314,0.2279752,1.26662,0.1405941,292.3143,174.5577,41.99614,True
1,0.8000008,-0.8063042,1.160254,-0.04086548,-1.183273,-4.049753,-2.553546,0.4269805,1.344714,0.4003627,-1.235102,-0.03519147,18.4,4.7,-0.7533766,0.1254095,-0.1152935,-0.2435557,-3.894467,-0.06735161,0.549697,1.541829,0.3595111,-0.3528882,0.3763698,-0.08182988,-0.7545966,0.293864,0.001774464,0.6419388,1.557042,0.2249949,0.2241447,1.271029,0.1392253,291.6819,174,42.87981,True
1,0.8111119,-0.7264431,1.177774,-0.002673209,-1.191516,-4.061092,-2.543932,0.4250443,1.344373,0.3988571,-1.234489,0.05595785,18.4,4.7,-0.745137,0.1704839,-0.1608006,-0.246948,-3.882864,-0.07104675,0.5479459,1.541615,0.3591588,-0.360115,0.387117,-0.05623753,-0.7545183,0.3006365,0.0009222527,0.6417053,1.556993,0.2250669,0.2201965,1.27537,0.1380499,290.9724,173.4055,43.83249,True
1,0.8222231,-0.6774132,1.171654,0.01758713,-1.199403,-4.071791,-2.53432,0.4229547,1.344159,0.3972273,-1.236334,-0.1695804,18.4,4.7,-0.729588,0.1932218,-0.2119066,-0.2511579,-3.872622,-0.07345105,0.5460144,1.541331,0.3587117,-0.3630602,0.3957353,-0.02747628,-0.753852,0.3074552,1.358212E-05,0.6413515,1.556934,0.224999,0.2160775,1.279663,0.1370783,290.2355,172.9647,44.68354,True
1,0.8333342,-0.6154556,1.123074,0.05303115,-1.20691,-4.08038,-2.526481,0.4208918,1.34364,0.3957908,-1.236657,-0.02838052,18.4,4.7,-0.709595,0.2008333,-0.241869,-0.2548741,-3.864771,-0.07429474,0.5440198,1.540995,0.3584468,-0.3757727,0.3872583,-0.01881575,-0.7537747,0.3131303,0.0002620551,0.6409447,1.556792,0.224988,0.2118736,1.283802,0.1364035,289.4027,172.3826,45.77573,True
1,0.8444453,-0.5886314,1.059366,0.07153904,-1.213648,-4.088164,-2.517969,0.4189988,1.343135,0.3942325,-1.235689,0.08808828,18.4,4.7,-0.6959941,0.1785447,-0.2581668,-0.2582004,-3.860619,-0.07098363,0.5419972,1.54073,0.3579996,-0.3820905,0.4022015,-0.01241872,-0.753649,0.320365,-0.0005613944,0.640499,1.556659,0.2249124,0.2076579,1.287586,0.1360098,288.5668,171.6926,47.0679,True
1,0.8555565,-0.5757581,1.028563,0.08025318,-1.220607,-4.096499,-2.509103,0.4170933,1.342794,0.3928916,-1.235892,-0.01983877,17.4,3.3,-0.6931574,0.1585388,-0.2871335,-0.2622862,-3.857224,-0.06669035,0.5399238,1.540553,0.3572724,-0.3744672,0.412895,0.004538678,-0.7529859,0.3275403,-0.002146241,0.6399934,1.556613,0.2248797,0.2034164,1.290917,0.1357296,287.8273,171.1787,48.22643,True
1,0.8666676,-0.5416118,1.01173,0.09739324,-1.228166,-4.104549,-2.501545,0.4152749,1.342216,0.3914258,-1.234366,0.1395107,17.4,3.3,-0.7137694,0.1247266,-0.3117108,-0.2665046,-3.85737,-0.05802868,0.5377507,1.540262,0.3567765,-0.3862475,0.4277883,-0.007127874,-0.7534583,0.3349736,-0.003120426,0.6394197,1.556455,0.2248743,0.1993819,1.293664,0.1355272,287.1514,170.7835,49.28647,True
1,0.8777788,-0.4862707,1.04082,0.1216736,-1.237182,-4.114015,-2.494903,0.4134772,1.341646,0.3901403,-1.23353,0.07475028,17.4,3.3,-0.7216332,0.1144138,-0.3490148,-0.2715498,-3.854635,-0.05241793,0.5354029,1.540014,0.3560791,-0.4042595,0.4534048,0.0003976785,-0.7532288,0.3435653,-0.00432018,0.6388453,1.556355,0.2248666,0.1956149,1.295857,0.1352081,286.6306,170.9168,49.74512,True
1,0.8888899,-0.4448232,1.081579,0.1459002,-1.247169,-4.123747,-2.488229,0.4116201,1.34106,0.3887365,-1.234243,-0.06600548,17.4,3.3,-0.6853249,0.1313,-0.346036,-0.2753293,-3.84783,-0.05258571,0.5331481,1.539828,0.3554654,-0.4315431,0.4748899,0.04422651,-0.7513422,0.3521571,-0.005156146,0.6381327,1.556286,0.224833,0.1920903,1.297708,0.1347,286.2418,171.5298,49.54061,True
1,0.900001,-0.3693268,1.135273,0.1774939,-1.258388,-4.134034,-2.483375,0.4098374,1.340466,0.3876305,-1.235245,-0.0911999,17.4,3.3,-0.6093148,0.1905414,-0.3303261,-0.2786183,-3.833413,-0.06238801,0.5308285,1.539646,0.3546367,-0.4250574,0.4855639,0.05372705,-0.750483,0.3605754,-0.006807306,0.6374924,1.556234,0.2247543,0.1887826,1.299388,0.1340327,285.8389,172.1918,49.13244,True
1,0.9111122,-0.286294,1.149476,0.1944744,-1.269163,-4.143433,-2.47952,0.4078948,1.339932,0.3867092,-1.234834,0.03790205,22.4,2.3,-0.5761271,0.2180587,-0.3229716,-0.2822663,-3.822336,-0.0673857,0.5284142,1.539477,0.3537176,-0.4112297,0.4759545,0.05258409,-0.7499377,0.3679555,-0.008123174,0.6367108,1.556257,0.2246382,0.1855616,1.301026,0.1333511,285.3515,172.7643,48.6737,True
1,0.9222233,-0.2426306,1.154946,0.1976174,-1.27917,-4.152875,-2.475532,0.4059994,1.339295,0.3853006,-1.236142,-0.1203279,22.4,2.3,-0.606801,0.226535,-0.3034093,-0.2851473,-3.812821,-0.06851807,0.5260849,1.539251,0.3528121,-0.4112386,0.4653004,0.05154606,-0.7495307,0.3749587,-0.008863267,0.6358232,1.556342,0.224375,0.1822444,1.302736,0.1327555,284.7901,173.3972,48.13315,True
1,0.9333345,-0.194638,1.142302,0.1976916,-1.288706,-4.161689,-2.472633,0.4039492,1.338679,0.3839056,-1.236315,-0.01515401,22.4,2.3,-0.6726134,0.2554203,-0.2897339,-0.2883277,-3.800164,-0.07065713,0.5235903,1.539029,0.3518996,-0.4132745,0.4610802,0.06116404,-0.7485991,0.382486,-0.009827863,0.635052,1.556257,0.2241061,0.1788483,1.304506,0.1325245,284.1475,173.8327,47.81704,True
1,0.9444456,-0.1742924,1.10073,0.1851753,-1.296837,-4.169519,-2.468904,0.4019765,1.337935,0.3825648,-1.235479,0.07602491,22.4,2.3,-0.6884943,0.2682099,-0.2841368,-0.2915117,-3.788891,-0.0731352,0.5211583,1.538808,0.3509855,-0.3993827,0.4280738,0.07288159,-0.7472857,0.3879255,-0.009781258,0.6341484,1.556238,0.2238274,0.1752617,1.306249,0.132701,283.4548,174.0716,47.86621,True
1,0.9555568,-0.1623352,1.013314,0.1708204,-1.30312,-4.175318,-2.465971,0.4000568,1.337326,0.3811612,-1.235615,-0.01357063,12.7,1.3,-0.6223904,0.2593598,-0.2752891,-0.2945414,-3.78135,-0.07576028,0.5187473,1.53867,0.3501377,-0.3887207,0.4227431,0.07175253,-0.7465965,0.3948059,-0.01114852,0.6332848,1.556184,0.223614,0.1713348,1.307889,0.1330993,282.7725,174.3596,48.10585,True
1,0.9666679,-0.1333179,0.9205793,0.1490297,-1.308487,-4.180747,-2.463918,0.3981969,1.336813,0.37989,-1.233951,0.1518998,12.7,1.3,-0.5349573,0.2546986,-0.2655417,-0.2973233,-3.772801,-0.08082401,0.5164439,1.538394,0.3492053,-0.3961036,0.4110727,0.08356918,-0.7453266,0.4010974,-0.01101803,0.6321483,1.556223,0.2233002,0.1671785,1.309299,0.133659,282.1201,174.6581,48.46441,True
1,0.977779,-0.1033178,0.8566294,0.1313203,-1.313802,-4.186177,-2.462367,0.3964017,1.336344,0.378686,-1.233549,0.03515209,12.7,1.3,-0.4761019,0.2585451,-0.2405349,-0.2995555,-3.762882,-0.0867554,0.5140002,1.538028,0.3483868,-0.3970545,0.4132336,0.09205531,-0.7443982,0.4078224,-0.01194987,0.6311287,1.556383,0.2232475,0.163021,1.310386,0.1342788,281.5613,175.297,48.57734,True
1,0.9888902,-0.08407265,0.8353422,0.1239929,-1.320447,-4.192712,-2.460379,0.3945157,1.335827,0.377594,-1.233933,-0.03552546,12.7,1.3,-0.4494016,0.263729,-0.2354294,-0.3022592,-3.753095,-0.09190143,0.5116604,1.537831,0.3474655,-0.381915,0.4282063,0.1174585,-0.742191,0.4158099,-0.01404072,0.6298975,1.556417,0.2229993,0.1591402,1.311123,0.1347941,281.1547,176.2543,48.36731,True
1,1.000001,-0.05732405,0.7927709,0.1189304,-1.325954,-4.197858,-2.459428,0.3926949,1.33534,0.3765211,-1.234095,-0.01472628,12.7,1.3,-0.4323996,0.2476716,-0.2335997,-0.3050523,-3.746492,-0.09371078,0.5093623,1.537611,0.3465574,-0.3668103,0.4293191,0.1354147,-0.7403992,0.4230409,-0.01625966,0.6286759,1.556567,0.2228069,0.1556973,1.311528,0.1351138,280.8707,177.3672,47.82185,True
1,1.011112,-0.03698912,0.7640375,0.1137892,-1.331778,-4.203291,-2.458412,0.3906323,1.334807,0.3754745,-1.233557,0.04903977,6.7,8.2,-0.4303025,0.2327327,-0.2316143,-0.307749,-3.740483,-0.09469508,0.5071224,1.537388,0.3455679,-0.3657927,0.4218456,0.1279945,-0.7391902,0.4297652,-0.01732253,0.6274,1.556386,0.2221344,0.152626,1.311681,0.1351916,280.6387,178.6328,46.86255,True
1,1.022224,-0.002756238,0.7118194,0.09601477,-1.336224,-4.207963,-2.458476,0.3887366,1.33428,0.3744514,-1.233807,-0.02357479,6.7,8.2,-0.4303436,0.2049858,-0.2254601,-0.3102252,-3.736908,-0.09315311,0.5047415,1.537238,0.3444879,-0.3594914,0.385606,0.1248644,-0.7379087,0.4344685,-0.01687272,0.6261817,1.556384,0.2216473,0.1497128,1.311722,0.135056,280.4001,180.1292,45.49334,True
1,1.033335,0.02079028,0.6702628,0.08455484,-1.340458,-4.212435,-2.458461,0.3868732,1.333767,0.3733623,-1.233489,0.02912327,6.7,8.2,-0.4057285,0.1930466,-0.2098198,-0.312049,-3.731734,-0.09431905,0.5025078,1.537071,0.3434036,-0.3394247,0.3482418,0.1131088,-0.7369494,0.4383659,-0.01639176,0.6249996,1.556518,0.2208574,0.1469067,1.311697,0.1347729,280.1797,181.3163,44.39053,True
1,1.044446,0.03789331,0.6521868,0.08146968,-1.345452,-4.217371,-2.4583,0.3851181,1.333242,0.3723392,-1.233987,-0.04606428,6.7,8.2,-0.3811565,0.199306,-0.2046804,-0.3142945,-3.724529,-0.09773055,0.5003222,1.536896,0.342325,-0.333088,0.3290468,0.1099206,-0.7359028,0.4428819,-0.0162562,0.6238458,1.556538,0.2203217,0.1440702,1.311648,0.1343924,279.964,182.2719,43.50303,True
1,1.055557,0.06351535,0.6309037,0.07413889,-1.349815,-4.22197,-2.458894,0.383475,1.332825,0.3712659,-1.23356,0.03920392,4,30.9,-0.3436,0.2245891,-0.1867304,-0.3160474,-3.714139,-0.1050361,0.4981118,1.536763,0.3412421,-0.3234257,0.3098926,0.122689,-0.7340833,0.4471683,-0.01614142,0.6225239,1.556536,0.2197733,0.1413035,1.311514,0.1340542,279.7632,182.8919,42.99818,True
1,1.066668,0.07952411,0.6266031,0.06032126,-1.354507,-4.227431,-2.459221,0.381843,1.332335,0.3702531,-1.233127,0.03900577,4,30.9,-0.3209563,0.2680828,-0.1748723,-0.318105,-3.700617,-0.1150422,0.495944,1.536577,0.3400731,-0.3127578,0.3034949,0.1258201,-0.7325866,0.451974,-0.01657099,0.6210872,1.556634,0.2191908,0.1385788,1.311283,0.1337951,279.578,183.7305,42.30169,True
1,1.077779,0.08373247,0.6424701,0.0410409,-1.35917,-4.233621,-2.458982,0.3803606,1.331787,0.3692837,-1.233453,-0.03031629,4,30.9,-0.3000465,0.3230142,-0.1277486,-0.3186525,-3.683544,-0.1284837,0.4937265,1.536304,0.3390653,-0.3011037,0.3077235,0.1279078,-0.7304454,0.4575179,-0.01667485,0.6196231,1.556536,0.2180858,0.1358755,1.310996,0.1336628,279.3946,185.1285,41.08396,True
1,1.08889,0.08791415,0.6764659,0.02378148,-1.364464,-4.240635,-2.458724,0.3787246,1.331345,0.3682747,-1.23311,0.03148959,4,30.9,-0.2839257,0.3442002,-0.120264,-0.3201482,-3.669731,-0.1389307,0.4917645,1.536056,0.3380039,-0.2797724,0.3034446,0.1320066,-0.7289029,0.4623362,-0.01792068,0.6182118,1.556585,0.2174728,0.133201,1.310665,0.1336703,279.2344,186.5906,39.85021,True
1,1.100002,0.1081964,0.6638547,0.04196408,-1.369601,-4.245368,-2.459686,0.3771536,1.330908,0.367377,-1.232381,0.06610406,4,30.9,-0.2433226,0.3257907,-0.1016565,-0.3212401,-3.661115,-0.1457679,0.4898956,1.535904,0.3369999,-0.2404467,0.2895121,0.1274699,-0.7275809,0.466263,-0.01922083,0.6167427,1.556933,0.2170799,0.1304815,1.310314,0.1338406,279.0765,188.0249,38.64431,True
1,1.111113,0.1200528,0.6191454,0.04118758,-1.373444,-4.249377,-2.46072,0.3754671,1.330574,0.3665314,-1.232232,0.01294387,3.7,50.6,-0.2091034,0.2988444,-0.07877886,-0.3215629,-3.653702,-0.1515959,0.4881817,1.535702,0.3360255,-0.2160146,0.2819967,0.1198365,-0.7265876,0.4705793,-0.02095109,0.6153884,1.556937,0.2164459,0.1276256,1.309999,0.1341972,278.9267,189.6604,37.24921,True
1,1.122224,0.1329478,0.5776277,0.04038441,-1.37679,-4.252932,-2.46193,0.3739015,1.330275,0.3656464,-1.232772,-0.0495393,3.7,50.6,-0.1803756,0.1609283,-0.03227631,-0.3198968,-3.662092,-0.1424413,0.4865058,1.535602,0.3351831,-0.1948403,0.267017,0.113353,-0.7251734,0.474193,-0.02159184,0.6138979,1.556828,0.2157478,0.1245561,1.309802,0.134745,278.7532,191.6657,35.55972,True
1,1.133335,0.1576823,0.4988198,0.03343789,-1.378718,-4.255041,-2.464293,0.3721824,1.329965,0.3647394,-1.232549,0.02073265,3.7,50.6,-0.1935676,0.07049018,-0.04036249,-0.320496,-3.669171,-0.1329999,0.4846568,1.53542,0.3343282,-0.1907656,0.247789,0.09956755,-0.7241103,0.4774805,-0.02149624,0.6123061,1.556873,0.2151978,0.1215257,1.309654,0.135464,278.5211,193.6564,34.03904,True
1,1.144446,0.1579331,0.4071002,0.0169913,-1.379526,-4.256552,-2.465822,0.3706149,1.32951,0.3638165,-1.232394,0.01383721,3.7,50.6,-0.2122919,-0.02616343,-0.06654818,-0.3217184,-3.681016,-0.1187069,0.4828178,1.535249,0.3334394,-0.1917814,0.238222,0.1060051,-0.7227617,0.4809638,-0.0220603,0.6107963,1.556897,0.214484,0.1186352,1.309481,0.1361861,278.3126,195.2948,32.9294,True
1,1.155557,0.1259904,0.3984032,0.003212526,-1.381686,-4.260021,-2.4655,0.3691327,1.329008,0.3629878,-1.233047,-0.05992085,10.7,67.7,-0.1996259,-0.03039038,-0.07630489,-0.3229173,-3.682188,-0.1157341,0.4807935,1.535009,0.3324616,-0.189492,0.2382922,0.1262415,-0.7205204,0.4854345,-0.02330159,0.6091882,1.556828,0.2141635,0.115973,1.309225,0.1367618,278.142,196.5998,32.12329,True
1,1.166668,0.1015742,0.366307,-0.009357348,-1.383474,-4.263109,-2.465244,0.3675988,1.328633,0.3622642,-1.231973,0.09853124,10.7,67.7,-0.1460724,0.05465491,-0.07719732,-0.3241674,-3.671572,-0.1258194,0.4787736,1.534772,0.3313735,-0.1689797,0.2362327,0.1580376,-0.7176729,0.4895531,-0.02532986,0.6075191,1.556865,0.2133617,0.1136056,1.308758,0.1370483,277.9904,197.1564,31.97477,True
1,1.17778,0.08889301,0.3268096,-0.01655382,-1.38465,-4.265275,-2.465406,0.3660904,1.328269,0.361465,-1.230259,0.1557561,10.7,67.7,-0.08915322,0.1694677,-0.07255563,-0.325597,-3.654353,-0.1429489,0.4767474,1.534645,0.3303118,-0.1615714,0.2266248,0.1601663,-0.7155099,0.4928361,-0.02556821,0.6058856,1.55696,0.2124817,0.1115344,1.308009,0.1369651,277.9315,197.5828,31.76657,True
1,1.188891,0.08257236,0.2990849,-0.01850161,-1.386042,-4.267386,-2.465775,0.3645822,1.327823,0.3605955,-1.229614,0.05701324,10.7,67.7,-0.06552777,0.2397458,-0.07859845,-0.3273483,-3.639553,-0.1569675,0.4749025,1.534396,0.3292379,-0.1552048,0.2170223,0.158013,-0.7139162,0.4960811,-0.02657222,0.6043084,1.557055,0.2117653,0.1095521,1.307113,0.1365676,277.9953,198.7658,30.56435,True
1,1.200002,0.09010117,0.2724799,-0.01726793,-1.3872,-4.269114,-2.466693,0.3632143,1.327593,0.3597405,-1.228972,0.0573662,10.7,67.7,-0.06232899,0.2942069,-0.09629083,-0.3297377,-3.626,-0.1689046,0.4731262,1.534269,0.3281808,-0.1361055,0.198886,0.15793,-0.711921,0.498687,-0.02703561,0.6027652,1.557181,0.2109067,0.1075906,1.306196,0.1360027,278.1309,200.1024,29.13312,True
1,1.211113,0.1103826,0.2586621,-0.02145081,-1.388506,-4.271399,-2.468245,0.3617061,1.327547,0.358861,-1.227742,0.1105858,12.8,73.5,-0.07091662,0.3028392,-0.1057206,-0.3318245,-3.615703,-0.1775745,0.4714006,1.534082,0.3271625,-0.1300252,0.1902524,0.1259704,-0.7112893,0.5015385,-0.02752164,0.6013808,1.557208,0.2102818,0.1056699,1.305287,0.1353703,278.2425,201.0488,28.14079,True
1,1.222224,0.1381108,0.248088,-0.02139063,-1.389936,-4.273581,-2.470293,0.3602866,1.327412,0.3581674,-1.226129,0.1447065,12.8,73.5,-0.08681107,0.300687,-0.09598939,-0.3330294,-3.60687,-0.1842425,0.4698618,1.533937,0.3262744,-0.1217477,0.1720477,0.09826089,-0.7111029,0.5035924,-0.02811286,0.5999449,1.557302,0.2095666,0.1037985,1.304353,0.1347396,278.2925,201.8679,27.3274,True
1,1.233335,0.1445513,0.2267638,-0.02658204,-1.390694,-4.275276,-2.471727,0.3588511,1.327031,0.3573306,-1.224187,0.1740188,12.8,73.5,-0.09001142,0.2483493,-0.07721527,-0.3333702,-3.603925,-0.1858375,0.4683136,1.533866,0.3254168,-0.115421,0.1581816,0.09614447,-0.7096952,0.5057037,-0.02826706,0.5984087,1.557408,0.2088995,0.1019833,1.303352,0.1341628,278.3494,202.7939,26.42293,True
1,1.244446,0.1403998,0.1895549,-0.01354912,-1.391597,-4.275868,-2.47303,0.3573759,1.326784,0.3567038,-1.221343,0.2558379,12.8,73.5,-0.08704355,0.1438126,-0.06212829,-0.3330848,-3.609556,-0.1795514,0.4668118,1.533876,0.3246114,-0.101604,0.1453708,0.09286841,-0.7088307,0.5075145,-0.02911341,0.5969562,1.557516,0.2081363,0.1001112,1.30223,0.1336935,278.4198,203.7026,25.50331,True
1,1.255558,0.1457874,0.1683252,-0.003826294,-1.392523,-4.276604,-2.474726,0.3561504,1.326474,0.3558595,-1.216731,0.416411,12.8,73.5,-0.09080334,0.03958006,-0.08107042,-0.3340344,-3.619663,-0.168862,0.465299,1.533821,0.3237607,-0.0993352,0.1305192,0.1141956,-0.7068605,0.5092271,-0.02903671,0.5954082,1.557769,0.2075908,0.09819809,1.300849,0.1334418,278.4504,204.5249,24.708,True
1,1.266669,0.1563566,0.1982843,0.009817615,-1.395053,-4.279117,-2.476249,0.3551471,1.326127,0.3550556,-1.211832,0.4408707,14.7,83.4,-0.1070158,-0.000771597,-0.08976573,-0.3350949,-3.624568,-0.1624611,0.4636836,1.533704,0.3228793,-0.1076212,0.1391274,0.1398079,-0.7045243,0.5121676,-0.02991769,0.5940883,1.557775,0.2068524,0.0961854,1.299095,0.1333529,278.5084,205.6169,23.74445,True
1,1.27778,0.1529807,0.2686873,0.02534363,-1.398932,-4.282832,-2.477221,0.3542256,1.325598,0.3541811,-1.207264,0.4102791,14.7,83.4,-0.09821139,0.07694823,-0.08814204,-0.3366672,-3.614011,-0.1714367,0.4619651,1.533495,0.3219774,-0.1106375,0.1466493,0.1600521,-0.7021142,0.5151923,-0.03089,0.592696,1.557859,0.2061503,0.09414184,1.296952,0.1333569,278.6834,207.5104,22.07128,True
1,1.288891,0.1336741,0.3187288,0.02930073,-1.402576,-4.286614,-2.477413,0.3531777,1.32486,0.3531003,-1.201935,0.479693,14.7,83.4,-0.07984,0.1461166,-0.0866863,-0.3382886,-3.60283,-0.1816976,0.4603587,1.533333,0.3210161,-0.08818194,0.1423942,0.1705287,-0.699834,0.5175975,-0.03250228,0.5913996,1.557921,0.205452,0.09217167,1.29443,0.1333858,278.9694,209.9487,19.89996,True
1,1.300002,0.1090066,0.3826421,0.03848668,-1.407246,-4.291408,-2.477002,0.3523574,1.324278,0.3523347,-1.195581,0.5724267,14.7,83.4,-0.06015643,0.2364416,-0.06801905,-0.3394833,-3.585345,-0.1982313,0.4588377,1.533109,0.3200619,-0.0671317,0.1230926,0.1416367,-0.6994606,0.5183898,-0.03323572,0.5902387,1.557875,0.204756,0.09025367,1.291606,0.1334661,279.3277,212.9085,17.14184,True
1,1.311113,0.1122279,0.3827867,0.05872817,-1.410958,-4.29408,-2.478131,0.3513332,1.32403,0.3515377,-1.188354,0.6512924,17.7,90.3,-0.04902151,0.2862289,-0.03788579,-0.339927,-3.570688,-0.2118172,0.4575272,1.532878,0.3191776,-0.05143614,0.1112592,0.1095797,-0.6993951,0.519669,-0.03419552,0.5890907,1.557894,0.2040462,0.08823507,1.288581,0.1335924,279.6938,216.0699,14.17974,True
1,1.322224,0.1154671,0.3657444,0.05777107,-1.41361,-4.296507,-2.479145,0.3502747,1.323678,0.350769,-1.180997,0.6622339,17.7,90.3,-0.04396997,0.2575921,-0.05522305,-0.3414508,-3.566041,-0.2158524,0.4562722,1.532763,0.3183968,-0.04290339,0.104864,0.1116576,-0.698112,0.5212032,-0.03519714,0.5879351,1.557924,0.2033451,0.08603565,1.285446,0.1337401,280.1046,219.0861,11.38283,True
1,1.333336,0.1467393,0.2251797,0.05334284,-1.41256,-4.294376,-2.482328,0.3489999,1.323649,0.3498793,-1.174893,0.5473515,17.7,90.3,-0.04564026,0.1608695,-0.08051139,-0.3428276,-3.571197,-0.2103689,0.4550918,1.532655,0.3176427,-0.04700319,0.09533463,0.1308865,-0.696031,0.5224538,-0.03554415,0.5870235,1.557889,0.2026565,0.08379143,1.282351,0.1340281,280.6194,222.1753,8.524514,True
1,1.344447,0.1737111,0.09416032,0.04352403,-1.410982,-4.292133,-2.485411,0.3477386,1.323635,0.3492057,-1.167201,0.6933007,17.7,90.3,-0.07595341,0.07803705,-0.09900658,-0.3441188,-3.577205,-0.2029406,0.4539809,1.532691,0.3169265,-0.05984553,0.08254595,0.1246405,-0.6948975,0.5234126,-0.03528715,0.5859226,1.557958,0.2018943,0.08162051,1.279356,0.1344034,281.1178,224.6939,6.327008,True
1,1.355558,0.1952033,0.02170886,0.03332986,-1.409693,-4.290388,-2.488597,0.3466814,1.323581,0.3483508,-1.160551,0.5963582,17.7,90.3,-0.0922045,0.02809988,-0.106717,-0.3453204,-3.581016,-0.1975738,0.4526576,1.532677,0.3161423,-0.06099209,0.0665452,0.1172413,-0.6938291,0.5238491,-0.03489567,0.5849394,1.55806,0.2011755,0.07961768,1.276402,0.134743,281.5391,226.4337,4.999912,True
1,1.366669,0.2124417,-0.05509068,0.01144646,-1.407509,-4.288517,-2.491804,0.3458804,1.3235,0.3474476,-1.152022,0.7687838,15.1,88.1,-0.1081876,-0.01778257,-0.09095689,-0.3454621,-3.586412,-0.190742,0.4515709,1.532734,0.3152714,-0.07820372,0.05372684,0.09931462,-0.6933103,0.524124,-0.03371109,0.584092,1.558121,0.2004948,0.07800938,1.273302,0.1348079,281.8987,227.0324,4.809495,True
1,1.37778,0.2039181,-0.05844725,-0.00983423,-1.406307,-4.28832,-2.49385,0.3454391,1.323235,0.3467016,-1.143205,0.7932685,15.1,88.1,-0.1206132,0.0311143,-0.07231268,-0.3460107,-3.580232,-0.1948275,0.4503891,1.532661,0.3143616,-0.1135039,0.06648494,0.07933348,-0.6930823,0.5258275,-0.03277712,0.5831587,1.558237,0.1998429,0.07683408,1.269895,0.1344865,282.3036,227.2699,4.75127,True
1,1.388891,0.1812978,0.03528292,-0.004037339,-1.408739,-4.291171,-2.494531,0.3452191,1.322731,0.3461366,-1.133932,0.8346079,15.1,88.1,-0.1265802,0.1151942,-0.05983112,-0.347069,-3.56852,-0.2042474,0.4493005,1.532558,0.3134491,-0.1156921,0.07605234,0.07079203,-0.6925673,0.5277081,-0.03293904,0.5823708,1.558186,0.1993062,0.07604112,1.266098,0.1337828,282.8047,227.6113,4.401708,True
1,1.400002,0.1651056,0.1162082,-0.003488014,-1.411133,-4.294403,-2.495301,0.3448978,1.322269,0.3454924,-1.123527,0.9377501,15.1,88.1,-0.1301385,0.240698,-0.03317883,-0.3481082,-3.54726,-0.2225455,0.4482937,1.532475,0.3125961,-0.08909792,0.08771777,0.06414727,-0.6921183,0.5298862,-0.03447276,0.5815463,1.558174,0.1987588,0.07563952,1.261863,0.1328257,283.4346,227.8073,4.0323,True
1,1.411114,0.155218,0.2323911,0.009615932,-1.415602,-4.299341,-2.495938,0.3446274,1.321782,0.3450503,-1.112917,0.9555377,12.6,90.2,-0.0980942,0.2843232,-0.0395344,-0.3498313,-3.535156,-0.2338389,0.447363,1.532632,0.3116941,-0.08696534,0.09408848,0.06196856,-0.6916565,0.5315354,-0.03509593,0.5807465,1.558142,0.1981356,0.07549288,1.257286,0.1318672,284.2144,228.3116,3.152771,True
1,1.422225,0.1561602,0.2846628,0.0199328,-1.41885,-4.302716,-2.497362,0.3441638,1.321342,0.3445809,-1.103224,0.8715621,12.6,90.2,-0.04311556,0.2310455,-0.06183888,-0.3513066,-3.533822,-0.2363289,0.44662,1.53243,0.3110743,-0.07534143,0.07274233,0.05234202,-0.6915494,0.5316332,-0.03483681,0.5800041,1.558095,0.1975224,0.07524622,1.252605,0.1311752,285.0928,229.6227,1.428971,True
1,1.433336,0.1519701,0.2580407,0.02330285,-1.42039,-4.304152,-2.498688,0.3437828,1.320911,0.3442547,-1.093361,0.8875735,12.6,90.2,-0.02654842,0.1565856,-0.08287213,-0.3527245,-3.537209,-0.2333459,0.4457413,1.532359,0.3104904,-0.07211257,0.04932949,0.06304053,-0.6904149,0.5312393,-0.03341442,0.5791374,1.558343,0.197304,0.07464381,1.248023,0.1309232,285.9889,231.0957,359.6963,True
1,1.444447,0.1605773,0.2304102,0.02879927,-1.4217,-4.305233,-2.500709,0.3433163,1.320563,0.3436003,-1.083601,0.8776676,12.6,90.2,-0.01738267,0.06929312,-0.09435181,-0.3537003,-3.544177,-0.2268648,0.444877,1.532153,0.310082,-0.06453846,0.02699447,0.07902183,-0.689012,0.5305397,-0.03252971,0.5783823,1.558334,0.1965897,0.07362626,1.243688,0.13129,286.8052,232.7397,358.0363,True
1,1.455558,0.1819768,0.1942332,0.0268934,-1.422421,-4.305843,-2.503382,0.3428439,1.320284,0.3432457,-1.072689,0.9830533,12.6,90.2,0.03140005,0.006260777,-0.09431019,-0.3542931,-3.550487,-0.2229154,0.444001,1.532255,0.3095243,-0.06854399,0.02179304,0.1153193,-0.6861411,0.5311565,-0.03150972,0.5776508,1.558295,0.1958425,0.07234775,1.239583,0.132254,287.4532,234.1489,356.9531,True
1,1.466669,0.1895701,0.1430668,0.01869502,-1.422358,-4.30595,-2.50577,0.3422536,1.319976,0.3424697,-1.06249,0.9167741,8.1,86.5,0.05707274,-0.01314754,-0.076618,-0.35434,-3.552256,-0.2226847,0.4430757,1.532273,0.3089025,-0.06619851,0.01759654,0.1408718,-0.6838475,0.5311543,-0.03085352,0.5771643,1.558317,0.1952024,0.0710687,1.235614,0.1336246,287.9994,235.2904,356.4036,True
1,1.47778,0.1897574,0.06838688,0.002134753,-1.420902,-4.304866,-2.508051,0.3416966,1.319934,0.3421633,-1.052128,0.9321198,8.1,86.5,0.05514948,-0.00904109,-0.05738927,-0.354332,-3.552098,-0.2232866,0.4422081,1.532413,0.308161,-0.06952844,0.02715963,0.1281088,-0.6826065,0.5325573,-0.03054007,0.5765684,1.558229,0.1946266,0.06987703,1.231673,0.1350898,288.5069,236.3224,356.0461,True
1,1.488891,0.1930767,0.02035905,-0.01353249,-1.419681,-4.304289,-2.510437,0.3412077,1.319674,0.3418219,-1.040627,1.03604,8.1,86.5,0.02693668,0.03869034,-0.01941486,-0.3537461,-3.545144,-0.2290132,0.4414517,1.532287,0.3073359,-0.07628214,0.03341323,0.08339848,-0.6833826,0.5332566,-0.0301342,0.5759853,1.55817,0.1940267,0.06889665,1.227615,0.1364501,289.0088,237.189,355.7758,True
1,1.500003,0.1985341,-0.03521426,-0.0430035,-1.417049,-4.303243,-2.513005,0.3406739,1.319675,0.3415101,-1.02898,1.048359,8.1,86.5,3.281236E-05,0.1321539,0.02637913,-0.3531357,-3.531137,-0.2412755,0.4406438,1.532281,0.3064165,-0.07430258,0.02804427,0.06956221,-0.6827919,0.5334854,-0.02918159,0.5753911,1.558196,0.1934991,0.06810647,1.223327,0.1374631,289.5964,237.7823,355.6526,True
1,1.511114,0.186895,-0.07271408,-0.07151642,-1.414595,-4.302718,-2.514688,0.3401211,1.319739,0.341403,-1.017733,1.011831,9.9,75.5,-0.009224221,0.1874744,0.03971901,-0.3532449,-3.518997,-0.2522216,0.4398476,1.53221,0.3056285,-0.07319007,0.03018969,0.07487308,-0.6818087,0.5341768,-0.02895682,0.574821,1.558224,0.1929326,0.06768464,1.218793,0.1381292,290.3133,237.95,355.6953,True
1,1.522225,0.1783692,-0.07820019,-0.09384339,-1.41282,-4.302992,-2.516235,0.3396957,1.319504,0.3412447,-1.006384,1.021409,9.9,75.5,-0.01121619,0.2268918,0.04006378,-0.3538723,-3.508108,-0.2622119,0.4390831,1.532109,0.3049622,-0.07305939,0.04513907,0.09188884,-0.6799679,0.5356197,-0.02890888,0.5744344,1.55817,0.1923683,0.06758866,1.214018,0.1384894,291.1039,237.9699,355.6776,True
1,1.533336,0.1762085,-0.06648098,-0.09285299,-1.41182,-4.30331,-2.518044,0.339191,1.319325,0.3408742,-0.9940483,1.111394,9.9,75.5,-0.001653075,0.2696056,0.02327928,-0.3553419,-3.496611,-0.2732904,0.4385091,1.531848,0.3044603,-0.06755644,0.04841177,0.1131483,-0.6779753,0.5371799,-0.02941195,0.5739614,1.558137,0.1920695,0.06774332,1.209051,0.1386568,291.9993,237.7701,355.7008,True
1,1.544447,0.1793121,-0.03023474,-0.09095646,-1.411742,-4.3047,-2.519973,0.3386845,1.319112,0.3406186,-0.9823864,1.049022,9.9,75.5,0.01094499,0.2910737,-0.001166597,-0.3571848,-3.486175,-0.2834618,0.4379547,1.531635,0.3039634,-0.05161662,0.03878408,0.108772,-0.6770794,0.5371299,-0.0294535,0.5733757,1.558066,0.1915619,0.06791729,1.204136,0.1387241,292.7596,237.8886,355.2961,True
1,1.555558,0.188841,-0.005632463,-0.07940176,-1.411838,-4.305655,-2.522262,0.338282,1.319028,0.3403194,-0.9710631,1.018675,9.9,75.5,0.01907539,0.2283278,-0.01775443,-0.3580167,-3.485628,-0.2844402,0.437603,1.53163,0.3035738,-0.02634964,0.01311462,0.07988843,-0.6769564,0.53623,-0.02889982,0.5729138,1.558298,0.1909444,0.06793281,1.202494,0.1393155,292.4372,238.9632,354.1073,True
1,1.566669,0.1984577,-0.01408333,-0.0729509,-1.411201,-4.305579,-2.524858,0.3377586,1.318981,0.3401988,-0.9597159,1.02107,7.2,67.3,0.009093672,0.1133015,-0.01647933,-0.3573728,-3.492546,-0.2777195,0.4373263,1.531567,0.3032768,-0.02758203,0.005593203,0.05968148,-0.6769202,0.5359021,-0.0284138,0.5724769,1.558268,0.1904376,0.06801246,1.201619,0.1399541,292.012,240.1465,352.7788,True
1,1.577781,0.2007264,-0.06625552,-0.06941802,-1.409275,-4.303965,-2.527419,0.3374957,1.318942,0.3399663,-0.9482861,1.028448,7.2,67.3,-0.00856708,-0.03036656,-0.02708901,-0.3566889,-3.506564,-0.2639153,0.4371485,1.531654,0.3029687,-0.03089673,-0.001882248,0.04909795,-0.6764088,0.5357809,-0.02751418,0.5720527,1.558285,0.1901569,0.06812406,1.200908,0.1406156,291.5708,241.3851,351.4022,True
1,1.588892,0.1987145,-0.111061,-0.07871435,-1.406716,-4.302439,-2.529863,0.3372509,1.318934,0.3396609,-0.9366332,1.048767,7.2,67.3,-0.02779683,-0.09328567,-0.01037084,-0.3555171,-3.514163,-0.255832,0.4367839,1.531661,0.3026068,-0.02987696,-0.01149281,0.04378322,-0.6762149,0.5349374,-0.02671204,0.5717158,1.558258,0.1896553,0.06828545,1.200201,0.1412906,291.0967,242.6999,349.9744,True
1,1.600003,0.1987145,-0.111061,-0.07871435,-1.406716,-4.302439,-2.529863,0.3372509,1.318934,0.3396609,-0.9244956,1.092882,7.2,67.3,-0.02779683,-0.09328567,-0.01037084,-0.3555171,-3.514163,-0.255832,0.4367839,1.531661,0.3026068,-0.02987696,-0.01149281,0.04378322,-0.6762149,0.5349374,-0.02671204,0.5717158,1.558258,0.1896553,0.06845918,1.199438,0.1417982,290.4564,244.3742,348.1808,True
1,1.611114,0.161517,-0.1495915,-0.09336659,-1.402051,-4.300387,-2.532593,0.3375736,1.318553,0.339505,-0.9103515,1.276021,7.2,67.3,-0.01231364,-0.07244813,0.03865489,-0.3528443,-3.514856,-0.2551385,0.4361441,1.531704,0.3017809,-0.02760883,0.006671187,0.05970091,-0.6741995,0.5363389,-0.02711391,0.5708194,1.558256,0.1889033,0.0688761,1.198658,0.1423822,289.837,245.4766,347.0239,True
1,1.622225,0.129325,-0.05684708,-0.07264512,-1.40237,-4.302537,-2.534021,0.3381244,1.318115,0.3396516,-0.9018843,0.7554761,5.4,45.2,0.05478177,0.07477238,-0.0140687,-0.356535,-3.498709,-0.2737,0.4353296,1.53153,0.3007894,-0.02215784,0.00989949,0.07563331,-0.6718527,0.5367733,-0.02690192,0.5702909,1.558135,0.188009,0.06928548,1.19794,0.1429255,289.2571,246.6187,345.8792,True
1,1.633336,0.1302096,0.01902488,-0.03691687,-1.405034,-4.304624,-2.535148,0.3383868,1.317838,0.3397391,-0.8884225,1.216653,5.4,45.2,0.1006432,0.1931535,-0.04977046,-0.3602469,-3.482135,-0.2920614,0.4350685,1.531358,0.3003891,-0.006352209,-0.008269608,0.05852491,-0.6716124,0.5357354,-0.02649313,0.5701417,1.557793,0.1875141,0.06997435,1.197095,0.1434506,288.4534,247.4122,345.031,True
1,1.644447,0.1439031,0.08637659,-0.006467183,-1.407873,-4.30686,-2.537037,0.3384869,1.317806,0.339664,-0.8760442,1.113449,5.4,45.2,0.147596,0.2527529,-0.06253195,-0.3627939,-3.469376,-0.307398,0.4351415,1.53116,0.3000386,0.01176461,-0.02960068,0.06055827,-0.6709312,0.5336054,-0.02582787,0.570008,1.557818,0.1870279,0.07042041,1.196186,0.1438857,287.5081,249.6895,342.6164,True
1,1.655559,0.1470669,0.1002887,0.001963648,-1.409142,-4.308046,-2.538622,0.3387457,1.317784,0.3397174,-0.8646778,1.022295,5.4,45.2,0.206459,0.2939837,-0.05000529,-0.3643875,-3.456334,-0.324263,0.4355196,1.531269,0.2998829,0.06269748,-0.07658916,0.04536212,-0.6707469,0.5288574,-0.02447658,0.5699332,1.557755,0.1863904,0.07068061,1.195346,0.144701,286.9868,251.9891,340.231,True
1,1.66667,0.1183237,0.08515099,-0.02242891,-1.408277,-4.309062,-2.538532,0.3391991,1.318056,0.3399992,-0.8539756,0.9622839,3.3,46.6,0.1736475,0.1304597,0.02780481,-0.3597078,-3.466325,-0.3154845,0.4363258,1.531527,0.2999692,0.1027919,-0.1193363,0.006812095,-0.6718655,0.524466,-0.02346085,0.5699056,1.557929,0.1861918,0.07077399,1.194556,0.1455482,286.6492,254.7715,337.4261,True
1,1.677781,0.09491251,0.0657625,-0.04785745,-1.407129,-4.310016,-2.538372,0.3395488,1.31844,0.3407843,-0.8422247,1.058748,3.3,46.6,0.1201463,0.001569837,0.04964397,-0.3570841,-3.477848,-0.3039601,0.4367071,1.53162,0.2999365,0.1048886,-0.1332125,0.00256881,-0.6719629,0.5210802,-0.02219612,0.5697899,1.557941,0.18574,0.07067414,1.193779,0.1459273,286.2466,258.591,333.5595,True
1,1.688892,0.04920105,0.01950453,-0.09867162,-1.403761,-4.310518,-2.537146,0.3401012,1.318565,0.3410425,-0.829344,1.161343,3.3,46.6,0.05559106,-0.1857198,0.05193169,-0.3539458,-3.502722,-0.2787778,0.4371876,1.531881,0.3000031,0.1048082,-0.1460011,-0.002705362,-0.6718761,0.5179312,-0.02054522,0.5697384,1.557972,0.1853962,0.07091434,1.193021,0.146538,285.8849,260.6573,331.3944,True
1,1.700003,0.02687285,-0.006227031,-0.1166056,-1.401827,-4.31096,-2.536434,0.3405451,1.318582,0.3413708,-0.8182349,0.9987704,3.3,46.6,0.05858718,-0.2624885,0.05871277,-0.3516726,-3.517608,-0.2656698,0.4374014,1.531934,0.3000429,0.09835764,-0.1428312,-0.01117697,-0.6722138,0.5154385,-0.01959074,0.5696011,1.557989,0.1849415,0.07117914,1.192386,0.1472408,285.5281,262.7147,329.1804,True
1,1.711114,-0.000688212,-0.06180397,-0.133277,-1.398496,-4.309885,-2.53559,0.3409982,1.318882,0.3418608,-0.8066225,1.046622,3,44.1,0.1673543,-0.2191574,0.05370893,-0.3510334,-3.51948,-0.2699721,0.4376767,1.532076,0.2999799,0.09840603,-0.1268221,-0.004816053,-0.6717381,0.5144415,-0.01958595,0.5695094,1.558093,0.1845572,0.0713884,1.191818,0.1480492,285.2148,264.9617,326.6754,True
1,1.722225,-0.003754995,-0.1097719,-0.1372276,-1.395547,-4.308422,-2.535884,0.3414244,1.319189,0.342078,-0.7968194,0.8808351,3,44.1,0.2261256,-0.1351048,0.04209507,-0.3514925,-3.514189,-0.2795174,0.43784,1.532144,0.2998104,0.1125784,-0.115026,0.03017958,-0.6700172,0.5129985,-0.02046852,0.5696118,1.558177,0.1841445,0.07134387,1.19123,0.1483484,284.8958,268.5029,322.8295,True
1,1.733337,-0.008935057,-0.1673589,-0.144308,-1.391635,-4.306022,-2.535991,0.3419081,1.31961,0.3425994,-0.786513,0.9284144,3,44.1,0.2669489,-0.0297592,0.03936336,-0.3522568,-3.503186,-0.2944093,0.4381142,1.532303,0.2995861,0.1198921,-0.1267678,0.01844653,-0.6700487,0.5103826,-0.01956438,0.569705,1.558179,0.1836698,0.07155028,1.190737,0.1489117,284.6238,270.4464,320.6479,True
1,1.744448,-0.008935057,-0.1673589,-0.144308,-1.391635,-4.306022,-2.535991,0.3419081,1.31961,0.3425994,-0.7778028,0.7821615,3,44.1,0.2669489,-0.0297592,0.03936336,-0.3522568,-3.503186,-0.2944093,0.4381142,1.532303,0.2995861,0.1198921,-0.1267678,0.01844653,-0.6700487,0.5103826,-0.01956438,0.569705,1.558179,0.1836698,0.07185347,1.190439,0.1493575,284.2979,271.9608,318.9474,True
1,1.755559,-0.004801974,-0.1215782,-0.1520601,-1.388158,-4.307202,-2.535746,0.3429619,1.32021,0.3438168,-0.768339,0.8524675,3,44.1,0.2441962,0.06697345,0.07449567,-0.3508949,-3.488441,-0.312629,0.4392044,1.532691,0.2994342,0.109786,-0.1429171,-0.04001306,-0.672854,0.5045605,-0.01700162,0.570281,1.558096,0.1828215,0.07220904,1.190165,0.1496547,283.9451,273.2443,317.5576,True
1,1.76667,-0.002899745,-0.03312751,-0.1483746,-1.388574,-4.310476,-2.535206,0.3434848,1.320409,0.344269,-0.7584539,0.8903996,1.3,33.8,0.2262398,0.06477194,0.09064002,-0.3495452,-3.485492,-0.3171942,0.4397393,1.532846,0.2994323,0.1086107,-0.1567699,-0.05274532,-0.673792,0.5016451,-0.01602557,0.5705407,1.557936,0.1829207,0.07241575,1.189919,0.1493877,283.4271,275.2304,315.2064,True
1,1.777781,-0.0008982476,0.01485284,-0.1444257,-1.388536,-4.31297,-2.534717,0.3438706,1.320731,0.3449724,-0.7499387,0.7650242,1.3,33.8,0.2028833,0.03808326,0.1076944,-0.3477524,-3.485619,-0.3184275,0.4403329,1.532956,0.2995515,0.1117646,-0.1653217,-0.05808235,-0.6747257,0.4980106,-0.01468893,0.5708224,1.558006,0.1826348,0.07291546,1.189682,0.1497142,282.9222,276.3177,313.8874,True
1,1.788892,0.002239747,0.0394455,-0.1318032,-1.388559,-4.314713,-2.534555,0.3440028,1.321058,0.3454146,-0.7410097,0.8043234,1.3,33.8,0.1930333,-0.03217757,0.106146,-0.3457337,-3.492823,-0.3134367,0.4409063,1.533189,0.2996552,0.1235976,-0.1801995,-0.04216491,-0.6746378,0.493954,-0.01324097,0.5710249,1.558245,0.1824601,0.07316056,1.189447,0.1502922,282.7022,278.5797,311.4178,True
1,1.800003,0.005485283,0.02029682,-0.1306216,-1.386982,-4.315095,-2.53464,0.3441679,1.321335,0.3457255,-0.7322649,0.7871071,1.3,33.8,0.189059,-0.1404947,0.06693356,-0.3447377,-3.508546,-0.3006493,0.4414113,1.533332,0.2998385,0.1290538,-0.1801814,-0.02942597,-0.6744008,0.4904659,-0.01245347,0.571301,1.55812,0.1822147,0.07318407,1.189228,0.150955,282.6922,281.0468,308.6738,True
1,1.811115,0.002485288,-0.05650477,-0.1450415,-1.383118,-4.313427,-2.53491,0.3440736,1.321431,0.3451838,-0.7240336,0.7404601,0.4,29.3,0.1693725,-0.204115,0.03890009,-0.344025,-3.522129,-0.2890323,0.4418132,1.533514,0.3000126,0.1013135,-0.1631099,-0.03348903,-0.6747034,0.4888678,-0.01092855,0.5717106,1.558011,0.1819568,0.07312148,1.189027,0.1515878,282.7542,283.2149,306.1822,True
1,1.822226,-0.002737598,-0.09811809,-0.1532889,-1.38008,-4.31247,-2.534846,0.3441806,1.321723,0.3453715,-0.7158385,0.7376963,0.4,29.3,0.1513002,-0.1837852,0.03606069,-0.3433038,-3.524942,-0.2873279,0.4422372,1.533639,0.3000827,0.08644737,-0.150306,-0.03019814,-0.674805,0.4868411,-0.009875534,0.5720877,1.557588,0.1818047,0.07275707,1.188821,0.1519265,283.4612,289.1184,300.4044,True
1,1.833337,-0.01965986,-0.149448,-0.176384,-1.375628,-4.31106,-2.534214,0.344365,1.322124,0.3455548,-0.7076003,0.7417131,0.4,29.3,0.1451198,-0.1219734,0.03557238,-0.3432431,-3.521634,-0.2918239,0.4425641,1.53377,0.3000531,0.07362406,-0.1353983,-0.03652509,-0.6754352,0.4853398,-0.009019594,0.5724924,1.557507,0.1816666,0.07246396,1.18855,0.1521767,283.8676,292.8615,296.573,True
1,1.844448,-0.03239859,-0.1676397,-0.1847761,-1.372426,-4.310392,-2.533548,0.3447462,1.322581,0.3456936,-0.6994894,0.730115,0.4,29.3,0.144333,-0.06877775,0.04455605,-0.3426817,-3.517006,-0.2978168,0.4429599,1.533947,0.2999837,0.06287692,-0.1301083,-0.05030276,-0.6765761,0.4831484,-0.007889082,0.5728167,1.557584,0.1815071,0.07254487,1.188243,0.1523809,283.9456,294.4226,294.8676,True
1,1.855559,-0.03985998,-0.1644079,-0.176271,-1.370088,-4.309896,-2.532906,0.3450307,1.322898,0.3458612,-0.6912203,0.7449988,0.4,29.3,0.1341009,0.03347965,0.05084242,-0.3431803,-3.503648,-0.3114945,0.4433288,1.534015,0.2998788,0.05864654,-0.1258245,-0.04707235,-0.6768184,0.4813681,-0.006958307,0.5732076,1.55775,0.1815884,0.07257436,1.187992,0.1521619,283.94,296.7979,292.2463,True
1,1.86667,-0.03248668,-0.1214691,-0.1307465,-1.370658,-4.310194,-2.532861,0.3454781,1.323224,0.3459735,-0.6839365,0.6549723,0.2,16.3,0.1078307,0.1251543,0.05506529,-0.3439579,-3.489908,-0.3246036,0.4440888,1.534108,0.3000009,0.05974399,-0.138573,-0.03851344,-0.6767859,0.4783512,-0.004922853,0.5735371,1.557829,0.1814384,0.07280184,1.187779,0.1522687,283.8367,297.8871,290.9958,True
1,1.877781,-0.0229451,-0.09780028,-0.0989453,-1.370601,-4.309972,-2.533006,0.345866,1.323552,0.3461404,-0.6769026,0.6330094,0.2,16.3,0.1016304,0.1325038,0.07117534,-0.3431228,-3.483835,-0.3312826,0.4448712,1.534325,0.3000989,0.06395812,-0.1481924,-0.04386829,-0.6777468,0.4748567,-0.003193663,0.5741036,1.557874,0.1813049,0.07296772,1.187601,0.1525048,283.8152,299.2553,289.5499,True
1,1.888893,-0.0102299,-0.06344738,-0.06294963,-1.371491,-4.310007,-2.533449,0.3462606,1.323819,0.3462381,-0.6706921,0.5579305,0.2,16.3,0.09726687,0.007598668,0.1042707,-0.3394113,-3.493681,-0.3230084,0.445913,1.534597,0.3003995,0.06689072,-0.1610397,-0.07154044,-0.6794081,0.4716961,-0.001374724,0.5745586,1.557866,0.181329,0.07308364,1.187435,0.1527714,283.8544,300.6448,288.1143,True
1,1.900004,-0.0102299,-0.06344738,-0.06294963,-1.371491,-4.310007,-2.533449,0.3462606,1.323819,0.3462381,-0.6639756,0.6048654,0.2,16.3,0.09726687,0.007598668,0.1042707,-0.3394113,-3.493681,-0.3230084,0.445913,1.534597,0.3003995,0.06689072,-0.1610397,-0.07154044,-0.6794081,0.4716961,-0.001374724,0.5745586,1.557866,0.181329,0.07324423,1.187271,0.1529999,283.82,301.9419,286.7908,True
1,1.911115,-0.007175123,0.0007328913,-0.02395279,-1.373065,-4.311128,-2.533273,0.3473417,1.324048,0.3461757,-0.6572053,0.6095846,0,7.1,0.0161024,-0.2624387,0.07300574,-0.3346613,-3.532883,-0.2841433,0.4473072,1.53484,0.300981,0.04550524,-0.1322908,-0.0863594,-0.6819311,0.4684716,0.0005294364,0.5754305,1.557698,0.1815784,0.07341608,1.187064,0.1531661,283.7614,303.1514,285.537,True
1,1.922226,-0.02438089,0.05404763,-0.01571553,-1.375462,-4.313164,-2.531639,0.3478664,1.324008,0.3466783,-0.6513767,0.5235729,0,7.1,-0.008833706,-0.316486,0.04937319,-0.3335108,-3.547993,-0.268902,0.4479111,1.534894,0.3012166,0.04033365,-0.1120238,-0.07253161,-0.6822774,0.46722,0.0009731191,0.5758632,1.557718,0.1815672,0.07359564,1.186855,0.1533245,283.6851,304.3247,284.3362,True
1,1.933337,-0.04046068,0.09345558,-0.01063729,-1.376975,-4.315243,-2.530177,0.3484627,1.323881,0.3467968,-0.644363,0.63279,0,7.1,-0.002681792,-0.2863968,0.01546937,-0.3340435,-3.555286,-0.2621957,0.4483753,1.534747,0.301393,0.03094026,-0.0906468,-0.04905891,-0.6816717,0.4667647,0.00167646,0.5763367,1.557569,0.1814916,0.07390757,1.186693,0.1534514,283.4363,305.5294,283.1238,True
1,1.944448,-0.05658728,0.144653,0.001852296,-1.379939,-4.317842,-2.528209,0.3490209,1.32374,0.3469543,-0.6372774,0.638708,0,7.1,0.02429128,-0.1425276,-0.001717024,-0.3356622,-3.54376,-0.2745815,0.4486461,1.534653,0.3013806,0.03848815,-0.07678249,-0.0406349,-0.6817373,0.4660694,0.00140828,0.5769501,1.557677,0.1816654,0.0739826,1.186495,0.1531583,283.3828,307.6158,280.8809,True
1,1.955559,-0.06195545,0.1628954,0.0230395,-1.382285,-4.319437,-2.526957,0.3494709,1.323787,0.3471024,-0.6317838,0.4934149,0,7.1,0.06629103,0.010805,-0.01044891,-0.3376073,-3.527385,-0.292365,0.4491432,1.534591,0.3013861,0.05318175,-0.07581411,-0.06846538,-0.6835919,0.4646961,0.001135572,0.577549,1.557631,0.1817663,0.07412911,1.1863,0.1532601,283.3609,308.5724,279.8485,True
1,1.966671,-0.05872311,0.1449085,0.03916842,-1.384139,-4.319449,-2.526218,0.3500402,1.323862,0.3470144,-0.6261241,0.5100045,0,3.5,0.07398409,0.08002235,-0.01101722,-0.3386662,-3.518442,-0.3018706,0.4496902,1.534642,0.3013928,0.06161669,-0.06518818,-0.07709248,-0.6847914,0.4642901,0.0007917578,0.5781705,1.557647,0.1818831,0.07419247,1.186135,0.1535036,283.4731,309.7355,278.6719,True
1,1.977782,-0.05969315,0.1001724,0.03841361,-1.384521,-4.318903,-2.525348,0.3504725,1.324036,0.3469191,-0.6215253,0.4129337,0,3.5,0.03354444,0.05663005,0.0009233002,-0.3380761,-3.519066,-0.30024,0.4505741,1.534788,0.3014739,0.04979227,-0.03754733,-0.09412591,-0.6865875,0.4649267,3.275688E-05,0.578689,1.557644,0.1820507,0.07419576,1.186019,0.1537512,283.6404,310.6805,277.7293,True
1,1.988893,-0.05316506,0.04469102,0.02279172,-1.383424,-4.317871,-2.525173,0.3508962,1.324241,0.3469439,-0.6173511,0.3757406,0,3.5,-0.02499112,-0.009448148,0.02973235,-0.3360957,-3.52504,-0.2922676,0.451308,1.534914,0.3017023,0.0156969,-0.02685429,-0.094925,-0.6875323,0.4653142,0.0009363674,0.579442,1.557601,0.1822681,0.07425367,1.185947,0.1539,283.6828,311.3595,277.0572,True
1,2.000004,-0.05201929,0.01268436,0.01341419,-1.382844,-4.317305,-2.524768,0.3512538,1.324553,0.3469574,-0.613285,0.3664258,0,3.5,-0.06114652,-0.04676933,0.04896082,-0.334509,-3.529288,-0.2864334,0.4520298,1.535057,0.301991,0.00720448,-0.0225856,-0.09167688,-0.688523,0.464918,0.001477522,0.5800775,1.557615,0.1823928,0.07443359,1.18589,0.1538763,283.4814,311.7848,276.6495,True
1,2.011115,-0.05196406,-0.0140043,0.004015854,-1.382212,-4.316485,-2.524227,0.3516179,1.324692,0.3469143,-0.6105356,0.2464523,0.3,6,-0.08354203,-0.09261163,0.06265683,-0.3326581,-3.535958,-0.2784039,0.4526962,1.535122,0.3022263,-0.001324266,-0.01192377,-0.09269375,-0.6895078,0.4653955,0.001485245,0.580632,1.557538,0.1827118,0.07466466,1.185843,0.1537438,283.1603,311.9925,276.45,True
1,2.022226,-0.05509895,-0.0406972,-0.005387278,-1.381335,-4.315668,-2.523603,0.3519399,1.32478,0.3470683,-0.6075763,0.266948,0.3,6,-0.08147667,-0.1171421,0.06456088,-0.3313138,-3.541777,-0.2721199,0.453364,1.535136,0.3024809,-0.0151755,-0.0001765778,-0.09153846,-0.6903958,0.4663162,0.001736381,0.5812261,1.557521,0.1829669,0.0749089,1.185795,0.1536389,282.8506,312.3105,276.1274,True
1,2.033337,-0.06361012,-0.0449806,-0.005354289,-1.380903,-4.31516,-2.522661,0.3523049,1.324879,0.3472097,-0.6048912,0.2418209,0.3,6,-0.07632539,-0.1138098,0.04642032,-0.33122,-3.545094,-0.2682823,0.4538591,1.535159,0.3027632,-0.0183673,0.02643006,-0.09586859,-0.6919047,0.467864,0.0006053365,0.581916,1.557482,0.183269,0.07507154,1.185759,0.1535932,282.6559,312.6273,275.8165,True
1,2.044448,-0.08069373,-0.03543567,-0.007510069,-1.381265,-4.315239,-2.520973,0.3527141,1.32488,0.3473544,-0.602668,0.2000846,0.3,6,-0.06267214,-0.08912975,0.01878703,-0.3318725,-3.546173,-0.2670186,0.4543888,1.535091,0.3030198,-0.0214538,0.04246559,-0.08203587,-0.6922946,0.4697271,-0.0002183792,0.5825262,1.557437,0.1836357,0.07520557,1.185718,0.1535729,282.5131,312.9759,275.4674,True
1,2.055559,-0.08069373,-0.03543567,-0.007510069,-1.381265,-4.315239,-2.520973,0.3527141,1.32488,0.3473544,-0.6006035,0.1860977,0.3,6,-0.06267214,-0.08912975,0.01878703,-0.3318725,-3.546173,-0.2670186,0.4543888,1.535091,0.3030198,-0.0214538,0.04246559,-0.08203587,-0.6922946,0.4697271,-0.0002183792,0.5825262,1.557437,0.1836357,0.07533695,1.18568,0.15357,282.3886,313.3611,275.0755,True
1,2.06667,-0.08496496,-0.02796804,-0.005427049,-1.381288,-4.315303,-2.519996,0.3530827,1.324986,0.347559,-0.6000629,0.04702295,0.3,6,-0.0489519,-0.083724,0.003776968,-0.3321313,-3.548574,-0.264743,0.4548681,1.535044,0.3032529,-0.04050954,0.04782862,-0.07123996,-0.692759,0.4705277,-9.161274E-05,0.5833495,1.557304,0.1839058,0.07540978,1.185661,0.1535639,282.3121,313.5663,274.8737,True
1,2.077781,-0.08711311,-0.02369936,-0.004368793,-1.381504,-4.315143,-2.51891,0.3533881,1.325182,0.3476508,-0.597175,0.2629421,1.6,15.1,-0.04989606,-0.07100319,0.01134969,-0.3316094,-3.549546,-0.2632215,0.4554359,1.534993,0.3034253,-0.04806388,0.04780558,-0.08183531,-0.6941609,0.4713342,0.0001368865,0.5840234,1.557245,0.1841826,0.07546951,1.185627,0.1535767,282.2686,313.8303,274.6067,True
1,2.088892,-0.08072636,-0.01939561,-0.001206869,-1.381566,-4.31514,-2.518325,0.3536738,1.325393,0.3478839,-0.5965928,0.05033187,1.6,15.1,-0.06338832,-0.01888809,0.02790105,-0.3311774,-3.543942,-0.2673925,0.4561087,1.534962,0.3035748,-0.056626,0.04353973,-0.08601131,-0.6952901,0.4718612,0.0006876282,0.5847857,1.557139,0.1844068,0.07551534,1.185636,0.1535783,282.2148,313.9299,274.5187,True
1,2.100003,-0.07642988,-0.03958756,0.002150034,-1.381548,-4.314057,-2.517588,0.3539291,1.325558,0.348228,-0.5956032,0.08969741,1.6,15.1,-0.06603827,0.03195736,0.06350879,-0.3298996,-3.536442,-0.2737397,0.4567829,1.534916,0.3037808,-0.05129157,0.03929097,-0.08390631,-0.6960124,0.4725691,0.0005723133,0.5855447,1.556946,0.1848941,0.07560891,1.185688,0.1535543,282.0895,313.9826,274.4771,True
1,2.111114,-0.08491906,-0.05243925,-0.005205239,-1.380867,-4.313347,-2.51654,0.3542091,1.325854,0.3482757,-0.5953049,0.02601287,1.6,15.1,-0.0679232,0.030695,0.08802138,-0.3281904,-3.533938,-0.2752888,0.4574772,1.53499,0.3039546,-0.04491461,0.03289044,-0.08500738,-0.6969972,0.4727685,0.0006862966,0.5862606,1.556875,0.1851573,0.07568092,1.18576,0.1534877,281.9506,313.8282,274.6488,True
1,2.122225,-0.0997982,-0.06958498,-0.01467303,-1.379679,-4.312519,-2.515056,0.3545412,1.326092,0.3484371,-0.5942919,0.09202503,15.1,16.7,-0.09560364,-0.006614722,0.1029081,-0.326258,-3.536884,-0.2704541,0.4582209,1.535199,0.3042545,-0.04608057,0.02859567,-0.09884182,-0.6987064,0.4731936,0.0005986786,0.5870423,1.556767,0.1857853,0.07578223,1.185816,0.153436,281.8043,313.8128,274.6657,True
1,2.133336,-0.1093865,-0.07071026,-0.01998595,-1.378865,-4.312098,-2.513616,0.35493,1.326391,0.3485997,-0.5933986,0.08051164,15.1,16.7,-0.1000115,-0.04173741,0.1005268,-0.3248662,-3.541079,-0.2652333,0.4589174,1.535339,0.3045204,-0.05768891,0.02545335,-0.08487201,-0.698994,0.4735917,0.001416003,0.5877546,1.556605,0.1861849,0.07588993,1.185865,0.1533777,281.6437,313.8161,274.6717,True
1,2.144447,-0.1062066,-0.0643099,-0.02002497,-1.378494,-4.311819,-2.512657,0.3552538,1.326675,0.3487744,-0.5924319,0.08749217,15.1,16.7,-0.07592019,-0.09490136,0.07853054,-0.3240641,-3.549442,-0.2573152,0.4595248,1.535501,0.3048356,-0.06302683,0.02649574,-0.08804004,-0.7002622,0.4737232,0.001981925,0.5885081,1.556556,0.1864474,0.07598995,1.185935,0.1532781,281.4554,313.6187,274.8836,True
1,2.155558,-0.1009223,-0.04722371,-0.01587868,-1.378499,-4.311902,-2.511692,0.3556672,1.32704,0.348942,-0.5921272,0.02695023,15.1,16.7,-0.04947323,-0.1033962,0.06327257,-0.3235528,-3.553787,-0.2535393,0.4602402,1.535635,0.3050797,-0.06738169,0.019031,-0.09542372,-0.701393,0.4739012,0.003073288,0.5891918,1.556624,0.1867323,0.07591009,1.186023,0.1530454,281.3026,314.0946,274.6189,True
1,2.166669,-0.100968,-0.02691749,-0.006421024,-1.378975,-4.312082,-2.510585,0.3559896,1.327428,0.3491125,-0.5923312,-0.01902574,15.1,16.7,-0.04514255,-0.07889467,0.06130384,-0.3228726,-3.553307,-0.2536166,0.4610623,1.535743,0.3052614,-0.06309013,-0.001214582,-0.09220771,-0.7023389,0.4726201,0.004374508,0.5899795,1.556562,0.1869116,0.07595143,1.186137,0.1529563,281.1771,313.6864,275.0383,True
1,2.17778,-0.1052418,-0.02158852,-0.0043223,-1.378967,-4.312011,-2.509284,0.3563697,1.327785,0.3492696,-0.5921422,0.01724211,62.2,12.4,-0.0566544,-0.06086002,0.07542164,-0.3215719,-3.552404,-0.2534392,0.4618954,1.535884,0.3054361,-0.04926315,-0.01399463,-0.09121027,-0.7031155,0.4720137,0.005175587,0.5906898,1.556576,0.187254,0.07602404,1.186248,0.1528822,281.0227,313.3949,275.3517,True
1,2.188891,-0.1169503,-0.02804602,-0.0106667,-1.378359,-4.311835,-2.507591,0.356801,1.328187,0.3493783,-0.5917357,0.03683946,62.2,12.4,-0.0830109,-0.06312581,0.1033737,-0.3192544,-3.552942,-0.2510493,0.4627445,1.536089,0.3055949,-0.03122335,-0.02150458,-0.1009457,-0.7047859,0.4710342,0.005375324,0.5914172,1.556631,0.1874406,0.07609944,1.18637,0.1528059,280.8571,313.0751,275.7022,True
1,2.200002,-0.1275765,-0.03983386,-0.01697457,-1.377541,-4.311378,-2.505914,0.3571666,1.328497,0.3495126,-0.5912361,0.04522585,62.2,12.4,-0.1010162,-0.09199535,0.1235573,-0.316766,-3.557925,-0.2446116,0.4636472,1.536153,0.3058109,-0.02902585,-0.0204246,-0.09459608,-0.7058815,0.4707738,0.005696235,0.5922626,1.556687,0.1878464,0.07616327,1.186496,0.1527148,280.6928,312.653,276.1552,True
1,2.211113,-0.1499003,-0.06020844,-0.02854507,-1.376141,-4.310717,-2.503649,0.3576111,1.328842,0.3496766,-0.5906231,0.05557742,62.2,12.4,-0.101279,-0.128111,0.110474,-0.3154136,-3.565768,-0.236037,0.4644594,1.536308,0.306076,-0.0247688,-0.01403943,-0.09571625,-0.7069899,0.4708928,0.005724731,0.5929769,1.556636,0.1880286,0.07623962,1.186621,0.1526057,280.5069,312.1808,276.6534,True
1,2.222224,-0.1786329,-0.07950324,-0.03586362,-1.374728,-4.30998,-2.50068,0.3580819,1.329002,0.3498917,-0.5904287,0.01727659,62.3,9.6,-0.08644918,-0.128091,0.1018022,-0.3142669,-3.569355,-0.2322487,0.4651355,1.53639,0.3062809,-0.02159405,-0.001270987,-0.09897643,-0.7081995,0.4715415,0.005404619,0.5937936,1.556328,0.1881237,0.07631454,1.186752,0.1524802,280.3136,311.6083,277.2478,True
1,2.233335,-0.1914262,-0.07635511,-0.03800619,-1.373857,-4.309664,-2.498171,0.3585526,1.329294,0.3501275,-0.5897496,0.06194045,62.3,9.6,-0.05986653,-0.09930204,0.08685432,-0.3138221,-3.56937,-0.2325137,0.4658333,1.53636,0.3063593,-0.01733558,-0.003404606,-0.09579363,-0.7089127,0.4711825,0.006103433,0.5944647,1.556215,0.1881478,0.07639997,1.186875,0.1523584,280.1185,311.0722,277.7981,True
1,2.244446,-0.1914594,-0.06138977,-0.03065,-1.373717,-4.309675,-2.496161,0.3589942,1.329712,0.3503077,-0.5889863,0.06930038,62.3,9.6,-0.01917902,0.001884414,0.07236458,-0.3144959,-3.557841,-0.2446414,0.4665251,1.536365,0.3065224,-0.003286887,-0.01188482,-0.07246815,-0.7091599,0.4702337,0.006309029,0.5952014,1.556106,0.1882436,0.07648492,1.186998,0.1522384,279.9284,310.5188,278.3616,True
1,2.255557,-0.189375,-0.04107444,-0.02013084,-1.373987,-4.309807,-2.494123,0.359518,1.330103,0.3505533,-0.5895339,-0.0505408,62.3,9.6,0.008915009,0.05488033,0.09276669,-0.3133624,-3.548849,-0.2542517,0.4674578,1.536473,0.3066499,0.01704444,-0.02995539,-0.06086871,-0.7093441,0.4692923,0.006042712,0.5959069,1.556045,0.1886225,0.07655706,1.187138,0.1521156,279.7429,309.8426,279.0562,True
1,2.266668,-0.1915712,-0.01333483,-0.01285546,-1.374496,-4.310383,-2.491879,0.3600414,1.330583,0.350697,-0.5902204,-0.06221008,62.3,9.6,-0.00689254,0.009921938,0.1255774,-0.3106114,-3.551468,-0.2510176,0.4684555,1.536679,0.3069115,0.01893765,-0.04709696,-0.08854111,-0.7113734,0.4673059,0.007119162,0.5966493,1.55605,0.1887431,0.07662374,1.187318,0.1519894,279.548,308.9961,279.9353,True
1,2.277779,-0.1915908,-0.005877942,-0.01290414,-1.374485,-4.310628,-2.489707,0.3605549,1.331028,0.3509138,-0.5902795,-0.004924847,66.5,6.4,-0.02829568,-0.05403192,0.1380426,-0.3080654,-3.559445,-0.2423093,0.4695008,1.536859,0.307225,0.01558758,-0.05139699,-0.1055499,-0.7131754,0.4665246,0.007770305,0.5974428,1.556108,0.1888802,0.0766895,1.187508,0.1518525,279.3434,308.0398,280.9318,True
1,2.28889,-0.190521,-0.00588071,-0.01290132,-1.374285,-4.310549,-2.487766,0.360925,1.33165,0.3510618,-0.5906258,-0.03099002,66.5,6.4,-0.03927983,-0.158424,0.1415444,-0.3052105,-3.575503,-0.2261359,0.4706143,1.537128,0.307554,0.01960426,-0.06958776,-0.1300318,-0.7153836,0.4642865,0.009397496,0.5982376,1.55615,0.1890945,0.0767528,1.187706,0.1517008,279.1287,306.9368,282.0831,True
1,2.300001,-0.1787729,-0.01868496,-0.02027882,-1.37352,-4.310225,-2.486286,0.3613379,1.33209,0.3512123,-0.5917001,-0.0967836,66.5,6.4,-0.03628123,-0.2319926,0.1472945,-0.3023455,-3.590028,-0.2120254,0.4716393,1.537353,0.307894,0.0131021,-0.08348837,-0.1437982,-0.7176213,0.4618367,0.01106543,0.5991016,1.556105,0.189126,0.0767759,1.187916,0.1518933,278.8195,305.3155,284.169,True
1,2.311112,-0.1861908,-0.03580456,-0.02868451,-1.372448,-4.309805,-2.484077,0.3617623,1.332531,0.3514068,-0.5935025,-0.1624824,66.5,6.4,-0.02801499,-0.2766832,0.1372501,-0.3002767,-3.60385,-0.198818,0.4725825,1.537486,0.3081048,0.004608452,-0.09412229,-0.1394334,-0.7190375,0.4596973,0.0129126,0.5998437,1.556066,0.1891499,0.07669237,1.188175,0.1518977,278.8218,304.3302,285.2527,True
1,2.322223,-0.1946908,-0.04653528,-0.03713134,-1.371337,-4.309525,-2.481691,0.3621959,1.332938,0.3516321,-0.5961449,-0.2382498,66.5,6.4,-0.02387276,-0.2830063,0.1275651,-0.2986021,-3.613861,-0.1891249,0.4733808,1.537647,0.3083048,-0.003773406,-0.08660682,-0.1233975,-0.7197097,0.4588395,0.01391422,0.6005438,1.555888,0.1892879,0.0766402,1.188454,0.1517599,278.7531,302.6429,286.978,True
1,2.333334,-0.2074336,-0.06581584,-0.04764631,-1.369804,-4.308916,-2.479008,0.3626233,1.333378,0.3517334,-0.5982994,-0.1925902,81.4,6.7,-0.02398491,-0.2476594,0.1044224,-0.2979971,-3.61862,-0.1843083,0.4740553,1.537784,0.3083889,-0.006770708,-0.06947213,-0.1021131,-0.7200799,0.4591312,0.01381755,0.6012003,1.555712,0.1895971,0.0766547,1.188703,0.1515678,278.5974,300.8307,288.8166,True
1,2.344445,-0.2180648,-0.07543998,-0.04864242,-1.368644,-4.308353,-2.476322,0.3630171,1.33371,0.3518276,-0.6015404,-0.291964,81.4,6.7,-0.03241017,-0.1707862,0.08810524,-0.2976882,-3.615773,-0.1863387,0.4746396,1.537937,0.308392,-0.005610585,-0.05560902,-0.09470963,-0.7209443,0.4587566,0.01385217,0.601806,1.555628,0.1897092,0.07666204,1.188969,0.1513553,278.441,298.7408,290.9428,True
1,2.355556,-0.2180912,-0.05839065,-0.04451567,-1.367803,-4.308496,-2.474106,0.3634815,1.333409,0.3498268,-0.6053104,-0.3388854,81.4,6.7,-0.03538037,-0.09831827,0.08554137,-0.2971166,-3.610847,-0.190551,0.4752647,1.538084,0.3084748,-0.0151689,-0.04917934,-0.09251147,-0.7218541,0.4587564,0.01423912,0.6024418,1.55547,0.189923,0.07665298,1.189269,0.1511304,278.301,296.3323,293.3979,True
1,2.366668,-0.2149979,-0.01462854,-0.03307757,-1.368714,-4.309466,-2.47169,0.3638294,1.333806,0.3499141,-0.6100066,-0.4229297,81.4,6.7,-0.02204462,0.03045599,0.09607473,-0.2965877,-3.593126,-0.2076706,0.4759146,1.538303,0.3084271,-0.01514095,-0.05983681,-0.08929396,-0.7228943,0.4569305,0.01569401,0.6031411,1.5555,0.1899455,0.07661171,1.189602,0.1508618,278.1852,293.4023,296.3876,True
1,2.377779,-0.2108034,0.01313549,-0.02474025,-1.369403,-4.310338,-2.469303,0.3642653,1.334199,0.3499985,-0.6159369,-0.534618,79.6,4.4,-0.001333982,0.09836882,0.1188097,-0.2951097,-3.581099,-0.2198714,0.4767489,1.538553,0.3085504,0.001880944,-0.06731494,-0.09260885,-0.7239543,0.4554612,0.01603596,0.6039343,1.55538,0.1900675,0.07652806,1.189906,0.1504697,278.0483,289.5583,300.3592,True
1,2.38889,-0.198105,0.04732563,-0.01432124,-1.370555,-4.311562,-2.467262,0.3647863,1.334668,0.3500495,-0.6217768,-0.5250884,79.6,4.4,-0.009677514,0.07260383,0.1453142,-0.2926329,-3.579743,-0.2207673,0.4776339,1.538794,0.3086574,-0.002526358,-0.08014114,-0.1085143,-0.7257311,0.453463,0.01768792,0.6046352,1.55532,0.190098,0.07659801,1.190139,0.1506165,277.7237,282.0082,308.637,True
1,2.400001,-0.1789487,0.05700888,-0.008004583,-1.371208,-4.312189,-2.46574,0.3652288,1.335047,0.3500998,-0.6281348,-0.5722371,79.6,4.4,-0.0354546,-0.01686715,0.154414,-0.2900497,-3.589079,-0.2107165,0.4786062,1.539,0.3088558,-0.02076916,-0.09616272,-0.1232439,-0.7278723,0.450897,0.02042112,0.6053737,1.555491,0.1902659,0.07645467,1.190799,0.1504822,277.7832,279.3813,311.4435,True
1,2.411112,-0.174684,0.05596174,-0.006935433,-1.371552,-4.3127,-2.463817,0.3655649,1.33547,0.3501458,-0.6354004,-0.6545142,79.6,4.4,-0.04639281,-0.08176603,0.1486562,-0.2879767,-3.599083,-0.2002295,0.4795238,1.539177,0.3090527,-0.02926528,-0.09827796,-0.1199688,-0.7291304,0.4491684,0.0223362,0.6060278,1.55545,0.1903098,0.07637724,1.191587,0.1501973,277.8596,275.8091,315.0517,True
1,2.422223,-0.1714058,0.0260749,-0.01420746,-1.370503,-4.312251,-2.462142,0.3658175,1.33583,0.349771,-0.6431012,-0.6933401,79.6,4.4,-0.06502171,-0.167809,0.1268189,-0.2864762,-3.614999,-0.1836851,0.4802629,1.539372,0.3092313,-0.03226013,-0.08010726,-0.09762445,-0.7294127,0.4487287,0.02315485,0.6066623,1.555518,0.1904807,0.07711536,1.192066,0.1511233,278.3813,277.2695,315.5923,True
1,2.433334,-0.1830419,-0.01029389,-0.03207065,-1.368938,-4.311832,-2.459781,0.3659847,1.336214,0.349699,-0.6504563,-0.6610853,83,5.2,-0.06317911,-0.2124536,0.1136446,-0.2849385,-3.628322,-0.1702924,0.4810285,1.539376,0.3092437,-0.03423027,-0.05449136,-0.07956946,-0.7296752,0.4490838,0.02350293,0.6072489,1.555588,0.190629,0.07756295,1.19269,0.1528726,279.0907,273.5627,319.6263,True
1,2.444445,-0.1893871,-0.03379063,-0.03936922,-1.367794,-4.311462,-2.457397,0.3662767,1.336554,0.3497,-0.6586647,-0.7390957,83,5.2,-0.04508929,-0.2028827,0.1082131,-0.2836389,-3.633996,-0.165014,0.4816209,1.539501,0.3092971,-0.03537651,-0.03640617,-0.08812553,-0.7308838,0.4493394,0.02401852,0.6079512,1.555268,0.1906426,0.07817394,1.193404,0.1542423,279.5894,269.6631,323.9121,True
1,2.455556,-0.2021557,-0.04132306,-0.04570235,-1.366731,-4.311347,-2.454744,0.366514,1.336951,0.3496499,-0.6666175,-0.7147771,83,5.2,-0.0383904,-0.1347852,0.1151053,-0.2822839,-3.630381,-0.1683051,0.4822193,1.539583,0.3091831,-0.03754286,-0.03642628,-0.09449989,-0.7321706,0.4487168,0.02470055,0.608633,1.555169,0.1906829,0.07873063,1.194182,0.1552322,280.0746,264.9117,328.9659,True
1,2.466667,-0.1979152,-0.03282731,-0.05108346,-1.36624,-4.31179,-2.452718,0.3667923,1.337499,0.3496196,-0.6755385,-0.8032921,83,5.2,-0.04433665,-0.04538579,0.1286936,-0.2809262,-3.620432,-0.1771157,0.4828387,1.539706,0.3090949,-0.03010868,-0.04283518,-0.09667999,-0.7333872,0.447557,0.0256268,0.6091866,1.555024,0.1907094,0.07921054,1.194998,0.1559628,280.6297,259.7177,334.3455,True
1,2.477778,-0.1894036,-0.02960107,-0.05005839,-1.365529,-4.312072,-2.450795,0.3671691,1.337897,0.3493319,-0.6847743,-0.831003,82,3.9,-0.05371519,-0.008134522,0.1365563,-0.2793853,-3.615585,-0.1808531,0.4835089,1.53992,0.3090849,-0.02065513,-0.05140477,-0.1073679,-0.7346511,0.4461566,0.02705026,0.609865,1.554779,0.1905644,0.07971039,1.195822,0.1565498,281.2887,254.3681,339.8151,True
1,2.488889,-0.1862154,-0.02638992,-0.04901653,-1.365025,-4.312264,-2.448786,0.3674674,1.338358,0.3493183,-0.6953034,-0.9487908,82,3.9,-0.06520057,0.004538719,0.154892,-0.2771211,-3.612686,-0.1825621,0.4842942,1.540175,0.3090162,-0.01644023,-0.05993572,-0.1127017,-0.7360381,0.4449972,0.02788623,0.6104784,1.554786,0.190665,0.08022825,1.196678,0.1570303,282.0784,249.4133,344.9254,True
1,2.5,-0.1819712,-0.02108091,-0.05225557,-1.364333,-4.312614,-2.446793,0.3677453,1.338867,0.3491604,-0.7055433,-0.9211997,82,3.9,-0.07582901,-0.02536278,0.1675363,-0.2746028,-3.616372,-0.177835,0.4849996,1.540237,0.3090746,-0.0238681,-0.0684538,-0.1094284,-0.7373249,0.4432584,0.02960716,0.6111027,1.554758,0.1906209,0.08082099,1.197543,0.1574808,282.9786,244.8062,349.672,True
1,2.511111,-0.172414,-0.01042414,-0.05552868,-1.363898,-4.313268,-2.445045,0.3679974,1.33926,0.3492208,-0.7157688,-0.9200801,82,3.9,-0.08237065,-0.06154142,0.1651698,-0.2725484,-3.622421,-0.1708618,0.4857303,1.540392,0.3091307,-0.03878647,-0.07163532,-0.1092947,-0.7386416,0.442116,0.03139627,0.6115909,1.554841,0.1907895,0.0815814,1.198378,0.1578578,283.9999,241.6355,353.0286,True
1,2.522222,-0.1713235,-0.02000861,-0.05546658,-1.363099,-4.313272,-2.443173,0.368223,1.339638,0.3492815,-0.7263591,-0.9532661,64.8,2.3,-0.069877,-0.1318678,0.1601929,-0.2703183,-3.635922,-0.1575542,0.4863693,1.540575,0.3093457,-0.04724696,-0.06523693,-0.1039281,-0.7398427,0.44111,0.03277366,0.6121621,1.55477,0.1907723,0.08249125,1.199178,0.1581984,285.1857,240.0085,354.736,True
1,2.533333,-0.1766135,-0.03278593,-0.05217979,-1.36228,-4.312963,-2.44109,0.3683127,1.34002,0.3493638,-0.7374203,-0.9959064,64.8,2.3,-0.03611338,-0.1253121,0.1258094,-0.2698261,-3.640182,-0.1541278,0.4869706,1.540673,0.3094299,-0.04810224,-0.03640566,-0.08056501,-0.7398975,0.442052,0.03280162,0.6125668,1.55486,0.1910191,0.08332376,1.199914,0.1584527,286.2641,238.4728,356.3589,True
1,2.544444,-0.1766196,-0.03385586,-0.05323885,-1.361532,-4.313107,-2.438953,0.3685393,1.340281,0.3494234,-0.7481123,-0.9617183,64.8,2.3,-0.02347464,-0.09852678,0.1024677,-0.2694256,-3.640257,-0.1541829,0.4876238,1.540807,0.3094444,-0.03617288,-0.03846532,-0.05508639,-0.7395934,0.441375,0.03339124,0.6130543,1.554627,0.1908362,0.08419797,1.200629,0.1586673,287.4752,237.9553,356.8187,True
1,2.555555,-0.1851724,-0.02106693,-0.04905523,-1.361371,-4.313531,-2.436496,0.3688342,1.340604,0.3494523,-0.7588837,-0.9691853,64.8,2.3,-0.01063426,-0.0761865,0.1003915,-0.2683678,-3.640187,-0.1545094,0.4881722,1.540929,0.3093131,-0.03197566,-0.04596633,-0.06363986,-0.7408674,0.4399622,0.03445172,0.6137049,1.554575,0.190747,0.08489984,1.201266,0.1587637,288.4578,236.8373,357.9534,True
1,2.566666,-0.1884558,0.009794058,-0.05245117,-1.361566,-4.314912,-2.433982,0.3692221,1.340994,0.3494792,-0.7701271,-1.01219,64.8,2.3,-0.0009034425,-0.06030827,0.1089521,-0.266787,-3.639804,-0.1551608,0.488706,1.541112,0.3092201,-0.03311295,-0.04385966,-0.0721589,-0.7419662,0.4394128,0.03526212,0.6142643,1.554523,0.1906536,0.08567815,1.201951,0.1587275,289.7453,236.8804,357.7894,True
1,2.577777,-0.1832225,0.04065743,-0.06011849,-1.361781,-4.316704,-2.43168,0.3696804,1.341373,0.3494918,-0.781234,-0.999216,64.8,2.3,-0.0134557,-0.05084224,0.1283335,-0.2647811,-3.64013,-0.1543086,0.4893422,1.541209,0.3090537,-0.04186241,-0.05670683,-0.09439914,-0.7435466,0.4378824,0.03751329,0.6148528,1.554337,0.1905596,0.08642194,1.202548,0.1584788,290.8951,235.8755,358.5032,True
1,2.588888,-0.1757974,0.05129486,-0.06552063,-1.361713,-4.318054,-2.429709,0.36998,1.341743,0.34952,-0.7928156,-1.042685,58.9,2.1,-0.03143796,-0.04874697,0.1402532,-0.2627922,-3.64074,-0.1527802,0.4899569,1.541361,0.3089643,-0.04619492,-0.07271093,-0.09963202,-0.7447056,0.4357343,0.03996739,0.6154274,1.554173,0.1904919,0.08743727,1.203223,0.1580023,292.3423,236.0889,358.0022,True
1,2.599999,-0.1640986,0.05875373,-0.06983594,-1.361608,-4.319238,-2.428082,0.3700728,1.342126,0.3494651,-0.8046656,-1.066851,58.9,2.1,-0.05804953,-0.06575885,0.1478371,-0.26083,-3.64456,-0.147619,0.4904194,1.541497,0.3089058,-0.04505511,-0.07803036,-0.09217446,-0.7455823,0.433995,0.04151389,0.6159239,1.554076,0.1903346,0.08846471,1.203833,0.1574291,293.565,236.0018,357.8537,True
1,2.61111,-0.1459726,0.05022315,-0.07831606,-1.360914,-4.320222,-2.426887,0.3701322,1.342461,0.3494673,-0.8165113,-1.066228,58.9,2.1,-0.06655215,-0.08177496,0.155245,-0.2587112,-3.649323,-0.142024,0.4908378,1.541578,0.3088653,-0.05771883,-0.06944332,-0.07716407,-0.745797,0.4336072,0.04303429,0.6163219,1.554061,0.1904228,0.08952834,1.204379,0.1568384,294.6876,235.8427,357.8533,True
1,2.622221,-0.1288907,0.03642631,-0.07717293,-1.360276,-4.320755,-2.425907,0.3700756,1.342777,0.3494949,-0.8284402,-1.073893,58.9,2.1,-0.06033479,-0.08485262,0.1391659,-0.25777,-3.652377,-0.1386586,0.4911137,1.541686,0.3088074,-0.07569429,-0.05554816,-0.06427065,-0.746182,0.4333602,0.04446893,0.6166197,1.553943,0.1903415,0.0902974,1.20492,0.1565225,295.7957,234.8856,358.8181,True
1,2.633332,-0.1277632,0.0129896,-0.07808551,-1.35921,-4.320875,-2.424475,0.36998,1.343185,0.3495512,-0.840467,-1.082732,69.6,2.2,-0.04022846,-0.04314838,0.1116104,-0.2575085,-3.64928,-0.1419199,0.4912345,1.541641,0.3086522,-0.09148631,-0.02563088,-0.04290664,-0.7458241,0.4347931,0.04517493,0.6169798,1.55383,0.1903126,0.090464,1.205608,0.156643,296.6953,233.7258,0.152531,True
1,2.644443,-0.1244212,-0.03918453,-0.074541,-1.357255,-4.31949,-2.423558,0.3698879,1.343514,0.3494344,-0.8521215,-1.048842,69.6,2.2,-0.04018953,0.005960312,0.09923494,-0.2570494,-3.642462,-0.1479868,0.4914433,1.541703,0.3085318,-0.08605433,-0.01176749,-0.03341871,-0.7460063,0.4350421,0.04554884,0.6174396,1.553807,0.1902363,0.09015497,1.206975,0.1570814,297.4567,233.515,0.6644974,True
1,2.655554,-0.1285418,-0.09136615,-0.0699334,-1.35495,-4.317729,-2.422377,0.3698242,1.34383,0.3494954,-0.8630043,-0.9785762,69.6,2.2,-0.04007383,0.06354925,0.09118877,-0.2567154,-3.632311,-0.1573222,0.491617,1.541773,0.3083568,-0.07558773,-0.01077572,-0.05267104,-0.7470689,0.434726,0.0465201,0.6178563,1.553612,0.1901529,0.08930556,1.209417,0.1574553,297.4495,233.5793,0.9555212,True
1,2.666665,-0.128495,-0.1094828,-0.07087964,-1.353107,-4.316858,-2.421159,0.3697945,1.344143,0.3495352,-0.8745096,-1.036137,69.6,2.2,-0.04533166,0.06671757,0.09660517,-0.2554019,-3.628724,-0.1601484,0.4919678,1.541939,0.3081818,-0.06925173,-0.02678883,-0.0590822,-0.7481784,0.4332435,0.04799629,0.6182889,1.553694,0.1900334,0.08823479,1.21307,0.157607,296.9805,233.419,1.499776,True
1,2.677776,-0.1178544,-0.1062906,-0.07623345,-1.351701,-4.316834,-2.420216,0.369768,1.344364,0.3494213,-0.8855224,-0.9905238,52,0.6,-0.07414646,0.04869388,0.09781007,-0.2542711,-3.628961,-0.1580693,0.4921402,1.541991,0.3080676,-0.08726281,-0.03206454,-0.04826352,-0.7483946,0.4326412,0.04993081,0.6187317,1.553523,0.1901972,0.08727008,1.217777,0.1573656,296.0959,232.7944,2.470809,True
1,2.688887,-0.09984592,-0.06786825,-0.07331111,-1.351438,-4.317871,-2.419418,0.3698417,1.344472,0.3492572,-0.8969383,-1.027857,52,0.6,-0.09990466,0.02757546,0.08617592,-0.2536831,-3.630482,-0.1546836,0.4923894,1.542069,0.3079686,-0.09879683,-0.02560057,-0.02687655,-0.7480095,0.432597,0.05150554,0.6189907,1.553738,0.1901984,0.08662779,1.223251,0.156661,294.9431,231.7931,3.610378,True
1,2.699998,-0.07976891,-0.001681039,-0.05991494,-1.352509,-4.319551,-2.418714,0.3698848,1.344691,0.3491082,-0.9081107,-1.005253,52,0.6,-0.08721983,0.03189184,0.07435992,-0.2533838,-3.628002,-0.1566541,0.4925994,1.542178,0.3078732,-0.09337654,-0.0106725,-0.01951192,-0.7479941,0.4330349,0.05174762,0.6193431,1.55374,0.1901448,0.08627554,1.22915,0.155509,293.6618,230.6077,4.70225,True
1,2.711109,-0.07241777,0.04209155,-0.0484898,-1.353626,-4.321101,-2.417826,0.3699289,1.344888,0.3490937,-0.9206836,-1.13377,52,0.6,-0.06072864,0.02016038,0.06440368,-0.2529417,-3.628332,-0.1565257,0.4928063,1.542289,0.307745,-0.08836483,0.007333517,-0.05690467,-0.7499344,0.434317,0.05163204,0.6195538,1.553953,0.1900311,0.08608969,1.235137,0.1540368,292.353,229.2918,5.748093,True
1,2.72222,-0.05333571,0.07733724,-0.0434107,-1.35462,-4.322854,-2.417322,0.3699404,1.345115,0.3490818,-0.9313468,-0.958219,52,0.6,-0.06400027,-0.02677017,0.07256811,-0.2516053,-3.634692,-0.1496132,0.4929669,1.542392,0.3076303,-0.09595458,0.009412356,-0.07389366,-0.7513507,0.4344914,0.05267173,0.6199189,1.553812,0.1899891,0.08613454,1.240837,0.1524626,291.0212,228.035,6.647585,True
1,2.733331,-0.03732404,0.06669475,-0.04656577,-1.354115,-4.32356,-2.417358,0.3697945,1.34504,0.3479395,-0.9417651,-0.9375529,52.5,0.4,-0.08347912,-0.0574363,0.05333363,-0.2513768,-3.641087,-0.1418019,0.4930639,1.54235,0.30741,-0.101264,0.01370002,-0.06959388,-0.7518519,0.4351523,0.0538342,0.6201015,1.553817,0.1897995,0.08627171,1.246004,0.1509391,289.8983,227.0236,7.29081,True
1,2.744442,-0.03192609,0.04005716,-0.04959216,-1.353294,-4.323677,-2.417173,0.3694223,1.345242,0.3478577,-0.9527427,-0.9886765,52.5,0.4,-0.1071613,-0.0881303,0.03947037,-0.2511489,-3.648986,-0.132154,0.4929416,1.542379,0.3072724,-0.09469154,0.02119707,-0.05051178,-0.7518998,0.4356512,0.0541378,0.620267,1.553795,0.1896689,0.08642866,1.250541,0.1496261,289.0511,226.1055,7.867002,True
1,2.755553,-0.04030041,-0.0153953,-0.05349092,-1.35123,-4.322593,-2.416737,0.3690503,1.345416,0.3476386,-0.9635732,-0.9749377,52.5,0.4,-0.1040793,-0.03463205,0.01005675,-0.2521742,-3.644188,-0.1356902,0.4927393,1.542122,0.3069859,-0.09232363,0.0479169,-0.02289876,-0.7508793,0.4380006,0.05362301,0.6203556,1.553689,0.1898057,0.08643493,1.254433,0.1485358,288.4011,225.2992,8.54341,True
1,2.766664,-0.05505579,-0.07938351,-0.05837955,-1.348742,-4.320836,-2.415929,0.3687598,1.345532,0.3475351,-0.9736357,-0.9049395,52.5,0.4,-0.06321093,0.06319533,0.01472369,-0.2523164,-3.628718,-0.1513355,0.4925662,1.542145,0.3067541,-0.07839938,0.044731,-0.01556379,-0.7509906,0.4384554,0.05351542,0.6205189,1.553692,0.1899092,0.08618104,1.257664,0.1474739,287.9122,224.4203,9.482972,True
1,2.777775,-0.06349832,-0.111399,-0.06348889,-1.346512,-4.319641,-2.41519,0.3685572,1.345684,0.3474262,-0.983425,-0.8805199,52.5,0.4,-0.04589815,0.0992393,0.02869906,-0.2519063,-3.618915,-0.1609138,0.4924986,1.542134,0.306494,-0.0454869,0.03507763,-0.02966605,-0.751756,0.4384791,0.05268265,0.6205512,1.553593,0.1898425,0.08591513,1.260379,0.1465551,287.6336,223.5149,10.32033,True
1,2.788886,-0.05815856,-0.117814,-0.06877699,-1.344795,-4.319139,-2.414863,0.3683991,1.345793,0.3473241,-0.9932009,-0.8794203,46.6,1,-0.05845457,0.1012326,0.05015113,-0.2507707,-3.614457,-0.164079,0.4924227,1.542075,0.3062348,-0.06357262,0.0297744,-0.02415303,-0.7516404,0.4386359,0.05417109,0.6205825,1.553455,0.1896489,0.08574436,1.262773,0.145743,287.494,222.5976,11.17174,True
1,2.799997,-0.04860643,-0.1028728,-0.0688852,-1.343858,-4.319323,-2.414698,0.3682086,1.345869,0.34726,-1.003569,-0.933794,46.6,1,-0.07662575,0.07143242,0.05434829,-0.2499558,-3.61502,-0.1620238,0.4923332,1.542046,0.306046,-0.08370288,0.04684713,-0.01445787,-0.7516394,0.4400366,0.05457616,0.6206762,1.553506,0.1895144,0.08576092,1.26507,0.1449809,287.4169,221.7129,12.00333,True
1,2.811108,-0.03700008,-0.05261299,-0.04472546,-1.345044,-4.3201,-2.414565,0.3680885,1.345803,0.3471806,-1.01422,-0.9592579,46.6,1,-0.07481428,0.02467957,0.03902822,-0.249796,-3.620644,-0.1557425,0.4922163,1.542014,0.3059642,-0.07371981,0.08001073,0.03011431,-0.7494668,0.4432318,0.05292633,0.6206019,1.553473,0.1893086,0.08593904,1.267486,0.1442145,287.3086,220.8643,12.77343,True
1,2.822219,-0.03068272,-0.01513363,-0.01727105,-1.346272,-4.320266,-2.414408,0.3679087,1.345634,0.347084,-1.024464,-0.921963,46.6,1,-0.05892499,0.02683227,0.02929871,-0.2498168,-3.618942,-0.1573153,0.4921765,1.541945,0.3057866,-0.05554796,0.0672314,0.03639029,-0.7488271,0.4435006,0.05250182,0.6206791,1.553503,0.1891704,0.08619695,1.270148,0.1434394,287.0758,219.9458,13.55645,True
1,2.83333,-0.02753463,0.01158804,-0.002551969,-1.34694,-4.320673,-2.414251,0.3678302,1.345543,0.3465705,-1.034353,-0.8900453,42,1.1,-0.03237134,0.04816826,0.01429147,-0.250417,-3.61417,-0.1624973,0.4921536,1.541978,0.3055553,-0.05240938,0.04912093,0.03109848,-0.7485624,0.4436644,0.0528523,0.620757,1.553399,0.1892555,0.08643354,1.273101,0.1426905,286.6852,219.0299,14.29851,True
1,2.844441,-0.0148239,0.04477645,0.01746113,-1.348636,-4.321313,-2.414347,0.36798,1.34558,0.3464274,-1.043772,-0.8473683,42,1.1,-0.020413,0.0767739,0.02825888,-0.2499116,-3.606203,-0.1703483,0.4921944,1.542093,0.3054154,-0.05358696,0.03735149,0.01728028,-0.7490183,0.4435548,0.0534033,0.6208602,1.553504,0.1891317,0.08661774,1.276322,0.1420022,286.1164,218.2768,14.93355,True
1,2.855552,0.01391232,0.0576731,0.02374265,-1.34959,-4.321774,-2.415414,0.3681931,1.345785,0.3462002,-1.053289,-0.8566501,42,1.1,-0.01178423,0.06383597,0.04297846,-0.2490034,-3.604483,-0.1721643,0.4923415,1.542284,0.3051717,-0.05165045,0.02132699,-0.001852903,-0.7495238,0.4433949,0.05426883,0.6209111,1.55354,0.1889505,0.0867486,1.279713,0.141313,285.454,217.439,15.7857,True
1,2.866663,0.04055099,0.05450438,0.01735228,-1.349827,-4.322146,-2.416713,0.3683162,1.345952,0.3460352,-1.062878,-0.8634902,42,1.1,-0.01178231,0.0264486,0.05544698,-0.24787,-3.607869,-0.1687941,0.4923151,1.542438,0.3050368,-0.0528972,0.002084184,-0.0220362,-0.7506348,0.4423413,0.05558044,0.6209029,1.553628,0.188761,0.08692578,1.283179,0.1405716,284.82,216.3909,16.89428,True
1,2.877774,0.05763523,0.0395773,0.009969892,-1.349441,-4.322166,-2.417997,0.3684441,1.346019,0.3457868,-1.072895,-0.9026048,42,1.1,-0.03117318,-0.0470286,0.05929122,-0.2465384,-3.620326,-0.1556751,0.4924828,1.542489,0.3048921,-0.05088203,-0.02030964,-0.03264757,-0.7514748,0.4411617,0.05709738,0.6208487,1.553844,0.1886921,0.08736135,1.286652,0.1398839,284.2341,215.3577,17.90668,True
1,2.888885,0.06409684,0.007544322,-0.003673437,-1.348326,-4.321692,-2.418941,0.3685056,1.345887,0.3456864,-1.082032,-0.8219577,32.1,0.5,-0.0591305,-0.1044033,0.05269868,-0.2458289,-3.632277,-0.1425702,0.4923937,1.542511,0.3047466,-0.0421661,-0.03303654,-0.01031206,-0.750825,0.4399457,0.05802096,0.6208521,1.553704,0.1884968,0.0880295,1.290027,0.1392557,283.6706,214.0256,19.16764,True
1,2.899997,0.05777235,-0.02130485,-0.01413183,-1.347087,-4.321054,-2.41952,0.3685733,1.34567,0.3456326,-1.090608,-0.7715982,32.1,0.5,-0.06567501,-0.09891173,0.03576666,-0.2458646,-3.63574,-0.1382961,0.4921406,1.542438,0.3045378,-0.04091572,-0.02233876,0.008821096,-0.7501155,0.4398376,0.05836051,0.6206799,1.553707,0.1882463,0.08878399,1.293174,0.1386687,283.1273,212.3008,20.78841,True
1,2.911108,0.05993335,-0.03193104,-0.0119307,-1.34672,-4.320653,-2.420305,0.3684503,1.345477,0.3456833,-1.0987,-0.7276959,32.1,0.5,-0.03786183,-0.03180201,0.02432364,-0.2462391,-3.628345,-0.1459902,0.4918399,1.542377,0.3043039,-0.04276092,-0.01476589,0.04291456,-0.7484425,0.4402225,0.0588042,0.6206106,1.553533,0.1880922,0.08952636,1.295974,0.1380933,282.6278,210.3287,22.66295,True
1,2.922219,0.07912039,-0.03505028,-0.00766548,-1.346445,-4.320267,-2.421903,0.3683405,1.345385,0.3456194,-1.106763,-0.7254412,32.1,0.5,-0.0252705,0.0003623553,-0.005365496,-0.2473416,-3.624712,-0.1496574,0.4914517,1.542353,0.3039379,-0.04790377,-0.003000274,0.06209353,-0.7472287,0.4403591,0.05926172,0.6206718,1.553605,0.187921,0.09022519,1.298351,0.1375216,282.2245,208.3189,24.56499,True
1,2.93333,0.09935193,-0.02962886,-0.001324862,-1.346453,-4.31999,-2.423715,0.3681479,1.34509,0.3455408,-1.115338,-0.7723936,32.1,0.5,-0.04561059,0.01866835,-0.02099041,-0.2482194,-3.622728,-0.150336,0.490983,1.542281,0.3036981,-0.06179981,0.03748985,0.055717,-0.7465975,0.4433596,0.05842895,0.6206141,1.553496,0.187932,0.09084547,1.300337,0.1369457,281.9572,206.6826,26.06378,True
1,2.944441,0.1120961,-0.0146313,0.006024508,-1.346884,-4.320046,-2.425246,0.3680566,1.344686,0.3455019,-1.124334,-0.8106266,45.2,1.1,-0.08509461,0.08082754,-0.04883184,-0.2500564,-3.611933,-0.1585651,0.4904866,1.542259,0.3033984,-0.08514839,0.07799163,0.06219101,-0.745635,0.4462132,0.05791949,0.6206588,1.553418,0.1879151,0.09132156,1.302044,0.1363773,281.7909,205.6492,26.9444,True
1,2.955552,0.1120459,0.004543594,0.00589825,-1.347382,-4.320528,-2.426385,0.3679138,1.344321,0.3454125,-1.132585,-0.7423025,45.2,1.1,-0.09467828,0.1310702,-0.06536005,-0.2518956,-3.599911,-0.1687935,0.4899259,1.542101,0.3030071,-0.09897654,0.09717825,0.06332058,-0.7447754,0.4487401,0.0576625,0.6206144,1.553402,0.1878326,0.09169587,1.303558,0.1358471,281.6545,204.8072,27.67801,True
1,2.966663,0.11836,0.03440184,0.006759902,-1.348405,-4.321633,-2.427586,0.3678765,1.344111,0.3452711,-1.140145,-0.6799389,45.2,1.1,-0.06993355,0.2440367,-0.08064599,-0.2545018,-3.574664,-0.193505,0.4894877,1.541874,0.3025849,-0.1065292,0.1110023,0.05270017,-0.7444084,0.4511412,0.05745663,0.6205064,1.553539,0.1878011,0.09201057,1.304907,0.1353865,281.4822,203.9044,28.4998,True
1,2.977774,0.1321689,0.04934486,0.005585423,-1.349127,-4.322452,-2.429339,0.3677826,1.343896,0.3451657,-1.147458,-0.6579517,45.2,1.1,-0.0355162,0.346208,-0.08333707,-0.2569269,-3.547645,-0.2204719,0.4891307,1.541695,0.3021865,-0.0904633,0.1141983,0.06000068,-0.7435561,0.4528343,0.05637859,0.6203955,1.553535,0.1876965,0.09230547,1.306138,0.1350253,281.2964,203.1094,29.22984,True
1,2.988885,0.1662489,0.05158946,0.009810362,-1.349721,-4.322638,-2.432198,0.3676247,1.343776,0.3450239,-1.155191,-0.6963971,36.4,0.3,-0.02799448,0.3343702,-0.07286188,-0.258105,-3.536067,-0.2315627,0.4889226,1.541668,0.3020077,-0.06906275,0.1025203,0.07264104,-0.7421335,0.4540985,0.05560521,0.6202049,1.553633,0.1876724,0.09252343,1.307362,0.1347467,281.1528,202.5778,29.71472,True
1,2.999996,0.1801206,0.0419743,0.0002804361,-1.349594,-4.322869,-2.434609,0.3674643,1.343633,0.3448403,-1.163174,-0.7190457,36.4,0.3,-0.03662007,0.2682469,-0.06054276,-0.2584747,-3.533851,-0.2329848,0.4887519,1.541664,0.3018539,-0.06696541,0.09292212,0.06945479,-0.7414379,0.4550857,0.05553862,0.6200606,1.553676,0.1875322,0.09268695,1.308698,0.1345729,281.0273,202.1937,30.08662,True
1,3.011107,0.1865878,0.009962796,-0.01016697,-1.3486,-4.32241,-2.43702,0.3673902,1.343495,0.3447564,-1.171534,-0.7533609,36.4,0.3,-0.06904858,0.0593486,-0.03532839,-0.2566313,-3.558334,-0.2073292,0.48854,1.541735,0.3018782,-0.06910106,0.07481435,0.06951782,-0.7407588,0.4553891,0.05613091,0.6196461,1.553916,0.1876318,0.09283693,1.310184,0.1344969,280.856,201.5512,30.76359,True
1,3.022218,0.1803184,-0.04017,-0.01729036,-1.346946,-4.321115,-2.439018,0.3672459,1.343369,0.3447375,-1.178296,-0.6073397,36.4,0.3,-0.07147548,-0.02266635,-0.03599311,-0.256553,-3.569386,-0.1957043,0.4881412,1.541687,0.3018308,-0.06908929,0.06947309,0.06952514,-0.7400935,0.455948,0.05627978,0.6194538,1.553922,0.1874878,0.09302354,1.311757,0.1344703,280.6001,200.4278,31.96565,True
1,3.033329,0.1718695,-0.06788231,-0.01603588,-1.345729,-4.319876,-2.440907,0.3671463,1.343183,0.3447518,-1.185016,-0.6048382,36.4,0.3,-0.04835419,-0.08124612,-0.04737164,-0.2569333,-3.580842,-0.1849326,0.4877667,1.541715,0.3017123,-0.0647585,0.06630285,0.08123492,-0.7384652,0.4566528,0.05676182,0.619239,1.553742,0.1871579,0.09326855,1.313316,0.1344322,280.3312,198.8687,33.61083,True
1,3.04444,0.1645091,-0.1019703,-0.01154501,-1.344264,-4.318023,-2.442936,0.3670326,1.342874,0.3445864,-1.191228,-0.5583702,41,1.1,-0.01457514,-0.07576825,-0.07963099,-0.2587548,-3.584175,-0.1826609,0.4871632,1.54161,0.301549,-0.06258479,0.06949486,0.08439018,-0.7375827,0.4576534,0.05645156,0.6190065,1.553856,0.187021,0.09365737,1.314767,0.1343464,280.1117,196.9959,35.53778,True
1,3.055551,0.1687479,-0.09017096,-0.0009728521,-1.344129,-4.317297,-2.445113,0.3668623,1.342569,0.3446162,-1.197825,-0.5940157,41,1.1,0.007785559,0.00749642,-0.1089903,-0.2613754,-3.574894,-0.1924318,0.486574,1.54135,0.3011768,-0.06358252,0.08869376,0.09074114,-0.7361909,0.4600256,0.05543476,0.6186633,1.553781,0.1871328,0.09417256,1.316078,0.1341308,279.9657,195.1747,37.35096,True
1,3.066662,0.1739587,-0.04529897,0.01577629,-1.345501,-4.317717,-2.446998,0.3667445,1.34218,0.3446345,-1.204509,-0.6016725,41,1.1,0.01229998,0.150434,-0.1323445,-0.2647326,-3.55326,-0.2135397,0.4860883,1.541132,0.3008621,-0.05284712,0.09615918,0.09913506,-0.7349467,0.4616664,0.05439427,0.6184228,1.553796,0.187017,0.0947929,1.317254,0.1337411,279.8427,193.5521,38.92332,True
1,3.077773,0.1770642,-0.01012254,0.01767267,-1.346435,-4.318419,-2.44892,0.3666787,1.341841,0.3446357,-1.211502,-0.6299243,41,1.1,0.006266549,0.2121247,-0.1179168,-0.2665233,-3.537413,-0.2287115,0.4856403,1.540998,0.3005731,-0.03150529,0.0770081,0.1054015,-0.7334463,0.4621761,0.05371916,0.6180584,1.553911,0.1869926,0.09547854,1.318298,0.1331265,279.7403,192.0046,40.35618,True
1,3.088884,0.1768489,0.07297099,0.01712591,-1.348842,-4.321173,-2.450255,0.3667241,1.341473,0.3446059,-1.217999,-0.5844421,29.9,0.7,-0.01135555,0.2310144,-0.07603203,-0.2666202,-3.526256,-0.2386773,0.4853016,1.540807,0.3002665,-0.04662441,0.07373646,0.08209877,-0.7334042,0.4628448,0.05429946,0.6176894,1.55405,0.1868517,0.09615449,1.31925,0.1323978,279.6376,190.7141,41.37574,True
1,3.099995,0.1724841,0.1091662,0.01369029,-1.350366,-4.323123,-2.451507,0.366667,1.341141,0.3446395,-1.224493,-0.5846004,29.9,0.7,-0.01642761,0.185953,-0.03587162,-0.2658261,-3.523196,-0.2412712,0.4849678,1.540691,0.3000915,-0.04338182,0.07160886,0.08633465,-0.7322468,0.4638326,0.05376816,0.6173778,1.554061,0.186682,0.0967331,1.320171,0.131721,279.5082,189.7697,42.00833,True
1,3.111106,0.1671132,0.1240242,0.007203568,-1.351438,-4.324715,-2.452885,0.3665843,1.340737,0.3447185,-1.230705,-0.5588152,29.9,0.7,-0.01564965,0.09002887,-0.03136073,-0.2657057,-3.531571,-0.2330218,0.4845256,1.54074,0.3000395,-0.0294347,0.06738424,0.09473629,-0.73105,0.464957,0.05246241,0.6169515,1.554138,0.186748,0.09717446,1.321113,0.1312449,279.3999,188.8868,42.62724,True
1,3.122217,0.1629257,0.09737154,0.005247466,-1.351452,-4.324833,-2.454613,0.3663763,1.34058,0.3447466,-1.236727,-0.5416635,29.9,0.7,-0.01200303,0.009325769,-0.06403738,-0.2669435,-3.54191,-0.2229628,0.4839973,1.540645,0.2999477,-0.03470957,0.08017816,0.09899679,-0.7298968,0.4667481,0.05159608,0.6164468,1.55428,0.1865497,0.09739313,1.322161,0.1311186,279.2657,188.1778,43.16631,True
1,3.133328,0.1630459,0.05047855,0.00236053,-1.350786,-4.324132,-2.456594,0.3661191,1.34032,0.3448112,-1.24302,-0.5666717,29.9,0.7,0.001364544,-0.009557582,-0.104817,-0.269211,-3.546098,-0.219335,0.483399,1.540547,0.2998035,-0.03127982,0.08666483,0.1266561,-0.7274648,0.4686595,0.05058302,0.6159474,1.554284,0.1862757,0.09740978,1.32334,0.1313776,279.1052,187.251,44.09765,True
1,3.144439,0.169526,0.01421547,-0.005920209,-1.349983,-4.323443,-2.458875,0.365816,1.34,0.3448129,-1.249305,-0.5656572,30.6,0,0.00964383,-0.0008348636,-0.1314623,-0.2714736,-3.545871,-0.2198756,0.4827746,1.540386,0.2995453,-0.03119114,0.08777128,0.1373078,-0.7255409,0.47023,0.04983067,0.6155492,1.554344,0.1861277,0.09730607,1.324623,0.1319505,278.9149,186.0653,45.4654,True
1,3.15555,0.1706244,-0.0007446092,-0.01327975,-1.349344,-4.323286,-2.460855,0.365555,1.339692,0.3448179,-1.255594,-0.5661219,30.6,0,0.01497913,0.04187284,-0.1450093,-0.2739466,-3.54082,-0.2251034,0.4820562,1.540184,0.2992241,-0.03761818,0.09095816,0.1330932,-0.7241183,0.4718326,0.04925223,0.6150401,1.554391,0.1859095,0.09717723,1.325969,0.1326335,278.7269,184.6612,47.18164,True
1,3.166661,0.1663797,-0.009361591,-0.02600646,-1.348578,-4.323571,-2.462571,0.3651855,1.339333,0.3447878,-1.262069,-0.5831136,30.6,0,0.01190093,0.08558978,-0.1478099,-0.2761298,-3.533375,-0.2322146,0.4813576,1.539954,0.2989056,-0.04082166,0.09415548,0.1341745,-0.7226056,0.4733889,0.04891614,0.6145705,1.554526,0.1857233,0.09713838,1.327285,0.1332283,278.543,182.817,49.34161,True
1,3.177772,0.1642059,0.005511533,-0.03142939,-1.348535,-4.324399,-2.464134,0.3649195,1.33891,0.3447831,-1.268042,-0.5370629,30.6,0,-0.003797799,0.1559246,-0.1438658,-0.278556,-3.519428,-0.2450377,0.4806312,1.539695,0.2984838,-0.03011134,0.09203138,0.1404797,-0.7207654,0.4745198,0.04797551,0.6140328,1.554564,0.185456,0.09721743,1.328487,0.1335894,278.3783,180.7132,51.65018,True
1,3.188883,0.1534415,0.04382803,-0.0327427,-1.349333,-4.326164,-2.464919,0.3646528,1.33827,0.3448153,-1.273964,-0.5328425,25.2,0,-0.01304857,0.2101744,-0.1294644,-0.2804394,-3.505851,-0.257721,0.4798533,1.539502,0.2981005,-0.02267621,0.08884093,0.1393663,-0.719103,0.4760056,0.04701172,0.6134585,1.554614,0.1852944,0.09737575,1.329547,0.1336698,278.2703,178.6793,53.7299,True
1,3.199994,0.1544735,0.06092338,-0.02540023,-1.35003,-4.327122,-2.466556,0.3643871,1.337968,0.344784,-1.280021,-0.5452434,25.2,0,-0.004606187,0.1941839,-0.1318134,-0.2823318,-3.501837,-0.2617866,0.4791621,1.53934,0.2977278,-0.03006405,0.08778902,0.1447587,-0.7172905,0.4771925,0.04640345,0.6129256,1.554602,0.1849914,0.09753665,1.330476,0.1335022,278.2264,176.8063,55.50882,True
1,3.211105,0.1704035,0.0822605,-0.0255671,-1.350569,-4.3286,-2.468764,0.3640862,1.337385,0.3439925,-1.285571,-0.4986903,25.2,0,0.003781259,0.1504596,-0.1301364,-0.2837859,-3.502689,-0.2612782,0.4783517,1.539263,0.297441,-0.04601669,0.08889063,0.149165,-0.7152963,0.478933,0.04628787,0.6122577,1.554683,0.1847823,0.09770641,1.331301,0.1332302,278.1936,175.1459,56.98536,True
1,3.222216,0.1885519,0.06844754,-0.02762087,-1.350476,-4.329082,-2.471421,0.3636592,1.337189,0.3439391,-1.292183,-0.5964641,25.2,0,0.003754005,0.1344559,-0.1270756,-0.2853076,-3.500342,-0.2635083,0.4775079,1.539074,0.297056,-0.04701717,0.09210113,0.15555,-0.7133969,0.480452,0.04559092,0.6116313,1.554741,0.1844647,0.09781716,1.332094,0.1329818,278.1409,173.942,58.00436,True
1,3.233327,0.2088683,0.03756536,-0.03382533,-1.349642,-4.328989,-2.474444,0.3632446,1.337022,0.3438683,-1.298769,-0.5932217,25.2,0,0.007088289,0.1524883,-0.1195022,-0.2870328,-3.49367,-0.2700842,0.476728,1.539001,0.2966943,-0.02455205,0.08679509,0.1660214,-0.7111593,0.4815777,0.04424256,0.6109509,1.554733,0.1841717,0.09783069,1.332929,0.1327581,278.0607,172.8787,59.04674,True
1,3.244438,0.2132159,0.001278573,-0.04637413,-1.348226,-4.328727,-2.476976,0.3628177,1.336858,0.3437831,-1.304709,-0.5344598,32.4,0,0.004154488,0.1768587,-0.1022231,-0.2883522,-3.484767,-0.2786007,0.4759564,1.538867,0.2963054,-0.01397249,0.07613001,0.1595763,-0.7094496,0.482501,0.04352697,0.6102718,1.55484,0.1839774,0.09772213,1.333759,0.1324795,277.9775,171.3353,60.67913,True
1,3.255549,0.212196,-0.01902771,-0.05582723,-1.346939,-4.328614,-2.479339,0.362458,1.336604,0.3437133,-1.310453,-0.5171572,32.4,0,0.0002312511,0.1894149,-0.07331128,-0.2888955,-3.47611,-0.2867665,0.4752138,1.538774,0.29585,-0.01717736,0.06440234,0.1585645,-0.7078203,0.4827283,0.04357677,0.6095138,1.554974,0.1836624,0.09767421,1.334513,0.132263,277.9659,169.8214,62.17532,True
1,3.26666,0.2132924,-0.03184496,-0.06213256,-1.345901,-4.32862,-2.481725,0.3621152,1.336323,0.3436513,-1.315345,-0.439369,32.4,0,-0.006141514,0.1648444,-0.06280194,-0.2895959,-3.473415,-0.289015,0.4743856,1.538704,0.295491,-0.02896681,0.07186015,0.1501237,-0.7063326,0.4846949,0.04282017,0.6088293,1.554966,0.1833696,0.09771546,1.335145,0.1321197,277.9985,168.2938,63.65538,True
1,3.277771,0.2164789,-0.02539282,-0.05472221,-1.345632,-4.328893,-2.484172,0.3617744,1.335943,0.3436122,-1.32051,-0.4649713,32.4,0,-0.01049188,0.152114,-0.06712382,-0.2908278,-3.470098,-0.2919139,0.4736432,1.538626,0.2951479,-0.02793505,0.07076938,0.1458507,-0.70491,0.4854803,0.04243481,0.6081389,1.55503,0.1830444,0.09779347,1.335659,0.1320136,278.061,166.9653,64.94572,True
1,3.288882,0.224946,0.001380591,-0.03679509,-1.346312,-4.329518,-2.486809,0.3614658,1.335639,0.343626,-1.325884,-0.4837958,32.4,0,0.00547649,0.1456452,-0.06520542,-0.2917807,-3.466218,-0.2960343,0.4728843,1.53856,0.2948737,-0.02374879,0.06542487,0.1362417,-0.7036796,0.4865126,0.04160763,0.6074436,1.554984,0.182806,0.09788795,1.336084,0.1319326,278.1194,165.8807,66.0024,True
1,3.299993,0.2281075,0.01850284,-0.0262597,-1.346787,-4.330127,-2.489315,0.3611196,1.335326,0.3436151,-1.331306,-0.48813,25,0,0.03098363,0.1317192,-0.06664759,-0.2928385,-3.463601,-0.2997308,0.4720752,1.53849,0.2945795,-0.02374147,0.05795731,0.1362607,-0.7022404,0.4868354,0.04148725,0.6066975,1.555111,0.1824412,0.09797082,1.336455,0.1318682,278.1551,164.9782,66.87536,True
1,3.311104,0.2249151,0.02391043,-0.01138831,-1.347143,-4.330266,-2.491757,0.3607916,1.334891,0.3434322,-1.336824,-0.4969943,25,0,0.05960597,0.09861496,-0.06934583,-0.2936412,-3.464576,-0.3003588,0.4712782,1.538392,0.2942827,-0.02363577,0.05160977,0.1490588,-0.7001855,0.4873443,0.04140949,0.6058612,1.555289,0.1821558,0.09801869,1.336812,0.131837,278.1461,164.2736,67.53407,True
1,3.322215,0.2228087,0.01644701,-0.01239968,-1.347037,-4.330351,-2.494219,0.3603488,1.334599,0.3434424,-1.341906,-0.456941,25,0,0.05945764,0.09126344,-0.0811329,-0.2952583,-3.463073,-0.3023543,0.4704378,1.538291,0.2939749,-0.01920839,0.0452586,0.1671366,-0.6979165,0.4875186,0.04123133,0.6051681,1.555335,0.1817763,0.09801474,1.337197,0.1318698,278.0978,163.7092,68.05995,True
1,3.333326,0.2250242,-0.01661013,-0.01751484,-1.345858,-4.329527,-2.497015,0.3599278,1.334281,0.3433385,-1.346879,-0.4473892,25,0,0.0431854,0.08515149,-0.1076518,-0.2974932,-3.462492,-0.302762,0.4695549,1.5382,0.2935731,-0.01926728,0.03565045,0.1629209,-0.6960369,0.4874329,0.04172667,0.6043563,1.555262,0.1812906,0.09794611,1.337624,0.1319501,278.0445,162.9372,68.85999,True
1,3.344437,0.2304116,-0.04326964,-0.02373177,-1.344743,-4.3287,-2.499871,0.359415,1.333972,0.3432851,-1.352018,-0.4626697,28.3,0,0.03261404,0.09900942,-0.1042322,-0.2989452,-3.458532,-0.3065128,0.4686551,1.538048,0.2932246,-0.01723271,0.0302917,0.1522654,-0.6946872,0.487589,0.04174425,0.6035563,1.555282,0.1809161,0.0978485,1.338077,0.1320183,277.9999,161.9343,69.93848,True
1,3.355548,0.2336348,-0.05500736,-0.02791819,-1.343803,-4.32816,-2.502682,0.3589827,1.333674,0.3432274,-1.357284,-0.4741744,28.3,0,0.05189496,0.1618868,-0.1145525,-0.3015993,-3.447507,-0.3182062,0.4678263,1.537847,0.2927809,-0.009640105,0.03991501,0.1660078,-0.6925337,0.4886724,0.04064756,0.6027795,1.55542,0.1806345,0.09776329,1.338544,0.1320489,277.9984,160.8143,71.11745,True
1,3.366659,0.2368636,-0.06667969,-0.02252039,-1.343099,-4.327367,-2.505552,0.3586563,1.333452,0.3431354,-1.362463,-0.4660409,28.3,0,0.06481643,0.2076669,-0.1164317,-0.3041245,-3.436568,-0.3298181,0.4670403,1.537679,0.2923903,0.009580478,0.04100879,0.1722343,-0.690294,0.4896725,0.0392992,0.601979,1.555485,0.1802714,0.09775907,1.338974,0.1319866,278.0429,159.5002,72.47782,True
1,3.37777,0.2368512,-0.0591943,-0.01725527,-1.342694,-4.327105,-2.508277,0.3584523,1.333064,0.3428979,-1.367568,-0.4595128,28.3,0,0.07901029,0.2468627,-0.09600292,-0.3057085,-3.424357,-0.3428266,0.4664382,1.537493,0.2919531,0.02545965,0.01751876,0.1604439,-0.688979,0.4883599,0.03929734,0.6012809,1.555485,0.179841,0.09782344,1.339347,0.1318046,278.1015,158.2379,73.71324,True
1,3.388881,0.2378615,-0.03465582,-0.01091546,-1.342691,-4.327022,-2.511015,0.3582038,1.332749,0.3428233,-1.372634,-0.4559003,28.3,0,0.08206293,0.181798,-0.08805729,-0.3063669,-3.425385,-0.3428119,0.46586,1.537514,0.2916679,0.01883604,0.002554797,0.1371114,-0.6881939,0.4878885,0.03999722,0.6005244,1.55561,0.1794114,0.09796974,1.339661,0.1315322,278.1507,157.2907,74.5857,True
1,3.399992,0.2484635,-0.01651473,-0.01220996,-1.343227,-4.327794,-2.513936,0.3580264,1.332359,0.3427551,-1.377663,-0.4525194,26.5,0,0.07334687,0.1125452,-0.08322345,-0.3068579,-3.429158,-0.3396659,0.4651433,1.537488,0.2913435,0.00699956,-0.000688009,0.1223032,-0.687463,0.4875017,0.04043078,0.5997894,1.555666,0.1789529,0.09821787,1.339934,0.1311874,278.1846,156.571,75.23553,True
1,3.411103,0.2547834,0.01229248,-0.008143831,-1.34393,-4.32868,-2.516807,0.3578408,1.332011,0.342663,-1.382757,-0.4586366,26.5,0,0.04338355,0.06468257,-0.08012591,-0.3073346,-3.432576,-0.3358619,0.46446,1.537455,0.2910459,-0.008841999,-0.001681987,0.1394985,-0.6851765,0.4875699,0.04122467,0.5990059,1.555794,0.1785667,0.09854536,1.340179,0.1307887,278.2183,155.8136,75.90668,True
1,3.422215,0.2590368,0.01977304,-0.007117055,-1.344385,-4.329,-2.519911,0.3574977,1.331709,0.3425968,-1.388165,-0.487164,26.5,0,0.02831003,0.04563276,-0.08864991,-0.308491,-3.433856,-0.3343809,0.4636583,1.537441,0.2907114,-0.002386726,-0.005924072,0.1469117,-0.6832984,0.4871173,0.04138419,0.5982189,1.555886,0.1781058,0.09889299,1.340437,0.130403,278.2536,155.0771,76.48993,True
1,3.433326,0.2515878,0.01544725,-0.0134774,-1.344041,-4.329206,-2.522456,0.3573084,1.331326,0.3425512,-1.393177,-0.4507956,26.5,0,0.02925196,0.02970539,-0.09518747,-0.3096937,-3.435847,-0.3328451,0.462814,1.537492,0.2903411,0.005097032,-0.004854143,0.1489619,-0.6817799,0.4870465,0.04095569,0.597312,1.556037,0.1779144,0.09919478,1.340724,0.1301322,278.2719,154.2125,77.18795,True
1,3.444437,0.2473689,-0.001588346,-0.01123269,-1.343679,-4.328798,-2.525094,0.3570495,1.331025,0.3425195,-1.398255,-0.4571719,22.2,0.2,0.03675415,0.0456707,-0.09619285,-0.3110498,-3.433469,-0.3358377,0.4619029,1.53743,0.2899411,-0.01409759,0.0004393868,0.1480483,-0.6802033,0.4870959,0.04145503,0.5964922,1.556089,0.1774867,0.09936571,1.341063,0.1300159,278.2681,153.3212,77.97492,True
1,3.455548,0.2388671,-0.01014684,-0.01329992,-1.343261,-4.328578,-2.527508,0.3568657,1.330706,0.3424964,-1.40267,-0.3964201,22.2,0.2,0.05815527,0.1341875,-0.1159126,-0.3144522,-3.421576,-0.3484592,0.460951,1.537256,0.2893593,-0.01939604,-0.0005612373,0.152374,-0.6781148,0.4872796,0.0423179,0.5956749,1.556129,0.1769841,0.09940962,1.341426,0.1300481,278.2625,152.2842,79.00895,True
1,3.466659,0.2442094,-0.01434683,-0.005820043,-1.343238,-4.328226,-2.530519,0.356671,1.33053,0.3424098,-1.407582,-0.4424331,22.2,0.2,0.08198693,0.2384738,-0.1120844,-0.3175676,-3.404855,-0.366035,0.4601333,1.537066,0.288873,0.005071029,-0.01018693,0.1479177,-0.6767838,0.4861226,0.04214665,0.5950007,1.55599,0.1764953,0.09943429,1.341768,0.1302048,278.2756,151.3537,80.02176,True
1,3.47777,0.246344,-0.01327005,-0.003707737,-1.343039,-4.328114,-2.533434,0.3564614,1.330163,0.3421371,-1.412328,-0.4269061,22.2,0.2,0.09280773,0.2906437,-0.1128237,-0.3205365,-3.391882,-0.379697,0.4593772,1.536932,0.2884369,0.01797016,-0.02081513,0.1617024,-0.6742809,0.4848017,0.04251124,0.594211,1.555867,0.1759255,0.09948048,1.342101,0.1304009,278.2835,150.6033,80.88096,True
1,3.488881,0.2495446,-0.01213845,0.004802473,-1.343245,-4.327879,-2.536328,0.3561828,1.329839,0.3419943,-1.417678,-0.4824681,22.2,0.2,0.08880292,0.3021972,-0.091378,-0.3221413,-3.381555,-0.3903028,0.4587459,1.53684,0.2880766,0.00730513,-0.03464982,0.1607752,-0.6725201,0.483591,0.04378796,0.5935223,1.555741,0.1756423,0.09957919,1.342442,0.1305686,278.2803,150.0633,81.51686,True
