loc,t,aDotUA,bDotUA,gDotUA,aUA,bUA,gUA,xUA,yUA,zUA,qE,qDotE,emgA,emgB,aDotSH,bDotSH,gDotSH,aSH,bSH,gSH,xSH,ySH,zSH,aDotUB,bDotUB,gDotUB,aUB,bUB,gUB,xUB,yUB,zUB,xHand,yHand,zHand,aHand,bHand,gHand,enable
0,0,0.1387847,-0.08672176,0.03512719,-1.475244,-4.028101,2.596387,0.5870235,1.084934,0.5062733,-2.172383,-0.01326375,2.85,11.05,0.04649752,0.3416425,-0.1045051,-1.286692,-3.378762,-0.6747468,0.5137666,1.260866,0.4097776,0.09452435,0.1666805,0.4688086,-0.5271594,-4.702257,-1.267264,0.6178132,1.455026,0.3069363,0.4394493,1.030351,0.2910221,284.6761,234.2864,348.5643,True
0,0.01111111,0.1270625,-0.08128169,0.05640223,-1.476774,-4.028232,2.595436,0.5870368,1.083839,0.5058458,-2.171719,0.06089041,2.5,10.71,0.03545532,0.3589772,-0.1543783,-1.292059,-3.377324,-0.6752509,0.5134073,1.25963,0.40922,0.08270958,0.164538,0.4582652,-0.5274374,-4.692575,-1.276099,0.6169914,1.454226,0.3066478,0.4413369,1.02677,0.2892692,286.5856,234.2473,346.9879,True
0,0.02222222,0.1079026,-0.08217976,0.08838229,-1.479075,-4.028519,2.594992,0.5869962,1.08268,0.5053062,-2.171979,-0.02428806,2.09,10.43,0.0298124,0.3719821,-0.1936777,-1.297665,-3.375942,-0.6757369,0.5130446,1.258625,0.4088807,0.06735361,0.1303543,0.4137339,-0.5268063,-4.686974,-1.281147,0.616412,1.453567,0.3065248,0.444364,1.021421,0.2863431,288.4059,233.0404,346.592,True
0,0.03333334,0.08875749,-0.08846398,0.1118726,-1.481459,-4.028599,2.594703,0.5869312,1.081678,0.5047188,-2.171973,0.0009682679,1.71,10.17,0.02762392,0.366685,-0.1979464,-1.301912,-3.374351,-0.676378,0.5127174,1.257603,0.4085262,0.06918743,0.118557,0.3817858,-0.5268004,-4.680476,-1.287589,0.6157537,1.452882,0.306313,0.4478098,1.015443,0.2829708,290.3295,231.5426,346.3523,True
0,0.04444445,0.06858502,-0.1119502,0.1131092,-1.483531,-4.027456,2.594435,0.5867699,1.080676,0.5040183,-2.171615,0.03278752,1.35,9.93,-0.003170818,0.306958,-0.1638819,-1.303084,-3.373632,-0.6754799,0.5126399,1.256759,0.4078569,0.06867108,0.1098906,0.3242827,-0.5272052,-4.676777,-1.291625,0.6152179,1.452329,0.306118,0.4510394,1.009727,0.2797129,292.1118,230.3767,345.9205,True
0,0.05555556,0.06012096,-0.134411,0.1036806,-1.485404,-4.025924,2.593932,0.5866154,1.079718,0.5033641,-2.171563,0.004603741,1.01,9.7,-0.0340265,0.265417,-0.1435707,-1.304823,-3.372948,-0.6742298,0.512408,1.25578,0.4073133,0.06950173,0.1194107,0.2965536,-0.5281714,-4.671538,-1.296949,0.6146733,1.451725,0.3059437,0.4520355,1.008305,0.2785771,292.0993,227.1792,349.2864,True
0,0.06666667,0.04108701,-0.1846358,0.0891282,-1.487828,-4.023015,2.593675,0.5863119,1.078928,0.5025902,-2.171608,-0.004028755,0.7,9.48,-0.06360636,0.2162833,-0.09774118,-1.304809,-3.372085,-0.6726988,0.5121838,1.255167,0.407032,0.07025054,0.1342604,0.2602956,-0.5299211,-4.666818,-1.30163,0.6142502,1.451392,0.3056545,0.4518427,1.007881,0.2784364,292.1499,227.665,348.9159,True
0,0.07777778,0.03369544,-0.2070185,0.09035497,-1.490372,-4.021013,2.593338,0.5860906,1.077985,0.5018704,-2.171979,-0.03377653,0.45,9.13,-0.0654891,0.1947942,-0.06162078,-1.305552,-3.370532,-0.6723001,0.5119071,1.254501,0.4064593,0.05944687,0.1352964,0.2444093,-0.5307935,-4.661826,-1.306071,0.6137329,1.451098,0.3054373,0.4512537,1.007583,0.2779791,291.9361,230.6688,345.9167,True
0,0.08888889,0.02417885,-0.2326192,0.08946981,-1.492994,-4.018582,2.593219,0.5858036,1.077098,0.5012007,-2.171808,0.01605507,0.21,8.8,-0.05904637,0.1926085,-0.0552991,-1.307175,-3.369084,-0.6722476,0.5116386,1.254035,0.4061766,0.03698708,0.1065397,0.2382865,-0.5302498,-4.656888,-1.309986,0.6133853,1.450586,0.3052599,0.4508902,1.007313,0.2773902,291.9021,232.1475,344.4809,True
0,0.1,0.01142995,-0.244351,0.09276124,-1.4957,-4.016604,2.593352,0.585494,1.076269,0.5004787,-2.172078,-0.02474657,0,8.49,-0.05911037,0.1819632,-0.05748204,-1.308873,-3.368196,-0.6717336,0.5114281,1.253426,0.4056811,0.02606183,0.06284364,0.2150639,-0.5293725,-4.653536,-1.31263,0.6132503,1.450446,0.3050632,0.4508491,1.007121,0.2767055,291.8414,232.4784,344.1848,True
0,0.1111111,0.001920287,-0.270973,0.09827626,-1.498921,-4.013911,2.593488,0.5850351,1.075575,0.4996858,-2.171991,0.008266359,0,8.2,-0.0698555,0.1585697,-0.05856852,-1.310008,-3.367861,-0.6706522,0.5111831,1.253117,0.405411,0.01942846,0.04042078,0.1906737,-0.5287318,-4.651193,-1.314648,0.6130454,1.450237,0.3048606,0.4509919,1.006948,0.2758618,291.6463,232.5788,344.1247,True
0,0.1222222,-0.001238927,-0.2837579,0.09943852,-1.501825,-4.011523,2.593421,0.5846071,1.074892,0.4988682,-2.171892,0.009101884,0,7.97,-0.08800153,0.121286,-0.04793637,-1.310124,-3.367973,-0.6689426,0.5109221,1.252653,0.404762,0.01181808,0.03292257,0.1747822,-0.5284234,-4.648194,-1.317147,0.6125325,1.449811,0.3047435,0.4511842,1.006786,0.2749257,291.4261,232.5319,344.1942,True
0,0.1333333,-0.00759723,-0.2965959,0.09420367,-1.50454,-4.008769,2.593528,0.5841573,1.074209,0.4980853,-2.171964,-0.006684562,0,7.75,-0.1070546,0.09245853,-0.02339922,-1.309626,-3.367544,-0.6672201,0.5108033,1.252226,0.4041533,-0.002316862,0.03712049,0.1418713,-0.5288575,-4.647214,-1.317461,0.6123867,1.449615,0.3046355,0.4512947,1.006643,0.2739127,291.258,232.5736,344.1508,True
0,0.1444445,-0.01605081,-0.3243695,0.08587891,-1.507462,-4.005298,2.593835,0.5836719,1.073574,0.4972188,-2.172328,-0.03300789,0,7.55,-0.1100903,0.08490898,-0.003168166,-1.30951,-3.36656,-0.6661282,0.5105128,1.251973,0.4038861,-0.01658138,0.04553506,0.09402847,-0.5297065,-4.648102,-1.316001,0.6122584,1.449363,0.3043654,0.4513051,1.006523,0.272798,291.1491,232.7754,343.9292,True
0,0.1555556,-0.03302595,-0.348989,0.07647343,-1.51043,-4.001562,2.594448,0.5831253,1.072865,0.4964421,-2.172271,0.005492075,0,7.36,-0.1194714,0.07948128,0.02139445,-1.309031,-3.365391,-0.6648076,0.5102836,1.251757,0.4032552,-0.0262686,0.05936276,0.08129409,-0.530662,-4.646723,-1.316534,0.6122397,1.449234,0.3042233,0.4512891,1.006404,0.2716181,291.0441,233.0356,343.628,True
0,0.1666667,-0.0564298,-0.3607805,0.07550137,-1.513391,-3.998173,2.595635,0.5826054,1.072355,0.4957199,-2.172117,0.01405893,0,7.18,-0.1300941,0.1157923,0.01102457,-1.310634,-3.363537,-0.6635132,0.5100381,1.251717,0.4029484,-0.0506297,0.0754018,0.09425303,-0.5316053,-4.643028,-1.318485,0.6121312,1.449372,0.3041914,0.451304,1.006283,0.2704424,290.9321,233.2103,343.4197,True
0,0.1777778,-0.07557574,-0.3671764,0.08301711,-1.516702,-3.995143,2.596846,0.5820782,1.071934,0.4949808,-2.171899,0.01991304,0,7.06,-0.1439663,0.1649486,-0.009906363,-1.313436,-3.36134,-0.6620195,0.50995,1.251631,0.4023387,-0.0664902,0.08397146,0.1071564,-0.5323483,-4.639279,-1.320371,0.6120802,1.449694,0.3040442,0.4513545,1.00617,0.2692593,290.8069,233.3257,343.2852,True
0,0.1888889,-0.1053815,-0.3714749,0.08945845,-1.520025,-3.992189,2.598823,0.5815394,1.07178,0.4942644,-2.171478,0.03847463,0,6.94,-0.1726151,0.247173,-0.02839883,-1.317638,-3.357403,-0.660089,0.5098695,1.2521,0.4020207,-0.103861,0.04567674,0.1033355,-0.5315973,-4.636829,-1.319969,0.6129839,1.450917,0.3038828,0.4514197,1.00607,0.2680743,290.6764,233.3893,343.1897,True
0,0.2,-0.137314,-0.3822064,0.09168226,-1.52337,-3.988749,2.601306,0.5809803,1.072151,0.4935684,-2.171609,-0.01223539,0,6.83,-0.1916479,0.2877164,-0.02800661,-1.320428,-3.353858,-0.6582186,0.509894,1.252478,0.4010484,-0.09783936,0.00829652,0.06608026,-0.5306689,-4.63855,-1.317695,0.6130196,1.451348,0.3037858,0.4514433,1.006028,0.2668822,290.5942,233.4273,343.1,True
0,0.2111111,-0.1628174,-0.4079627,0.07482786,-1.526397,-3.984232,2.603781,0.5803974,1.072882,0.4928083,-2.171072,0.04937126,0,6.73,-0.2039155,0.3056206,0.02120417,-1.321385,-3.34925,-0.6566173,0.509997,1.253784,0.4008164,-0.06572475,-0.03032808,-0.03212156,-0.5299195,-4.646424,-1.311248,0.6137507,1.452367,0.3036416,0.4514161,1.006041,0.2655838,290.5553,233.5187,342.9229,True
0,0.2222222,-0.1989653,-0.4348021,0.06011443,-1.529439,-3.979389,2.606831,0.5798317,1.073788,0.4920731,-2.170722,0.03173684,0,6.59,-0.1770654,0.2653241,0.175237,-1.316622,-3.343531,-0.6570485,0.5101893,1.255931,0.4007359,-0.0551385,-0.05724976,-0.1557091,-0.5303749,-4.65733,-1.301421,0.6146778,1.453555,0.3034313,0.4516361,1.0061,0.2640117,290.7422,234.134,341.9425,True
0,0.2333333,-0.2202202,-0.4551907,0.04748204,-1.532447,-3.97445,2.609828,0.5792828,1.074776,0.4914205,-2.170925,-0.01857931,0,6.47,-0.1517309,0.2178136,0.2834245,-1.31214,-3.338701,-0.6574059,0.5102104,1.257468,0.4004843,-0.06203358,-0.07867977,-0.2099288,-0.5299723,-4.666262,-1.292779,0.6154569,1.454654,0.3032382,0.4525793,1.006227,0.2619461,291.4002,235.8843,339.4066,True
0,0.2444444,-0.2754861,-0.5045315,0.02227913,-1.53561,-3.967866,2.614412,0.5786999,1.076441,0.4909461,-2.17065,0.02557057,0,6.35,-0.1007167,0.1039747,0.4283264,-1.302837,-3.33468,-0.6591113,0.5103906,1.259826,0.4006836,-0.0925369,-0.1587116,-0.2765908,-0.5270838,-4.678463,-1.280128,0.6163144,1.456044,0.3029408,0.4541323,1.006597,0.2594605,291.9583,236.0697,338.3362,True
0,0.2555556,-0.2903579,-0.5194874,0.02238983,-1.538984,-3.962542,2.617979,0.5781329,1.077559,0.4904008,-2.170954,-0.0277971,0,6.24,-0.0674704,0.01407608,0.4861572,-1.295636,-3.332495,-0.6599483,0.5105778,1.261682,0.4003639,-0.09698403,-0.1896416,-0.2935247,-0.5252222,-4.687501,-1.271071,0.6173429,1.457439,0.302634,0.4559641,1.007526,0.2568245,292.2867,235.4518,338.0333,True
0,0.2666667,-0.3530578,-0.5750934,0.01854673,-1.543227,-3.955418,2.623837,0.5775054,1.079625,0.4902563,-2.169663,0.1183807,0,6.14,-0.03483647,-0.110703,0.4905453,-1.287633,-3.333603,-0.6605036,0.5108233,1.264366,0.4008245,-0.1037005,-0.24297,-0.3242344,-0.5225101,-4.69879,-1.260108,0.6185135,1.459135,0.3023016,0.4578655,1.00917,0.2542689,292.4261,234.9633,337.6058,True
0,0.2777778,-0.382826,-0.5965034,0.01551628,-1.546834,-3.949212,2.628765,0.5768777,1.081338,0.4899008,-2.170928,-0.1163588,0,6.22,-0.004863709,-0.2010326,0.424814,-1.282951,-3.336411,-0.6605526,0.511094,1.267007,0.4013619,-0.1128983,-0.3006076,-0.3783199,-0.5201628,-4.711254,-1.248026,0.6198264,1.460763,0.301903,0.4596649,1.011642,0.2519115,292.3926,234.6564,337.0514,True
0,0.2888889,-0.4338833,-0.6243671,0.01253864,-1.5507,-3.942353,2.635129,0.5762657,1.083905,0.4897788,-2.169118,0.1667871,0,6.3,0.03050348,-0.2615241,0.3549303,-1.278723,-3.33954,-0.6612048,0.5115035,1.270053,0.4020379,-0.1165611,-0.3689401,-0.437808,-0.5157734,1.552992,-1.230018,0.6214654,1.462792,0.3013604,0.4611886,1.014848,0.2498487,292.1051,234.6813,336.2679,True
0,0.3,-0.4690666,-0.6180839,0.01143977,-1.553863,-3.936543,2.641242,0.5757713,1.086174,0.4895294,-2.170265,-0.1060763,0,6.38,0.0757297,-0.3200674,0.3137333,-1.273741,-3.342409,-0.6625417,0.5120128,1.273024,0.4021568,-0.1276352,-0.4137737,-0.4791535,-0.5124364,1.536455,-1.213774,0.6230499,1.464738,0.3008542,0.4624435,1.018788,0.2481585,291.7652,234.9531,335.3857,True
0,0.3111111,-0.4861712,-0.5979288,0.005982429,-1.556609,-3.931235,2.647079,0.575237,1.08857,0.489327,-2.169397,0.08067571,0,6.46,0.1020213,-0.3637323,0.293026,-1.268354,-3.345308,-0.6637204,0.5124466,1.276218,0.4027841,-0.145161,-0.4660693,-0.526813,-0.5086148,1.517073,-1.194661,0.6248589,1.466904,0.3002908,0.4633547,1.023309,0.246757,291.2704,235.3758,334.5146,True
0,0.3222222,-0.510785,-0.5597259,-0.004925609,-1.55856,-3.926635,2.653378,0.5747001,1.091297,0.4892392,-2.169978,-0.05363197,0,6.52,0.1312827,-0.4830673,0.2761642,-1.260631,-3.351214,-0.664268,0.5131781,1.280061,0.4033799,-0.1722785,-0.5247514,-0.5743821,-0.5044432,1.496092,-1.173534,0.6269056,1.469116,0.2996848,0.4640207,1.02834,0.2456382,290.7551,235.904,333.6705,True
0,0.3333333,-0.5300115,-0.5449914,-0.02312806,-1.56034,-3.921345,2.659809,0.5741171,1.094031,0.489068,-2.170728,-0.06773742,0,6.5,0.1280087,-0.505427,0.2760803,-1.254328,-3.354493,-0.664562,0.5136976,1.283368,0.4039857,-0.1832431,-0.5599685,-0.6050955,-0.5007116,1.475222,-1.152849,0.6288439,1.471273,0.2991233,0.4644463,1.033679,0.2446837,290.0775,236.534,332.8206,True
0,0.3444445,-0.5471236,-0.527135,-0.0530791,-1.561282,-3.915866,2.666313,0.5735595,1.097089,0.488965,-2.170673,0.005787754,0,6.5,0.1331942,-0.5726162,0.2863339,-1.246413,-3.359432,-0.6644422,0.5145538,1.287483,0.4048188,-0.1975957,-0.6069582,-0.6549407,-0.4968857,1.45072,-1.128626,0.6312785,1.473726,0.2984209,0.4646996,1.039114,0.2438646,289.3586,237.2367,331.9222,True
0,0.3555556,-0.5653058,-0.5071276,-0.07983917,-1.561979,-3.910611,2.673153,0.5729249,1.100203,0.4888668,-2.17081,-0.01242618,0,6.5,0.1452461,-0.5845912,0.3266607,-1.238108,-3.361773,-0.6656728,0.5155867,1.291338,0.4049454,-0.2130859,-0.6433141,-0.7154437,-0.4937719,1.424159,-1.102419,0.6337961,1.476076,0.2977316,0.4648373,1.044496,0.2431595,288.7131,237.8732,331.1112,True
0,0.3666667,-0.5909356,-0.4892336,-0.1012537,-1.562587,-3.905487,2.680518,0.5723515,1.103194,0.4887617,-2.171029,-0.01975881,0,6.5,0.1584265,-0.5976629,0.3744135,-1.22929,-3.36393,-0.6671378,0.5164815,1.295472,0.4056046,-0.2254555,-0.6796878,-0.7844939,-0.4911295,1.39486,-1.073704,0.6363725,1.478509,0.2970839,0.4649536,1.049732,0.2424992,288.1715,238.429,330.4184,True
0,0.3777778,-0.6016825,-0.4584903,-0.1185048,-1.562687,-3.900993,2.687493,0.5717251,1.106271,0.4886189,-2.170978,0.005037042,0,6.56,0.1629411,-0.6266294,0.4125902,-1.21989,-3.366642,-0.668095,0.5174021,1.299561,0.4060042,-0.2268417,-0.7053465,-0.818518,-0.4884488,1.366907,-1.046571,0.6389148,1.48086,0.2963867,0.4651571,1.054807,0.24185,287.7482,238.7279,329.958,True
0,0.3888889,-0.6167703,-0.415143,-0.1624373,-1.561306,-3.897055,2.69512,0.5711948,1.109759,0.4886515,-2.170706,0.02497118,0,6.62,0.1395717,-0.7205099,0.4549423,-1.207913,-3.371656,-0.6671543,0.5185311,1.303769,0.4065514,-0.223177,-0.7513082,-0.8802291,-0.485956,1.334164,-1.015218,0.6417042,1.483262,0.2957656,0.4654465,1.059738,0.2411479,287.381,238.8659,329.6009,True
0,0.4,-0.637207,-0.3622416,-0.2096137,-1.55904,-3.893693,2.703067,0.5706059,1.113389,0.4887226,-2.171331,-0.05712642,0,6.68,0.07217979,-0.810836,0.4583117,-1.196624,-3.378515,-0.6631969,0.5198429,1.307726,0.4063616,-0.2309573,-0.754592,-0.9152886,-0.4849622,1.304548,-0.986331,0.6445637,1.485773,0.2949777,0.465807,1.06456,0.2403571,287.033,238.9579,329.2416,True
0,0.4111111,-0.6522512,-0.3241467,-0.239673,-1.556905,-3.890102,2.71089,0.5700539,1.116748,0.4887595,-2.170992,0.03161805,0,6.74,0.02736056,-0.827716,0.4565088,-1.186594,-3.383574,-0.6601172,0.5210354,1.311824,0.4069431,-0.2502865,-0.7439641,-0.9332513,-0.4845685,1.275534,-0.957213,0.6471975,1.488121,0.294395,0.4662073,1.069327,0.2395055,286.7185,238.8432,329.0374,True
0,0.4222222,-0.6760081,-0.2169939,-0.2915447,-1.551972,-3.88897,2.718914,0.5697501,1.120301,0.4887433,-2.170869,0.0111289,0,6.78,0.01794946,-0.7786696,0.4568537,-1.178778,-3.385833,-0.6591782,0.5223368,1.315602,0.4070103,-0.2802871,-0.7184261,-0.9586203,-0.4854549,1.247247,-0.9282893,0.6499605,1.490294,0.2939248,0.4666274,1.074149,0.2387094,286.451,238.2669,329.25,True
0,0.4333333,-0.693344,-0.1127277,-0.3029121,-1.547766,-3.889222,2.72705,0.5693308,1.123811,0.4888849,-2.171222,-0.03219363,0,6.78,0.05763668,-0.6818229,0.4495229,-1.172394,-3.386316,-0.6611249,0.5235941,1.319742,0.4074547,-0.2942728,-0.709927,-0.9755676,-0.4864179,1.217937,-0.8986685,0.6528229,1.492445,0.2933729,0.4669556,1.079127,0.238013,286.1298,237.5152,329.6441,True
0,0.4444444,-0.7052699,-0.03927211,-0.305547,-1.543744,-3.889642,2.735302,0.5689372,1.127241,0.4890251,-2.171319,-0.008398929,0,6.78,0.09407425,-0.6158943,0.4484539,-1.165621,-3.386955,-0.6631239,0.5248067,1.323812,0.4080603,-0.2880488,-0.7174295,-0.9947773,-0.4874277,1.187626,-0.8690611,0.6559259,1.494745,0.2928417,0.4671452,1.084269,0.2374434,285.6668,236.9164,329.9659,True
0,0.4555556,-0.7215638,0.07574177,-0.3020769,-1.539165,-3.892342,2.743784,0.5686583,1.130721,0.4892793,-2.171448,-0.01159815,0,6.78,0.1079642,-0.6234239,0.4557441,-1.156969,-3.389814,-0.6634893,0.5262507,1.327933,0.4085262,-0.2765415,-0.7387998,-1.015067,-0.4885031,1.155762,-0.8381791,0.6589175,1.496819,0.2922945,0.4670796,1.089538,0.2370345,285.0862,236.0426,330.6193,True
0,0.4666667,-0.73357,0.1768723,-0.3081004,-1.533705,-3.895866,2.752485,0.5683707,1.13415,0.489625,-2.171544,-0.008453744,0,6.78,0.09669304,-0.739385,0.4318265,-1.146267,-3.397594,-0.6611362,0.5279099,1.331938,0.4091461,-0.2800248,-0.7644223,-1.043729,-0.4902661,1.122851,-0.8059263,0.6620879,1.498872,0.2916911,0.4666404,1.094903,0.2368631,284.4802,235.3517,331.1606,True
0,0.4777778,-0.7583697,0.2789264,-0.3247811,-1.527726,-3.899667,2.761877,0.5682521,1.137656,0.4900353,-2.171574,-0.002626179,0,6.94,0.08621556,-0.7522498,0.4563634,-1.136217,-3.401349,-0.6600432,0.5296651,1.336185,0.4102037,-0.2833903,-0.7687255,-1.062865,-0.4929042,1.09078,-0.7743626,0.6651437,1.500815,0.2911341,0.4658253,1.10032,0.2369691,283.8693,234.9406,331.5641,True
0,0.4888889,-0.7755795,0.3352705,-0.3347525,-1.521848,-3.903383,2.771311,0.5679726,1.141052,0.4904513,-2.17158,-0.0003654505,0,7.08,0.1255824,-0.7230514,0.5552248,-1.124324,-3.401065,-0.6627681,0.5313541,1.340067,0.4111257,-0.2844871,-0.7378684,-1.073578,-0.4969059,1.062203,-0.7461919,0.6683221,1.50259,0.2904227,0.4646212,1.105742,0.237395,283.2405,234.4521,332.1842,True
0,0.5,-0.7949604,0.4065134,-0.3458936,-1.51542,-3.908238,2.781054,0.5676792,1.144413,0.491008,-2.17111,0.04308399,0,7.22,0.1940193,-0.763985,0.5969973,-1.111997,-3.403999,-0.666014,0.533066,1.343946,0.411648,-0.2640953,-0.7027068,-1.061045,-0.5008335,1.036268,-0.721253,0.6714681,1.504535,0.2898448,0.4630769,1.111123,0.2381689,282.5958,233.7958,333.1292,True
0,0.5111111,-0.8079447,0.4691831,-0.3655273,-1.508392,-3.912937,2.790876,0.5675694,1.147765,0.4915462,-2.171248,-0.01287543,0,7.35,0.1987849,-0.8405426,0.5646076,-1.100524,-3.410926,-0.6653575,0.5346831,1.347833,0.4124725,-0.2406312,-0.6995318,-1.058063,-0.5046499,1.0084,-0.6949298,0.6746021,1.5062,0.2892582,0.4613032,1.116461,0.2392478,281.9775,233.0616,334.2926,True
0,0.5222223,-0.820931,0.536088,-0.390489,-1.500756,-3.918873,2.800761,0.5672551,1.151087,0.4921148,-2.171263,-0.001117822,0,7.47,0.1314936,-1.027473,0.4982403,-1.087459,-3.424634,-0.6583422,0.536445,1.351668,0.4129124,-0.2206019,-0.7315854,-1.081605,-0.5087389,0.9767219,-0.6655021,0.6777114,1.507753,0.2885416,0.4593635,1.12176,0.2404973,281.3624,232.2906,335.537,True
0,0.5333334,-0.8210506,0.5753275,-0.4131569,-1.493261,-3.923999,2.810101,0.5670602,1.154535,0.4925945,-2.171421,-0.0141847,0,7.43,0.09162796,-1.112475,0.4811361,-1.074539,-3.434807,-0.6532681,0.5381851,1.355467,0.4137473,-0.2037964,-0.7646849,-1.105112,-0.5132977,0.9447892,-0.6358979,0.6808285,1.509201,0.2879474,0.4573413,1.127017,0.2418646,280.7447,231.3176,337.0086,True
0,0.5444446,-0.8223519,0.648456,-0.4669327,-1.483557,-3.930859,2.819885,0.5667458,1.15795,0.4932537,-2.171683,-0.02374264,0,7.39,0.07663429,-1.162527,0.4906279,-1.061309,-3.443713,-0.6493239,0.5401135,1.359172,0.4145079,-0.1942447,-0.7604475,-1.112674,-0.5186959,0.916544,-0.609576,0.6838616,1.510732,0.2873366,0.4553418,1.13223,0.243279,280.122,229.9298,338.9025,True
0,0.5555557,-0.8171132,0.6738133,-0.4958888,-1.475076,-3.93645,2.829172,0.566576,1.161342,0.4938238,-2.172393,-0.06459815,0,7.36,0.102492,-1.173462,0.5265565,-1.047768,-3.450788,-0.6478187,0.5418988,1.362606,0.4149501,-0.1878607,-0.7359624,-1.115983,-0.5249059,0.8903849,-0.5850602,0.6867783,1.511963,0.2867687,0.4533317,1.137412,0.2446404,279.5231,228.1005,341.1996,True
0,0.5666668,-0.8087629,0.727928,-0.5303614,-1.465329,-3.943744,2.838601,0.5663002,1.16463,0.4945545,-2.172311,0.008103512,0,7.34,0.1261022,-1.18004,0.547613,-1.034285,-3.458372,-0.6461569,0.5435948,1.366142,0.4157648,-0.1898696,-0.7220929,-1.110693,-0.531038,0.8644004,-0.5606031,0.6896926,1.513295,0.2863312,0.4514093,1.142563,0.2459369,278.9465,225.7458,343.9912,True
0,0.577778,-0.7993063,0.7693398,-0.5498461,-1.456105,-3.951051,2.847929,0.5662166,1.167964,0.4952445,-2.172806,-0.04529863,0,7.32,0.1486171,-1.192994,0.5676045,-1.020526,-3.466269,-0.6444285,0.5454738,1.369318,0.4158182,-0.1844772,-0.7082419,-1.105447,-0.5374904,0.8393375,-0.5371884,0.6925306,1.514399,0.2856719,0.4495557,1.147653,0.2472043,278.383,222.3028,347.8005,True
0,0.5888891,-0.7813989,0.8363617,-0.5705651,-1.445995,-3.9602,2.857005,0.5660189,1.171068,0.4961181,-2.172978,-0.0153563,0,7.3,0.1314281,-1.20353,0.5559916,-1.007655,-3.475154,-0.6406428,0.547101,1.372446,0.4164636,-0.1791276,-0.7039813,-1.103374,-0.5441509,0.8146585,-0.514233,0.6952388,1.515487,0.2851021,0.4478302,1.152672,0.2484825,277.856,218.5406,351.9017,True
0,0.6000003,-0.7528911,0.9237242,-0.5797325,-1.435818,-3.970829,2.86583,0.5661513,1.174136,0.4971302,-2.173166,-0.01702994,0,7.28,0.1068757,-1.185304,0.545639,-0.9955248,-3.48343,-0.6364076,0.5487195,1.375439,0.4170916,-0.1757015,-0.6900992,-1.084282,-0.5507572,0.7914033,-0.4926821,0.6980604,1.516587,0.2844779,0.4461518,1.157588,0.2498033,277.3765,213.9117,356.8281,True
0,0.6111114,-0.7272682,0.9915845,-0.5917211,-1.425839,-3.981145,2.875002,0.5660467,1.17721,0.4981196,-2.173697,-0.04850844,0,7.26,0.09617603,-1.161762,0.5320061,-0.9838862,-3.491304,-0.6327881,0.5502782,1.378436,0.4177032,-0.1680084,-0.6783268,-1.05881,-0.5570896,0.7697313,-0.4726584,0.700614,1.51759,0.2839084,0.4444761,1.162395,0.2512146,276.9746,208.577,2.463825,True
0,0.6222225,-0.713814,1.03665,-0.5944007,-1.415856,-3.992181,2.883794,0.5661628,1.180002,0.4992244,-2.174204,-0.0460028,0,7.24,0.09959656,-1.094665,0.5334235,-0.9732181,-3.496557,-0.6309023,0.5522845,1.380983,0.4175262,-0.1591846,-0.6527215,-1.031261,-0.5635792,0.75003,-0.4545814,0.7028658,1.518277,0.283391,0.4426906,1.167043,0.2528228,276.6466,202.103,9.233932,True
0,0.6333337,-0.6894988,1.1006,-0.6001871,-1.405621,-4.00438,2.892572,0.5661774,1.182773,0.5003896,-2.173849,0.0327351,0,7.07,0.1169752,-1.014859,0.5400516,-0.9631514,-3.500427,-0.6305516,0.5537055,1.383447,0.4180315,-0.1418641,-0.6292353,-1.00484,-0.5701652,0.7312706,-0.4378487,0.7051042,1.518867,0.2829032,0.4407316,1.171503,0.254751,276.4465,195.2917,16.43293,True
0,0.6444448,-0.6725423,1.13258,-0.6036254,-1.395891,-4.01574,2.901278,0.5663391,1.185522,0.5014031,-2.174262,-0.03813046,0,6.91,0.1278533,-0.9733751,0.547625,-0.9526218,-3.505079,-0.6297329,0.5553629,1.385753,0.4179058,-0.1278424,-0.606856,-0.990102,-0.5771049,0.7131016,-0.4217076,0.7072533,1.519689,0.2823458,0.4385029,1.175796,0.2569459,276.3636,188.7669,23.47382,True
0,0.655556,-0.6407206,1.180624,-0.6018465,-1.386086,-4.028563,2.909456,0.5664208,1.188021,0.5026293,-2.174472,-0.01899502,0,6.77,0.1484461,-0.9224055,0.5668635,-0.9421944,-3.508233,-0.6302011,0.5565078,1.387924,0.4184525,-0.1211541,-0.5695058,-0.9625565,-0.5839183,0.6977072,-0.4078109,0.709166,1.520139,0.2819953,0.4360718,1.179893,0.2594458,276.3687,182.3532,30.52167,True
0,0.6666671,-0.6003932,1.231917,-0.594809,-1.376306,-4.041786,2.91755,0.5668162,1.19048,0.503757,-2.174369,0.009446533,0,6.63,0.1645026,-0.9129119,0.5710015,-0.9311396,-3.513705,-0.6293566,0.5576818,1.390059,0.4189849,-0.1112579,-0.5268346,-0.9372026,-0.5910844,0.6832623,-0.3950523,0.7110612,1.520598,0.2816098,0.4334081,1.183814,0.2621802,276.4802,176.5137,37.1095,True
0,0.6777782,-0.5685046,1.257628,-0.5875476,-1.367042,-4.054964,2.925266,0.5669621,1.192865,0.504993,-2.175057,-0.06319099,0,6.5,0.1607304,-0.9318045,0.517683,-0.9217062,-3.52211,-0.6257901,0.5588745,1.392072,0.4191325,-0.097251,-0.4980499,-0.9224792,-0.5982477,0.6694195,-0.3830156,0.7127578,1.521099,0.2812634,0.4306259,1.187583,0.2650644,276.6638,171.5186,42.9481,True
0,0.6888894,-0.4825208,1.357415,-0.6735423,-1.352508,-4.071669,2.931092,0.5672511,1.194972,0.5060289,-2.175184,-0.01116262,0,6.46,0.1453537,-0.9432449,0.4719577,-0.9122786,-3.530545,-0.6218042,0.5597969,1.393917,0.4197159,-0.08531213,-0.4713676,-0.9034842,-0.6055527,0.6558917,-0.3714404,0.7141898,1.521518,0.2808788,0.4278136,1.191179,0.2680988,276.9085,166.8047,48.51912,True
0,0.7000005,-0.4474408,1.408634,-0.5247793,-1.348212,-4.088529,2.93852,0.5681707,1.197366,0.507421,-2.175407,-0.02060192,0,6.42,0.1407745,-0.9515836,0.4400081,-0.9027935,-3.538783,-0.6181341,0.5607704,1.39561,0.4198322,-0.07744324,-0.4595486,-0.8577683,-0.6113542,0.6430539,-0.360303,0.7154176,1.521728,0.2805514,0.4250557,1.194602,0.2712405,277.2155,162.755,53.44761,True
0,0.7111117,-0.4486227,1.446225,-0.4782079,-1.340588,-4.105349,2.947761,0.5680872,1.199279,0.5089657,-2.177843,-0.222574,0,6.38,0.145876,-0.9653559,0.4207162,-0.8928684,-3.547593,-0.6144789,0.5615774,1.397336,0.420382,-0.06719702,-0.4370098,-0.7844031,-0.6158901,0.6324383,-0.3511993,0.7164329,1.521943,0.2802732,0.4222881,1.19785,0.2743802,277.6335,158.5082,58.54768,True
0,0.7222228,-0.3974759,1.446383,-0.4771773,-1.332107,-4.120645,2.954046,0.5684205,1.201134,0.5101354,-2.176222,0.1489817,0,6.34,0.1520143,-0.9577596,0.3897997,-0.8840869,-3.556122,-0.6110879,0.5622662,1.398757,0.4207475,-0.06571913,-0.4102894,-0.7429358,-0.6211818,0.6220126,-0.3420767,0.7177887,1.522121,0.2800295,0.4194907,1.200794,0.277649,278.2448,154.7703,63.06087,True
0,0.7333339,-0.3389131,1.451908,-0.4719127,-1.324017,-4.136252,2.959847,0.5686348,1.202672,0.5114579,-2.173944,0.2075689,0,6.16,0.1613565,-0.9000303,0.3420576,-0.877542,-3.56312,-0.6087747,0.562556,1.399988,0.4212637,-0.1032346,-0.3493119,-0.6532707,-0.6246386,0.616668,-0.3353538,0.7182571,1.522217,0.2799191,0.4166355,1.203622,0.2811983,278.5331,153.7857,64.79748,True
0,0.7444451,-0.2962864,1.452097,-0.4634154,-1.316346,-4.151643,2.965538,0.5688758,1.204293,0.5125685,-2.176144,-0.2032863,0,5.98,0.1834294,-0.8295015,0.2825426,-0.872655,-3.56939,-0.6075531,0.562861,1.400974,0.4212518,-0.1144919,-0.2959467,-0.6074967,-0.6292933,0.6106582,-0.328829,0.7191404,1.522471,0.2797077,0.4134868,1.206436,0.2848239,278.8437,152.3776,67.09652,True
0,0.7555562,-0.2344686,1.441706,-0.4505839,-1.30913,-4.166688,2.969975,0.5691383,1.205715,0.5137775,-2.176759,-0.05479849,0,5.82,0.1927735,-0.8027233,0.2463664,-0.8668461,-3.576858,-0.6051975,0.5630472,1.40214,0.4216323,-0.1044128,-0.2372437,-0.5576566,-0.6334174,0.6071893,-0.3252894,0.7196279,1.522601,0.27965,0.4103451,1.209146,0.2885478,279.2495,150.3614,70.15019,True
0,0.7666674,-0.1928874,1.436612,-0.4356498,-1.302234,-4.181853,2.974587,0.5693598,1.207323,0.5149138,-2.176545,0.01971374,0,5.67,0.1807393,-0.775834,0.2029225,-0.8619044,-3.584703,-0.601644,0.5631415,1.402934,0.4214089,-0.112493,-0.2179405,-0.5086281,-0.6366026,0.6023065,-0.3198688,0.719891,1.522679,0.2795916,0.4072918,1.211629,0.2923404,279.6556,148.4158,73.10157,True
0,0.7777785,-0.1353365,1.421991,-0.4153528,-1.295912,-4.196449,2.978129,0.5697976,1.208567,0.5159843,-2.17732,-0.07143334,0,5.53,0.151856,-0.745788,0.1788211,-0.8569429,-3.591818,-0.5975934,0.563287,1.403569,0.4209862,-0.1186654,-0.2008324,-0.485179,-0.6403779,0.5973452,-0.3143795,0.7202124,1.522776,0.2795367,0.4043223,1.213864,0.2960871,280.0261,147.1731,75.32542,True
0,0.7888896,-0.06919611,1.398892,-0.3960335,-1.289757,-4.210881,2.980617,0.5701065,1.209772,0.5169144,-2.176872,0.04122322,0,5.39,0.1136917,-0.652913,0.163667,-0.8535016,-3.595291,-0.5952349,0.5631392,1.403425,0.4187939,-0.1320825,-0.1517189,-0.4425837,-0.6439433,0.5947807,-0.3105294,0.7203845,1.522847,0.2795882,0.4014955,1.215804,0.2997687,280.3896,146.5249,76.89288,True
0,0.8000008,-0.003058165,1.377931,-0.3746183,-1.283857,-4.225234,2.982368,0.5703768,1.210824,0.5178978,-2.177316,-0.04136901,0,5.27,0.1088155,-0.540032,0.1727798,-0.8503463,-3.596183,-0.5957193,0.5625982,1.403987,0.4189155,-0.1380107,-0.1079372,-0.396844,-0.646926,0.5933257,-0.3078574,0.7204056,1.522914,0.2796907,0.3987759,1.217493,0.3033265,280.7555,146.5121,77.78448,True
0,0.8111119,0.0374617,1.367515,-0.3575183,-1.278225,-4.239762,2.984663,0.5706291,1.211906,0.5189135,-2.177927,-0.05579891,0,5.15,0.1221893,-0.4443583,0.2018742,-0.8467467,-3.596,-0.597657,0.5619969,1.404499,0.4189422,-0.1419514,-0.08867215,-0.3617009,-0.6494305,0.5915073,-0.3047202,0.7203614,1.522973,0.2797663,0.3962498,1.218902,0.3067755,281.099,146.5858,78.57446,True
0,0.8222231,0.1036201,1.338062,-0.3317849,-1.273072,-4.253515,2.985424,0.5709586,1.212491,0.5198343,-2.178186,-0.02372655,0,5.04,0.1227065,-0.3624578,0.2278429,-0.8431648,-3.59499,-0.5996706,0.5612419,1.404898,0.4190176,-0.1497543,-0.05119284,-0.2828893,-0.6500957,0.5920313,-0.3033218,0.7198907,1.522941,0.2799909,0.3938339,1.220027,0.3100599,281.4481,146.7,79.25375,True
0,0.8333342,0.1334805,1.324391,-0.3189289,-1.267673,-4.267781,2.987376,0.5713806,1.213238,0.5208075,-2.177192,0.09059793,0,4.86,0.1121574,-0.3101984,0.2207426,-0.8402886,-3.595468,-0.6001636,0.5607467,1.405335,0.4189885,-0.1526004,-0.02766931,-0.2477667,-0.6517964,0.5917939,-0.3015998,0.7196375,1.522831,0.2802179,0.3914787,1.22084,0.3132325,281.8104,147.0026,79.64102,True
0,0.8444453,0.1686997,1.310798,-0.2975482,-1.262841,-4.28198,2.988556,0.5716633,1.213724,0.5217032,-2.177883,-0.06440541,0,4.7,0.08230498,-0.2257704,0.1873474,-0.8397527,-3.594393,-0.6007332,0.5598953,1.405365,0.4189634,-0.1576313,0.005435407,-0.2169097,-0.6534098,0.5929954,-0.3006309,0.7190595,1.522808,0.2805071,0.389123,1.221378,0.3163608,282.1619,147.6059,79.6943,True
0,0.8555565,0.2039169,1.297217,-0.2740216,-1.258411,-4.296181,2.989445,0.5719268,1.214147,0.5225248,-2.176465,0.1298722,0,4.54,0.05670112,-0.1360114,0.1507362,-0.8403104,-3.592358,-0.6018651,0.5590947,1.405349,0.4189875,-0.1562403,0.04173763,-0.1829194,-0.6547776,0.5951604,-0.3006594,0.7183919,1.522719,0.2808557,0.3868383,1.221596,0.3195406,282.4759,148.2462,79.74034,True
0,0.8666676,0.2466343,1.269747,-0.2599992,-1.253811,-4.309719,2.989448,0.5721172,1.214404,0.5232737,-2.176634,-0.01696818,0,4.4,0.04052296,-0.07394861,0.1064498,-0.8411488,-3.591243,-0.6025745,0.5581512,1.405167,0.4191034,-0.1495584,0.06310241,-0.1532065,-0.6560021,0.596652,-0.3006062,0.717764,1.522717,0.2811651,0.3845489,1.22158,0.3227783,282.8011,149.3317,79.35252,True
0,0.8777788,0.2722634,1.247504,-0.2524018,-1.249196,-4.322985,2.989842,0.5722907,1.21473,0.5240605,-2.176581,0.004804156,0,4.26,0.04039347,-0.04185185,0.07996409,-0.8416334,-3.59061,-0.6035697,0.557334,1.405064,0.419229,-0.1310052,0.09090237,-0.104427,-0.6560319,0.6001251,-0.3025854,0.7169572,1.522661,0.2815762,0.382172,1.221421,0.3260709,283.1006,150.4829,78.92142,True
0,0.8888899,0.3033051,1.205057,-0.2414744,-1.244921,-4.33502,2.989198,0.5723919,1.214879,0.5247734,-2.176858,-0.02565141,0,4.32,0.03694049,-0.008614164,0.03968192,-0.8429288,-3.590109,-0.6042659,0.5563688,1.404785,0.4193115,-0.1159312,0.1122305,-0.08862498,-0.6570231,0.6027522,-0.3039418,0.7160875,1.522652,0.2819645,0.3796949,1.221171,0.3294208,283.3552,151.6273,78.55318,True
0,0.900001,0.3193994,1.167944,-0.2241696,-1.241191,-4.347078,2.9891,0.5724018,1.214709,0.5254502,-2.176027,0.07580852,0,4.38,0.03865895,-0.004118752,-0.006135551,-0.8444985,-3.591217,-0.6039964,0.5554428,1.404418,0.4195108,-0.0955061,0.1218201,-0.06965355,-0.6577065,0.6045219,-0.3050241,0.7152967,1.522556,0.2812901,0.3771787,1.220812,0.3328201,283.597,152.6997,78.29704,True
0,0.9111122,0.3280053,1.141429,-0.2112051,-1.237464,-4.359054,2.989112,0.5724751,1.21475,0.5261118,-2.176223,-0.01886521,0,4.44,0.04274616,-0.002972834,-0.02534409,-0.8453091,-3.591939,-0.6041362,0.5545501,1.404186,0.4197567,-0.07828704,0.1261096,-0.05063555,-0.6580676,0.6068546,-0.3066633,0.7143984,1.522486,0.2816322,0.3746772,1.220362,0.3362397,283.8292,153.8894,77.93219,True
0,0.9222233,0.3505011,1.102276,-0.183234,-1.234687,-4.370286,2.988139,0.5725341,1.214487,0.5267062,-2.175395,0.07561617,0,4.48,0.05291266,-0.04969431,-0.06296267,-0.845674,-3.595633,-0.6029186,0.553452,1.403746,0.4199731,-0.0482116,0.1336025,-0.02214536,-0.6578221,0.6098471,-0.309495,0.7132824,1.522505,0.2821779,0.372261,1.219799,0.339624,284.0266,154.893,77.74613,True
0,0.9333345,0.3675661,1.097168,-0.1597756,-1.231676,-4.382813,2.987752,0.5726476,1.214317,0.5272074,-2.174896,0.04480473,0,4.52,0.04922781,-0.09316036,-0.09832345,-0.8466008,-3.599872,-0.6003644,0.5526223,1.403544,0.4203174,-0.02146232,0.1336024,-0.008526042,-0.6579499,0.6120037,-0.3117494,0.7121309,1.522413,0.2826276,0.3699189,1.219114,0.3429109,284.1932,155.8579,77.55783,True
0,0.9444456,0.3846894,1.077104,-0.1415402,-1.228841,-4.394427,2.986806,0.5726478,1.214217,0.5276756,-2.175359,-0.04292311,0,5.23,0.0448003,-0.09624841,-0.1164008,-0.8474248,-3.602222,-0.5992832,0.5516917,1.403182,0.42049,4.079193E-05,0.1421513,0.01363555,-0.6577358,0.6150388,-0.3148064,0.711048,1.522339,0.2829752,0.3676769,1.21836,0.3460714,284.3615,157.0106,77.14287,True
0,0.9555568,0.389269,0.9718981,-0.106709,-1.227539,-4.402287,2.984957,0.5727842,1.213898,0.5282927,-2.175024,0.03089856,0,5.9,0.05946846,-0.09615681,-0.1431814,-0.8490797,-3.60509,-0.5985715,0.5505086,1.402719,0.4209538,0.02053082,0.1507252,0.04220629,-0.6569912,0.6187905,-0.3186033,0.7098596,1.522238,0.2833745,0.3655696,1.217537,0.3491006,284.5065,158.0803,76.76718,True
0,0.9666679,0.3689885,0.9911435,-0.08873054,-1.225275,-4.414546,2.98572,0.5728399,1.213617,0.5289817,-2.175005,0.001172005,0,6.53,0.07838821,-0.09714641,-0.1710544,-0.8506765,-3.608289,-0.5980299,0.5495274,1.402274,0.4212852,0.02385385,0.1358364,0.05925821,-0.6561043,0.6205948,-0.3202859,0.7087309,1.522252,0.283731,0.3635093,1.216699,0.3520043,284.6829,159.191,76.30721,True
0,0.977779,0.3563388,0.946484,-0.07242869,-1.223545,-4.424243,2.985545,0.5726885,1.213115,0.5295877,-2.174441,0.05142115,0,7.12,0.07813881,-0.08739863,-0.2008485,-0.8532363,-3.611367,-0.5967672,0.5485368,1.401903,0.4216712,0.02720627,0.1113805,0.08059617,-0.654671,0.6218438,-0.3215759,0.7075409,1.522184,0.2840936,0.361566,1.215855,0.3548188,284.8134,160.3039,75.83296,True
0,0.9888902,0.3501131,0.8977955,-0.02521588,-1.223465,-4.432991,2.984734,0.5726707,1.212704,0.5299709,-2.173109,0.1213042,0,10.66,0.07270646,-0.05530594,-0.2240734,-0.8562121,-3.61319,-0.5961713,0.5476034,1.401491,0.4220803,0.0442729,0.09858622,0.08474137,-0.6538833,0.6233118,-0.3237559,0.7063306,1.522213,0.2845547,0.3599104,1.214947,0.3575352,284.8751,161.3066,75.38628,True
0,1.000001,0.3384634,0.8724258,0.005877167,-1.223164,-4.44279,2.984743,0.5725398,1.212226,0.530251,-2.173002,0.008734087,0.07,13.98,0.07506096,-0.04156283,-0.2059239,-0.8574771,-3.614639,-0.5962996,0.5466098,1.401103,0.4225607,0.05710402,0.09751802,0.08995533,-0.6532494,0.6254711,-0.3265427,0.7051872,1.522148,0.2849808,0.3582414,1.214097,0.3601756,285.0403,162.0657,75.08951,True
0,1.011112,0.3364113,0.848069,0.02735636,-1.222862,-4.451985,2.98419,0.572439,1.211849,0.5306718,-2.173313,-0.02848171,0.23,17.09,0.08376533,-0.06091207,-0.179472,-0.8576652,-3.617207,-0.5958623,0.5454811,1.400837,0.4231341,0.06136344,0.08579849,0.09101379,-0.6524425,0.6269156,-0.3285246,0.7040251,1.522101,0.2854345,0.3565368,1.213335,0.362751,285.1217,162.7426,74.91885,True
0,1.022224,0.3247924,0.8205996,0.06269449,-1.223181,-4.461127,2.984033,0.5725108,1.211393,0.5309415,-2.172875,0.04037951,0.38,20,0.08055709,-0.07156278,-0.1773598,-0.8586053,-3.619787,-0.5950122,0.5444877,1.400537,0.4236565,0.06768394,0.08896795,0.08242774,-0.6522534,0.6289872,-0.3310962,0.7026857,1.522192,0.2860184,0.3548472,1.21267,0.365212,285.0826,163.531,74.69929,True
0,1.033335,0.312115,0.7888665,0.09913927,-1.224103,-4.469812,2.983863,0.572422,1.210933,0.5312769,-2.17317,-0.0274125,0.52,22.72,0.07837231,-0.07794057,-0.1805694,-0.8597414,-3.622661,-0.5939113,0.5434076,1.400381,0.424221,0.06342494,0.09003329,0.08246221,-0.6517107,0.6310822,-0.3333684,0.7014179,1.522092,0.2866073,0.3531417,1.212103,0.3675417,285.0748,164.2371,74.55436,True
0,1.044446,0.2983052,0.7772762,0.1226742,-1.224933,-4.479035,2.984055,0.5723304,1.2105,0.5316141,-2.172794,0.03465599,0.74,27.37,0.07077795,-0.08637927,-0.1922601,-0.8611656,-3.625921,-0.5923467,0.5423723,1.400075,0.4247744,0.05060856,0.07618714,0.08047246,-0.6510534,0.6320826,-0.3342653,0.7002068,1.522144,0.2871556,0.3515494,1.211602,0.3698159,285.0898,164.8549,74.44978,True
0,1.055557,0.2770731,0.7571304,0.1441347,-1.225932,-4.487864,2.98454,0.5722797,1.209979,0.53196,-2.172621,0.01555229,0.94,31.72,0.05781172,-0.09052259,-0.2102737,-0.8628935,-3.629641,-0.5902135,0.5415376,1.399581,0.425355,0.03890871,0.0623518,0.08380498,-0.6500643,0.6329111,-0.3350259,0.6989841,1.522053,0.2877421,0.3501067,1.211158,0.3720572,285.0639,165.4141,74.38462,True
0,1.066668,0.2494609,0.7284374,0.1646112,-1.227366,-4.49598,2.985355,0.5720894,1.209518,0.5323608,-2.172466,0.01411551,1.13,35.79,0.04374523,-0.09356004,-0.2325309,-0.8650267,-3.633345,-0.5878241,0.5404943,1.399219,0.4259694,0.06758694,0.08359773,0.07178082,-0.6502774,0.6355351,-0.3387104,0.6978356,1.521982,0.2881947,0.3487185,1.210788,0.3742518,285.0074,165.8611,74.39384,True
0,1.077779,0.2303555,0.7082045,0.1732868,-1.228418,-4.503993,2.986034,0.5718412,1.209014,0.5327282,-2.172088,0.03444657,1.31,39.61,0.04046376,-0.08605778,-0.24418,-0.866974,-3.63672,-0.5860193,0.5396533,1.398829,0.4265945,0.08252658,0.09104758,0.07377059,-0.6498188,0.6381295,-0.342254,0.6966882,1.521887,0.288842,0.3473395,1.21049,0.3764329,284.962,166.1866,74.51228,True
0,1.08889,0.2059948,0.6602957,0.1874827,-1.230073,-4.510364,2.986713,0.5714779,1.208589,0.5330515,-2.171584,0.04593236,2.47,45.18,0.03405228,-0.06361243,-0.254657,-0.8696217,-3.638849,-0.5848275,0.5387126,1.398412,0.4272323,0.07081685,0.09532513,0.07491986,-0.6494587,0.6404852,-0.3443986,0.6955846,1.521865,0.289459,0.3459764,1.210249,0.3786247,284.9018,166.4548,74.69451,True
0,1.100002,0.1667843,0.5899134,0.1922738,-1.231735,-4.515686,2.987692,0.5709377,1.208218,0.5333476,-2.171777,-0.01787941,3.55,50.39,0.02665952,-0.04976983,-0.2534564,-0.8716505,-3.64144,-0.5833455,0.5378549,1.398134,0.4278278,0.06640424,0.09527689,0.05684453,-0.6497506,0.6419955,-0.3461721,0.6945397,1.521923,0.2900906,0.344579,1.210083,0.3807963,284.815,166.7253,74.87899,True
0,1.111113,0.1540554,0.5707099,0.193479,-1.233052,-4.522129,2.988513,0.5705739,1.207798,0.5336802,-2.171414,0.03347782,4.57,55.27,0.01919238,-0.06147876,-0.2502499,-0.873307,-3.644598,-0.5812618,0.5369991,1.397866,0.4284372,0.07264885,0.08990707,0.0408222,-0.6501825,0.6432688,-0.3481545,0.693505,1.521937,0.2907145,0.3431578,1.209974,0.3829184,284.7205,166.9449,75.13311,True
0,1.122224,0.1095218,0.4927265,0.1802076,-1.23423,-4.525621,2.989927,0.5699954,1.207419,0.5339363,-2.170912,0.04568773,5.52,59.83,-0.0009662844,-0.08281182,-0.2341842,-0.8738977,-3.648102,-0.5783515,0.5362984,1.397735,0.4290957,0.07463424,0.08665457,0.02375743,-0.6508297,0.6440431,-0.3496848,0.6926417,1.522085,0.2914577,0.3417282,1.209919,0.3848962,284.5779,167.2437,75.31285,True
0,1.133335,0.07991266,0.4371647,0.1732223,-1.235419,-4.530117,2.991124,0.5695935,1.207094,0.5341847,-2.171603,-0.06334687,6.41,64.1,-0.01364747,-0.09885094,-0.2171006,-0.8744245,-3.651471,-0.5756135,0.5356597,1.397612,0.4297225,0.08601929,0.07909189,-0.01467531,-0.6524206,0.6442927,-0.3512363,0.6920149,1.522036,0.2920418,0.3403212,1.20992,0.3866428,284.4495,167.525,75.4529,True
0,1.144446,0.06184115,0.3998242,0.1670257,-1.236588,-4.533123,2.992269,0.5689052,1.206805,0.5344284,-2.169853,0.1600365,7.95,66.46,-0.02519879,-0.1138426,-0.1936317,-0.8745885,-3.654388,-0.5730622,0.5350411,1.397609,0.430445,0.08896875,0.06623799,-0.04237768,-0.6539818,0.6439983,-0.3521088,0.6912223,1.522115,0.2926311,0.3390471,1.209919,0.388203,284.3642,167.535,75.79977,True
0,1.155557,0.035378,0.3389644,0.1568117,-1.237704,-4.535405,2.993431,0.5682426,1.206499,0.5346959,-2.169532,0.02711694,9.39,68.68,-0.02392828,-0.1470587,-0.1607831,-0.8734668,-3.658278,-0.5705063,0.5343702,1.397689,0.4310861,0.09094924,0.0534085,-0.05834407,-0.6551275,0.643529,-0.3527679,0.6905869,1.522047,0.2931681,0.3378947,1.209882,0.3894937,284.2705,167.536,76.09463,True
0,1.166668,0.02057084,0.2983737,0.1475243,-1.238845,-4.537695,2.994437,0.5674794,1.20632,0.5349429,-2.16792,0.1459477,10.74,70.75,-0.02587517,-0.1748991,-0.1310739,-0.872295,-3.661769,-0.5679244,0.5338063,1.397759,0.4316022,0.09729625,0.04807379,-0.06265286,-0.6561443,0.6437849,-0.3542449,0.6898581,1.522136,0.2937601,0.3368576,1.209785,0.390539,284.2054,167.4716,76.35407,True
0,1.17778,-0.004815757,0.2364475,0.1373198,-1.239986,-4.538482,2.995491,0.5665908,1.206009,0.5351999,-2.165879,0.1838287,12,72.69,-0.02889426,-0.1888653,-0.1076851,-0.871284,-3.6651,-0.5654333,0.5330711,1.397617,0.4322388,0.08860578,0.03525562,-0.08065382,-0.6575206,0.642934,-0.3542284,0.6891996,1.522113,0.2943411,0.3358216,1.209601,0.3913359,284.141,167.3629,76.57743,True
0,1.188891,-0.02918793,0.1894151,0.1227503,-1.240811,-4.539495,2.996881,0.5657005,1.205776,0.5354218,-2.163714,0.194411,13.63,73.77,-0.04150958,-0.2145396,-0.08105701,-0.8693447,-3.66891,-0.5621422,0.5325321,1.397574,0.4327488,0.07793188,0.03633348,-0.08270299,-0.6587398,0.6431599,-0.3548449,0.6885779,1.522127,0.2948549,0.3347768,1.209281,0.3919288,284.0863,167.3358,76.64267,True
0,1.200002,-0.05465655,0.1508465,0.1017244,-1.241192,-4.539984,2.998514,0.56479,1.205496,0.5355933,-2.160401,0.29905,15.16,74.78,-0.07127661,-0.2230096,-0.07123528,-0.8682209,-3.672339,-0.5580667,0.531918,1.397452,0.4332323,0.0672093,0.04057925,-0.09114699,-0.6601827,0.6432965,-0.3553091,0.6879948,1.52203,0.2954414,0.3336585,1.208807,0.3923822,284.0414,167.4199,76.55159,True
0,1.211113,-0.07376774,0.1251724,0.09338926,-1.241877,-4.540783,3.00024,0.5639143,1.205186,0.5358052,-2.156747,0.3288532,16.6,75.72,-0.08704588,-0.1771851,-0.06553203,-0.8684579,-3.673269,-0.556083,0.53135,1.397203,0.4337161,0.05444719,0.05977519,-0.09002525,-0.6616677,0.6449407,-0.3566625,0.687417,1.52202,0.2961118,0.3324692,1.208126,0.3927366,283.9878,167.6267,76.32478,True
0,1.222224,-0.08331685,0.1090975,0.08285372,-1.242361,-4.541707,3.001779,0.5630586,1.205005,0.5359492,-2.15251,0.381766,17.94,76.6,-0.09008884,-0.1356241,-0.06528453,-0.8689655,-3.673632,-0.5549178,0.5306123,1.397083,0.4339826,0.02912068,0.06839222,-0.06213574,-0.661779,0.6467993,-0.3575219,0.6869306,1.521954,0.2966437,0.331207,1.207229,0.3930402,283.9625,168.0729,75.85855,True
0,1.233335,-0.1044967,0.06317488,0.0746598,-1.243065,-4.540961,3.003404,0.5620059,1.204783,0.5361464,-2.148145,0.3924949,19.2,77.43,-0.1087943,-0.05897963,-0.04234798,-0.8696105,-3.671385,-0.5545447,0.529932,1.396889,0.434293,0.02591704,0.05667381,-0.06207823,-0.6624144,0.6466357,-0.3575462,0.68644,1.521815,0.2972538,0.3299005,1.206115,0.3933367,283.9648,168.7497,75.16219,True
0,1.244446,-0.1097497,0.03650768,0.07165354,-1.243849,-4.540621,3.004661,0.5610259,1.204508,0.5363863,-2.143545,0.4137194,20.75,76.23,-0.1234308,-0.03986515,-0.01974106,-0.8692169,-3.670807,-0.5531306,0.5292199,1.3968,0.4346707,0.04393048,0.06941158,-0.07505826,-0.6642137,0.6476786,-0.3594972,0.6858924,1.521852,0.2979233,0.3285595,1.204826,0.3936884,283.9635,169.7072,74.18212,True
0,1.255558,-0.1128393,-0.0007709861,0.07298044,-1.244869,-4.539567,3.005662,0.5599303,1.204206,0.5365682,-2.137676,0.5292186,22.2,75.11,-0.1464705,-0.01866579,0.01467873,-0.8681186,-3.66949,-0.5516906,0.5287169,1.396839,0.4349382,0.03658903,0.08968586,-0.06438589,-0.6650121,0.6501202,-0.3616743,0.685459,1.521809,0.2985897,0.3271613,1.203412,0.394119,283.9545,170.8844,73.02263,True
0,1.266669,-0.112782,-0.02211104,0.06780504,-1.245603,-4.538698,3.006623,0.5588907,1.203997,0.5367465,-2.132341,0.4789877,23.56,74.07,-0.1642613,-0.01023629,0.04578484,-0.8668835,-3.668227,-0.5501406,0.528065,1.396741,0.4352,0.01843413,0.1046012,-0.07173645,-0.6667112,0.6519946,-0.3627465,0.6849614,1.521811,0.2992043,0.3256967,1.2019,0.3945836,283.9182,172.149,71.79766,True
0,1.27778,-0.1127006,-0.05090133,0.06267747,-1.246276,-4.537271,3.007391,0.5579494,1.203748,0.5368066,-2.126198,0.5531782,24.82,73.09,-0.1705696,-0.01667252,0.05646095,-0.8658027,-3.668303,-0.5481153,0.5274704,1.396615,0.4355261,0.0001706816,0.1109637,-0.09076764,-0.6687549,0.6532637,-0.3631335,0.6845373,1.52176,0.2998779,0.3242126,1.200286,0.3950808,283.8727,173.3781,70.61156,True
0,1.288891,-0.1084148,-0.0594032,0.06380208,-1.247163,-4.536422,3.008178,0.5569661,1.203515,0.5368614,-2.119659,0.5884151,26,72.18,-0.178055,-0.02943431,0.05753551,-0.8648083,-3.66865,-0.5457267,0.526809,1.396479,0.4358656,-0.007454321,0.1066657,-0.1088062,-0.6708705,0.6537745,-0.3630738,0.6840355,1.521811,0.300513,0.3226931,1.198561,0.3955708,283.8169,174.6818,69.36248,True
0,1.300002,-0.1041155,-0.07324728,0.06177052,-1.247991,-4.535349,3.008834,0.5560004,1.203171,0.5369864,-2.112696,0.6266876,27.44,70.33,-0.1770479,-0.03154728,0.05113033,-0.8641622,-3.66899,-0.5437046,0.5260935,1.39628,0.4362335,-0.01474284,0.1141826,-0.08959075,-0.6717867,0.6559291,-0.364375,0.6834449,1.521538,0.3013253,0.32119,1.196712,0.3960396,283.7878,176.1448,67.9676,True
0,1.311113,-0.09236939,-0.08278528,0.06396345,-1.248931,-4.534205,3.009122,0.5550845,1.202828,0.5370901,-2.105578,0.6404913,28.79,68.6,-0.1741582,-0.02285255,0.01492727,-0.865064,-3.669593,-0.5415157,0.5253667,1.396014,0.4367177,-0.01849417,0.13457,-0.03207691,-0.6710783,0.6600655,-0.3673386,0.6829227,1.521468,0.3020685,0.3197517,1.194734,0.3964506,283.7813,177.7418,66.43984,True
0,1.322224,-0.08170166,-0.08479997,0.07569653,-1.250328,-4.533455,3.009381,0.5542355,1.202392,0.5372946,-2.098113,0.6718348,30.05,66.97,-0.1691575,-0.01521765,-0.02342853,-0.8664227,-3.670452,-0.5393143,0.524675,1.395801,0.4370787,-0.02786859,0.1602087,-0.008629594,-0.6715038,0.6644682,-0.3700135,0.682389,1.521494,0.3028252,0.3183334,1.192643,0.396801,283.7958,179.3492,64.85693,True
0,1.333336,-0.07635485,-0.09005593,0.08318777,-1.251627,-4.532463,3.009717,0.5534785,1.20202,0.5373902,-2.090692,0.667446,31.23,65.45,-0.1662776,0.01802501,-0.0701706,-0.8692046,-3.670702,-0.5375447,0.5242211,1.395338,0.4373915,-0.0332533,0.1868165,-0.01930141,-0.6731715,0.6684915,-0.3727145,0.6820736,1.521376,0.3035097,0.3169571,1.190425,0.3971223,283.819,180.9245,63.27035,True
0,1.344447,-0.06779316,-0.1038571,0.08647902,-1.252949,-4.530978,3.00971,0.5527681,1.201622,0.5373242,-2.082905,0.700826,32.25,62.58,-0.1747929,0.0212578,-0.07113707,-0.8699684,-3.67075,-0.5353835,0.5236266,1.395166,0.4375255,-0.02923521,0.1718313,-0.04593714,-0.6750799,0.6696038,-0.3733706,0.68169,1.521326,0.3041117,0.3156393,1.18807,0.3974512,283.8506,182.5533,61.60226,True
0,1.355558,-0.05605705,-0.1101839,0.08970875,-1.254115,-4.52979,3.009628,0.552134,1.201171,0.5372131,-2.074622,0.7457973,33.21,59.9,-0.1746829,0.0137226,-0.05732203,-0.8698688,-3.671067,-0.5333323,0.5230472,1.39496,0.4377787,-0.02620094,0.1504768,-0.0640168,-0.6765686,0.6702077,-0.3738295,0.6813366,1.521236,0.3047562,0.3143829,1.185576,0.3978445,283.8793,184.3326,59.78667,True
0,1.366669,-0.0486043,-0.1091197,0.08650249,-1.255115,-4.528671,3.009549,0.5515056,1.200747,0.5372133,-2.06652,0.7288432,34.11,57.39,-0.1703145,0.01578481,-0.04669875,-0.8701133,-3.670954,-0.5316753,0.5225092,1.394668,0.4380045,-0.02088962,0.1664411,-0.06623854,-0.6782469,0.6731565,-0.3758793,0.6809202,1.52111,0.3052895,0.3131782,1.18297,0.3982829,283.9219,186.3739,57.78798,True
0,1.37778,-0.03905194,-0.09625911,0.0917355,-1.256344,-4.52841,3.009602,0.5509478,1.200311,0.5371892,-2.058443,0.7267971,34.95,55.04,-0.162793,0.03386259,-0.04667314,-0.8709821,-3.670244,-0.530642,0.5220138,1.39435,0.4382844,-0.02611323,0.1760608,-0.05556209,-0.679276,0.6764846,-0.3780522,0.68044,1.521026,0.3059015,0.3120366,1.180275,0.3986964,283.9909,188.5298,55.73927,True
0,1.388891,-0.02417706,-0.08124947,0.09908427,-1.257762,-4.528225,3.0093,0.550515,1.199833,0.5371077,-2.050229,0.7393316,35.74,52.84,-0.1457435,0.04554823,-0.0510292,-0.8720329,-3.669545,-0.5301371,0.5213899,1.394043,0.4384358,-0.02179254,0.1718218,-0.04813793,-0.6803002,0.6790271,-0.3799354,0.6799172,1.520942,0.3064468,0.310972,1.177506,0.3990524,284.1053,190.6147,53.73768,True
0,1.400002,-0.008292041,-0.04596156,0.1105556,-1.259306,-4.529263,3.009201,0.5501394,1.199304,0.5371335,-2.042134,0.7283226,36.02,50.67,-0.138425,0.04666023,-0.06706963,-0.8733059,-3.669979,-0.5286103,0.5208547,1.39362,0.4387004,-0.01625676,0.1708163,-0.02261056,-0.6804408,0.6821253,-0.3822424,0.6793618,1.520964,0.3070486,0.3099638,1.1747,0.3993699,284.2632,192.612,51.74586,True
0,1.411114,0.002266606,-0.008514791,0.1294699,-1.261264,-4.530747,3.009236,0.5497517,1.198787,0.5371382,-2.034429,0.6930339,36.28,48.64,-0.1365852,0.05107974,-0.1000949,-0.8756245,-3.670693,-0.5266902,0.5202529,1.393229,0.4389803,-0.01803643,0.1709187,0.01789328,-0.6796568,0.6858677,-0.3850065,0.6788685,1.520777,0.3076174,0.3094344,1.173137,0.3997288,283.8652,194.1617,50.02725,True
0,1.422225,0.01282119,0.02680404,0.1473305,-1.263199,-4.53265,3.009444,0.5495145,1.198324,0.5371251,-2.026662,0.6990857,36.52,46.75,-0.1262971,0.06404828,-0.1448657,-0.8787553,-3.671408,-0.525272,0.5196773,1.392766,0.439245,-0.03395671,0.1624386,0.02656474,-0.6798257,0.6885344,-0.3860918,0.678441,1.52063,0.3083038,0.3091249,1.172413,0.4001098,283.4632,193.1996,50.99701,True
0,1.433336,0.01915839,0.04607867,0.1578434,-1.265067,-4.534172,3.009576,0.5492437,1.197813,0.5371382,-2.018929,0.6960227,36.75,44.98,-0.1178974,0.07048592,-0.1598193,-0.8810994,-3.671686,-0.5239738,0.5192842,1.392371,0.4395297,-0.02240869,0.1613118,0.006230295,-0.681088,0.6907395,-0.3879861,0.6779677,1.5205,0.3088298,0.3086858,1.171956,0.4004712,282.9673,192.0149,52.12572,True
0,1.444447,0.02764225,0.0599876,0.1630736,-1.266946,-4.535605,3.009431,0.5490281,1.197281,0.5372164,-2.011364,0.6809778,35.93,43.13,-0.09547242,0.05651087,-0.1494417,-0.8823255,-3.672248,-0.5233175,0.5188968,1.392059,0.4398329,0.004153766,0.1527615,0.0006935336,-0.6819716,0.6928898,-0.3904485,0.6775355,1.52043,0.3092797,0.3081693,1.171516,0.4008864,282.4103,191.3482,52.71503,True
0,1.455558,0.03295441,0.06424402,0.1598446,-1.268448,-4.536696,3.009248,0.5488192,1.196794,0.5372355,-2.004016,0.6613123,35.16,41.4,-0.08799788,0.03512856,-0.1400259,-0.8831276,-3.67341,-0.5218227,0.518537,1.391687,0.4401114,0.01159031,0.1399597,-0.001464546,-0.682361,0.6944059,-0.3921113,0.677185,1.520354,0.3097327,0.3076583,1.171071,0.4013407,281.7625,191.1392,52.83215,True
0,1.466669,0.03401705,0.0641776,0.1502547,-1.269645,-4.53756,3.009094,0.5486178,1.196364,0.5372217,-1.997264,0.6073472,34.44,39.78,-0.07945166,0.01481482,-0.1306134,-0.8838131,-3.674615,-0.5205095,0.5182172,1.391325,0.4403515,0.008414656,0.1399891,0.001746174,-0.6831328,0.69705,-0.3940315,0.6767544,1.520316,0.3100944,0.3072422,1.170616,0.4017756,281.0588,191.4385,52.36481,True
0,1.47778,0.04148392,0.05984032,0.1353634,-1.270532,-4.538307,3.00857,0.5484281,1.19591,0.537303,-1.990499,0.6090622,33.77,38.26,-0.06871592,0.01580548,-0.1221778,-0.8848608,-3.674871,-0.5198877,0.5177802,1.391083,0.4406779,0.01706707,0.1357634,0.01659739,-0.683145,0.6996464,-0.3966342,0.6763923,1.520138,0.3108065,0.3069436,1.170142,0.4021299,280.3364,191.5952,52.01007,True
0,1.488891,0.04681649,0.05660781,0.1279264,-1.271635,-4.539017,3.008083,0.5482224,1.195514,0.5373657,-1.984032,0.5822114,33.14,36.84,-0.06458876,0.01586174,-0.1371327,-0.8866979,-3.676036,-0.5186248,0.5174797,1.390794,0.4409781,0.02262583,0.1315607,0.04319981,-0.6823786,0.7024037,-0.3993218,0.6759764,1.520104,0.3112841,0.3067013,1.169685,0.4023448,279.6701,191.2688,52.15505,True
0,1.500003,0.04682469,0.05445527,0.1247445,-1.272843,-4.539808,3.007762,0.5480083,1.195193,0.5375559,-1.978322,0.5133322,31.64,35.29,-0.05935856,0.02230052,-0.1499331,-0.8887533,-3.676843,-0.5176203,0.5171112,1.390559,0.4412754,0.02265713,0.1326544,0.04851291,-0.6825618,0.7052899,-0.4015749,0.6755574,1.520229,0.3114831,0.3064886,1.169265,0.4024121,279.1161,190.4431,52.79111,True
0,1.511114,0.04790586,0.04804488,0.1205253,-1.273965,-4.540409,3.00738,0.5479492,1.194873,0.5376518,-1.972674,0.5086164,30.23,33.84,-0.05399137,0.02545525,-0.1467721,-0.890226,-3.677492,-0.5168032,0.5169404,1.390292,0.4415751,0.02572113,0.1272879,0.03358544,-0.6831781,0.70696,-0.4032519,0.6752781,1.520172,0.311888,0.3064622,1.168851,0.4025515,278.8613,189.5556,53.48696,True
0,1.522225,0.04577643,0.04694224,0.1152047,-1.274952,-4.541171,3.007154,0.5478517,1.194526,0.5377386,-1.967624,0.4547053,28.91,32.48,-0.04321223,0.007208539,-0.1267208,-0.8905861,-3.678539,-0.5160047,0.5167941,1.390037,0.4418769,0.03722387,0.1165676,0.006874286,-0.684589,0.7079005,-0.405107,0.6750673,1.520156,0.3124239,0.3061872,1.168491,0.4025545,278.2638,188.5855,54.25848,True
0,1.533336,0.04045954,0.04368667,0.1077724,-1.275831,-4.541799,3.007036,0.5477391,1.194207,0.5378742,-1.963404,0.3796805,27.67,31.21,-0.03992788,-0.01419633,-0.1098143,-0.890715,-3.680024,-0.5147568,0.5164566,1.389739,0.4421668,0.04028977,0.09309603,-0.005881011,-0.6851568,0.7078614,-0.4056047,0.674814,1.520144,0.3127594,0.3060741,1.168182,0.4027365,277.9998,188.2364,54.42116,True
0,1.544447,0.03191892,0.04670985,0.08645198,-1.275987,-4.54249,3.007196,0.5476663,1.193965,0.5380287,-1.959696,0.3339043,26.31,30.54,-0.02808645,-0.02497374,-0.09293322,-0.8908375,-3.681063,-0.5141802,0.5163619,1.389614,0.4424016,0.04362955,0.07289959,0.0133178,-0.6844638,0.7085868,-0.4067491,0.6746643,1.520053,0.3132148,0.3060189,1.167897,0.402993,277.7105,188.051,54.50602,True
0,1.555558,0.02015876,0.05721645,0.06933729,-1.276032,-4.543609,3.007777,0.5476298,1.193783,0.5381684,-1.956457,0.291559,25.03,29.91,-0.02055719,-0.01757314,-0.08764158,-0.8916317,-3.681589,-0.513814,0.5162313,1.389387,0.4426515,0.04267938,0.06867255,0.02718908,-0.6839871,0.7100676,-0.4083617,0.674283,1.520039,0.3135672,0.3056762,1.167649,0.4030029,277.011,187.4623,54.96678,True
0,1.566669,0.008410737,0.06559747,0.05437063,-1.276057,-4.544599,3.008352,0.5475844,1.193692,0.5383852,-1.953563,0.2607879,23.83,29.32,-0.01414146,-0.00159925,-0.09081726,-0.8928471,-3.681723,-0.5137901,0.5161366,1.389197,0.442894,0.04172784,0.06124877,0.0410644,-0.6833314,0.7112339,-0.4097327,0.674163,1.519946,0.3139265,0.3055596,1.167429,0.4031132,276.816,187.1395,55.12228,True
0,1.577781,0.004117377,0.07619698,0.04790733,-1.276235,-4.545929,3.008806,0.5475479,1.19352,0.5385592,-1.951025,0.2285949,22.71,28.77,-0.01628351,0.002673205,-0.09290844,-0.8938879,-3.682356,-0.5130356,0.51604,1.389012,0.4431453,0.04598828,0.05591108,0.04104785,-0.6830087,0.7120698,-0.4110797,0.6739432,1.519906,0.3142722,0.3054965,1.167245,0.4032506,276.6868,186.7226,55.40036,True
0,1.588892,-0.003383847,0.09214745,0.04672757,-1.276414,-4.54761,3.009577,0.5476416,1.193337,0.5386992,-1.949098,0.173274,21.67,28.26,-0.01516428,0.003708468,-0.08758717,-0.8946096,-3.682774,-0.51265,0.5159909,1.388951,0.4433506,0.04695132,0.05160433,0.02827924,-0.6830752,0.7124368,-0.4120355,0.6738549,1.519868,0.3144701,0.3054053,1.167029,0.4040167,276.1801,185.0265,57.34867,True
0,1.600003,-0.01837045,0.1166167,0.04656103,-1.276596,-4.549999,3.011017,0.54781,1.193222,0.5388458,-1.947728,0.1229964,20.86,28.08,-0.01181579,-0.004918302,-0.06848527,-0.8945132,-3.683191,-0.5124162,0.5161317,1.388975,0.4435167,0.04673029,0.04621609,0.002725419,-0.6839919,0.712421,-0.4125495,0.673871,1.519807,0.3146181,0.3052861,1.166992,0.4040872,275.9916,187.7139,54.27561,True
0,1.611114,-0.03120982,0.1357399,0.04323616,-1.276646,-4.552332,3.012475,0.547971,1.193167,0.5390587,-1.946172,0.1404783,20.11,27.91,-0.00856878,-0.01029269,-0.06108486,-0.8947262,-3.683803,-0.5120428,0.5161939,1.388924,0.4437561,0.04120982,0.03656836,-0.01957097,-0.6847647,0.7118105,-0.4124075,0.6739068,1.51986,0.3148382,0.3052605,1.16692,0.4040373,275.9903,188.0024,53.8191,True
0,1.622225,-0.04294548,0.1409883,0.03681089,-1.276611,-4.554141,3.013831,0.5480819,1.193129,0.5392346,-1.944533,0.1479946,19.4,27.75,-0.001927728,-0.01151871,-0.03451878,-0.8941281,-3.683698,-0.5123847,0.5163919,1.388921,0.4439597,0.04651836,0.02377682,-0.02064994,-0.6849006,0.7114355,-0.4128715,0.6739633,1.519742,0.3149788,0.3052894,1.16686,0.4040253,275.9728,187.6749,54.04482,True
0,1.633336,-0.05038473,0.1356305,0.03365269,-1.276656,-4.555677,3.015038,0.548183,1.193143,0.5394433,-1.943498,0.09292908,18.73,27.6,0.008833392,-0.02441594,-0.01870221,-0.8934788,-3.684258,-0.5125432,0.5165467,1.389013,0.4442439,0.05083439,0.0003534108,-0.01104009,-0.6843115,0.7103142,-0.4126747,0.6740372,1.519766,0.3151288,0.3052902,1.166821,0.4040972,275.8632,187.8482,53.79562,True
0,1.644447,-0.06422794,0.132331,0.02515776,-1.276475,-4.556975,3.016613,0.548315,1.193232,0.539736,-1.942658,0.07562694,18.1,27.46,0.01202512,-0.04897163,-0.01033232,-0.8926687,-3.685738,-0.5118433,0.5168268,1.389059,0.4444516,0.04973143,-0.01563209,-0.01418691,-0.6842715,0.7091032,-0.4122992,0.6741397,1.51981,0.3151705,0.3052703,1.166828,0.4042266,275.6936,188.4286,53.13937,True
0,1.655559,-0.07808761,0.1322747,0.02089796,-1.276335,-4.558694,3.018561,0.5485312,1.193348,0.5400088,-1.942056,0.05406681,17.69,27.07,0.01836287,-0.07137361,-0.008368347,-0.8919193,-3.687439,-0.5112001,0.5171165,1.389108,0.4447579,0.0411811,-0.02841871,-0.01620924,-0.6840888,0.7077593,-0.4114147,0.6742988,1.519875,0.3153,0.3052121,1.16683,0.4043581,275.5164,189.5605,51.93648,True
0,1.66667,-0.08234826,0.1311531,0.01451551,-1.276099,-4.560156,3.020057,0.5486972,1.193432,0.5402718,-1.941068,0.08952944,17.3,26.7,0.01721324,-0.08519582,-0.0126862,-0.8915007,-3.689152,-0.5103005,0.5174004,1.389192,0.4450338,0.04003534,-0.02950657,-0.02578505,-0.6845272,0.7068777,-0.41117,0.6745825,1.519825,0.3154185,0.3050793,1.166733,0.4050012,274.7887,193.3668,48.25659,True
0,1.677781,-0.09300841,0.1332521,0.01237019,-1.275889,-4.561978,3.02202,0.5489518,1.19359,0.5405684,-1.940322,0.06725636,16.94,26.36,0.02144649,-0.08839388,-0.01486699,-0.8911528,-3.690462,-0.5099043,0.5177844,1.389342,0.4453492,0.03990021,-0.03593744,-0.0406803,-0.685128,0.7053323,-0.4103872,0.6748934,1.519907,0.3155549,0.3046824,1.166829,0.4053782,274.4454,190.9452,50.19157,True
0,1.688892,-0.1015176,0.1278606,0.006016823,-1.275545,-4.563289,3.023809,0.5491458,1.193791,0.5408645,-1.940313,6.814603E-05,16.6,26.04,0.02582951,-0.09914676,0.002088997,-0.8898979,-3.691703,-0.5095269,0.5182539,1.389615,0.4457042,0.03867196,-0.04983439,-0.05874497,-0.6858242,0.7030081,-0.4090243,0.6752079,1.519999,0.3156877,0.3044804,1.167003,0.4053335,274.606,190.7173,50.17551,True
0,1.700003,-0.1036157,0.1160949,-0.00136232,-1.275094,-4.564351,3.025293,0.5492954,1.193949,0.5411491,-1.93969,0.05678033,16.53,25.85,0.02487554,-0.1109373,0.01802187,-0.8884795,-3.692986,-0.5089972,0.5186405,1.389875,0.4459448,0.04273088,-0.06480665,-0.08111732,-0.6869081,0.7002272,-0.4075305,0.6756445,1.52002,0.3157365,0.3043571,1.167161,0.4052064,274.8392,190.4537,50.28478,True
0,1.711114,-0.1121182,0.1053525,-0.01087315,-1.274558,-4.565145,3.027125,0.5494734,1.194212,0.5414536,-1.939423,0.02379155,16.47,25.67,0.03246955,-0.1345127,0.0412782,-0.8862404,-3.694663,-0.5085229,0.5191163,1.390142,0.4462347,0.04583476,-0.07549281,-0.09070539,-0.6876101,0.6975783,-0.4060926,0.6760041,1.52007,0.3158243,0.3043061,1.167318,0.4051784,275.01,190.307,50.34402,True
0,1.722225,-0.1131651,0.0989254,-0.01615929,-1.274045,-4.566089,3.028663,0.5497786,1.194423,0.5417681,-1.939447,-0.002453109,16.41,25.51,0.03464382,-0.1473515,0.05078106,-0.8845061,-3.696454,-0.5078025,0.5196151,1.390342,0.446563,0.0414757,-0.08296933,-0.1013013,-0.6884905,0.6950645,-0.40445,0.6764932,1.520097,0.3157821,0.3042853,1.167458,0.4052426,275.1039,190.2659,50.32413,True
0,1.733337,-0.1206128,0.09351471,-0.02570786,-1.273316,-4.56697,3.030555,0.5500748,1.194734,0.5420797,-1.938865,0.05306182,16.35,25.35,0.03784871,-0.1591044,0.05603019,-0.8826557,-3.69824,-0.5071697,0.52029,1.390569,0.4468336,0.03721572,-0.08722444,-0.1001875,-0.6889864,0.6928529,-0.4029517,0.67698,1.520133,0.3158102,0.3042663,1.167516,0.4056371,275.0354,191.4333,49.18942,True
0,1.744448,-0.1259561,0.09875782,-0.03533378,-1.272408,-4.568188,3.032453,0.5504207,1.195012,0.542444,-1.939007,-0.01350495,16.29,25.21,0.0388354,-0.1622594,0.04855359,-0.881485,-3.700013,-0.5065396,0.5208452,1.390792,0.4471436,0.035068,-0.09255248,-0.1022898,-0.6896878,0.6904014,-0.4014601,0.6775534,1.52011,0.3159068,0.304361,1.167574,0.4064632,275.3548,191.1216,49.71976,True
0,1.755559,-0.1270616,0.1104455,-0.03967807,-1.271628,-4.569828,3.034448,0.5508084,1.195352,0.5427222,-1.938552,0.04170236,16.33,25,0.03554875,-0.1568638,0.03689218,-0.8807063,-3.701796,-0.5056866,0.5214155,1.39104,0.4474175,0.03183807,-0.09894863,-0.1054417,-0.6903377,0.6877148,-0.3996257,0.6780716,1.520126,0.3159168,0.3043584,1.167696,0.4070792,275.0222,192.4827,48.45021,True
0,1.76667,-0.1228478,0.1264135,-0.0429857,-1.270883,-4.571738,3.036226,0.5512477,1.195639,0.5429773,-1.938509,0.003556427,16.37,24.8,0.03233436,-0.1568412,0.03479309,-0.8795707,-3.703523,-0.5048406,0.5219752,1.391294,0.4476702,0.03072719,-0.1128043,-0.1096538,-0.6908575,0.6845742,-0.3975514,0.6786367,1.520162,0.3160129,0.3044064,1.167864,0.4074188,275.0498,192.2692,48.62843,True
0,1.777781,-0.119678,0.1349636,-0.04091675,-1.270305,-4.573589,3.03803,0.5516734,1.195955,0.5432558,-1.938475,0.003000009,16.39,24.62,0.03559387,-0.151549,0.03905541,-0.8782312,-3.704834,-0.5046099,0.5225839,1.391553,0.4478657,0.0286082,-0.1096082,-0.1085815,-0.6915202,0.6821579,-0.3959268,0.6792547,1.520222,0.3160379,0.3044441,1.16806,0.407632,275.2386,191.8684,48.98703,True
0,1.788892,-0.1239936,0.1552333,-0.03466614,-1.26987,-4.576026,3.040292,0.5522376,1.196243,0.5435748,-1.938701,-0.02076902,16.41,24.45,0.03890055,-0.145213,0.0486484,-0.8767803,-3.705775,-0.5045452,0.5232934,1.391867,0.44807,0.02959533,-0.09578995,-0.1192766,-0.692808,0.6803002,-0.3948661,0.6800067,1.520196,0.315948,0.3044825,1.168271,0.4078136,275.4865,191.5016,49.3309,True
0,1.800003,-0.1261593,0.1680407,-0.03049206,-1.269477,-4.578368,3.042473,0.552838,1.19652,0.5438914,-1.938608,0.008641406,16.27,23.96,0.04011812,-0.1410309,0.06357075,-0.8750503,-3.706681,-0.504427,0.5240208,1.392181,0.4483662,0.02958022,-0.1021843,-0.1203259,-0.6935617,0.6775381,-0.3930727,0.680649,1.520211,0.3159468,0.3045495,1.168469,0.4080262,275.7317,191.0257,49.80259,True
0,1.811115,-0.1304512,0.182992,-0.02420108,-1.26915,-4.581073,3.044745,0.5535541,1.19682,0.5441451,-1.938245,0.033094,16.14,23.49,0.04122464,-0.1453305,0.06993722,-0.8732367,-3.708083,-0.5039575,0.5248475,1.392472,0.4485939,0.03052221,-0.1011422,-0.1331266,-0.6950094,0.674881,-0.3911787,0.6814659,1.520335,0.3156729,0.3046427,1.168656,0.4082954,275.959,190.4854,50.344,True
0,1.822226,-0.129408,0.1915436,-0.02000102,-1.268837,-4.583508,3.046866,0.5542405,1.197149,0.5444396,-1.938216,0.002298893,16.02,23.06,0.05182953,-0.1538765,0.06766737,-0.8716782,-3.709911,-0.5037507,0.5256618,1.392782,0.4488318,0.03150602,-0.1011655,-0.1427223,-0.6963506,0.6722024,-0.3895022,0.6821955,1.520372,0.3157864,0.3047681,1.168846,0.408625,276.178,189.8311,51.00056,True
0,1.833337,-0.1294195,0.1958367,-0.01683639,-1.268488,-4.586071,3.049093,0.5548885,1.197462,0.5446799,-1.938208,0.0007685486,15.9,22.65,0.05910621,-0.168744,0.05368111,-0.8703754,-3.712521,-0.5029641,0.526487,1.393152,0.4490864,0.03037329,-0.1139692,-0.1501344,-0.6974116,0.6685638,-0.3871238,0.6830139,1.520432,0.3157039,0.3049287,1.169042,0.4089943,276.4042,189.0793,51.77637,True
0,1.844448,-0.130539,0.2149931,-0.0191027,-1.267867,-4.589211,3.051519,0.5556424,1.19783,0.5448325,-1.938252,-0.004051578,15.8,22.27,0.05989878,-0.1846095,0.0301546,-0.8695508,-3.715811,-0.5015089,0.5273532,1.393506,0.4493165,0.02506775,-0.1245961,-0.1447387,-0.6981088,0.6653297,-0.3845378,0.6837504,1.520556,0.3155761,0.3051156,1.169259,0.4094093,276.6457,188.3448,52.56272,True
0,1.855559,-0.1273978,0.2331386,-0.01497788,-1.26747,-4.59239,3.053837,0.5564629,1.198199,0.5450163,-1.938162,0.008254747,15.37,21.88,0.05976819,-0.1824076,0.0152458,-0.8689815,-3.718273,-0.5005891,0.5282575,1.393827,0.4495888,0.02930816,-0.1203465,-0.1479785,-0.6992193,0.6627651,-0.3830768,0.6844951,1.52059,0.3154521,0.3053037,1.16935,0.4105639,277.764,187.0323,54.45345,True
0,1.86667,-0.1263652,0.2459842,-0.006545349,-1.26742,-4.59574,3.056207,0.5572848,1.198548,0.545259,-1.938104,0.005196813,14.96,21.51,0.05873624,-0.1792166,0.01740641,-0.8677809,-3.720119,-0.500045,0.5291593,1.394156,0.4497914,0.03463574,-0.1299385,-0.1469304,-0.7000098,0.6593505,-0.3810446,0.6853656,1.520636,0.3154728,0.3054402,1.169532,0.4121344,278.3769,186.7772,55.30541,True
0,1.877781,-0.126434,0.2695072,0.003941611,-1.267467,-4.599942,3.058951,0.5582018,1.198798,0.5455098,-1.938201,-0.008960444,14.58,21.17,0.06636552,-0.184678,0.03755151,-0.8656152,-3.722105,-0.4997808,0.5301736,1.394606,0.4500461,0.03783953,-0.1416589,-0.144798,-0.7006734,0.6555896,-0.3787034,0.686218,1.520697,0.3153601,0.3053686,1.169718,0.4141031,278.5043,188.473,54.33324,True
0,1.888893,-0.1233,0.2951909,0.01867089,-1.26774,-4.604293,3.061449,0.5592055,1.199134,0.5457683,-1.938193,0.0008766249,14.23,20.85,0.08033724,-0.2008015,0.05652175,-0.86309,-3.724506,-0.499576,0.5312179,1.395038,0.450351,0.04311404,-0.1491448,-0.1501466,-0.701614,0.6516795,-0.3763499,0.6871763,1.520712,0.3153088,0.3051756,1.169889,0.4162205,278.4125,191.1409,52.37852,True
