loc,t,aDotUA,bDotUA,gDotUA,aUA,bUA,gUA,xUA,yUA,zUA,qE,qDotE,emgA,emgB,aDotSH,bDotSH,gDotSH,aSH,bSH,gSH,xSH,ySH,zSH,aDotUB,bDotUB,gDotUB,aUB,bUB,gUB,xUB,yUB,zUB,xHand,yHand,zHand,aHand,bHand,gHand,enable
0,0,-0.007582419,-0.3614194,0.1159236,-1.537368,-4.428351,-2.923968,0.7208592,1.198176,0.4302094,-1.022275,-0.03648122,2.1,1.5,-0.4149774,0.2534066,0.00147759,-0.5770165,-4.542777,-0.02074576,0.752926,1.429517,0.3631299,-0.2860737,0.4043217,-0.0712405,-0.9880551,0.1495715,0.06024896,0.8354083,1.460805,0.2068527,0.5105859,1.002819,0.2794682,313.9253,259.4705,341.389,False
0,0.01111111,-0.008653152,-0.3635786,0.1116775,-1.53758,-4.424027,-2.923911,0.719798,1.198199,0.4298973,-1.021967,0.02849788,2.1,1.5,-0.4043959,0.2331008,0.003340602,-0.5770037,-4.539224,-0.01955692,0.7522035,1.429444,0.3630157,-0.273335,0.3957683,-0.0745552,-0.9888019,0.1544683,0.06023298,0.8354344,1.46076,0.20717,0.5101642,1.002695,0.2784079,313.9573,259.0819,341.5874,False
0,0.02222222,-0.0118263,-0.3667918,0.1095698,-1.537867,-4.419662,-2.923831,0.7187687,1.198211,0.4296577,-1.022218,-0.02319578,2.1,1.5,-0.3895582,0.2245507,-0.001119256,-0.5771741,-4.53502,-0.01916597,0.7514694,1.429358,0.3628416,-0.2669673,0.3882968,-0.07674217,-0.9895497,0.1594,0.06028571,0.8354547,1.460767,0.2074778,0.5097892,1.002587,0.2772355,314.0306,258.8091,341.633,False
0,0.03333334,-0.01079586,-0.3657724,0.1010377,-1.53775,-4.415481,-2.923822,0.7177885,1.198116,0.4293432,-1.021974,0.02254327,1.7,1.6,-0.3714786,0.220231,-0.003443776,-0.5773712,-4.53068,-0.01933428,0.7507761,1.429255,0.3627439,-0.2584774,0.3744264,-0.07787459,-0.9903284,0.1637963,0.06055496,0.8355086,1.460689,0.207768,0.5094231,1.002519,0.2759433,314.1018,258.5839,341.6082,False
0,0.04444445,-0.009751553,-0.3625887,0.09995051,-1.537889,-4.411287,-2.923872,0.7167654,1.198103,0.4290407,-1.021916,0.005017388,1.7,1.6,-0.3651376,0.2181198,-0.007785962,-0.5777445,-4.526069,-0.01923202,0.7500908,1.429194,0.3626051,-0.2509477,0.3691056,-0.07155786,-0.9907678,0.1685009,0.06044417,0.8355279,1.460684,0.2080398,0.5090892,1.002511,0.2745643,314.1293,258.3237,341.5648,False
0,0.05555556,-0.01082151,-0.3508895,0.09775602,-1.53812,-4.407566,-2.923871,0.7159554,1.198003,0.4286973,-1.021997,-0.00739107,1.7,1.6,-0.3545588,0.2063704,-0.01010936,-0.5779698,-4.522606,-0.01854173,0.7494056,1.429138,0.3624518,-0.2466185,0.3563159,-0.06304535,-0.9909084,0.1724164,0.06094964,0.8356348,1.460646,0.2081194,0.5087889,1.002559,0.2731477,314.1055,258.0492,341.4984,False
0,0.06666667,-0.01194772,-0.3274783,0.09336943,-1.538386,-4.404419,-2.923758,0.715021,1.197892,0.4283719,-1.022066,-0.006231916,1.7,1.6,-0.3407141,0.1945319,-0.003948656,-0.5779598,-4.519321,-0.01780456,0.7487558,1.429175,0.3622077,-0.2381167,0.3371201,-0.06309302,-0.9914368,0.1760867,0.06133873,0.8355833,1.460586,0.2083318,0.508489,1.002613,0.2717391,314.0526,257.7769,341.4279,False
0,0.07777778,-0.01090721,-0.3136488,0.09009509,-1.538573,-4.401228,-2.923826,0.7141775,1.197888,0.4280584,-1.022032,0.003175378,1.4,1.8,-0.333302,0.1859839,-0.004088538,-0.5780562,-4.515863,-0.01715635,0.7481489,1.429153,0.3620546,-0.226409,0.3307139,-0.06426531,-0.9919737,0.1802329,0.06112035,0.8356116,1.46052,0.2084589,0.5082027,1.002666,0.2703834,314.0079,257.5377,341.3568,False
0,0.08888889,-0.01310077,-0.2891968,0.08250844,-1.538722,-4.398628,-2.923638,0.7134821,1.197856,0.4276936,-1.021934,0.00890791,1.4,1.8,-0.316366,0.166742,-0.006527711,-0.5781882,-4.513748,-0.0159526,0.7476484,1.429075,0.3618641,-0.2179356,0.3264205,-0.0686172,-0.9928046,0.1842602,0.06106948,0.8356246,1.460509,0.2086411,0.5079384,1.002692,0.2691103,313.9672,257.3445,341.2798,False
0,0.1,-0.008910076,-0.2583288,0.07700846,-1.53896,-4.396558,-2.923774,0.7128142,1.197813,0.4274201,-1.022104,-0.01559577,1.4,1.8,-0.3080701,0.1498097,-0.02379068,-0.5790597,-4.511654,-0.01454619,0.7470722,1.429056,0.3617089,-0.2115741,0.3210717,-0.07294726,-0.9937042,0.1882289,0.06085829,0.8357136,1.460356,0.2088699,0.5076259,1.002665,0.267938,313.9674,257.1707,341.205,False
0,0.1111111,-0.006860448,-0.2253285,0.07257253,-1.539363,-4.394842,-2.923781,0.7121075,1.197782,0.4270699,-1.021887,0.01995931,1.4,1.8,-0.2965372,0.13816,-0.03890093,-0.57998,-4.509702,-0.01325695,0.7465796,1.428926,0.3614914,-0.2052431,0.3103963,-0.07725029,-0.9945256,0.191903,0.06097121,0.8357377,1.460325,0.2089834,0.5073279,1.002634,0.2669036,313.9818,257.001,341.1732,False
0,0.1222222,-0.00691778,-0.2019168,0.06818309,-1.539876,-4.390742,-2.923687,0.7108088,1.197717,0.426321,-1.022197,-0.02860331,1.2,1.4,-0.2793956,0.1444095,-0.03153415,-0.5804274,-4.503428,-0.01287106,0.7454843,1.428845,0.3610597,-0.1913779,0.2880114,-0.07414975,-0.9957133,0.198704,0.06100396,0.8357323,1.460324,0.2092097,0.5070468,1.002611,0.2660148,313.9966,256.8637,341.1528,False
0,0.1333333,-0.004832488,-0.181697,0.06487256,-1.540134,-4.389385,-2.923841,0.7103333,1.197669,0.4260223,-1.022025,0.0160121,1.2,1.4,-0.2718356,0.1474825,-0.02092228,-0.5803118,-4.500202,-0.01283404,0.7450176,1.428909,0.3608007,-0.1827538,0.2709758,-0.06355727,-0.9959791,0.2012749,0.06122341,0.8357798,1.460189,0.2091017,0.5066511,1.002538,0.265212,314.0336,256.7797,341.1593,False
0,0.1444445,-0.008063065,-0.1710946,0.05735938,-1.540142,-4.387819,-2.92358,0.7098002,1.19763,0.425689,-1.02199,0.003087298,1.2,1.4,-0.2599273,0.1472445,0.000276689,-0.5795587,-4.497345,-0.01291021,0.7446113,1.428855,0.360544,-0.1752432,0.2496677,-0.05613114,-0.9962087,0.2034136,0.06170012,0.8357916,1.460107,0.2090681,0.5060188,1.002368,0.2642949,314.0964,256.6777,341.2563,False
0,0.1555556,-0.003809033,-0.170031,0.05521698,-1.540229,-4.385925,-2.923734,0.7093047,1.197674,0.4253185,-1.022229,-0.02192594,1.2,1.4,-0.2385505,0.1417167,0.01176412,-0.5790564,-4.494889,-0.01307985,0.7442617,1.428882,0.3602412,-0.1678161,0.2421962,-0.05832471,-0.9968334,0.2062769,0.06171902,0.835867,1.459961,0.208967,0.5055471,1.002323,0.2634165,314.0934,256.5822,341.2569,False
0,0.1666667,-0.002763047,-0.1636774,0.04772469,-1.540103,-4.384363,-2.923786,0.7088541,1.197685,0.4249983,-1.021829,0.03681717,1.2,1.4,-0.22472,0.1341811,0.01371652,-0.5788029,-4.492616,-0.01300208,0.7439166,1.428869,0.3599262,-0.1593298,0.2198043,-0.05943232,-0.9975035,0.2079921,0.06221198,0.8359278,1.45991,0.2088706,0.5052645,1.002385,0.2626536,314.0367,256.5135,341.1775,False
0,0.1777778,-0.004895069,-0.1615536,0.0477113,-1.540215,-4.382576,-2.923722,0.7084265,1.197668,0.4246287,-1.022181,-0.0325451,0.7,1.3,-0.2078351,0.1117878,0.006986541,-0.5789883,-4.492024,-0.01186545,0.7436703,1.428832,0.3596141,-0.1465659,0.2016731,-0.06059558,-0.9982029,0.2097083,0.06226391,0.8359311,1.459959,0.2087893,0.5050631,1.002477,0.2619898,314.0019,256.4315,341.1385,False
0,0.1888889,-0.007077169,-0.1445496,0.04229382,-1.540237,-4.381516,-2.923463,0.7081374,1.197681,0.4243026,-1.022125,0.005418283,0.7,1.3,-0.1865963,0.09783863,0.006684277,-0.578926,-4.49102,-0.01139913,0.7435377,1.428783,0.3593111,-0.1359788,0.1814021,-0.06492067,-0.9990039,0.2111017,0.06261598,0.8359846,1.459885,0.2085857,0.5049151,1.002574,0.261386,313.9826,256.3365,341.1578,False
0,0.2,-0.009251297,-0.127531,0.03900142,-1.540315,-4.380662,-2.923291,0.7078981,1.197588,0.4239671,-1.021978,0.01329291,0.7,1.3,-0.1610847,0.08172715,0.008457605,-0.5787768,-4.490396,-0.01110325,0.7433007,1.428676,0.3589776,-0.1273853,0.1611681,-0.05644095,-0.9992287,0.2122794,0.06303436,0.8359933,1.45981,0.2083924,0.5047721,1.002632,0.2608111,313.9689,256.249,341.1864,False
0,0.2111111,-0.01460359,-0.1158194,0.04000518,-1.54061,-4.379776,-2.922942,0.7076606,1.197571,0.4236276,-1.021795,0.01667987,0.7,1.3,-0.1472211,0.06987914,0.01675859,-0.5782724,-4.489653,-0.01056529,0.7430878,1.428668,0.3586392,-0.118874,0.1505064,-0.05650539,-0.9997757,0.2137645,0.06318616,0.8360147,1.459743,0.2082283,0.5046309,1.002646,0.260232,313.9656,256.183,341.2075,False
0,0.2222222,-0.01785613,-0.09242769,0.03348248,-1.540595,-4.379612,-2.922637,0.7076074,1.197516,0.4232724,-1.021885,-0.008362959,0.7,1.3,-0.1324401,0.06137909,0.005904648,-0.578658,-4.489032,-0.01014558,0.7429495,1.428697,0.3582613,-0.1038595,0.1334623,-0.04598075,-0.9999722,0.2146641,0.06322504,0.8360313,1.459768,0.2080367,0.5045094,1.002641,0.2596643,313.9665,256.1313,341.2001,False
0,0.2333333,-0.02325557,-0.06054109,0.02265143,-1.540462,-4.380176,-2.922222,0.7076691,1.197493,0.4229012,-1.021741,0.01326013,0.7,1.4,-0.1101723,0.05389258,-0.001811105,-0.579016,-4.48825,-0.01038979,0.7429034,1.428701,0.3579063,-0.08996055,0.1132175,-0.04075855,-1.000315,0.2151915,0.06321918,0.8361332,1.459715,0.2077901,0.5043988,1.002615,0.2591178,313.9633,256.0991,341.1754,False
0,0.2444444,-0.02648042,-0.04994291,0.01514264,-1.540369,-4.379885,-2.92178,0.7075415,1.197482,0.4225814,-1.021814,-0.006799208,0.7,1.4,-0.09527911,0.04527994,0.0001192354,-0.5788892,-4.488049,-0.01008379,0.7429078,1.428653,0.3575392,-0.08143132,0.09616333,-0.03867929,-1.000667,0.2155911,0.0635598,0.8362106,1.459632,0.2075379,0.504314,1.002597,0.2585947,313.9732,256.0774,341.1554,False
0,0.2555556,-0.03609136,-0.04041617,0.007636713,-1.540152,-4.379817,-2.92105,0.7075987,1.197513,0.4222069,-1.021764,0.004672494,0.7,1.4,-0.06443783,0.02271368,0.006052068,-0.5785813,-4.489143,-0.009580988,0.74301,1.428544,0.3572102,-0.06764656,0.07270256,-0.04089348,-1.001164,0.2153927,0.06412493,0.8362494,1.459551,0.2069628,0.5042735,1.002608,0.2581294,313.9663,256.0637,341.1314,False
0,0.2666667,-0.04143154,-0.03726488,0.002296397,-1.53993,-4.379486,-2.920323,0.7075361,1.197481,0.4218805,-1.021732,0.002863638,0.7,1.4,-0.04854022,0.01309106,0.001566938,-0.5787997,-4.489501,-0.009341304,0.7430125,1.428523,0.3568907,-0.05383215,0.06095937,-0.04313729,-1.001644,0.215637,0.06402452,0.8362861,1.459554,0.2065802,0.5042378,1.002643,0.2577519,313.9636,256.0607,341.1049,False
0,0.2777778,-0.0510415,-0.02879932,-0.003074907,-1.539629,-4.379453,-2.919375,0.7076565,1.197389,0.4216444,-1.02149,0.02219304,0.8,1.4,-0.02412371,0.008781951,-0.006138312,-0.5791992,-4.489685,-0.009875001,0.7431571,1.428472,0.3565257,-0.04313803,0.04177829,-0.03788497,-1.001964,0.2151978,0.06429376,0.836256,1.45947,0.2062726,0.5041605,1.002693,0.2574359,313.9642,256.0416,341.1262,False
0,0.2888889,-0.05532815,-0.01817254,-0.006328594,-1.53944,-4.379702,-2.918587,0.7077987,1.197382,0.4213617,-1.021511,-0.002105009,0.8,1.4,0.008815387,-0.006275157,-0.007617359,-0.5793648,-4.490844,-0.01009391,0.743358,1.428531,0.3561864,-0.03036823,0.0172661,-0.03689555,-1.002407,0.214305,0.06460216,0.8363272,1.459416,0.2058427,0.5040641,1.002785,0.2571573,313.9549,256.0244,341.1811,False
0,0.3,-0.05749963,-0.005397747,-0.007463921,-1.539388,-4.380138,-2.917691,0.7078547,1.197351,0.4210629,-1.021371,0.01292971,0.8,1.4,0.02903864,-0.02454121,-0.0004883973,-0.5790575,-4.492544,-0.009745039,0.7435807,1.428528,0.3558018,-0.01444098,-0.009395673,-0.03913755,-1.003112,0.212957,0.06497075,0.8364125,1.459431,0.2053704,0.5039282,1.002909,0.2568838,313.9068,256.0016,341.2301,False
0,0.3111111,-0.05752268,0.004161498,-0.01284443,-1.539116,-4.380652,-2.917046,0.7080852,1.197281,0.420748,-1.021589,-0.02004006,0.8,1.4,0.05025054,-0.05237085,0.003350408,-0.5788791,-4.495499,-0.008580172,0.7439278,1.428428,0.3553858,0.001579273,-0.03283704,-0.03285692,-1.003326,0.2114518,0.06522188,0.8365346,1.459337,0.2047791,0.5038148,1.00308,0.2566396,313.8321,256.0005,341.2448,False
0,0.3222222,-0.05221858,0.01162142,-0.01395208,-1.538982,-4.381031,-2.916601,0.7083391,1.197263,0.4204166,-1.021573,0.001690095,0.8,1.4,0.06187097,-0.06837475,-8.2721E-05,-0.5790138,-4.497881,-0.007749,0.7442527,1.428348,0.3550065,0.01219033,-0.05096777,-0.03505519,-1.003866,0.209951,0.06553321,0.8367112,1.459299,0.2042539,0.5037093,1.00329,0.2564209,313.7685,256.0276,341.2417,False
0,0.3333333,-0.05225351,0.02646442,-0.02681885,-1.538382,-4.382062,-2.916049,0.7086663,1.197364,0.4201272,-1.021865,-0.0266904,0.8,1.8,0.07557987,-0.08862484,-0.006774086,-0.579473,-4.501122,-0.006527142,0.7445798,1.428524,0.3545499,0.02923692,-0.07974583,-0.03303603,-1.004299,0.2075348,0.06569219,0.8368098,1.459379,0.2036057,0.5035713,1.003509,0.2562092,313.7029,256.0658,341.2448,False
0,0.3444445,-0.04907278,0.03175614,-0.03430573,-1.537872,-4.382693,-2.915592,0.7090999,1.197475,0.4198017,-1.022113,-0.02237895,0.8,1.8,0.08190753,-0.09394685,-0.01113623,-0.5797489,-4.503432,-0.005695969,0.7449213,1.428499,0.3541417,0.04846339,-0.1063836,-0.02571834,-1.004468,0.204932,0.06589247,0.8368014,1.45924,0.2029827,0.5034811,1.003743,0.2560193,313.6054,256.1044,341.2682,False
0,0.3555556,-0.04268617,0.03604993,-0.03114352,-1.53766,-4.383318,-2.91539,0.7094448,1.197556,0.41957,-1.022047,0.006168755,0.8,1.8,0.08945739,-0.0929964,-0.00160722,-0.5794378,-4.505177,-0.00558385,0.7453441,1.428618,0.3536472,0.05704224,-0.1181032,-0.01939066,-1.00461,0.2027965,0.06610631,0.8368962,1.459293,0.2022626,0.5034869,1.003979,0.2558485,313.5184,256.1396,341.2901,False
0,0.3666667,-0.03737494,0.04243298,-0.03544107,-1.53729,-4.38416,-2.915139,0.7097777,1.197724,0.4193053,-1.02211,-0.005844426,0.8,1.8,0.09182204,-0.09752478,0.02816639,-0.5779773,-4.507419,-0.004713529,0.7458485,1.428676,0.3532689,0.0740767,-0.1404864,-0.01844333,-1.004823,0.2000794,0.06609167,0.836862,1.459236,0.201587,0.5035959,1.004215,0.255729,313.4646,256.1524,341.314,False
0,0.3777778,-0.02991582,0.04247024,-0.032251,-1.53715,-4.384706,-2.915109,0.7101352,1.197854,0.4190674,-1.022353,-0.02221133,0.5,1.7,0.1005568,-0.1277506,0.06938433,-0.575687,-4.512128,-0.002086853,0.7463948,1.428765,0.3527949,0.08786128,-0.1639536,-0.02280122,-1.005559,0.1968333,0.06629407,0.8370426,1.459102,0.2007964,0.5038021,1.004444,0.2556562,313.427,256.1624,341.3486,False
0,0.3888889,-0.01069185,0.01901204,-0.04385199,-1.536075,-4.384223,-2.915674,0.7104326,1.197968,0.4188969,-1.022304,0.00464559,0.5,1.7,0.1176687,-0.1525055,0.09033199,-0.5739751,-4.516654,-0.0001571265,0.7470214,1.428849,0.3523712,0.1111896,-0.2044757,-0.02934526,-1.006449,0.1922979,0.06658968,0.8371497,1.459049,0.2000239,0.5040374,1.004629,0.2556036,313.4134,256.1891,341.3623,False
0,0.4,-0.003184031,-0.005503741,-0.04904726,-1.535166,-4.383387,-2.91589,0.7107189,1.19816,0.4187074,-1.022463,-0.01455781,0.5,1.7,0.1325506,-0.1621691,0.09118649,-0.572969,-4.520519,0.0010381,0.7475648,1.428884,0.3519289,0.1313608,-0.2300754,-0.03375662,-1.007213,0.1882585,0.06654574,0.8372645,1.45902,0.1992822,0.504267,1.004768,0.2555628,313.4279,256.2141,341.3842,False
0,0.4111111,0.01393604,-0.03960419,-0.058458,-1.533854,-4.381956,-2.916736,0.7111324,1.198286,0.418556,-1.022973,-0.04661303,0.5,1.7,0.1610152,-0.1716396,0.06209169,-0.5734404,-4.524593,0.001670867,0.7482606,1.428865,0.3514736,0.1506033,-0.2492566,-0.02539383,-1.007478,0.1840497,0.06647117,0.8373881,1.458967,0.198395,0.5045159,1.004872,0.2555256,313.4211,256.2065,341.4415,False
0,0.4222222,0.02462969,-0.06304312,-0.06259692,-1.532655,-4.380556,-2.917316,0.7115898,1.198421,0.4183805,-1.022575,0.03680671,0.5,1.7,0.1799469,-0.1821949,0.03946599,-0.5738638,-4.529135,0.002821353,0.7490417,1.428905,0.3510017,0.1571181,-0.2577556,-0.01265974,-1.007367,0.1803326,0.06656171,0.8374555,1.458974,0.1975999,0.5048392,1.004918,0.2554872,313.3818,256.1065,341.561,False
0,0.4333333,0.04603931,-0.1099365,-0.07513662,-1.530717,-4.377889,-2.918779,0.7121005,1.198619,0.4182789,-1.023033,-0.04234252,0.2,1.7,0.2106006,-0.2013572,0.02198948,-0.5743064,-4.534369,0.003744405,0.749747,1.42899,0.3505223,0.1699737,-0.269466,-0.00530894,-1.007358,0.1763053,0.06625172,0.8375237,1.458979,0.1967993,0.5052751,1.004911,0.25543,313.3681,255.9814,341.6973,False
0,0.4444444,0.05138794,-0.1227478,-0.0825291,-1.52913,-4.376398,-2.919506,0.7127635,1.198775,0.4181528,-1.02272,0.02894392,0.2,1.7,0.2212426,-0.2088762,0.02396617,-0.5738841,-4.538925,0.004711665,0.7503707,1.429018,0.3499851,0.1775156,-0.2843664,0.004228173,-1.007325,0.1718917,0.06639846,0.8376813,1.458986,0.1959195,0.5058978,1.004848,0.2553489,313.344,255.8303,341.8438,False
0,0.4555556,0.0525108,-0.1483242,-0.08452217,-1.52754,-4.374047,-2.920237,0.7134302,1.198976,0.4179435,-1.023388,-0.06149961,0.2,1.7,0.2277394,-0.1961681,0.02934604,-0.5733743,-4.54213,0.004605937,0.7510524,1.429114,0.3494754,0.1871897,-0.3045901,0.01482697,-1.007097,0.1670084,0.06662776,0.8376926,1.458983,0.1950004,0.5067099,1.004712,0.2552237,313.3561,255.6512,341.9958,False
0,0.4666667,0.05680108,-0.1611382,-0.09083977,-1.5259,-4.371984,-2.921101,0.7140784,1.199125,0.4178641,-1.022649,0.06810026,0.2,1.7,0.2387119,-0.1687111,0.05185712,-0.5720156,-4.543667,0.002933206,0.7518176,1.429229,0.3490114,0.1947317,-0.3162954,0.02436549,-1.00673,0.1622424,0.06678702,0.8377323,1.458987,0.194103,0.5077664,1.0045,0.2550596,313.3757,255.3894,342.172,False
0,0.4777778,0.05042935,-0.1696959,-0.09505631,-1.524205,-4.370158,-2.921534,0.7147949,1.199369,0.4177904,-1.022424,0.01984152,0.2,0.8,0.2516857,-0.1614681,0.06991855,-0.5705429,-4.546485,0.002007491,0.7525779,1.429316,0.3484755,0.1969173,-0.3173501,0.02967184,-1.006428,0.1579538,0.06678729,0.8377967,1.458967,0.1932364,0.5089682,1.004188,0.2548618,313.4697,255.1682,342.2912,False
0,0.4888889,0.05043115,-0.1676136,-0.1035882,-1.522418,-4.368733,-2.922279,0.7156726,1.199762,0.4177043,-1.022488,-0.006050404,0.2,0.8,0.274253,-0.1671081,0.09524344,-0.5685455,-4.550259,0.001256746,0.753424,1.429413,0.3478866,0.2086532,-0.3280059,0.03277005,-1.006248,0.1531536,0.06667437,0.8378474,1.458967,0.1923642,0.5102441,1.003807,0.2546039,313.614,254.9216,342.4293,False
0,0.5,0.04722908,-0.1697664,-0.1057056,-1.520741,-4.367037,-2.922652,0.7165048,1.199999,0.4176209,-1.02203,0.04195803,0.2,0.8,0.2955159,-0.1832145,0.09811592,-0.567396,-4.555245,0.00130415,0.7544018,1.429466,0.3473165,0.2160434,-0.3471946,0.02847579,-1.00643,0.1478153,0.06689062,0.8379667,1.458967,0.1914036,0.511534,1.003398,0.2543134,313.7718,254.6515,342.5386,False
0,0.5111111,0.03229022,-0.159177,-0.1121541,-1.518859,-4.366028,-2.922516,0.7175618,1.200237,0.4175415,-1.022278,-0.02308913,0.2,0.8,0.3249236,-0.2075465,0.06249579,-0.5679516,-4.561028,0.001546231,0.755384,1.429443,0.3467641,0.2288503,-0.3685091,0.03371822,-1.006205,0.1417992,0.06719662,0.8381056,1.458845,0.1902368,0.512825,1.003054,0.2540551,313.9529,254.3895,342.6318,False
0,0.5222223,0.0290715,-0.1528191,-0.1164468,-1.517127,-4.364835,-2.922732,0.7183309,1.200471,0.4174595,-1.02191,0.03395044,0.2,0.8,0.3395557,-0.2223174,0.03773456,-0.5684181,-4.566496,0.001916411,0.7562537,1.429521,0.3462598,0.2438345,-0.3855456,0.04212676,-1.00574,0.1360048,0.0670504,0.8381195,1.458816,0.1892338,0.5141203,1.002858,0.2538897,314.0916,254.1472,342.7397,False
0,0.5333334,0.03011749,-0.1432392,-0.1186342,-1.515444,-4.363939,-2.923202,0.7193943,1.20075,0.4173217,-1.021403,0.04597569,0.3,0.2,0.3629116,-0.2533809,0.04472438,-0.5677178,-4.573799,0.00317289,0.7572263,1.42963,0.3456945,0.2470969,-0.395119,0.05064304,-1.005144,0.1303075,0.06741579,0.8381943,1.458785,0.1881094,0.5153432,1.002781,0.253805,314.1498,253.9365,342.8664,False
0,0.5444446,0.03011749,-0.1432392,-0.1186342,-1.515444,-4.363939,-2.923202,0.7193943,1.20075,0.4173217,-1.021738,-0.03089548,0.3,0.2,0.3629116,-0.2533809,0.04472438,-0.5677178,-4.573799,0.00317289,0.7572263,1.42963,0.3456945,0.2470969,-0.395119,0.05064304,-1.005144,0.1303075,0.06741579,0.8381943,1.458785,0.1881094,0.5164556,1.002815,0.2538037,314.1676,253.7589,342.9957,False
0,0.5555557,0.02688017,-0.1229999,-0.1166031,-1.514205,-4.363447,-2.923458,0.7205343,1.200983,0.4172254,-1.021673,0.006198368,0.3,0.2,0.3769278,-0.2685996,0.07217645,-0.5657929,-4.580575,0.004210458,0.7581611,1.429792,0.3451154,0.2492992,-0.400429,0.05808326,-1.00463,0.1247475,0.06758437,0.8383812,1.45884,0.1871152,0.5172154,1.002847,0.2538103,314.2028,253.6277,343.0603,False
0,0.5666668,0.02682953,-0.1027564,-0.1156468,-1.512845,-4.363239,-2.923695,0.7216219,1.201324,0.417094,-1.022107,-0.03968961,0.3,0.2,0.3910553,-0.2582365,0.0987796,-0.5635893,-4.585116,0.003169961,0.7591558,1.429815,0.3445575,0.2439543,-0.4068179,0.0581596,-1.004274,0.1189559,0.06833911,0.8384687,1.458976,0.186167,0.5175252,1.002856,0.2538141,314.2217,253.6194,343.0724,False
0,0.577778,0.04925536,-0.128324,-0.1251045,-1.51064,-4.361291,-2.925188,0.7226817,1.20164,0.4169734,-1.021971,0.01282635,0.3,0.2,0.4028456,-0.2444491,0.0998658,-0.5624911,-4.588985,0.001653557,0.7602011,1.42978,0.3439722,0.2481676,-0.4025739,0.05491127,-1.004072,0.1138404,0.06843818,0.838613,1.459014,0.1851079,0.5180637,1.003101,0.2539765,314.0896,253.5545,343.2694,False
0,0.5888891,0.05659544,-0.07605394,-0.1158035,-1.509926,-4.362671,-2.925992,0.7237049,1.201904,0.4168811,-1.021946,0.00206337,0.3,0,0.415567,-0.2551505,0.09860134,-0.5614694,-4.594984,0.001765143,0.7611434,1.4298,0.3434215,0.2525211,-0.4132082,0.06448591,-1.003267,0.1079197,0.06864857,0.8386362,1.45903,0.1841366,0.5189102,1.003506,0.2542478,313.9313,253.5131,343.4591,False
0,0.6000003,0.05331096,-0.03663271,-0.1138822,-1.50899,-4.36393,-2.926359,0.7248244,1.202078,0.4167824,-1.023069,-0.102669,0.3,0,0.4506185,-0.266973,0.0917991,-0.5607786,-4.601396,0.00087618,0.7621768,1.429851,0.3427205,0.2578133,-0.4132188,0.06337308,-1.002857,0.1024229,0.06884538,0.8386893,1.45913,0.183095,0.5199718,1.003945,0.2545358,313.813,253.4386,343.6543,False
0,0.6111114,0.05324284,-0.008923181,-0.1108352,-1.508066,-4.364992,-2.926794,0.7259561,1.202248,0.4166927,-1.022621,0.04172072,0.3,0,0.471844,-0.2466621,0.07154866,-0.560703,-4.605175,-0.00196275,0.7633256,1.429835,0.3421431,0.2611368,-0.4004051,0.07395945,-1.001946,0.09775679,0.06829357,0.838657,1.459185,0.1820924,0.5211885,1.004269,0.2547665,313.7154,253.2908,343.8325,False
0,0.6222225,0.05316341,0.02728238,-0.113162,-1.507043,-4.366782,-2.927324,0.7268925,1.202492,0.4167128,-1.022044,0.05233665,0.3,0,0.4982234,-0.2508163,0.04464502,-0.5612543,-4.610581,-0.003871704,0.7645251,1.429743,0.3416443,0.2752147,-0.3961028,0.09510874,-1.000353,0.09264778,0.0674885,0.8387172,1.459295,0.1811304,0.5223339,1.004359,0.2549583,313.7303,253.309,343.7931,False
0,0.6333337,0.04775245,0.06451113,-0.1208113,-1.50599,-4.368951,-2.927574,0.727889,1.202621,0.4165545,-1.022017,0.002005399,0.3,0,0.4741082,-0.2928488,-0.01091197,-0.5633848,-4.619713,-0.0004490089,0.7657678,1.429695,0.3410761,0.2922293,-0.4152735,0.09497789,-0.9996282,0.08662025,0.06699981,0.8388162,1.459243,0.1800125,0.5233882,1.004242,0.2551724,313.8022,253.3366,343.7738,False
0,0.6444448,0.04131848,0.08145549,-0.1368806,-1.504256,-4.370819,-2.927702,0.7289654,1.202822,0.4164119,-1.022154,-0.01250006,0.2,0,0.4460242,-0.3244416,-0.0386399,-0.5648857,-4.628604,0.003161971,0.7668878,1.429638,0.3404477,0.3102294,-0.4344884,0.08631234,-0.9993411,0.08001468,0.06646371,0.8389505,1.459278,0.1789763,0.5243759,1.003996,0.2554473,313.9243,253.3183,343.8113,False
0,0.655556,0.02104347,0.09512781,-0.1614451,-1.502044,-4.372876,-2.927151,0.7302437,1.202952,0.4162111,-1.02191,0.02241124,0.2,0,0.44294,-0.3245244,-0.02689384,-0.5646344,-4.635088,0.003622698,0.767907,1.429633,0.3397579,0.318691,-0.4302242,0.07981342,-0.9990093,0.07498156,0.06540085,0.8391346,1.459403,0.1779406,0.5252333,1.003686,0.2558308,314.0794,253.3082,343.8521,False
0,0.6666671,-0.006682489,0.1077286,-0.1828055,-1.499787,-4.374937,-2.926099,0.7316349,1.203145,0.4158626,-1.02175,0.01446016,0.2,0,0.4455407,-0.2747105,0.001211772,-0.5636011,-4.637814,0.0008564726,0.7689866,1.429618,0.3391232,0.3208507,-0.4099601,0.08079371,-0.998409,0.07067284,0.06412706,0.8393393,1.459547,0.1769705,0.525961,1.003381,0.2563454,314.2075,253.3318,343.9503,False
0,0.6777782,-0.05361731,0.133099,-0.1999765,-1.49747,-4.377791,-2.923782,0.7332265,1.203275,0.4155712,-1.021118,0.0576489,0.2,0,0.4372321,-0.2406397,0.007969176,-0.5632612,-4.64064,-0.001325455,0.7700343,1.429523,0.3385115,0.3134007,-0.3875775,0.08082543,-0.9976249,0.06645839,0.06332118,0.8395391,1.459365,0.1758451,0.5266585,1.003169,0.2570075,314.2701,253.3229,344.1503,False
0,0.6888894,-0.08134437,0.146879,-0.2011057,-1.495841,-4.380294,-2.921788,0.7345728,1.203489,0.4153183,-1.020656,0.04186108,0.5,0,0.4267893,-0.1969298,0.009500746,-0.5631286,-4.641922,-0.004450675,0.7711728,1.429603,0.3379054,0.3133558,-0.3811741,0.07549062,-0.9971163,0.06209067,0.06226604,0.8396454,1.45944,0.1749089,0.5273681,1.003088,0.2577862,314.2824,253.3238,344.4146,False
0,0.7000005,-0.09634323,0.1830346,-0.2076847,-1.494156,-4.384059,-2.919975,0.7360712,1.203689,0.4150686,-1.019593,0.09697529,0.5,0,0.465867,-0.1486015,0.06710383,-0.5605443,-4.642031,-0.01077408,0.7725988,1.429716,0.3372927,0.3110676,-0.3918399,0.06169267,-0.9971679,0.05675769,0.06184659,0.8397802,1.459596,0.1740177,0.5280961,1.003171,0.2586033,314.2681,253.3551,344.7,False
0,0.7111117,-0.09327187,0.2384678,-0.2015906,-1.493223,-4.388899,-2.918727,0.737489,1.203868,0.4147573,-1.020032,-0.04071294,0.5,0,0.5055507,-0.1576031,0.1018407,-0.5582625,-4.645895,-0.01444738,0.7740394,1.429746,0.3366692,0.3193216,-0.4195689,0.03930236,-0.9977672,0.05065199,0.06142901,0.8399249,1.459608,0.173022,0.5287666,1.003439,0.2593897,314.261,253.4212,344.9331,False
0,0.7222228,-0.09660533,0.3013598,-0.1934066,-1.4926,-4.394735,-2.917122,0.7390423,1.204002,0.4143898,-1.020615,-0.05267629,0.5,0,0.5427995,-0.2315786,0.1360379,-0.555626,-4.655546,-0.01366521,0.7757105,1.42983,0.3360424,0.3299859,-0.4504545,0.04459446,-0.9974092,0.04352164,0.06137654,0.8400978,1.459665,0.171912,0.5292948,1.003917,0.2600753,314.2247,253.5135,345.1027,False
0,0.7333339,-0.10315,0.3684633,-0.1927004,-1.491952,-4.401333,-2.915225,0.7405946,1.204054,0.4139962,-1.021491,-0.07950397,0.5,0,0.5633675,-0.3433211,0.1104069,-0.5552068,-4.669618,-0.008411062,0.7772864,1.429747,0.3354239,0.3427713,-0.473872,0.04559347,-0.9970241,0.03672539,0.0607214,0.8401812,1.459766,0.170886,0.5296781,1.004599,0.2606899,314.1021,253.6634,345.1779,False
0,0.7444451,-0.1064615,0.4217389,-0.1897917,-1.491386,-4.408134,-2.913453,0.7422386,1.204127,0.4135666,-1.021403,0.008790347,0.7,0,0.5679035,-0.4099813,0.05439457,-0.556492,-4.682555,-0.003930559,0.7788409,1.429642,0.3348446,0.3587618,-0.4876773,0.04652226,-0.9966891,0.03058095,0.05947132,0.8404104,1.459886,0.1697381,0.5299083,1.005414,0.2612879,313.8878,253.9248,345.1552,False
0,0.7555562,-0.127941,0.4972645,-0.2019082,-1.490639,-4.416765,-2.910578,0.743999,1.204033,0.4130764,-1.021231,0.01561386,0.7,0,0.5689785,-0.4667418,-0.03665729,-0.5600356,-4.695567,0.0008106662,0.7803512,1.429397,0.3342705,0.367261,-0.4961904,0.04538827,-0.9965613,0.02397524,0.05877597,0.8405921,1.459842,0.1687787,0.5300313,1.006281,0.2619347,313.6182,254.2614,345.0999,False
0,0.7666674,-0.1493902,0.5578356,-0.2214034,-1.489439,-4.42541,-2.907519,0.7459074,1.203967,0.4126399,-1.021442,-0.01937642,0.7,0,0.5696347,-0.4577737,-0.0887859,-0.5626854,-4.704289,0.001866077,0.7817782,1.429182,0.3337042,0.3682824,-0.4951364,0.04111356,-0.9965879,0.01748778,0.05819806,0.8407854,1.459833,0.1677966,0.5300701,1.007121,0.2626839,313.3418,254.6213,345.0639,False
0,0.7777785,-0.1729581,0.6152625,-0.2302242,-1.488751,-4.434533,-2.904109,0.747911,1.203888,0.412219,-1.020618,0.07558636,0.7,0,0.555926,-0.4214675,-0.09156188,-0.5637299,-4.710737,0.001582983,0.7832098,1.429006,0.3330598,0.3682694,-0.4918905,0.03788213,-0.9967402,0.01201365,0.05706249,0.8409514,1.460054,0.1668262,0.5300981,1.007893,0.2635822,313.074,255.0024,345.0529,False
0,0.7888896,-0.182631,0.6524884,-0.2368117,-1.488014,-4.443399,-2.901082,0.7498611,1.203839,0.4117942,-1.020496,0.010588,0.8,0,0.5445002,-0.3992423,-0.06890512,-0.5636011,1.565499,0.001875931,0.7847087,1.428948,0.3323996,0.370518,-0.4854895,0.04851508,-0.9959754,0.005659483,0.05630855,0.8409344,1.459788,0.1659708,0.5300733,1.00855,0.2646846,312.8484,255.423,345.0416,False
0,0.8000008,-0.1965556,0.6854824,-0.2369798,-1.487636,-4.452517,-2.897666,0.752013,1.203738,0.4113986,-1.020374,0.01119593,0.8,0,0.5451741,-0.3742272,-0.004759542,-0.5614231,1.559147,0.001165133,0.7862368,1.428842,0.3317075,0.3684759,-0.4801186,0.05704568,-0.9953042,-0.000162586,0.05556419,0.8410656,1.459688,0.1650014,0.5300767,1.009149,0.2660524,312.6616,255.8457,345.0853,False
0,0.8111119,-0.1998659,0.7388357,-0.2191522,-1.488275,-4.462759,-2.894461,0.7542708,1.203612,0.4110138,-1.020912,-0.04904846,0.8,0,0.5671454,-0.3643031,0.06758799,-0.5582817,1.55165,0.000442351,0.7879614,1.428808,0.3309891,0.3685488,-0.4822487,0.0645283,-0.9945149,-0.0071157,0.05518469,0.8411728,1.459506,0.1642339,0.530117,1.009737,0.2676672,312.5221,256.3325,345.161,False
0,0.8222231,-0.1967394,0.771943,-0.2054797,-1.488909,-4.472752,-2.891547,0.756452,1.20353,0.4105709,-1.020767,0.01373555,0.8,0,0.5951721,-0.3604841,0.1036062,-0.5559088,1.544083,-0.0007858988,0.7896994,1.428749,0.3302805,0.3642986,-0.4939753,0.06674728,-0.9939173,-0.01454938,0.05523343,0.8412731,1.459386,0.1633091,0.5302114,1.010346,0.2694556,312.378,256.8469,345.2901,False
0,0.8333342,-0.1872464,0.8210163,-0.1972207,-1.489762,-4.483744,-2.889028,0.7585138,1.20343,0.4101648,-1.021182,-0.03799225,0.8,0,0.602544,-0.3775595,0.1034016,-0.5547956,1.535122,-4.79369E-05,0.7915016,1.428619,0.3295305,0.3653087,-0.5046399,0.06250113,-0.9937085,-0.02174338,0.05504381,0.8414592,1.459321,0.1623824,0.5304068,1.011009,0.27134,312.2244,257.4407,345.383,False
0,0.8444453,-0.1788216,0.8679644,-0.1878918,-1.490749,-4.494995,-2.88648,0.760785,1.203312,0.4097142,-1.0216,-0.0378004,0.8,0,0.6118962,-0.4276708,0.1028911,-0.5536925,1.523158,0.003107376,0.7933275,1.428556,0.3288524,0.3651689,-0.5302514,0.05191823,-0.9938294,-0.03001223,0.05550108,0.8417853,1.459191,0.1614711,0.5306761,1.01173,0.2732443,312.0684,258.1482,345.3831,False
0,0.8555565,-0.1778361,0.8988476,-0.190194,-1.491361,-4.506203,-2.883549,0.7630389,1.203245,0.4092543,-1.022153,-0.05023408,0.8,0,0.6254143,-0.4712785,0.08747405,-0.5533766,1.510739,0.006268016,0.7950929,1.428418,0.3281591,0.3703812,-0.539849,0.04123389,-0.9939786,-0.03716175,0.05510879,0.8420302,1.458953,0.1603594,0.5309446,1.012467,0.2750838,311.9151,258.8462,345.3584,False
0,0.8666676,-0.1779349,0.942443,-0.2053508,-1.491583,-4.518212,-2.880637,0.765345,1.203037,0.4086537,-1.022193,-0.003199594,0.8,0,0.6418151,-0.5531107,0.05573678,-0.5539556,1.494069,0.01278211,0.7967649,1.42824,0.327549,0.3648879,-0.5377169,0.02421716,-0.9947605,-0.04355161,0.05478122,0.8425027,1.458978,0.1594512,0.531167,1.013188,0.2768627,311.7439,259.5462,345.2663,False
0,0.8777788,-0.1779999,0.9690249,-0.2150793,-1.491961,-4.530002,-2.877728,0.7676145,1.20286,0.4081495,-1.021786,0.03720083,0.8,0,0.6499301,-0.5645215,0.01507902,-0.5551732,1.481985,0.01569987,0.7982081,1.428049,0.3269818,0.3563085,-0.5153425,0.01785521,-0.9950507,-0.04916768,0.05432849,0.8426014,1.459128,0.1585486,0.531444,1.013906,0.2786269,311.5489,260.2521,345.1497,False
0,0.8888899,-0.1696012,1.015753,-0.2451619,-1.491709,-4.543241,-2.87498,0.7698745,1.202696,0.407599,-1.021829,-0.004317902,0.8,0,0.637086,-0.5044711,-0.02371478,-0.5567498,1.475217,0.01482582,0.7995608,1.427878,0.3263986,0.3425305,-0.4887007,0.02221317,-0.9948148,-0.05483688,0.05404965,0.8427942,1.459014,0.1577497,0.5317515,1.014597,0.2803986,311.3575,260.9177,345.064,False
0,0.900001,-0.151603,1.061483,-0.2677711,-1.491769,-4.556911,-2.872812,0.7720917,1.202683,0.4071708,-1.021842,-0.001097061,0.7,0,0.6138377,-0.4542533,-0.02840669,-0.5570859,1.468729,0.01434565,0.8010217,1.427826,0.3257239,0.3395242,-0.4811364,0.03605106,-0.9942502,-0.06007559,0.05307654,0.8431321,1.45888,0.1566114,0.5320486,1.015229,0.2822222,311.1604,261.5745,344.9845,False
0,0.9111122,-0.1388781,1.091249,-0.2849748,-1.491729,-4.570343,-2.870737,0.7742608,1.202562,0.4067311,-1.02213,-0.0263236,0.7,0,0.5792241,-0.3989776,0.005395508,-0.5558832,1.463782,0.01334377,0.802361,1.427713,0.325098,0.3332746,-0.4757185,0.04675163,-0.9935775,-0.06538553,0.0524222,0.8433484,1.45869,0.1556964,0.5323319,1.015807,0.2841513,310.9913,262.2372,344.8903,False
0,0.9222233,-0.1325133,1.100811,-0.2924776,-1.491817,-4.583198,-2.868428,0.7764342,1.202463,0.4063222,-1.022748,-0.05631304,0.7,0,0.5446771,-0.3716206,0.06239858,-0.5533261,1.457192,0.01417601,0.8038663,1.427744,0.3243968,0.3268499,-0.4671994,0.04254696,-0.9934203,-0.07120933,0.05219529,0.8436478,1.458621,0.1548879,0.5325595,1.016336,0.2862918,310.8642,262.913,344.7751,False
0,0.9333345,-0.1250493,1.095492,-0.2945766,-1.491855,-4.595544,-2.866318,0.7786402,1.202401,0.4059544,-1.022817,-0.005871072,0.7,0,0.5463676,-0.3604788,0.1295944,-0.5498804,1.450117,0.01418346,0.8052806,1.42768,0.3238108,0.3171298,-0.4576277,0.02771049,-0.9938837,-0.07671022,0.05191646,0.8438956,1.458558,0.1543481,0.5327642,1.016855,0.2887458,310.7493,263.6387,344.6702,False
0,0.9444456,-0.1154463,1.088038,-0.2987993,-1.491765,-4.607867,-2.864389,0.7807057,1.202347,0.405597,-1.022449,0.03355124,0.5,0,0.5712745,-0.3428032,0.1668223,-0.5468663,1.443772,0.01243936,0.8067488,1.427689,0.3231843,0.3126608,-0.4427544,0.006417099,-0.9947269,-0.08182536,0.05138063,0.8441176,1.458521,0.1536682,0.5329602,1.01734,0.2915116,310.6056,264.4046,344.6573,False
0,0.9555568,-0.107913,1.061409,-0.3018497,-1.491454,-4.6193,-2.862669,0.7825923,1.202307,0.4053528,-1.022496,-0.004666586,0.5,0,0.5831368,-0.3322929,0.1774642,-0.5446308,1.437357,0.0110167,0.808148,1.427655,0.3226452,0.2987663,-0.4235868,0.00332791,-0.9949836,-0.08681452,0.05146346,0.8443456,1.458467,0.1531782,0.5332222,1.017806,0.2945023,310.4652,265.1938,344.7402,False
0,0.9666679,-0.09932777,1.030478,-0.3134072,-1.490572,-4.63057,-2.860929,0.7845196,1.202346,0.4050946,-1.022621,-0.01140986,0.5,0,0.5603936,-0.3543071,0.1476436,-0.5440897,1.428187,0.01349211,0.8095206,1.427666,0.3220665,0.2891816,-0.4203951,0.003441053,-0.9949996,-0.09251741,0.05160993,0.8444878,1.458355,0.1525178,0.5335903,1.018262,0.297592,310.3407,265.9732,344.8755,False
0,0.977779,-0.09923303,0.9867352,-0.3259477,-1.489419,-4.641,-2.858973,0.786291,1.202512,0.4049227,-1.0227,-0.007092588,0.5,0,0.5387706,-0.3571025,0.1126556,-0.5439528,1.420271,0.01494646,0.8109237,1.427606,0.3214624,0.2815663,-0.4257831,-0.006046589,-0.9957112,-0.09888463,0.0525447,0.8447163,1.458423,0.1520934,0.5339843,1.018672,0.300669,310.2408,266.7133,345.0138,False
0,0.9888902,-0.1076689,0.9408123,-0.3448785,-1.487642,-4.651139,-2.856521,0.7881182,1.202793,0.4047747,-1.0226,0.009073991,0.5,0,0.5215942,-0.3633184,0.1010334,-0.5431959,1.411965,0.01664902,0.8122998,1.427598,0.3208244,0.2794003,-0.427923,-0.00919657,-0.9960079,-0.1047721,0.05265575,0.8449019,1.458355,0.151475,0.5343836,1.019026,0.3036521,310.1549,267.3696,345.1596,False
0,1.000001,-0.1192896,0.8937919,-0.368051,-1.485479,-4.66073,-2.85401,0.7898,1.203082,0.4046223,-1.022247,0.03209949,0.5,0,0.5099365,-0.3654899,0.1107065,-0.5416337,1.403666,0.01855691,0.8137527,1.427709,0.3201952,0.2739245,-0.425867,-0.01553056,-0.996745,-0.1109928,0.05380118,0.8451273,1.45841,0.1508336,0.5348315,1.01936,0.3065088,310.0927,267.9354,345.3116,False
0,1.011112,-0.1373257,0.8584627,-0.3934235,-1.482956,-4.670411,-2.851102,0.7915924,1.203391,0.4045007,-1.021681,0.0514476,1.1,0,0.4951006,-0.3783409,0.126705,-0.5397386,1.394469,0.02146295,0.8150984,1.427762,0.3195832,0.2675041,-0.4216183,-0.01866208,-0.9972633,-0.1165756,0.05403314,0.8453811,1.458308,0.1502788,0.535322,1.019723,0.3092239,310.0686,268.4075,345.4739,False
0,1.022224,-0.1468871,0.8456045,-0.4040008,-1.480998,-4.680626,-2.848266,0.7933606,1.203624,0.404345,-1.02156,0.01068574,1.1,0,0.4675113,-0.4050701,0.1533354,-0.5373295,1.383647,0.02642122,0.8163463,1.427797,0.3190241,0.2567894,-0.4131286,-0.02389564,-0.9979551,-0.1221816,0.05465872,0.8457226,1.457994,0.149518,0.5358416,1.020183,0.3118146,310.0557,268.7895,345.657,False
0,1.033335,-0.1606989,0.8369715,-0.4188595,-1.478752,-4.690819,-2.845241,0.795067,1.203872,0.4042995,-1.021248,0.02851075,1.1,0,0.4515304,-0.40178,0.1513699,-0.5358499,1.375101,0.02926042,0.8175943,1.427849,0.3184555,0.2503477,-0.400389,-0.0281142,-0.99867,-0.1275183,0.05504967,0.8459697,1.457965,0.1491113,0.5363232,1.02077,0.3143089,310.0004,269.1082,345.8511,False
0,1.044446,-0.1692244,0.8369576,-0.418845,-1.477171,-4.701213,-2.842143,0.79682,1.204123,0.4042389,-1.02143,-0.01686229,0.9,0,0.435624,-0.3792948,0.1474368,-0.5345182,1.368391,0.03065006,0.8187889,1.427959,0.3179643,0.2471417,-0.3940073,-0.02915561,-0.9992159,-0.1326185,0.05516818,0.8461574,1.457841,0.1486108,0.5367722,1.021517,0.3167711,309.8853,269.4301,346.0071,False
0,1.055557,-0.1809469,0.8411925,-0.4209747,-1.47563,-4.711804,-2.838807,0.7984049,1.204537,0.4042695,-1.021368,0.005978982,0.9,0,0.4325046,-0.3665123,0.1496976,-0.5329337,1.361186,0.03214382,0.820037,1.428023,0.3174243,0.2439111,-0.3854916,-0.03340398,-0.9999658,-0.1372842,0.0551008,0.8463925,1.457776,0.1481423,0.5371422,1.0224,0.3192684,309.7048,269.8192,346.0976,False
0,1.066668,-0.1937316,0.8443895,-0.4167274,-1.474191,1.560859,-2.835221,0.8001785,1.204925,0.4042299,-1.021395,-0.002528823,0.9,0,0.4207975,-0.3718308,0.1540196,-0.531209,1.352262,0.03553749,0.8212616,1.428245,0.3168852,0.2278646,-0.3706065,-0.03967443,-1.000995,-0.1419927,0.05584516,0.8468699,1.457629,0.1474097,0.5374354,1.02339,0.3218678,309.4858,270.2234,346.1838,False
0,1.077779,-0.2022651,0.8486488,-0.4135494,-1.472821,1.550271,-2.831643,0.8018364,1.2053,0.4041789,-1.021278,0.0108182,0.9,0,0.3920997,-0.3653467,0.1585886,-0.529413,1.344351,0.03896151,0.8224716,1.428347,0.3163488,0.2183183,-0.3663624,-0.03319434,-1.001465,-0.1472576,0.05678392,0.8471646,1.457525,0.1468799,0.5376844,1.024481,0.3246016,309.2717,270.6913,346.2545,False
0,1.08889,-0.213952,0.837976,-0.41348,-1.471259,1.54035,-2.827959,0.8034215,1.205662,0.4040921,-1.021115,0.01494003,0.9,0,0.3783277,-0.367495,0.1682829,-0.5273623,1.335898,0.04250272,0.8236967,1.428495,0.3157978,0.2140373,-0.3631718,-0.03528985,-1.002173,-0.1519542,0.05709365,0.8474418,1.45746,0.1464093,0.5378884,1.025677,0.3274858,309.0736,271.1796,346.355,False
0,1.100002,-0.2373573,0.824065,-0.4155231,-1.469546,1.530645,-2.823555,0.8050435,1.206073,0.4040475,-1.021227,-0.010352,0.8,0,0.3762123,-0.3846363,0.1798836,-0.5250763,1.325773,0.04714674,0.8248006,1.428559,0.3151786,0.2064749,-0.3589438,-0.04587122,-1.003252,-0.1567273,0.05761563,0.8477715,1.457337,0.1458549,0.5381268,1.026997,0.3304936,308.8405,271.6885,346.5019,False
0,1.111113,-0.2639133,0.7984381,-0.4153746,-1.467725,1.521661,-2.818932,0.8066149,1.206463,0.4040151,-1.021186,0.003918843,0.8,0,0.3590519,-0.3972732,0.1724675,-0.5236595,1.316012,0.05206347,0.8257484,1.428758,0.3147497,0.1967198,-0.3579088,-0.06175025,-1.004707,-0.1613511,0.05827875,0.8480033,1.457282,0.1454329,0.5383483,1.028386,0.3335744,308.5699,272.209,346.6849,False
0,1.122224,-0.2947209,0.7600389,-0.4098231,-1.465991,1.513845,-2.813912,0.8082884,1.206959,0.4039927,-1.020574,0.05598313,0.8,0,0.3334112,-0.3992145,0.1641463,-0.5223881,1.307106,0.05687207,0.8265334,1.428939,0.3142757,0.1730466,-0.337732,-0.08179202,-1.006557,-0.165327,0.05978717,0.8483006,1.457246,0.145196,0.5385633,1.029802,0.3366458,308.2782,272.6922,346.9157,False
0,1.133335,-0.3127782,0.7440588,-0.4033386,-1.46451,1.505133,-2.809083,0.8100684,1.207389,0.4038544,-1.020392,0.01623441,0.8,0,0.3280498,-0.3831016,0.1515462,-0.5213675,1.299597,0.05994696,0.8274134,1.429079,0.3138707,0.1591381,-0.3153634,-0.09022394,-1.008008,-0.1684226,0.06015655,0.8485457,1.457154,0.1448827,0.5387915,1.031244,0.3396408,308.0061,273.1252,347.1602,False
0,1.144446,-0.3149042,0.7462221,-0.4022547,-1.463278,1.495411,-2.804626,0.8118488,1.207845,0.403846,-1.020082,0.02842286,0.8,0,0.3283308,-0.338436,0.1593833,-0.5194522,1.294601,0.06047293,0.8284159,1.429298,0.3135614,0.1441555,-0.2642751,-0.09976947,-1.009465,-0.1703013,0.0603672,0.8487405,1.457181,0.1445792,0.5390662,1.032738,0.3424863,307.745,273.5048,347.4196,False
0,1.155557,-0.310692,0.7761033,-0.3949634,-1.462514,1.484792,-2.800312,0.8136002,1.208382,0.4036295,-1.020558,-0.04359104,0.8,0,0.3407971,-0.2696803,0.2099488,-0.5153568,1.292627,0.05812722,0.8292806,1.429426,0.3132622,0.1295032,-0.2258558,-0.07946955,-1.009682,-0.1716716,0.06012113,0.8490157,1.457166,0.1443367,0.539463,1.034343,0.3450935,307.4909,273.8508,347.6645,False
0,1.166668,-0.2969491,0.8305536,-0.3792483,-1.46296,1.473192,-2.796474,0.8153231,1.208669,0.4034152,-1.021279,-0.06537317,0.8,0,0.3574474,-0.2276234,0.2655635,-0.5106878,1.289698,0.0562409,0.8301144,1.429568,0.3128591,0.125374,-0.2013515,-0.06776745,-1.010198,-0.1737739,0.06017279,0.8493682,1.457127,0.1440423,0.5399444,1.036052,0.3474731,307.2104,274.2156,347.7827,False
0,1.17778,-0.2800704,0.9073991,-0.3593764,-1.464385,1.460304,-2.792692,0.8169283,1.208899,0.4032173,-1.021705,-0.03832172,0.8,0,0.3512133,-0.2384593,0.2889538,-0.5070888,1.282729,0.05860579,0.8310935,1.429786,0.3123486,0.1254554,-0.198138,-0.06031841,-1.010736,-0.1761882,0.0600668,0.8496417,1.457102,0.1437449,0.5404407,1.037822,0.3497534,306.92,274.6296,347.7504,False
0,1.188891,-0.27534,0.9884482,-0.34752,-1.465049,1.447153,-2.788232,0.8184794,1.209104,0.4029293,-1.022356,-0.05923297,0.8,0,0.3584766,-0.2564899,0.2759555,-0.5046909,1.275228,0.06091715,0.8320603,1.429932,0.3119774,0.1252962,-0.2184094,-0.07306048,-1.012303,-0.1799493,0.060625,0.8499854,1.457034,0.1434641,0.5408853,1.039605,0.3520636,306.6213,275.1462,347.6311,False
0,1.200002,-0.2803167,1.028956,-0.3365966,-1.466858,1.433189,-2.783689,0.819862,1.209188,0.4026885,-1.022583,-0.0201351,1,0,0.3611354,-0.288082,0.2309168,-0.5040101,1.266245,0.06461095,0.8331121,1.430007,0.3117671,0.1314396,-0.2302154,-0.09227337,-1.014375,-0.183967,0.06139492,0.8503184,1.456923,0.1432059,0.5412191,1.04131,0.3545167,306.2889,275.8394,347.3925,False
0,1.211113,-0.2867684,1.059875,-0.3293045,-1.46817,1.419906,-2.778961,0.8210406,1.209153,0.4025602,-1.021894,0.0629874,1,0,0.3576517,-0.3348806,0.2230949,-0.502098,1.254696,0.07087577,0.834013,1.429979,0.3115551,0.1365221,-0.2313467,-0.1157642,-1.016809,-0.1869634,0.06125856,0.8506762,1.456823,0.1430466,0.5414227,1.042869,0.3572074,305.9691,276.6559,347.1151,False
0,1.222224,-0.2899714,1.058774,-0.3324652,-1.468895,1.40784,-2.774426,0.8223681,1.209361,0.4024534,-1.021787,0.009137211,1,0,0.3659683,-0.3304455,0.1964392,-0.5008021,1.246969,0.07320284,0.8349405,1.429975,0.311306,0.1364883,-0.2196587,-0.1179239,-1.01842,-0.189626,0.06148307,0.8509017,1.457025,0.1426609,0.5415109,1.044268,0.3601904,305.7072,277.4605,346.9291,False
0,1.233335,-0.3048069,1.014999,-0.3450194,-1.468429,1.397071,-2.769232,0.8233788,1.209372,0.4024994,-1.021545,0.02223565,1,0,0.3678287,-0.3184206,0.1592489,-0.5004075,1.240241,0.07498663,0.8358071,1.429904,0.3111165,0.1312694,-0.190873,-0.1115455,-1.01955,-0.1908504,0.06081648,0.8511472,1.456964,0.1425529,0.5414579,1.045535,0.3634903,305.4854,278.3508,346.7455,False
0,1.244446,-0.3154119,0.988306,-0.3512579,-1.468339,1.386169,-2.764222,0.8243686,1.209509,0.4024522,-1.021616,-0.006683093,1,0,0.336606,-0.2869075,0.10439,-0.5012794,1.236057,0.07599942,0.8365494,1.429864,0.3110397,0.1357646,-0.1770105,-0.08924573,-1.019776,-0.1931085,0.06055282,0.8514373,1.456685,0.1425307,0.5413614,1.046733,0.3670394,305.278,279.202,346.6826,False
0,1.255558,-0.3259723,0.9456298,-0.3595392,-1.467829,1.37609,-2.759214,0.8252188,1.209673,0.4025238,-1.020906,0.06496209,2.1,0,0.2961704,-0.2503813,0.0901394,-0.5008378,1.23249,0.0771627,0.8373111,1.429841,0.310823,0.1383479,-0.1598716,-0.04776362,-1.018882,-0.1945455,0.05968277,0.8516568,1.456565,0.1423841,0.5414099,1.047962,0.3706881,305.0578,279.9116,346.8007,False
0,1.266669,-0.3333632,0.9179065,-0.3615326,-1.467485,1.365818,-2.754144,0.8259918,1.209822,0.4026556,-1.021128,-0.02080593,2.1,0,0.2849065,-0.2240268,0.1288199,-0.4981299,1.228527,0.07783301,0.8380187,1.429898,0.3107131,0.1459236,-0.153466,-0.03720305,-1.019003,-0.1962838,0.05869847,0.8518976,1.456457,0.1422679,0.5414415,1.049195,0.3743341,304.8335,280.5046,347.0179,False
0,1.27778,-0.3429075,0.8944597,-0.3592462,-1.467528,1.355839,-2.749023,0.8265685,1.210017,0.4028523,-1.021201,-0.006284084,2.1,0,0.2724798,-0.2178854,0.1651907,-0.4954215,1.223254,0.07957179,0.8387517,1.430001,0.310441,0.140516,-0.1566715,-0.04459736,-1.01986,-0.1984023,0.05842709,0.8521733,1.45636,0.142128,0.5414495,1.050497,0.377874,304.6211,281.1186,347.184,False
0,1.288891,-0.3630993,0.873135,-0.3538092,-1.467536,1.346017,-2.743323,0.8271824,1.210207,0.4030702,-1.021266,-0.005863869,2.1,0,0.2514167,-0.2190989,0.1941327,-0.4924861,1.217461,0.08262431,0.8394433,1.430004,0.3102622,0.1350205,-0.1673514,-0.05943075,-1.021177,-0.2011034,0.05854853,0.8524656,1.456236,0.1420302,0.5413731,1.05188,0.3812439,304.3935,281.6786,347.319,False
0,1.300002,-0.3918267,0.8570976,-0.3526506,-1.467497,1.336271,-2.737009,0.8277445,1.210398,0.4033053,-1.021287,-0.001740375,3.1,0,0.2162961,-0.2264739,0.2028955,-0.4902667,1.210899,0.08727605,0.8401171,1.429916,0.3102715,0.1273349,-0.1567373,-0.08281673,-1.023126,-0.2024961,0.05819566,0.8528053,1.45612,0.1419706,0.5411547,1.053351,0.3844431,304.1475,282.2255,347.3682,False
0,1.311113,-0.439743,0.8325244,-0.3461086,-1.467635,1.326995,-2.729214,0.8283062,1.210587,0.4036093,-1.020799,0.04470649,3.1,0,0.1778291,-0.2133251,0.1820348,-0.4891225,1.206653,0.09028728,0.8406663,1.429843,0.3102787,0.1283072,-0.134424,-0.09459022,-1.024688,-0.2038965,0.05758047,0.8529269,1.456367,0.1424427,0.540772,1.054918,0.3874856,303.8793,282.7695,347.3496,False
0,1.322224,-0.4897718,0.8100988,-0.3342367,-1.468096,1.31813,-2.721221,0.8286375,1.210842,0.4038954,-1.02027,0.04801597,3.1,0,0.1640372,-0.1769417,0.1696859,-0.4876962,1.204698,0.09066865,0.8413277,1.429717,0.3102293,0.1283903,-0.1205515,-0.08823369,-1.025529,-0.2046201,0.05663824,0.8530874,1.456155,0.1423988,0.5402878,1.056611,0.3903915,303.5804,283.2715,347.3115,False
0,1.333336,-0.5291151,0.7812645,-0.3287521,-1.468088,1.309763,-2.71332,0.8287647,1.211195,0.4042482,-1.018928,0.1224807,3.1,0,0.1576344,-0.1362279,0.1455796,-0.4869515,1.204132,0.08943801,0.8419052,1.429806,0.310277,0.1137361,-0.09812959,-0.06576647,-1.02559,-0.2054651,0.05636048,0.8536841,1.45589,0.1422913,0.5397201,1.058454,0.3932098,303.2554,283.7325,347.2647,False
0,1.344447,-0.5716568,0.7545336,-0.3296766,-1.467835,1.301233,-2.704753,0.8287539,1.211546,0.404633,-1.018878,0.003812116,3.1,0,0.1222991,-0.1540758,0.1350763,-0.4859688,1.199221,0.09358907,0.8424112,1.429803,0.3102622,0.1105736,-0.09920719,-0.06146705,-1.026149,-0.2073855,0.05636927,0.8539468,1.45602,0.1422029,0.5390244,1.060506,0.3959876,302.9447,284.197,347.2062,False
0,1.355558,-0.599314,0.737433,-0.3263831,-1.467963,1.293008,-2.696486,0.8287867,1.211899,0.4050744,-1.019301,-0.03831135,3.2,0,0.1018355,-0.1815924,0.1243626,-0.4851992,1.192632,0.09890182,0.8430955,1.429767,0.3103061,0.1136465,-0.1141463,-0.07105664,-1.027441,-0.2093828,0.05606913,0.8543954,1.455894,0.1421535,0.5381061,1.062826,0.3987449,302.6105,284.6587,347.1712,False
0,1.366669,-0.6343802,0.699051,-0.3176566,-1.467894,1.285579,-2.687338,0.8285779,1.212326,0.4054937,-1.019056,0.02294618,3.2,0,0.09433872,-0.1847226,0.1212077,-0.4840977,1.187857,0.102222,0.8438396,1.429889,0.3102789,0.112376,-0.1152598,-0.09128366,-1.029284,-0.2109714,0.055606,0.8547527,1.455656,0.1419113,0.5369395,1.065432,0.4014941,302.1879,285.0389,347.1921,False
0,1.37778,-0.6704755,0.6457487,-0.3077686,-1.467615,1.279444,-2.678128,0.8281763,1.212774,0.4060485,-1.01963,-0.05248917,3.2,0,0.09210338,-0.1942568,0.1147484,-0.4833392,1.182196,0.1062788,0.8445554,1.429818,0.3102508,0.1133331,-0.1089165,-0.1019586,-1.030877,-0.212486,0.05519561,0.8549851,1.455667,0.1425185,0.5355666,1.068317,0.4042712,301.6687,285.3876,347.1984,False
0,1.388891,-0.6948901,0.6127295,-0.2990698,-1.467542,1.272833,-2.668937,0.827944,1.213157,0.4065199,-1.01907,0.05192731,3.2,0,0.08336526,-0.2143219,0.0997401,-0.4830356,1.17564,0.1113462,0.8452244,1.429789,0.3102388,0.1144168,-0.1110438,-0.09983405,-1.031981,-0.2139324,0.05461371,0.8552948,1.455597,0.1425376,0.5341286,1.071452,0.4070714,301.0506,285.7811,347.1647,False
0,1.400002,-0.7479953,0.5370406,-0.286925,-1.466827,1.268359,-2.658316,0.827437,1.213654,0.4070969,-1.019147,-0.007285181,3.4,0,0.06373477,-0.2458822,0.06339914,-0.4842117,1.167572,0.118337,0.8457783,1.429908,0.3101516,0.1175644,-0.1110839,-0.1041319,-1.033398,-0.2157394,0.05418041,0.8554788,1.455514,0.1427991,0.5325762,1.07476,0.4098655,300.4119,286.1534,347.1979,False
0,1.411114,-0.7861946,0.4699588,-0.264173,-1.466481,1.264445,-2.647876,0.8268208,1.214124,0.4076357,-1.019576,-0.03886293,3.4,0,0.03593509,-0.2445752,0.05087546,-0.4841701,1.161867,0.1238796,0.8462604,1.429749,0.3102226,0.1133139,-0.11107,-0.1030221,-1.034555,-0.2170261,0.05373806,0.8557277,1.455444,0.1428506,0.5309349,1.078192,0.4125699,299.7446,286.4536,347.2948,False
0,1.422225,-0.8190745,0.4071919,-0.2350759,-1.466306,1.261117,-2.637413,0.8261795,1.21459,0.4081969,-1.018332,0.1143679,3.4,0,0.02975696,-0.2094206,0.05549872,-0.4834585,1.159464,0.1257521,0.8467342,1.429732,0.3102837,0.1090544,-0.112152,-0.1019065,-1.03568,-0.2190012,0.05382834,0.8559489,1.455587,0.143122,0.5293186,1.081696,0.4151208,299.0462,286.7383,347.3713,False
0,1.433336,-0.8307034,0.3688998,-0.2188729,-1.466156,1.257646,-2.627619,0.8255283,1.215105,0.4086947,-1.018712,-0.03553149,3.4,0,0.01704948,-0.1933824,0.05574528,-0.4830378,1.155967,0.1291029,0.847163,1.429718,0.3103299,0.1006975,-0.09720869,-0.08801372,-1.036335,-0.21991,0.05349305,0.8562903,1.45557,0.1432621,0.5276009,1.085229,0.4174574,298.4141,286.9183,347.5312,False
0,1.444447,-0.8433828,0.3242947,-0.1877481,-1.466333,1.255097,-2.617607,0.824683,1.215625,0.4092631,-1.019097,-0.03451549,3.4,0,-0.003927767,-0.1486609,0.07015194,-0.4818814,1.155354,0.1304797,0.8476092,1.429688,0.3104553,0.09761659,-0.09290887,-0.07733909,-1.036834,-0.2206928,0.05295376,0.8564863,1.455503,0.1433923,0.5257612,1.088813,0.4194939,297.7984,287.0649,347.6696,False
0,1.455558,-0.8454664,0.3063113,-0.1631474,-1.46695,1.252089,-2.607898,0.8238154,1.216163,0.4097898,-1.020159,-0.0965286,3.1,0,-0.007769905,-0.1062372,0.09506093,-0.4798356,1.155428,0.1304983,0.8480903,1.42981,0.31054,0.09027284,-0.09077714,-0.06449304,-1.03746,-0.2225926,0.05349145,0.8568362,1.455473,0.1435626,0.5238451,1.092456,0.4211793,297.1754,287.186,347.7306,False
0,1.466669,-0.8486215,0.289446,-0.1279078,-1.468142,1.249542,-2.598074,0.8226957,1.216707,0.4102805,-1.020222,-0.004773424,3.1,0,-0.01093933,-0.1105045,0.09932121,-0.478643,1.152518,0.1331706,0.8485785,1.429895,0.3105638,0.09137651,-0.0939649,-0.06023551,-1.038015,-0.223867,0.0530784,0.8570954,1.455457,0.1436336,0.5218964,1.09613,0.4225381,296.5269,287.2638,347.7221,False
0,1.47778,-0.8549785,0.2799962,-0.09910017,-1.469497,1.247048,-2.588203,0.8214911,1.217161,0.4109197,-1.020773,-0.05023391,3.1,0,-0.03141829,-0.1487012,0.09170757,-0.4784246,1.145891,0.1400056,0.8490887,1.430044,0.3105662,0.0955761,-0.1067974,-0.06344511,-1.039027,-0.2263992,0.05327521,0.8574605,1.455292,0.1436577,0.5198535,1.099786,0.4236376,295.8983,287.3324,347.6411,False
0,1.488891,-0.8719907,0.2673509,-0.06600217,-1.471147,1.244939,-2.577777,0.8201836,1.217579,0.4114072,-1.020838,-0.005468587,3.1,0,-0.0444031,-0.1719604,0.07990704,-0.4782175,1.140554,0.145582,0.8495388,1.429995,0.310616,0.09337689,-0.1153286,-0.06872943,-1.040018,-0.2281626,0.05321449,0.8577307,1.455249,0.1437047,0.5177107,1.103407,0.4245676,295.2965,287.4521,347.4669,False
0,1.500003,-0.8804637,0.252505,-0.0542292,-1.472121,1.242655,-2.567664,0.8189462,1.217921,0.4120123,-1.020927,-0.008000853,2.8,0,-0.07032579,-0.1907609,0.0490685,-0.4792247,1.134723,0.1523986,0.8498873,1.429856,0.3108187,0.08686844,-0.1047097,-0.07934969,-1.04148,-0.2293074,0.05344591,0.8579692,1.455487,0.1437991,0.5153983,1.106977,0.4254126,294.7221,287.617,347.2384,False
0,1.511114,-0.9037925,0.2122116,-0.02102013,-1.473463,1.24168,-2.556642,0.817624,1.218277,0.412591,-1.02049,0.04013823,2.6,0,-0.1121067,-0.1742584,0.01228523,-0.4803602,1.132595,0.1568019,0.8500841,1.429836,0.3110194,0.08262161,-0.09190524,-0.08039351,-1.042274,-0.2296108,0.05275695,0.8582153,1.455272,0.1439519,0.5129418,1.110496,0.4262404,294.1479,287.7961,346.9883,False
0,1.522225,-0.9196744,0.1643408,-0.001587063,-1.474162,1.241727,-2.545576,0.8161163,1.218835,0.4130745,-1.020928,-0.04025034,2.6,0,-0.1494704,-0.1301055,-0.02109949,-0.481524,1.133487,0.1588117,0.8502136,1.42997,0.3113053,0.06997631,-0.05778702,-0.07076183,-1.042813,-0.229195,0.05245362,0.8584446,1.455398,0.144275,0.5104188,1.113992,0.4270607,293.5778,287.9654,346.7682,False
0,1.533336,-0.9121159,0.1229232,0.02099277,-1.474999,1.242295,-2.535779,0.8144358,1.219582,0.4136508,-1.020115,0.07480197,2.6,0,-0.1673843,-0.09276877,-0.01743145,-0.4815001,1.133758,0.1610738,0.8504114,1.42996,0.3116658,0.05522482,-0.02683583,-0.06002704,-1.043001,-0.228127,0.05181553,0.8586539,1.455363,0.1445258,0.5079566,1.117477,0.427899,292.9809,288.0555,346.6167,False
0,1.544447,-0.8918166,0.09645328,0.04349653,-1.47613,1.242712,-2.526493,0.8127482,1.220218,0.4141917,-1.020082,0.002483368,2.6,0,-0.1712183,-0.05462208,0.01063646,-0.4801157,1.135424,0.1614946,0.8506943,1.430202,0.3118744,0.04034046,-0.01084512,-0.05885109,-1.043744,-0.2280111,0.05193643,0.8590004,1.455223,0.1449008,0.5055395,1.120993,0.4287184,292.4402,288.2076,346.4877,False
0,1.555558,-0.8757928,0.07847486,0.0638012,-1.477277,1.243266,-2.517222,0.8111019,1.220789,0.4146459,-1.021501,-0.1295578,2.6,0,-0.1870208,-0.07184783,0.04045447,-0.4789637,1.131848,0.1672433,0.8508394,1.430176,0.3120542,0.03290173,-0.009766059,-0.05664941,-1.044352,-0.2281766,0.05197052,0.8593018,1.455026,0.1448765,0.5030752,1.124624,0.4294233,291.9633,288.298,346.4788,False
0,1.566669,-0.8586877,0.05205393,0.09589,-1.478862,1.244689,-2.508297,0.8092917,1.221438,0.4152179,-1.022269,-0.06904912,2.6,0,-0.2222262,-0.07912102,0.03856597,-0.478782,1.129457,0.1729502,0.8507497,1.430135,0.3123355,0.02645257,-0.006562265,-0.06403673,-1.045061,-0.2278507,0.05151859,0.8595475,1.45495,0.1450655,0.5005303,1.128409,0.4299393,291.4401,288.361,346.4472,False
0,1.577781,-0.8533124,0.03301024,0.1204779,-1.480334,1.246188,-2.499132,0.8073845,1.221983,0.4157405,-1.022332,-0.005237018,2.6,0,-0.2606971,-0.06063646,0.01561395,-0.479418,1.129643,0.1770115,0.8508192,1.429985,0.3126683,0.02212325,0.003012732,-0.07253751,-1.046145,-0.2273879,0.051154,0.8598056,1.454915,0.1452837,0.4979576,1.132284,0.4302369,290.8002,288.4754,346.2795,False
0,1.588892,-0.8511285,0.0097076,0.1440337,-1.481871,1.248061,-2.489743,0.8053899,1.222488,0.4162552,-1.022551,-0.02013128,2.6,0,-0.267251,-0.03689961,-0.01608445,-0.4805083,1.130942,0.1789554,0.8506283,1.429991,0.3130393,0.0157337,0.01368129,-0.07462484,-1.046942,-0.2265796,0.05067516,0.8601804,1.454799,0.1455491,0.495391,1.136153,0.430319,290.1157,288.6198,346.0133,False
0,1.600003,-0.8511042,0.0001603663,0.1525989,-1.483183,1.249514,-2.480484,0.803435,1.223001,0.4167817,-1.022278,0.02506602,2.6,0,-0.2737321,-0.0217972,-0.03508291,-0.4815943,1.131858,0.1811951,0.8505238,1.430024,0.3132746,0.005222756,0.03609489,-0.06498002,-1.04724,-0.2251849,0.05018221,0.8603777,1.45482,0.1459498,0.4927594,1.139938,0.4302091,289.4553,288.7802,345.6881,False
0,1.611114,-0.8542699,-0.01682383,0.1633423,-1.484509,1.251312,-2.470775,0.8012717,1.223531,0.4173241,-1.021957,0.02912299,2.5,0,-0.2993068,-0.01740059,-0.03802643,-0.4821184,1.131584,0.1856628,0.8503141,1.430006,0.3136737,-0.009610403,0.06065176,-0.06062803,-1.047762,-0.2230399,0.04975717,0.8604916,1.455095,0.1457381,0.4900157,1.143576,0.4299352,288.8373,288.8978,345.3761,False
0,1.622225,-0.849974,-0.03488603,0.1708602,-1.485351,1.253336,-2.461466,0.79907,1.224112,0.4178529,-1.022084,-0.01186396,2.5,0,-0.3376565,-0.01188013,-0.04083846,-0.482601,1.131606,0.1906794,0.8502316,1.430067,0.3140621,-0.01600309,0.06495148,-0.0627123,-1.04865,-0.2214478,0.04908392,0.8607388,1.455288,0.1462886,0.487177,1.147064,0.4295241,288.2841,288.9492,345.0847,False
0,1.633336,-0.8424457,-0.06573993,0.1763394,-1.485867,1.256106,-2.452566,0.7967978,1.224823,0.4183784,-1.021633,0.04140808,2.5,0,-0.3631996,0.006400973,-0.04792257,-0.4832881,1.133209,0.1940843,0.8500206,1.42995,0.3144128,-0.0223783,0.06816061,-0.06158905,-1.049252,-0.2204103,0.04902267,0.8609327,1.455271,0.1465483,0.4842934,1.150427,0.4290486,287.7859,288.9202,344.8234,False
0,1.644447,-0.8274713,-0.0954805,0.1860771,-1.486411,1.259184,-2.444011,0.7945461,1.225451,0.4189093,-1.021981,-0.03216461,2.5,0,-0.3877712,0.02262709,-0.06461504,-0.4844168,1.135197,0.1974771,0.849806,1.429972,0.3148875,-0.03190856,0.08206613,-0.06152256,-1.049838,-0.2180169,0.04793637,0.8609058,1.455402,0.1468832,0.4813208,1.153721,0.4285869,287.345,288.8633,344.6001,False
0,1.655559,-0.8071766,-0.1188219,0.1957796,-1.486975,1.262391,-2.435885,0.7922692,1.226092,0.4193912,-1.022376,-0.03576289,2.2,0,-0.41546,0.05272415,-0.08117629,-0.4857505,1.138997,0.1993488,0.8492314,1.43026,0.3152051,-0.04785196,0.09807789,-0.06139341,-1.050383,-0.2159813,0.04786047,0.8609813,1.455576,0.1474564,0.4783365,1.157008,0.4281459,286.9176,288.7361,344.486,False
0,1.66667,-0.7943982,-0.1166235,0.2021545,-1.488111,1.26476,-2.427582,0.7900093,1.226702,0.4199023,-1.022692,-0.02866917,2.2,0,-0.435515,0.07405478,-0.07122216,-0.4857744,1.143022,0.201234,0.8491949,1.430543,0.3155572,-0.05420215,0.1140791,-0.0603024,-1.050925,-0.21373,0.04753902,0.8614558,1.45479,0.1485271,0.4754077,1.160325,0.4276866,286.4702,288.5866,344.4338,False
0,1.677781,-0.7699143,-0.1079768,0.2159374,-1.489594,1.267366,-2.420079,0.787729,1.22729,0.4205015,-1.023055,-0.03309548,2.2,0,-0.4488966,0.0961265,-0.02937585,-0.4844413,1.146159,0.2038253,0.848772,1.430653,0.3160577,-0.07753289,0.1375701,-0.053726,-1.051188,-0.2109832,0.04783677,0.8615932,1.454738,0.1489956,0.4725753,1.163659,0.4271671,285.9739,288.5072,344.3257,False
0,1.688892,-0.7486618,-0.09709194,0.2339063,-1.491356,1.269083,-2.412275,0.7854173,1.228052,0.4212797,-1.022874,0.01673037,2.2,0,-0.473216,0.09608239,-0.008914985,-0.4835352,1.148685,0.2075231,0.8482804,1.430833,0.3165379,-0.08388585,0.1450869,-0.05367054,-1.051499,-0.207933,0.04694248,0.8618003,1.454346,0.1492252,0.4698129,1.166974,0.4265779,285.4553,288.5001,344.1238,False
0,1.700003,-0.7390729,-0.09587663,0.2519865,-1.493217,1.271845,-2.404674,0.7831008,1.228601,0.4218278,-1.023499,-0.05736391,2.2,0,-0.4934425,0.1047208,-0.01186575,-0.4835395,1.151753,0.2109708,0.8477956,1.430838,0.3169613,-0.09141906,0.1546769,-0.06426378,-1.052362,-0.2052085,0.04654486,0.8620534,1.45389,0.1492286,0.4670619,1.170251,0.4259883,284.9595,288.5948,343.7679,False
0,1.711114,-0.7113953,-0.09355867,0.2679314,-1.495217,1.27448,-2.397547,0.7805347,1.229143,0.42226,-1.023192,0.02848969,1.6,0,-0.5137964,0.1252854,-0.0370779,-0.4843619,1.157485,0.2121202,0.8473328,1.430635,0.3177292,-0.1020675,0.165355,-0.06524961,-1.0531,-0.2024502,0.04670732,0.8622769,1.453739,0.1499085,0.4643039,1.173468,0.4254669,284.492,288.7489,343.31,False
0,1.722225,-0.6964777,-0.09774977,0.2743429,-1.496799,1.27757,-2.390353,0.7780907,1.229678,0.4227519,-1.023116,0.006468964,1.6,0,-0.5214017,0.1265485,-0.05618716,-0.4853787,1.161007,0.2148777,0.8463907,1.430577,0.3183255,-0.1084486,0.1717572,-0.06519925,-1.053729,-0.1999315,0.04689693,0.8624492,1.453628,0.1503592,0.4615133,1.176638,0.4251124,284.0703,288.9771,342.804,False
0,1.733337,-0.6666362,-0.1093589,0.2786341,-1.497938,1.280664,-2.384073,0.7756449,1.230102,0.4229131,-1.023451,-0.03068663,1.6,0,-0.5419314,0.1237127,-0.08799434,-0.4870852,1.164469,0.2184663,0.8455908,1.430582,0.3189425,-0.1265438,0.2037582,-0.06934936,-1.05447,-0.1957097,0.04674434,0.8623333,1.454058,0.1514466,0.4587342,1.179745,0.4248542,283.6272,289.4288,342.2316,False
0,1.744448,-0.6389294,-0.1145881,0.2861181,-1.499449,1.28407,-2.378089,0.7731556,1.230588,0.4233406,-1.02323,0.02037267,1.6,0,-0.5772189,0.1400682,-0.1120507,-0.4885201,1.169991,0.2210722,0.8447669,1.430527,0.3196676,-0.1359439,0.229397,-0.059712,-1.054415,-0.1912749,0.04553446,0.8623787,1.453778,0.1520865,0.4559086,1.182759,0.4245946,283.1725,289.9964,341.6254,False
0,1.755559,-0.6080298,-0.1187527,0.2925175,-1.500879,1.287484,-2.372546,0.7707176,1.231016,0.4237683,-1.023936,-0.06491909,1.9,0,-0.5919572,0.1613567,-0.1032148,-0.4887737,1.175201,0.2234581,0.8438572,1.43049,0.3202894,-0.1422486,0.2443509,-0.05434438,-1.054501,-0.1873304,0.04528066,0.8622845,1.454147,0.1532724,0.4531403,1.185643,0.4242058,282.7274,290.4862,341.0991,False
0,1.76667,-0.5888435,-0.1261567,0.2946808,-1.502093,1.290946,-2.366825,0.7682257,1.231519,0.4242027,-1.024075,-0.01228891,1.9,0,-0.5918419,0.1655257,-0.09146391,-0.4888903,1.179745,0.2259849,0.8429864,1.430387,0.3210323,-0.1527676,0.2667657,-0.043635,-1.054521,-0.1830665,0.04533765,0.8621267,1.454343,0.1538124,0.4504632,1.188343,0.4235912,282.2855,290.8778,340.621,False
0,1.777781,-0.5621821,-0.1377988,0.3000706,-1.503231,1.294845,-2.361813,0.7657739,1.231901,0.4246607,-1.024266,-0.01757724,1.9,0,-0.5971125,0.1794036,-0.09236701,-0.4893436,1.185257,0.2278859,0.8419811,1.430356,0.3217623,-0.1665211,0.3030309,-0.04356914,-1.054647,-0.1774288,0.04426174,0.8620828,1.454232,0.1544683,0.4478056,1.190834,0.4227698,281.9078,291.2278,340.0511,False
0,1.788892,-0.5344232,-0.1664889,0.3023473,-1.503701,1.299185,-2.357068,0.7632709,1.232223,0.4251471,-1.023849,0.03803178,1.9,0,-0.634726,0.1980947,-0.1387476,-0.4917506,1.192939,0.2295016,0.8406683,1.430242,0.3225489,-0.1738761,0.321177,-0.03501524,-1.054621,-0.1725836,0.04422099,0.8620261,1.454274,0.1551628,0.4451495,1.193103,0.421792,281.5899,291.4684,339.5064,False
0,1.800003,-0.5152052,-0.1877827,0.2971293,-1.503907,1.303375,-2.352252,0.7608206,1.232629,0.4256382,-1.024228,-0.0351675,1.9,0,-0.6562032,0.200493,-0.1598488,-0.4935977,1.198619,0.2324838,0.8395007,1.430129,0.323303,-0.1843613,0.3436082,-0.02536309,-1.054219,-0.1669343,0.04330353,0.8619372,1.454198,0.1558721,0.442454,1.195188,0.420728,281.339,291.539,339.0999,False
0,1.811115,-0.4863917,-0.2122441,0.2940545,-1.503833,1.307879,-2.348145,0.7584072,1.23298,0.4261286,-1.02425,-0.00186188,2.3,0,-0.6767337,0.2104867,-0.1979237,-0.4961735,1.205503,0.2346003,0.8383932,1.430027,0.3241358,-0.190806,0.3564003,-0.03066207,-1.054711,-0.1617272,0.04330619,0.8619045,1.454345,0.1565139,0.4397776,1.197096,0.4196051,281.0812,291.531,338.7734,False
0,1.822226,-0.4458724,-0.2292406,0.2866796,-1.503648,1.312131,-2.344912,0.755937,1.233346,0.4265943,-1.02392,0.02993488,2.3,0,-0.6693916,0.2341062,-0.2233703,-0.4987765,1.213908,0.2344413,0.8369977,1.429965,0.3248219,-0.2077921,0.3766813,-0.02840001,-1.054651,-0.1560458,0.04340207,0.8617289,1.454616,0.1576338,0.4371225,1.19882,0.4184446,280.8322,291.3733,338.5989,False
0,1.833337,-0.400028,-0.2462437,0.2771783,-1.503163,1.316467,-2.342321,0.7535918,1.233645,0.4271147,-1.024309,-0.03599235,2.3,0,-0.6359647,0.2731441,-0.197758,-0.4990881,1.22324,0.2321869,0.8356572,1.429944,0.3256929,-0.2162994,0.3894793,-0.0294137,-1.05486,-0.150549,0.04333762,0.8616986,1.454416,0.1586545,0.4345137,1.200397,0.4172807,280.6359,291.0621,338.5721,False
0,1.844448,-0.3616798,-0.2450939,0.2782283,-1.503404,1.320595,-2.339756,0.7512326,1.233925,0.4276693,-1.024953,-0.05868695,2.3,0,-0.6143328,0.2876822,-0.1658615,-0.4989512,1.230981,0.2317645,0.8344903,1.429806,0.3265736,-0.2279785,0.4022802,-0.0271951,-1.05488,-0.1450772,0.04361406,0.8615733,1.454371,0.1598299,0.4319803,1.201847,0.416135,280.4509,290.7027,338.6064,False
0,1.855559,-0.3307844,-0.2450146,0.2814216,-1.503702,1.324795,-2.337356,0.7489698,1.234181,0.4281993,-1.025298,-0.03133392,1.9,0,-0.6120011,0.2949585,-0.1466404,-0.4989954,1.23838,0.2318854,0.8331034,1.429822,0.3274004,-0.2309953,0.4257376,-0.01124755,-1.054416,-0.1392323,0.04374934,0.8613553,1.454559,0.1611164,0.4295154,1.203159,0.4150396,280.2522,290.3381,338.6568,False
0,1.86667,-0.3052155,-0.2460136,0.2824874,-1.503916,1.328828,-2.335103,0.746747,1.234462,0.4287369,-1.02498,0.02892166,1.9,0,-0.6247903,0.2939343,-0.1454734,-0.4999073,1.245281,0.2332234,0.8318963,1.429766,0.3281951,-0.2393648,0.4417414,0.0005222727,-1.053756,-0.1335225,0.04365453,0.8612078,1.454601,0.1622009,0.4271588,1.204286,0.4140189,280.056,290.0176,338.6626,False
0,1.877781,-0.2700225,-0.2641413,0.2665995,-1.502966,1.333105,-2.33358,0.7445611,1.234724,0.429209,-1.024729,0.0224007,1.9,0,-0.6267299,0.2969546,-0.1251833,-0.4997576,1.252216,0.2341313,0.8305078,1.429712,0.3290606,-0.2595349,0.4673341,0.007051642,-1.053303,-0.126979,0.04446147,0.86105,1.454596,0.1631901,0.4248567,1.205228,0.4131103,279.9258,289.9384,338.4531,False
0,1.888893,-0.2326819,-0.2918829,0.2433056,-1.501285,1.337332,-2.332462,0.7423874,1.235018,0.4297881,-1.024523,0.01845431,1.9,0,-0.6160917,0.2862043,-0.1210995,-0.5002375,1.258096,0.235388,0.8290163,1.429684,0.3298666,-0.2628041,0.4736977,-0.00251401,-1.05338,-0.1209898,0.04426999,0.8607526,1.454688,0.1641436,0.4226232,1.206011,0.4123012,279.8598,289.8938,338.2588,False
0,1.900004,-0.212391,-0.3153256,0.234906,-1.499757,1.342022,-2.331155,0.7402434,1.235356,0.4304593,-1.024882,-0.03318144,1.9,0,-0.6097751,0.3001588,-0.1370168,-0.5013677,1.266724,0.2343212,0.8276259,1.429587,0.3307428,-0.2640188,0.4725863,-0.01635734,-1.053935,-0.1153061,0.04444842,0.8606056,1.454501,0.1649139,0.4204512,1.206676,0.4115679,279.8212,289.6659,338.2951,False
0,1.911115,-0.1792796,-0.3537238,0.2127396,-1.497232,1.346845,-2.33061,0.7381188,1.235605,0.4312153,-1.024981,-0.008946617,1.6,0,-0.5908242,0.30884,-0.1669406,-0.5034104,1.275612,0.2325669,0.8260761,1.429512,0.331677,-0.2651174,0.4747092,-0.01954087,-1.053939,-0.1092069,0.04443724,0.8602881,1.45456,0.1659477,0.41836,1.207219,0.4108595,279.748,289.0281,338.759,False
0,1.922226,-0.1621983,-0.3707708,0.2053709,-1.495312,1.351562,-2.329681,0.7360778,1.235839,0.4318922,-1.024409,0.05207374,1.6,0,-0.5674707,0.2948878,-0.1693844,-0.5046296,1.281906,0.2325531,0.8246208,1.429521,0.3326831,-0.2704336,0.4800333,-0.01630949,-1.053811,-0.103014,0.04496375,0.8600296,1.454458,0.1667917,0.41632,1.207629,0.4101689,279.6775,288.1544,339.4174,False
0,1.933337,-0.1259401,-0.3877773,0.1990658,-1.493117,1.356462,-2.329882,0.7340872,1.236027,0.4325769,-1.024755,-0.03235199,1.6,0,-0.5353349,0.2913231,-0.1462437,-0.5046035,1.2878,0.2322948,0.8232244,1.429562,0.3336093,-0.2704329,0.4747046,-0.01628792,-1.053626,-0.09721563,0.04493312,0.859679,1.454619,0.1677096,0.4143053,1.207927,0.4094858,279.6438,287.2468,340.0861,False
0,1.944448,-0.09291582,-0.3855833,0.1979867,-1.491624,1.360923,-2.330297,0.7320879,1.236127,0.4332974,-1.024106,0.05943376,1.6,0,-0.510856,0.2837514,-0.146526,-0.5055239,1.294386,0.2312902,0.8218068,1.42931,0.3345754,-0.2660059,0.4608775,0.001811532,-1.052791,-0.09222407,0.04516082,0.8593115,1.454684,0.1684539,0.4123391,1.208097,0.4087947,279.5971,286.1725,340.9118,False
0,1.955559,-0.06310245,-0.3758824,0.2085864,-1.490634,1.365566,-2.330926,0.7302905,1.236199,0.433995,-1.024827,-0.06665219,1.6,0,-0.5033686,0.2986692,-0.1507249,-0.5064437,1.3028,0.2292569,0.8204089,1.429219,0.3354011,-0.2606486,0.4512815,0.007098904,-1.052439,-0.08710548,0.04539784,0.8589233,1.454696,0.1694016,0.4104345,1.208157,0.408081,279.5963,285.2476,341.5996,False
0,1.966671,-0.04928884,-0.3598439,0.2138321,-1.489963,1.369776,-2.331068,0.728399,1.23631,0.4346154,-1.024829,0.0002619829,1.2,0,-0.4863103,0.3049886,-0.1518837,-0.5073215,1.310597,0.2273826,0.8190458,1.429264,0.3362241,-0.25743,0.4576803,0.008115504,-1.052126,-0.08090989,0.04502873,0.8586103,1.454753,0.1704557,0.408613,1.208094,0.4073274,279.5847,284.3435,342.257,False
0,1.977782,-0.01526759,-0.3277775,0.2200487,-1.489984,1.373394,-2.332307,0.7266557,1.236322,0.4352014,-1.024667,0.01445588,1.2,0,-0.4660184,0.3037812,-0.1456863,-0.5080326,1.317931,0.2254763,0.8176782,1.42922,0.3370225,-0.2606356,0.4587416,0.007075944,-1.051918,-0.07517518,0.04517733,0.8582685,1.454761,0.1714013,0.4068545,1.207888,0.4065613,279.5953,283.6645,342.6606,False
0,1.988893,0.02090108,-0.3042694,0.2188504,-1.489687,1.376882,-2.333962,0.7249439,1.236324,0.4357846,-1.02388,0.07149626,1.2,0,-0.4531877,0.2780186,-0.1289791,-0.5084523,1.32284,0.2255934,0.8162529,1.429253,0.3377306,-0.256344,0.4502306,0.01025225,-1.051396,-0.06957655,0.04499863,0.8579117,1.454793,0.1723843,0.4051903,1.207541,0.4057888,279.6613,283.1927,342.8651,False
0,2.000004,0.04006046,-0.2957358,0.2134795,-1.489034,1.380612,-2.335376,0.7232172,1.236363,0.4363933,-1.024654,-0.07147016,1.2,0,-0.4554336,0.2610262,-0.1333642,-0.5095096,1.328367,0.2259309,0.8147982,1.429249,0.3386436,-0.2522187,0.4416891,-0.002552154,-1.051601,-0.06397711,0.04480848,0.8575054,1.454697,0.1734676,0.4035105,1.207125,0.4050395,279.7964,282.7883,343.0175,False
0,2.011115,0.06774037,-0.2883084,0.1974514,-1.487863,1.383883,-2.337253,0.7215445,1.236238,0.4369745,-1.024865,-0.01883769,1.6,0,-0.4598558,0.2622501,-0.1514283,-0.5111522,1.335071,0.225464,0.8135244,1.429102,0.3395283,-0.2491253,0.4320766,-0.01108432,-1.051844,-0.058901,0.04493951,0.8570536,1.454715,0.1744487,0.4018986,1.206657,0.4043417,279.9078,282.4789,343.0761,False
0,2.022226,0.07838349,-0.283019,0.1867661,-1.486881,1.387257,-2.338744,0.719842,1.236153,0.4375224,-1.024285,0.05286559,1.6,0,-0.4451523,0.2559398,-0.1707862,-0.5130569,1.341399,0.2245495,0.8121549,1.428942,0.3404257,-0.24273,0.4310117,-0.01114655,-1.051708,-0.0532567,0.04458185,0.8565906,1.45486,0.1755567,0.4003561,1.206111,0.4037253,279.9897,282.1031,343.217,False
0,2.033337,0.09436834,-0.2841275,0.1729259,-1.485587,1.390653,-2.34065,0.718272,1.235986,0.4380932,-1.024408,-0.01198347,1.6,0,-0.4218665,0.2517054,-0.1859398,-0.5149627,1.347973,0.2228083,0.8106402,1.428871,0.3413091,-0.237273,0.4438115,-0.0005780365,-1.051163,-0.04712863,0.04399436,0.8560539,1.455031,0.1766877,0.3988419,1.205478,0.4031981,280.068,281.5695,343.544,False
0,2.044448,0.1114055,-0.2798864,0.1622494,-1.484475,1.393875,-2.342751,0.7168396,1.235796,0.4386113,-1.023759,0.05938839,1.6,0,-0.4048193,0.2612351,-0.1892104,-0.5164732,1.355292,0.2205952,0.8092033,1.428764,0.3421907,-0.2362201,0.4470139,-0.002725387,-1.051005,-0.04101987,0.04354055,0.8555717,1.455084,0.1777744,0.3973575,1.204724,0.4027683,280.1308,280.961,343.9702,False
0,2.055559,0.1305529,-0.2649212,0.1643035,-1.484086,1.397066,-2.345118,0.7154162,1.235587,0.4391491,-1.023847,-0.008793741,1.6,0,-0.3726861,0.2898112,-0.1839188,-0.5174149,1.364532,0.215678,0.8077196,1.428757,0.3430433,-0.242561,0.432128,0.003765697,-1.050565,-0.03605321,0.04390088,0.8549812,1.455145,0.178802,0.3958841,1.203861,0.4024215,280.2437,280.4597,344.3242,False
0,2.06667,0.1571547,-0.2499337,0.1663496,-1.483784,1.400015,-2.347945,0.7140509,1.235252,0.4396532,-1.023845,0.0001650778,2.2,0,-0.3489118,0.2990164,-0.15103,-0.5174362,1.37199,0.2123506,0.8062989,1.428639,0.3438013,-0.2435493,0.4215082,0.01232713,-1.049906,-0.03090266,0.04402978,0.8543074,1.455089,0.1798718,0.3945206,1.202885,0.4021159,280.3752,279.9445,344.7128,False
0,2.077781,0.1773556,-0.2307038,0.1683771,-1.483758,1.402796,-2.350796,0.7127191,1.234991,0.440151,-1.02388,-0.003339932,2.2,0,-0.3305745,0.3040618,-0.1277114,-0.5174005,1.379172,0.2091921,0.8048861,1.428591,0.3446469,-0.2307646,0.4257442,0.01006179,-1.049626,-0.02531002,0.04319354,0.8535296,1.455134,0.1809568,0.3932992,1.20181,0.4018231,280.5361,279.5638,344.9727,False
0,2.088892,0.2071136,-0.1943632,0.1777644,-1.48469,1.405029,-2.354297,0.7114816,1.234606,0.4406087,-1.024122,-0.02227755,2.2,0,-0.3027189,0.3091305,-0.1119447,-0.5175592,1.386637,0.2052488,0.8034779,1.428314,0.3455567,-0.2254758,0.4161427,0.007899246,-1.049411,-0.02032604,0.04304148,0.8528838,1.455172,0.1819503,0.3921623,1.200659,0.4015302,280.7086,279.4041,345.0128,False
0,2.100003,0.2208892,-0.1612688,0.1850398,-1.485813,1.407042,-2.357309,0.7102637,1.23418,0.4409823,-1.023937,0.01684587,2.2,0,-0.2825791,0.2973746,-0.1175482,-0.518494,1.393126,0.2020916,0.8020931,1.428253,0.346447,-0.2191138,0.3991053,0.007877924,-1.049108,-0.01561358,0.04297063,0.8522964,1.455316,0.1829901,0.3910804,1.199422,0.4012285,280.8718,279.3027,344.9901,False
0,2.111114,0.2474047,-0.1035757,0.2060354,-1.488365,1.408712,-2.361064,0.7090017,1.233591,0.441406,-1.024353,-0.03831842,2.2,0,-0.2637244,0.2740573,-0.1424129,-0.5205255,1.398507,0.1998079,0.800739,1.428129,0.347259,-0.2170281,0.3799222,0.006834612,-1.048908,-0.01143588,0.04327717,0.851617,1.455325,0.1839309,0.390021,1.198113,0.4009265,281.0674,279.285,344.8685,False
0,2.122225,0.2601379,-0.08009371,0.2101694,-1.489914,1.410665,-2.364513,0.707707,1.233106,0.4417827,-1.023675,0.06209529,2.2,0,-0.2543064,0.2613324,-0.1543249,-0.5221702,1.404433,0.1974606,0.7993242,1.428028,0.3480856,-0.2085267,0.3756544,0.004627469,-1.048734,-0.00646549,0.04283322,0.8509768,1.45534,0.1849711,0.3890042,1.196726,0.4006478,281.2602,279.5133,344.503,False
0,2.133336,0.2877962,-0.06087994,0.2058086,-1.491493,1.412322,-2.368781,0.7065408,1.232591,0.4422131,-1.024126,-0.0419209,2.2,0,-0.2395001,0.2442577,-0.1577938,-0.5235673,1.409778,0.1950931,0.7979559,1.427907,0.3489101,-0.2021763,0.3639207,0.002459014,-1.048617,-0.002174471,0.04276264,0.8503144,1.455375,0.1859407,0.3879779,1.195272,0.4004098,281.4774,279.9182,343.9778,False
0,2.144447,0.300576,-0.05980016,0.2036712,-1.492571,1.414359,-2.372615,0.705377,1.232107,0.4425786,-1.023624,0.04604889,2.2,0,-0.2244358,0.2333422,-0.1345794,-0.5238688,1.414463,0.193101,0.7965267,1.427651,0.3497379,-0.1947532,0.3479319,0.0002898979,-1.04852,0.001764078,0.04257702,0.8495474,1.455458,0.1869538,0.3869138,1.193755,0.4002278,281.6887,280.5586,343.2391,False
0,2.155558,0.312288,-0.05658313,0.2025889,-1.493824,1.416268,-2.37659,0.704319,1.231522,0.4429402,-1.024173,-0.05072395,2.2,0,-0.205109,0.2384598,-0.1197873,-0.5241261,1.420355,0.189641,0.7951487,1.427446,0.3505199,-0.1852349,0.340443,-0.006185074,-1.048718,0.005814879,0.04218367,0.8487913,1.455445,0.1878822,0.3858342,1.19217,0.4000743,281.9255,280.9227,342.799,False
0,2.166669,0.3197595,-0.06189452,0.2015508,-1.494876,1.418403,-2.380512,0.7032706,1.230971,0.4432285,-1.023548,0.05750916,1.9,0,-0.1870514,0.2459146,-0.1294685,-0.5252877,1.42689,0.1854572,0.7937626,1.427309,0.3512776,-0.1765777,0.3468516,0.005430591,-1.048115,0.01052668,0.04143878,0.8478897,1.455561,0.1888168,0.3848461,1.190505,0.3999423,282.1555,281.1285,342.5092,False
0,2.17778,0.3261575,-0.0651048,0.1962406,-1.495748,1.420367,-2.384449,0.7022587,1.230375,0.4435291,-1.023414,0.01155354,1.9,0,-0.1893658,0.2439667,-0.1497135,-0.5272281,1.432927,0.1824383,0.7923491,1.427166,0.3521137,-0.1689401,0.3553983,0.02131261,-1.047156,0.01535046,0.04059217,0.8471043,1.45562,0.1897979,0.3839521,1.188761,0.3998088,282.4059,281.28,342.2898,False
0,2.188891,0.3282917,-0.06408313,0.1877095,-1.496526,1.422072,-2.38833,0.701241,1.229735,0.443814,-1.023167,0.02232898,1.9,0,-0.1839972,0.2513761,-0.1475689,-0.5282614,1.439232,0.1789924,0.791013,1.426909,0.3528945,-0.164474,0.3522463,0.04044824,-1.045927,0.01973802,0.03987311,0.8463552,1.455706,0.1907389,0.3831629,1.18695,0.3996511,282.6647,281.4761,342.038,False
0,2.200002,0.3389264,-0.05558668,0.1780773,-1.497584,1.423434,-2.392549,0.7002195,1.229118,0.4440734,-1.023021,0.01309836,1.9,0,-0.16039,0.2682113,-0.1359069,-0.5286204,1.446438,0.1737862,0.7896737,1.426658,0.3535676,-0.1570565,0.3373152,0.03934122,-1.045442,0.02334807,0.03959029,0.8455496,1.455716,0.1916194,0.3824323,1.185094,0.3994361,282.9368,281.6237,341.843,False
0,2.211113,0.3495387,-0.03634895,0.1854308,-1.49946,1.424803,-2.396891,0.6993313,1.228451,0.444315,-1.022847,0.01580177,1.9,0,-0.1432545,0.2659061,-0.1243552,-0.529071,1.452359,0.1696601,0.7883252,1.426437,0.3543234,-0.1475212,0.313871,0.0371682,-1.045039,0.02654865,0.03919268,0.8447583,1.455757,0.1925392,0.3817152,1.183212,0.3991612,283.2014,281.6583,341.7295,False
0,2.222224,0.348446,-0.02247535,0.1906863,-1.501363,1.426243,-2.400819,0.6984165,1.227767,0.4445374,-1.023075,-0.02108855,1.7,0,-0.1379708,0.2605811,-0.1265811,-0.5301768,1.458228,0.1660286,0.7868941,1.426202,0.3551018,-0.1422763,0.3042431,0.03074936,-1.044767,0.02983619,0.03890133,0.8438368,1.455659,0.1934383,0.3809647,1.181321,0.3988575,283.4655,281.6597,341.6136,False
0,2.233335,0.3515731,0.01060531,0.200099,-1.504088,1.427016,-2.404862,0.6974376,1.227002,0.4447696,-1.023099,-0.002136251,1.7,0,-0.1306783,0.2467984,-0.1384792,-0.5317789,1.463226,0.1628896,0.7855604,1.425993,0.3558402,-0.1306598,0.2956812,0.02212797,-1.044732,0.03325609,0.03822542,0.8429867,1.45567,0.1943426,0.3802104,1.179435,0.3985643,283.7341,281.7849,341.3612,False
0,2.244446,0.3547508,0.02128741,0.2043006,-1.506206,1.428203,-2.409027,0.696409,1.226331,0.4450281,-1.022564,0.04878047,1.7,0,-0.122234,0.2468503,-0.1492147,-0.533469,1.469166,0.1587132,0.7842046,1.425922,0.3565881,-0.1264016,0.2999485,0.01995484,-1.044332,0.03760011,0.03720276,0.842198,1.455718,0.195322,0.3795279,1.177554,0.3982925,284.0035,282.1304,340.9156,False
0,2.255557,0.3558151,0.02240155,0.2138814,-1.508334,1.429836,-2.41309,0.6954983,1.225676,0.4453108,-1.02258,-0.001863778,1.7,0,-0.1180505,0.2447752,-0.156728,-0.5350536,1.475191,0.1547582,0.782926,1.425774,0.3573668,-0.1209725,0.303157,0.02948048,-1.043547,0.04156236,0.03634789,0.8413398,1.455751,0.1961977,0.3788479,1.175694,0.3980433,284.2793,282.5313,340.439,False
0,2.266668,0.3579811,0.003201805,0.20973,-1.509544,1.43189,-2.417182,0.6946557,1.225042,0.4455974,-1.022611,-0.002856494,2,0,-0.1127657,0.2351663,-0.1568579,-0.5364629,1.480151,0.151548,0.7817416,1.425491,0.3580797,-0.1049106,0.2935613,0.03892485,-1.042718,0.04484857,0.03525066,0.8404763,1.455804,0.1970482,0.3780999,1.173872,0.3978438,284.549,282.9974,339.9013,False
0,2.277779,0.3527297,-0.03200156,0.2024613,-1.510024,1.434317,-2.421008,0.6937348,1.224448,0.4459176,-1.022418,0.01756258,2,0,-0.09462865,0.2179358,-0.144379,-0.5373359,1.484068,0.1486087,0.7805613,1.425301,0.3587892,-0.09007873,0.273291,0.03348573,-1.042564,0.04759442,0.03423946,0.839794,1.455892,0.1978199,0.3773319,1.172086,0.3976793,284.8087,283.3416,339.5008,False
0,2.28889,0.3485154,-0.05547869,0.1972634,-1.510602,1.436774,-2.42482,0.6929044,1.223853,0.4462204,-1.022345,0.006497621,2,0,-0.07663485,0.1890651,-0.1415803,-0.538595,1.486508,0.1468872,0.7794573,1.425095,0.3594749,-0.07736924,0.2530342,0.02807139,-1.042504,0.05030525,0.03314544,0.8390243,1.456038,0.1986237,0.3766642,1.170335,0.3975006,285.0542,283.593,339.2084,False
0,2.300001,0.3400531,-0.08322822,0.1920831,-1.51078,1.439522,-2.428474,0.6920669,1.223169,0.4463987,-1.022018,0.02988863,2,0,-0.06300764,0.1688934,-0.1567875,-0.540765,1.489531,0.1446325,0.778246,1.424862,0.3602064,-0.06154092,0.2348694,0.01623339,-1.042717,0.05253205,0.03209295,0.8381376,1.456131,0.1994014,0.3761153,1.168598,0.3972582,285.2672,283.6293,339.1277,False
0,2.311112,0.3315655,-0.09927516,0.185793,-1.511229,1.442271,-2.432113,0.6912657,1.222608,0.4466758,-1.021956,0.005405476,2,0,-0.05138698,0.1700044,-0.1685978,-0.5427703,1.493933,0.1410652,0.7770312,1.424683,0.3609002,-0.0592503,0.2327672,0.03113201,-1.041693,0.05550001,0.03106631,0.8371193,1.45617,0.2001855,0.3756094,1.166869,0.3969275,285.4757,283.5032,339.1763,False
0,2.322223,0.3294221,-0.09291101,0.1836382,-1.512212,1.444386,-2.435894,0.6904131,1.221998,0.4469702,-1.021787,0.01540547,2,0.3,-0.04286675,0.1678616,-0.1719053,-0.5447805,1.498028,0.1373986,0.7756355,1.424725,0.3613226,-0.05279507,0.2253129,0.03853606,-1.040977,0.05811643,0.0301334,0.8360196,1.456205,0.2011161,0.3751474,1.165147,0.3964946,285.6758,283.3923,339.1924,False
0,2.333334,0.3304633,-0.08119927,0.1814504,-1.513447,1.446067,-2.439719,0.689664,1.221489,0.4472539,-1.021775,0.001025631,2,0.3,-0.03643945,0.1677965,-0.1676999,-0.5462399,1.502039,0.1341322,0.7744046,1.424607,0.3619554,-0.04214271,0.217855,0.03951293,-1.040434,0.06084764,0.02883697,0.8349885,1.456315,0.201844,0.3747016,1.163419,0.3959358,285.8769,283.256,339.2173,False
0,2.344445,0.3251225,-0.07161,0.1835329,-1.514801,1.447833,-2.443372,0.6888421,1.220896,0.4475484,-1.021979,-0.01865315,2,0.3,-0.02459861,0.1622618,-0.1497396,-0.5470724,1.505317,0.1313311,0.7731509,1.424289,0.3628709,-0.03883949,0.2125442,0.05014968,-1.039417,0.06332318,0.02781485,0.833851,1.456443,0.2027183,0.3742417,1.161708,0.3952746,286.114,283.1084,339.186,False
0,2.355556,0.3165842,-0.06418329,0.1813646,-1.516003,1.449423,-2.446649,0.6881391,1.220372,0.4477956,-1.022079,-0.008929966,2,0.3,-0.01812914,0.176073,-0.1475506,-0.5483353,1.5105,0.1269385,0.771889,1.424164,0.3635471,-0.03035268,0.2093166,0.04686735,-1.039071,0.06569339,0.02663454,0.8328987,1.456483,0.2033527,0.3737351,1.160032,0.3945926,286.3679,283.0314,339.0296,False
0,2.366668,0.3069969,-0.0610531,0.1728223,-1.516855,1.450911,-2.449973,0.6872723,1.219888,0.4480028,-1.021911,0.01532672,1.6,0.3,-0.022388,0.1889246,-0.1537991,-0.5499976,1.515761,0.1228791,0.7707256,1.423961,0.3642664,-0.02708638,0.2007992,0.05537658,-1.038144,0.06779316,0.02577327,0.8318169,1.456532,0.2041068,0.3732278,1.158409,0.3939748,286.619,283.0033,338.8248,False
0,2.377779,0.2952853,-0.06431353,0.1653855,-1.517569,1.452592,-2.452974,0.6865329,1.219361,0.4481819,-1.021545,0.03334935,1.6,0.3,-0.01806201,0.1941792,-0.1473954,-0.5510474,1.520495,0.119055,0.7695135,1.42381,0.3649459,-0.02382803,0.1944136,0.06281152,-1.037193,0.06994992,0.0248646,0.8310229,1.456775,0.2048507,0.3727165,1.156835,0.3934695,286.8456,283.0277,338.618,False
0,2.38889,0.2835845,-0.06648466,0.1621976,-1.518333,1.454248,-2.455984,0.6857061,1.218842,0.4484704,-1.021604,-0.005609865,1.6,0.3,-0.01780206,0.206765,-0.1238535,-0.5512445,1.525767,0.1147663,0.7683701,1.423707,0.365587,-0.02592146,0.1784527,0.06926157,-1.036167,0.07155621,0.02439429,0.8300804,1.45692,0.2055242,0.3722196,1.155329,0.3930879,287.0701,283.0443,338.4855,False
0,2.400001,0.2761131,-0.05690421,0.1642752,-1.519579,1.455732,-2.459044,0.6849039,1.218402,0.4487109,-1.02134,0.02423509,1.6,0.3,-0.01565681,0.2131622,-0.1248823,-0.5523934,1.531146,0.1103606,0.7671773,1.423511,0.3661494,-0.02269801,0.1624771,0.07458288,-1.035294,0.07300976,0.02377936,0.8291635,1.457096,0.206145,0.3716846,1.153896,0.3928215,287.2672,283.0328,338.4379,False
0,2.411112,0.2729052,-0.05156233,0.1685113,-1.520933,1.457345,-2.462041,0.6841255,1.218006,0.448972,-1.021394,-0.00504563,1.6,0.3,-0.01359342,0.2003786,-0.126073,-0.5536563,1.534886,0.1072681,0.7661086,1.423398,0.3667357,-0.01508778,0.1699529,0.08833805,-1.033792,0.07543377,0.02243766,0.8282441,1.457234,0.2067995,0.3711708,1.152534,0.3926296,287.439,283.0385,338.3962,False
0,2.422223,0.2654619,-0.05369483,0.1706486,-1.522005,1.459039,-2.464935,0.6832428,1.21763,0.4492302,-1.021536,-0.01292295,1.4,0.4,-0.004039779,0.1810988,-0.1188618,-0.5545895,1.537654,0.1047919,0.7650769,1.423222,0.3672438,-0.01088701,0.1667135,0.08296981,-1.033118,0.07705776,0.02158093,0.8272562,1.45722,0.2074838,0.3706363,1.15124,0.3924915,287.6093,283.1058,338.2871,False
0,2.433334,0.2580146,-0.05798944,0.1674792,-1.522932,1.460773,-2.467682,0.6824133,1.217303,0.4494488,-1.021545,-0.0006903638,1.4,0.4,-0.003057748,0.1587059,-0.1169279,-0.5557085,1.539784,0.1029895,0.764014,1.423135,0.3678448,-0.007763833,0.1560427,0.07763598,-1.032397,0.07865673,0.02073777,0.8263465,1.457337,0.2081258,0.370105,1.150021,0.3923765,287.795,283.2754,338.0885,False
0,2.444445,0.2452686,-0.07082689,0.1622152,-1.523412,1.462654,-2.470259,0.681551,1.216993,0.4497283,-1.021498,0.004386495,1.4,0.4,-0.004264437,0.1363671,-0.1203009,-0.5570918,1.541506,0.1017967,0.7629539,1.423234,0.3683331,-0.003584296,0.1506876,0.07120611,-1.031905,0.08026208,0.01991059,0.8256022,1.457565,0.2088165,0.3695743,1.148879,0.3922455,287.9742,283.4424,337.9014,False
0,2.455556,0.2367879,-0.08901492,0.1505932,-1.523473,1.464657,-2.472789,0.6806648,1.216771,0.4499218,-1.021409,0.008145787,1.4,0.4,-0.008680187,0.1226274,-0.1310312,-0.5588452,1.543603,0.100264,0.7619157,1.42317,0.3688312,-0.00672698,0.1496382,0.07656664,-1.030816,0.08214414,0.01911537,0.8247716,1.457604,0.2092445,0.3690018,1.147802,0.3920637,288.132,283.5305,337.7863,False
0,2.466667,0.2293672,-0.1039911,0.1421512,-1.523478,1.466775,-2.475291,0.6798235,1.216481,0.4502127,-1.021298,0.01009746,0.9,0.6,-0.01601764,0.1289604,-0.12026,-0.5596665,1.546893,0.09790899,0.7607353,1.423245,0.369251,-0.01317158,0.1421786,0.07239313,-1.030034,0.08364243,0.0186621,0.8239008,1.457754,0.2097716,0.3684217,1.146783,0.3918049,288.2722,283.5326,337.7278,False
0,2.477778,0.2166268,-0.1232753,0.1273417,-1.523003,1.468926,-2.477432,0.6790341,1.216213,0.4504449,-1.021317,-0.001731847,0.9,0.6,-0.02857546,0.1341395,-0.09560215,-0.5597054,1.550123,0.09600776,0.7597516,1.42321,0.3697796,-0.01851116,0.1283166,0.07355411,-1.029035,0.0842969,0.01866556,0.8230569,1.457868,0.2105479,0.3678252,1.145813,0.3914676,288.4008,283.4263,337.7427,False
0,2.488889,0.1985479,-0.1382739,0.1189017,-1.522568,1.471211,-2.479167,0.6782699,1.215992,0.4507136,-1.021372,-0.00489118,0.9,0.6,-0.04541384,0.1489915,-0.07935246,-0.5598673,1.554108,0.093694,0.7586436,1.423127,0.3702898,-0.01860689,0.1229704,0.06504458,-1.0286,0.08566071,0.01816995,0.8222475,1.457976,0.2111595,0.3672273,1.144883,0.3910531,288.5171,283.2283,337.8221,False
0,2.5,0.1868316,-0.1383265,0.1146452,-1.522587,1.47315,-2.481006,0.6775228,1.215802,0.450974,-1.021103,0.02465698,0.9,0.6,-0.0432434,0.1617852,-0.08139393,-0.5607089,1.558451,0.09036292,0.7576265,1.423056,0.3707261,-0.02179149,0.1346806,0.06397858,-1.027957,0.08769989,0.01744264,0.821506,1.458263,0.2118025,0.3666703,1.143972,0.3905833,288.6079,283,337.8985,False
0,2.511111,0.1857589,-0.1351499,0.1114326,-1.522626,1.474925,-2.483091,0.6767572,1.215578,0.4512224,-1.020772,0.03020398,0.9,0.6,-0.04426617,0.1670982,-0.07920972,-0.5613523,1.562436,0.08751893,0.7566776,1.423003,0.3711679,-0.02487176,0.138972,0.0746535,-1.026742,0.08962908,0.01683171,0.820716,1.458379,0.2123899,0.366166,1.143067,0.3900811,288.7057,282.7131,338.0242,False
0,2.522222,0.174016,-0.1202756,0.1081603,-1.523046,1.476224,-2.484811,0.6759846,1.215396,0.4514911,-1.020992,-0.02032608,0.5,0.8,-0.05276216,0.1639008,-0.07384075,-0.5618844,1.565752,0.08565711,0.7557333,1.423012,0.3716857,-0.02158561,0.1400326,0.08315037,-1.025375,0.09109329,0.01613583,0.8199549,1.458518,0.2129459,0.3656893,1.142195,0.3895747,288.8436,282.4301,338.1388,False
0,2.533333,0.165463,-0.1064776,0.1016991,-1.523364,1.477368,-2.486406,0.6752675,1.215175,0.4517591,-1.021394,-0.03649477,0.5,0.8,-0.04955117,0.155313,-0.06754019,-0.5622237,1.568616,0.08368957,0.754879,1.422948,0.3721473,-0.01198605,0.128305,0.08627594,-1.024294,0.09224005,0.01532916,0.8192438,1.458611,0.2134676,0.365209,1.141391,0.3891017,288.9878,282.2315,338.1762,False
0,2.544444,0.1569114,-0.09370847,0.102694,-1.523855,1.478559,-2.487894,0.6744939,1.214999,0.4520185,-1.02119,0.01904283,0.5,0.8,-0.03899301,0.145728,-0.0741073,-0.5631899,-4.712111,0.08161097,0.75392,1.422871,0.3725638,-0.009888873,0.1229673,0.08306892,-1.023539,0.0935996,0.01456643,0.8185409,1.458593,0.2138014,0.364699,1.140649,0.3886965,289.1018,282.0966,338.1616,False
0,2.555555,0.1398527,-0.08736922,0.09946913,-1.524202,1.479764,-2.488884,0.6737826,1.214796,0.4522932,-1.02114,0.004390093,0.5,0.8,-0.03601303,0.1288066,-0.09025525,-0.5646487,-4.710201,0.08035156,0.7531267,1.422745,0.3731368,-0.006763577,0.1197511,0.07665244,-1.022897,0.09497285,0.01381488,0.8178798,1.458643,0.2142911,0.3641416,1.139969,0.3884008,289.207,282.0255,338.099,False
0,2.566666,0.1281359,-0.08528581,0.09519641,-1.524368,1.481002,-2.490116,0.6730777,1.214549,0.4526217,-1.021135,0.0005137783,0.5,0.8,-0.03714934,0.1192508,-0.09352209,-0.565739,-4.708138,0.07907804,0.7523347,1.422675,0.3736007,-0.006889567,0.1175841,0.0660034,-1.022506,0.09622987,0.01347,0.8172814,1.458735,0.2148285,0.3635642,1.139351,0.3882342,289.2947,281.9862,338.0427,False
0,2.577777,0.120658,-0.0736072,0.09087233,-1.524782,1.48187,-2.491343,0.672318,1.21444,0.4529047,-1.020756,0.03482733,0.4,0.5,-0.03384384,0.122354,-0.0828659,-0.566081,-4.704934,0.07659651,0.7514551,1.42278,0.3739913,-0.004754879,0.1133081,0.0670626,-1.021611,0.09730538,0.01286174,0.8166617,1.458815,0.2152665,0.3629681,1.138795,0.388182,289.3726,281.9926,337.9906,False
0,2.588888,0.1142521,-0.06725842,0.08551465,-1.525065,1.482807,-2.492481,0.6716133,1.214292,0.4531648,-1.021086,-0.0303713,0.4,0.5,-0.02938247,0.1135798,-0.05527857,-0.5657385,-4.703113,0.0752375,0.7507342,1.422737,0.3743999,-0.0005282536,0.1058387,0.06490617,-1.020938,0.09840807,0.01215014,0.8160158,1.458887,0.2157521,0.3623855,1.138304,0.3882111,289.432,281.9875,337.9771,False
0,2.599999,0.1035875,-0.0630367,0.08229744,-1.525372,1.483768,-2.493369,0.6709828,1.214149,0.4532928,-1.02126,-0.01554183,0.4,0.5,-0.02617601,0.1071263,-0.05003008,-0.5660565,-4.701275,0.07396077,0.7500027,1.422718,0.3747344,0.001544192,0.1026149,0.05956655,-1.020386,0.09938718,0.01152696,0.8152435,1.458954,0.2161491,0.3618151,1.137867,0.3882947,289.4733,281.9857,337.964,False
0,2.61111,0.08972387,-0.05559747,0.08439495,-1.525996,1.48475,-2.494002,0.6703913,1.214045,0.4535246,-1.021279,-0.001556907,0.4,0.5,-0.03268195,0.08800727,-0.05333111,-0.5667548,-4.700564,0.07394746,0.7493055,1.42271,0.3751154,0.002594672,0.09835164,0.05850011,-1.019737,0.1006211,0.01077675,0.8147359,1.45917,0.2162678,0.3612273,1.13748,0.3884147,289.5258,282.027,337.9203,False
0,2.622221,0.0812026,-0.05134754,0.08543538,-1.526508,1.485654,-2.494818,0.6697829,1.213949,0.4536798,-1.021124,0.01421484,0.7,0.6,-0.03267769,0.09442344,-0.055409,-0.567404,-4.697824,0.07209843,0.7486345,1.422637,0.3756173,-0.0006138012,0.09090015,0.05854981,-1.019067,0.1015288,0.01042015,0.8141607,1.459255,0.2166297,0.3606665,1.137128,0.3885328,289.5626,282.0874,337.8855,False
0,2.633332,0.07477514,-0.03431775,0.08428776,-1.527441,1.486067,-2.495478,0.6691844,1.213913,0.4539475,-1.020961,0.01488215,0.7,0.6,-0.02935532,0.1017752,-0.04471774,-0.5674014,-4.695283,0.07012343,0.7481325,1.422612,0.3759911,0.0004236624,0.07596848,0.05856695,-1.018484,0.1015798,0.01038446,0.8136463,1.459233,0.217581,0.3601649,1.13681,0.3885934,289.6037,282.1606,337.8451,False
0,2.644443,0.07477161,-0.03109843,0.08959801,-1.528195,1.487039,-2.496415,0.6685528,1.2138,0.4541607,-1.021245,-0.02604724,0.7,0.6,-0.03141892,0.09208983,-0.03199696,-0.5673013,-4.693911,0.06937135,0.7476022,1.422606,0.3763244,-0.0007168204,0.06103306,0.0543463,-1.018092,0.1014643,0.01061589,0.81315,1.459376,0.2180512,0.3597013,1.136539,0.3885715,289.662,282.2348,337.7687,False
0,2.655554,0.07262501,-0.01940748,0.08527949,-1.528972,1.487437,-2.497354,0.6678523,1.213694,0.4545023,-1.021249,-2.023533E-05,0.7,0.6,-0.0421606,0.07403158,-0.03312198,-0.5677226,-4.693604,0.06993088,0.7470393,1.422621,0.3767431,0.001318209,0.05353324,0.04581805,-1.01787,0.1014939,0.01043666,0.8127314,1.45934,0.2185133,0.3592341,1.13632,0.3884668,289.7169,282.2751,337.6772,False
0,2.666665,0.07474688,-0.01626373,0.07460922,-1.529311,1.487773,-2.49826,0.6672477,1.213624,0.4547033,-1.021582,-0.03039931,0.7,0.6,-0.04358277,0.0433583,-0.05893649,-0.5692459,-4.694496,0.07117032,0.7464609,1.422595,0.3769901,0.01308263,0.05778419,0.04995654,-1.017046,0.1024224,0.009456352,0.812241,1.45942,0.2188652,0.358732,1.136158,0.3883299,289.7661,282.33,337.5257,False
0,2.677776,0.07903574,-0.02694535,0.06721628,-1.529426,1.488679,-2.499384,0.6665554,1.213564,0.4549177,-1.021706,-0.0110358,0.8,0.8,-0.03830011,0.04230344,-0.06324897,-0.5699655,-4.693466,0.0705506,0.745885,1.422673,0.3772631,0.005489983,0.05669494,0.03831323,-1.017077,0.1029059,0.009699766,0.8117442,1.459607,0.2189212,0.3581874,1.136024,0.3881786,289.7699,282.375,337.3754,False
0,2.688887,0.08334569,-0.05044596,0.05349174,-1.528747,1.489833,-2.50048,0.6659164,1.213583,0.455122,-1.021724,-0.001635914,0.8,0.8,-0.02869929,0.0411775,-0.06121061,-0.5705689,-4.692612,0.06981876,0.7453904,1.422658,0.377517,-0.004259393,0.05028518,0.02351204,-1.017332,0.1033466,0.009865413,0.8113868,1.459655,0.2191567,0.3575857,1.135877,0.3880709,289.7606,282.4011,337.2315,False
0,2.699998,0.06205573,-0.05912079,0.03436745,-1.528032,1.490521,-2.500551,0.665401,1.213583,0.455245,-1.021949,-0.02044056,0.8,0.8,-0.03827291,0.03694283,-0.05796598,-0.5710201,-4.691767,0.06979879,0.7447543,1.422653,0.3778229,-0.004262473,0.05135119,0.02244894,-1.016988,0.104107,0.00937486,0.8110372,1.459449,0.219543,0.3570005,1.135694,0.3880295,289.7571,282.3877,337.1748,False
0,2.711109,0.07814906,-0.1124443,0.01654308,-1.526143,1.492707,-2.502059,0.6648662,1.213623,0.4554577,-1.021949,0.000155788,0.8,0.8,-0.04883406,0.03690292,-0.04722241,-0.571182,-4.69098,0.07007789,0.7442176,1.422688,0.3781295,-0.002123028,0.05667403,0.02241496,-1.016739,0.105018,0.008831308,0.8106495,1.459482,0.2198055,0.3564472,1.13545,0.3880287,289.7639,282.3177,337.2241,False
0,2.72222,0.07607612,-0.1402558,-0.003550649,-1.524128,1.494291,-2.502962,0.664341,1.213643,0.4557352,-1.020978,0.08877973,1.1,0.5,-0.04552482,0.04426388,-0.03867433,-0.5714046,-4.689883,0.06944192,0.7437234,1.422633,0.3782887,-0.005239058,0.06306928,0.02882127,-1.016243,0.1057465,0.00853916,0.8102585,1.45963,0.2202504,0.3559753,1.135132,0.3880316,289.7904,282.1328,337.4043,False
0,2.733331,0.06760625,-0.1648252,-0.01300221,-1.522285,1.496105,-2.503508,0.6639934,1.213636,0.4559908,-1.022292,-0.1208925,1.1,0.5,-0.04110664,0.06655954,-0.03213236,-0.5714707,-4.687233,0.06749915,0.7431655,1.422615,0.37853,-0.007315598,0.06626783,0.03415567,-1.01579,0.1064275,0.008409464,0.8098438,1.45984,0.2204094,0.3555854,1.134779,0.3880221,289.8594,281.8614,337.6736,False
0,2.744442,0.05589974,-0.1723256,-0.01615708,-1.520819,1.497661,-2.50376,0.6637522,1.213611,0.4563267,-1.02189,0.0379002,1.1,0.5,-0.04420878,0.08254157,-0.03091577,-0.5718286,-4.684585,0.06573507,0.7427068,1.422587,0.3787184,-0.01253697,0.07056652,0.04378289,-1.01504,0.1076302,0.0080779,0.8094389,1.459893,0.220686,0.355318,1.134382,0.3879471,289.8745,281.4132,338.0908,False
0,2.755553,0.05160796,-0.1573875,-0.009840839,-1.520224,1.498745,-2.504287,0.6634446,1.213603,0.4566469,-1.02147,0.03792947,1.1,0.5,-0.031146,0.1025328,-0.008487964,-0.5710995,-4.681509,0.06316485,0.7423263,1.422636,0.3790138,-0.01249311,0.06950252,0.0491095,-1.014334,0.1082684,0.008005729,0.8090689,1.460056,0.2210579,0.3551107,1.133919,0.3878248,289.9022,280.9386,338.4749,False
0,2.766664,0.05473227,-0.1188911,0.01658098,-1.520955,1.49936,-2.505193,0.6631812,1.213634,0.4569447,-1.021206,0.02393123,1.1,0.5,-0.01934174,0.09918607,0.003101174,-0.5706355,-4.679696,0.06147801,0.7419714,1.422676,0.3792441,-0.01254545,0.06310091,0.04486408,-1.013964,0.1088409,0.007843542,0.8088435,1.459937,0.2214243,0.3550033,1.133422,0.3876739,289.9697,280.5146,338.7841,False
0,2.777775,0.05362737,-0.09963492,0.03245306,-1.521203,1.500316,-2.50581,0.6629465,1.213661,0.4572144,-1.021557,-0.03213764,2,0.5,-0.009698812,0.08091268,0.0177778,-0.5700145,-4.679133,0.06070542,0.7417276,1.422721,0.3794889,-0.01258218,0.05136392,0.04275241,-1.0137,0.1087759,0.007953797,0.8086138,1.459895,0.2216198,0.3549443,1.132949,0.3875339,290.0832,280.1786,338.991,False
0,2.788886,0.05253867,-0.08785674,0.04410897,-1.521585,1.501316,-2.506415,0.6627678,1.213669,0.4574835,-1.022051,-0.04490076,2,0.5,-0.004577678,0.04791997,0.0110637,-0.5701413,-4.680089,0.06139705,0.7415854,1.422755,0.379714,-0.003216188,0.02254538,0.02567821,-1.013991,0.1079412,0.008127435,0.8084048,1.459894,0.2217495,0.3548413,1.132559,0.3874483,290.2241,280.048,339.0108,False
0,2.799997,0.04509878,-0.09319122,0.0452073,-1.521268,1.50267,-2.506805,0.6625683,1.213645,0.4576864,-1.021816,0.02190194,2,0.5,0.002753222,0.02447986,0.006533707,-0.5703974,-4.681077,0.06174033,0.7412941,1.422814,0.3798239,-7.895939E-05,0.01292644,0.02033978,-1.013947,0.1075464,0.008078965,0.8080992,1.459916,0.2220163,0.3547127,1.13229,0.3874333,290.3412,280.1284,338.8729,False
0,2.811108,0.03873159,-0.1049516,0.03994456,-1.520559,1.504059,-2.507087,0.6623749,1.213686,0.4578803,-1.021786,0.002517467,2,0.5,0.01203329,-0.01271234,-0.009839715,-0.5711447,-4.68367,0.06346073,0.7411793,1.422818,0.3800213,-0.0001418348,0.001198368,0.01610613,-1.013916,0.1070689,0.008334896,0.8078833,1.459919,0.2221701,0.3545945,1.132137,0.3874565,290.3951,280.1701,338.8179,False
0,2.822219,0.03452147,-0.1285019,0.02089202,-1.518823,1.505625,-2.507502,0.6623124,1.213719,0.4580941,-1.021585,0.01840773,2,0.5,0.01295999,-0.0232832,-0.02059131,-0.5717748,-4.684679,0.06415076,0.7410669,1.422835,0.3803179,0.00507114,-0.006298878,0.006478189,-1.014245,0.1065427,0.008434231,0.8077859,1.459903,0.2223737,0.3546744,1.132025,0.3876022,290.3772,280.1833,338.8307,False
0,2.83333,0.03137138,-0.1509788,0.00290186,-1.516867,1.507279,-2.507851,0.6621561,1.213802,0.4582906,-1.0215,0.007610213,2.1,0.8,0.01080064,-0.01147684,-0.0300668,-0.5724502,-4.684039,0.06358563,0.7409639,1.422841,0.3805139,0.006161732,-0.01055446,0.009673023,-1.014051,0.1062326,0.008494153,0.8076379,1.45991,0.2225053,0.3545291,1.132,0.3875942,290.3597,280.0867,338.9585,False
0,2.844441,0.04311867,-0.1680628,-0.008724757,-1.515129,1.508986,-2.50874,0.6620448,1.213954,0.4584472,-1.021669,-0.0154399,2.1,0.8,0.0077126,0.001265647,-0.02353882,-0.5724033,-4.683183,0.06296778,0.7409357,1.422893,0.3807275,0.009399725,-0.02013378,0.01605046,-1.013689,0.1055509,0.008760202,0.8075706,1.459951,0.2224741,0.3544433,1.132011,0.3874942,290.3005,279.8713,339.1353,False
0,2.855552,0.04954464,-0.1819002,-0.008652389,-1.513641,1.510913,-2.509664,0.6618505,1.213984,0.4586425,-1.021663,0.0007408322,2.1,0.8,0.005664098,0.001178754,-0.01287085,-0.5721865,-4.683423,0.0633068,0.7409337,1.42277,0.38082,0.007260077,-0.03397454,0.01716843,-1.013508,0.1045875,0.00919696,0.8074841,1.459863,0.2224712,0.3544576,1.132012,0.3873123,290.2193,279.4658,339.4468,False
0,2.866663,0.06128283,-0.1925397,-0.01072668,-1.512087,1.512801,-2.510762,0.6616946,1.214042,0.4588876,-1.022217,-0.05064585,2.1,0.8,0.004567867,-0.01376578,-0.008725512,-0.5721908,-4.684672,0.06436142,0.740895,1.422763,0.3809745,0.00932221,-0.03612204,0.009697685,-1.013611,0.1041401,0.009100288,0.8075081,1.459769,0.2226405,0.3544976,1.131792,0.3871081,290.2838,279.3079,339.4492,False
0,2.877774,0.06237271,-0.198902,-0.005359828,-1.510874,1.514825,-2.511684,0.6614569,1.21408,0.4590514,-1.022289,-0.006203706,2.2,0.4,0.009844536,-0.01801787,-0.01200548,-0.5724944,-4.68505,0.06442533,0.7407227,1.422738,0.3811681,0.01140828,-0.03186378,0.004342122,-1.013678,0.1041723,0.008841428,0.807431,1.459851,0.2225726,0.3545684,1.131312,0.38693,290.3864,278.7393,339.9643,False
0,2.888885,0.06877223,-0.2020612,-0.00108289,-1.50962,1.516781,-2.512771,0.6613019,1.214136,0.4593015,-1.022425,-0.01249384,2.2,0.4,0.01509585,-0.02438838,-0.01743115,-0.5729125,-4.685891,0.06479311,0.7406578,1.422719,0.3813162,0.009227265,-0.02974186,-0.0009673965,-1.013863,0.1038725,0.008970059,0.8073666,1.459849,0.2226427,0.3546479,1.130806,0.386655,290.4885,278.4933,340.1175,False
0,2.899997,0.07835322,-0.1988554,-0.003232256,-1.508294,1.518412,-2.514051,0.6611419,1.214178,0.4595685,-1.022213,0.01950368,2.2,0.4,0.01403198,-0.01904082,-0.01951078,-0.5732188,-4.685901,0.06476435,0.7406535,1.422673,0.3814142,0.0006968975,-0.02759772,-0.0008893879,-1.013924,0.1035566,0.009606821,0.8071833,1.459987,0.2229631,0.3547356,1.130304,0.3862678,290.5538,278.2269,340.2668,False
0,2.911108,0.08367519,-0.1967076,-0.002179377,-1.507061,1.520142,-2.515277,0.6609933,1.214228,0.4597924,-1.022316,-0.009665312,2.2,0.4,0.007636155,-0.01793806,-0.02051176,-0.5734974,-4.68619,0.06512121,0.7405823,1.422632,0.3815114,0.0007419577,-0.02652256,0.003369083,-1.013744,0.1032683,0.009753827,0.8071268,1.459992,0.2230303,0.3549343,1.129709,0.3856198,290.5759,277.0344,341.1875,False
0,2.922219,0.08791997,-0.1882173,-0.009680875,-1.505741,1.521423,-2.516515,0.6608313,1.21421,0.4599557,-1.0225,-0.01672756,2.2,0.4,0.0003188094,-0.0105546,-0.007597195,-0.5730888,-4.686029,0.0653316,0.7404656,1.422704,0.3815165,-0.003495031,-0.02225167,0.005539702,-1.013482,0.1031023,0.01006142,0.8070127,1.459975,0.2234461,0.3552327,1.129331,0.385336,290.637,277.2427,340.8452,False
0,2.93333,0.08894663,-0.1701168,-0.01190343,-1.504855,1.522413,-2.517634,0.6607821,1.214258,0.4602108,-1.022403,0.00893357,2,0,0.003678402,0.003180886,0.004208398,-0.5725977,-4.685143,0.06443598,0.7403727,1.422675,0.381619,0.001790192,-0.01908797,0.001211168,-1.013718,0.1027169,0.01011282,0.8069698,1.459919,0.2235012,0.3553624,1.129124,0.3853493,290.6653,278.0793,339.9953,False
0,2.944441,0.08039511,-0.1541692,-0.01411803,-1.503962,1.523298,-2.518375,0.660746,1.21432,0.4603775,-1.022378,0.002209339,2,0,0.008039564,0.02446944,0.004352704,-0.5724651,-4.683202,0.06243808,0.7402904,1.422624,0.3817916,-0.004560157,-0.01585579,0.005533616,-1.013454,0.1029049,0.01038659,0.8068943,1.459927,0.2235,0.3553609,1.128893,0.3855413,290.6706,277.9949,340.1504,False
0,2.955552,0.0771873,-0.1488646,-0.01627763,-1.502837,1.524406,-2.519201,0.6607376,1.214329,0.4605649,-1.022231,0.0133886,2,0,-0.004744329,0.03737202,-0.00181623,-0.5725924,-4.681404,0.06149825,0.7402208,1.422614,0.3818541,-0.005600977,-0.01159853,0.006599518,-1.01335,0.102753,0.01045051,0.8068839,1.459896,0.2237072,0.355292,1.1287,0.3858361,290.6392,277.9631,340.2809,False
0,2.966663,0.07078405,-0.145706,-0.02055409,-1.501631,1.52548,-2.519794,0.6607873,1.214382,0.4607491,-1.021822,0.03725478,2,0,-0.002578177,0.03518648,0.003474568,-0.5723527,-4.680888,0.0610282,0.7402455,1.422596,0.3820009,-0.00446905,-0.01052017,0.01297764,-1.012984,0.1026614,0.01049472,0.8068681,1.459904,0.2237458,0.3553026,1.128576,0.3861221,290.5641,277.601,340.6612,False
0,2.977774,0.06440683,-0.154289,-0.02903138,-1.499909,1.526795,-2.520387,0.6608714,1.214452,0.460921,-1.021855,-0.003299752,2.2,0,0.002756009,0.02552586,0.009745669,-0.5719373,-4.680953,0.06088972,0.7402243,1.422683,0.38202,-0.001240872,-0.01692108,0.01721481,-1.012754,0.1019032,0.01080604,0.8069296,1.459843,0.2237577,0.3553762,1.128538,0.386272,290.5023,277.3268,340.9357,False
0,2.988885,0.05910774,-0.1670953,-0.03109293,-1.498229,1.52843,-2.520998,0.6609595,1.214553,0.4611416,-1.021656,0.0182262,2.2,0,0.0219217,0.007259293,0.01794975,-0.5714009,-4.682044,0.0608993,0.7402548,1.422726,0.3821044,0.000871744,-0.0211883,0.01613791,-1.012636,0.1014249,0.01099699,0.806932,1.459854,0.223757,0.3555192,1.128491,0.3863017,290.4507,277.1532,341.0908,False
0,2.999996,0.05164846,-0.1671311,-0.03428669,-1.496753,1.529689,-2.521414,0.6610255,1.214683,0.4612327,-1.021651,0.0003413445,2.2,0,0.01860863,0.002036002,0.007286242,-0.5716379,-4.682241,0.06102633,0.740353,1.42277,0.3821449,-0.009838938,-0.02011977,0.009852713,-1.012755,0.1012177,0.01150725,0.8069496,1.459833,0.2238202,0.3557256,1.128394,0.3862692,290.4361,277.1246,341.0899,False
0,3.011107,0.05802791,-0.1618003,-0.03644603,-1.495446,1.53072,-2.52234,0.6610934,1.214789,0.4613819,-1.021688,-0.003359499,2.2,0,0.01971208,0.008413772,0.008395768,-0.5715293,-4.681687,0.06030515,0.7404357,1.422861,0.3822165,-0.01197261,-0.02757071,0.01095664,-1.012615,0.100541,0.01212431,0.8069733,1.459734,0.223732,0.3559982,1.128245,0.386226,290.4372,277.0241,341.1525,False
0,3.022218,0.05694236,-0.1522043,-0.03436793,-1.494366,1.531664,-2.523036,0.6611848,1.214915,0.4616179,-1.021565,0.01130282,2.2,0,0.02420948,0.01887171,0.02975826,-0.5703149,-4.680587,0.05890486,0.7404759,1.422871,0.3821845,-0.01085873,-0.02435599,0.01520479,-1.012199,0.1005313,0.01219488,0.8070493,1.459636,0.2238615,0.3562978,1.128082,0.3861948,290.453,276.9923,341.1599,False
0,3.033329,0.06116916,-0.1362119,-0.03338854,-1.493531,1.532271,-2.523935,0.6612503,1.215028,0.4618034,-1.022108,-0.04973113,2.5,0,0.02110416,0.01130739,0.04356778,-0.5694669,-4.681078,0.05911951,0.7405913,1.422968,0.3820729,-0.005513968,-0.02650478,0.01727907,-1.012044,0.09986947,0.01240181,0.8071092,1.459705,0.2239408,0.3565633,1.12795,0.3861791,290.4791,276.9669,341.1735,False
0,3.04444,0.05686196,-0.1138512,-0.03350759,-1.49293,1.532455,-2.52447,0.6613256,1.215129,0.4619553,-1.021957,0.01428326,2.5,0,0.02094027,-0.002442267,0.03173441,-0.5695223,-4.681966,0.05964868,0.7407535,1.422991,0.3820808,-0.0002479842,-0.03503966,0.01191986,-1.012078,0.09921114,0.01244469,0.8071618,1.459761,0.22387,0.3567904,1.127836,0.3861981,290.4887,276.8828,341.2324,False
0,3.055551,0.04296109,-0.08726097,-0.03577484,-1.492513,1.532256,-2.524517,0.6614376,1.215068,0.4620624,-1.022155,-0.0182956,2.5,0,0.02399673,-0.01836444,0.02304818,-0.5696576,-4.683299,0.06029343,0.7408646,1.423015,0.3820856,-0.0003839843,-0.04572649,0.001296481,-1.012358,0.09803402,0.01321407,0.8072215,1.459803,0.2237706,0.3569902,1.12773,0.3862673,290.4981,276.7582,341.3142,False
0,3.066662,0.03435791,-0.05111671,-0.0466186,-1.492152,1.531191,-2.524511,0.6615772,1.215108,0.4621544,-1.021845,0.02855294,2.5,0,0.02468881,-0.04368429,-0.007001239,-0.5708166,-4.685699,0.0620125,0.7410339,1.423063,0.3820968,0.00602881,-0.03934294,0.002281834,-1.012298,0.0977484,0.01306414,0.8073281,1.459815,0.2237029,0.3571568,1.127628,0.3863766,290.4975,276.6029,341.4333,False
0,3.077773,0.03327006,-0.03941551,-0.04881241,-1.49155,1.53097,-2.524916,0.6617477,1.215197,0.4622355,-1.021374,0.04280353,2.4,0,0.0215465,-0.03943508,-0.003746046,-0.5707735,-4.686108,0.06214033,0.7411506,1.423127,0.3821425,0.007102626,-0.0372248,0.002263287,-1.012298,0.09716637,0.01319756,0.8074013,1.459796,0.2236934,0.3572943,1.127531,0.3865058,290.4791,276.3894,341.6106,False
0,3.088884,0.03111731,-0.02986662,-0.05525472,-1.490883,1.53047,-2.525131,0.661907,1.215302,0.4623284,-1.0214,-0.00267879,2.4,0,0.02283218,-0.01932555,0.01132726,-0.5701306,-4.685373,0.06122448,0.7412961,1.423192,0.3821263,-0.0003376752,-0.04040326,0.004476993,-1.012165,0.0965348,0.01379597,0.8075267,1.459786,0.2236502,0.3573998,1.127448,0.3866344,290.4578,276.1587,341.7949,False
0,3.099995,0.0151264,-0.02463967,-0.06699628,-1.489875,1.529994,-2.524741,0.6621674,1.215451,0.4624503,-1.021817,-0.03802632,2.4,0,0.02084888,-0.009833019,0.02314015,-0.5694835,-4.685174,0.06083725,0.7414683,1.423234,0.3821902,-0.002416557,-0.03614163,0.008748624,-1.01194,0.0959734,0.01417254,0.8077507,1.459836,0.2236636,0.3574875,1.12741,0.3867891,290.4664,275.9158,341.9933,False
0,3.111106,-0.00298945,-0.02258254,-0.07339576,-1.488903,1.529554,-2.5241,0.6624446,1.215554,0.4626114,-1.021733,0.008008206,2.4,0,0.01456327,-0.008837754,0.03492182,-0.5686775,-4.685351,0.0610511,0.7416406,1.423266,0.3821988,-0.006730595,-0.02762879,0.00344046,-1.012164,0.09583931,0.01463354,0.8079066,1.460022,0.22368,0.3576175,1.127392,0.386952,290.4783,275.6117,342.2852,False
0,3.122217,-0.01472535,-0.01306732,-0.0798348,-1.488007,1.529008,-2.523619,0.66271,1.215722,0.4628201,-1.021162,0.05219267,2.4,0,0.01991752,-0.006755643,0.03808377,-0.5682712,-4.685389,0.06077706,0.741818,1.42321,0.3824584,-0.01095036,-0.02228779,0.006666932,-1.011981,0.09572799,0.01495338,0.8080711,1.46003,0.2236679,0.357786,1.127369,0.3871223,290.4981,275.2768,342.6063,False
