loc,t,aDotUA,bDotUA,gDotUA,aUA,bUA,gUA,xUA,yUA,zUA,qE,qDotE,emgA,emgB,aDotSH,bDotSH,gDotSH,aSH,bSH,gSH,xSH,ySH,zSH,aDotUB,bDotUB,gDotUB,aUB,bUB,gUB,xUB,yUB,zUB,xHand,yHand,zHand,aHand,bHand,gHand,enable
2,0,0.01661988,-0.6637827,0.1142509,-1.439725,-4.188004,3.097376,0.6396769,1.279281,0.5091844,-1.512759,-0.02282046,40.7,35.5,-0.1456715,0.1911532,-0.07305389,-0.7462891,-4.071386,-0.3036166,0.6450054,1.534915,0.4047782,-0.0350958,0.1642066,0.108111,-0.5823321,0.4732122,-0.1664252,0.7593917,1.631193,0.2229395,0.4218346,1.12933,0.3011893,300.6025,237.7836,350.7463,False
2,0.01111111,0.01128902,-0.668082,0.1110994,-1.441213,-4.180439,3.096534,0.6383034,1.279143,0.5087318,-1.512611,0.01388017,40.7,35.5,-0.1467009,0.1751593,-0.06883647,-0.7472953,-4.069709,-0.3031969,0.6441194,1.534813,0.404732,-0.03626029,0.1482958,0.09525423,-0.5819273,0.4755202,-0.1679472,0.7587849,1.631226,0.2229962,0.4222683,1.129198,0.2998348,300.649,237.2734,350.7549,False
2,0.02222222,-0.001407668,-0.6926616,0.1069841,-1.444096,-4.164272,3.09479,0.6355954,1.278793,0.5078189,-1.512846,-0.02155323,40.7,35.5,-0.1283718,0.1771991,-0.03806701,-0.7484388,-4.064085,-0.3050574,0.6424013,1.534619,0.4044089,-0.04584248,0.1259246,0.09628394,-0.5801329,0.4802369,-0.1705723,0.7576038,1.631302,0.223161,0.4224716,1.128896,0.2980198,300.7021,237.1645,350.6136,False
2,0.03333334,-0.004584908,-0.7012231,0.1027755,-1.445494,-4.156142,3.093913,0.6341859,1.278621,0.5074213,-1.513172,-0.02947692,34.8,32.5,-0.1250599,0.1803499,-0.02210356,-0.7488329,-4.060956,-0.306132,0.6414717,1.534643,0.4042449,-0.04905206,0.1110286,0.09516992,-0.579262,0.4821783,-0.1715158,0.7569546,1.631339,0.2233205,0.4225931,1.128371,0.2952436,300.7904,236.9478,350.5876,False
2,0.04444445,-0.01527327,-0.6970298,0.09746641,-1.446718,-4.148599,3.093546,0.6328987,1.278497,0.507026,-1.513189,-0.001241743,34.8,32.5,-0.1175068,0.2101317,-0.007158341,-0.7495168,-4.056093,-0.3086042,0.6405109,1.534557,0.4042599,-0.05976531,0.09508734,0.08771736,-0.5786724,0.4832119,-0.1713041,0.7563704,1.631353,0.2233777,0.42325,1.127849,0.2920519,300.8779,236.4672,350.4081,False
2,0.05555556,-0.02277937,-0.6896392,0.09213877,-1.448046,-4.141108,3.093126,0.6314251,1.278311,0.5066595,-1.513365,-0.0160161,34.8,32.5,-0.1099935,0.2282173,0.00135581,-0.7503781,-4.051595,-0.3109262,0.6395895,1.534519,0.4041665,-0.06504083,0.1004001,0.0941769,-0.577662,0.4864862,-0.1731089,0.7558778,1.631358,0.2233932,0.4243576,1.127411,0.2887791,300.9735,235.9146,350.008,False
2,0.06666667,-0.03884851,-0.6651864,0.09527421,-1.449523,-4.134693,3.0934,0.6302895,1.278288,0.5063093,-1.513054,0.02869283,34.8,32.5,-0.1120019,0.2547933,0.0195623,-0.7507004,-4.045811,-0.3138445,0.6388348,1.534571,0.4040225,-0.07035857,0.08867707,0.09522948,-0.5766436,0.4878172,-0.1732911,0.7553775,1.631373,0.2234201,0.4256886,1.127061,0.2856316,301.0509,235.3408,349.5545,False
2,0.07777778,-0.04743902,-0.6514023,0.0899156,-1.45074,-4.127881,3.093316,0.6289603,1.278121,0.5059981,-1.513189,-0.0125876,34.8,32.5,-0.1139877,0.2717772,0.03985804,-0.7508479,-4.040357,-0.3165298,0.6382591,1.534729,0.4038548,-0.07242125,0.08970679,0.1037675,-0.5754729,0.4902798,-0.1744679,0.7549057,1.63138,0.2234452,0.4269651,1.126791,0.2827265,301.1267,234.7953,349.1469,False
2,0.08888889,-0.06031415,-0.6365851,0.08030077,-1.451584,-4.12136,3.093697,0.6278247,1.278241,0.5056093,-1.512774,0.03820996,32.1,29.9,-0.1139039,0.2642841,0.0515526,-0.7507328,-4.036144,-0.3183378,0.6377838,1.534914,0.4037492,-0.06807499,0.08645223,0.1154337,-0.5739485,0.4923748,-0.1755364,0.7545254,1.631365,0.2234371,0.4279706,1.126595,0.2801349,301.1917,234.3403,348.8015,False
2,0.1,-0.06782646,-0.6302682,0.07392193,-1.452744,-4.114251,3.093951,0.626684,1.278515,0.505271,-1.513169,-0.03641497,32.1,29.9,-0.1138541,0.2397659,0.05786166,-0.7505661,-4.033403,-0.3190877,0.637318,1.535207,0.4037428,-0.0649676,0.07480368,0.1036306,-0.573368,0.4935589,-0.1760099,0.7541876,1.631402,0.2234812,0.4286696,1.126531,0.2779417,301.2507,234.0163,348.5355,False
2,0.1111111,-0.07856578,-0.6218646,0.05793833,-1.453057,-4.107594,3.094463,0.6255995,1.278909,0.5048904,-1.512921,0.02314774,32.1,29.9,-0.1032135,0.1875788,0.05443078,-0.7501129,-4.033098,-0.3185671,0.6370927,1.535557,0.403748,-0.06606524,0.08547783,0.09943103,-0.5726734,0.4963237,-0.177554,0.7538223,1.631372,0.2234945,0.4290368,1.126585,0.2761168,301.2585,233.7447,348.4109,False
2,0.1222222,-0.09680089,-0.610346,0.03238036,-1.452866,-4.10103,3.095313,0.6246053,1.279612,0.5046079,-1.513073,-0.01407897,32.1,29.9,-0.08730995,0.1279751,0.04135106,-0.749984,-4.033993,-0.317578,0.6369379,1.535794,0.4036884,-0.05975838,0.08766851,0.08767671,-0.5723597,0.4986029,-0.1791551,0.7535235,1.631406,0.2235126,0.4292031,1.126816,0.2746242,301.2875,233.5363,348.3992,False
2,0.1333333,-0.1064918,-0.5987509,0.01638825,-1.452922,-4.09454,3.09607,0.6235385,1.280051,0.5043061,-1.513014,0.005631656,28.6,27.8,-0.08522402,0.08645215,0.03375102,-0.7497044,-4.034903,-0.316061,0.6367808,1.536213,0.4037066,-0.05020661,0.05679584,0.08318849,-0.5714563,0.49782,-0.178313,0.7533101,1.631435,0.2234018,0.429296,1.127258,0.2733465,301.3115,233.3569,348.4666,False
2,0.1444445,-0.1064918,-0.5987509,0.01638825,-1.452922,-4.09454,3.09607,0.6235385,1.280051,0.5043061,-1.512809,0.01885588,28.6,27.8,-0.08522402,0.08645215,0.03375102,-0.7497044,-4.034903,-0.316061,0.6367808,1.536213,0.4037066,-0.05020661,0.05679584,0.08318849,-0.5714563,0.49782,-0.178313,0.7533101,1.631435,0.2234018,0.42938,1.12792,0.2721628,301.3202,233.1051,348.609,False
2,0.1555556,-0.1429533,-0.5681714,-0.01879456,-1.451916,-4.082622,3.099068,0.6217611,1.281425,0.5038567,-1.514494,-0.1541687,28.6,27.8,-0.07848536,0.002158798,0.08030934,-0.7459802,-4.037101,-0.3129803,0.636762,1.537363,0.4036784,-0.03654719,0.007913403,0.05939505,-0.5707586,0.4954644,-0.1759431,0.7530669,1.631587,0.2230313,0.4295382,1.128822,0.2711022,301.2429,232.7416,348.7376,False
2,0.1666667,-0.1751577,-0.5300707,-0.04441158,-1.450595,-4.078031,3.101729,0.6209784,1.282487,0.503684,-1.510956,0.3248122,28.6,27.8,-0.08778994,0.01055528,0.1208829,-0.7433096,-4.035172,-0.3130482,0.6369799,1.538171,0.4036269,-0.02166246,-0.01763422,0.05595147,-0.5701135,0.4937117,-0.1747699,0.7530918,1.631596,0.2227545,0.4296824,1.129819,0.2702772,301.022,232.5948,348.7121,False
2,0.1777778,-0.1997772,-0.5089278,-0.05723028,-1.449881,-4.072912,3.104166,0.6201218,1.283369,0.5034349,-1.512496,-0.1435998,28.6,27.8,-0.08434879,0.01897743,0.1560326,-0.7408014,-4.032919,-0.3139049,0.637217,1.539065,0.4035943,-0.01096062,-0.06880412,0.06306992,-0.5687399,0.4894843,-0.1714096,0.7531019,1.631621,0.222436,0.4296555,1.130888,0.2690067,301.0554,232.2606,348.9813,False
2,0.1888889,-0.2329879,-0.4771883,-0.07538512,-1.448483,-4.068727,3.107507,0.6194479,1.284519,0.5032747,-1.511855,0.06034303,26,28.5,-0.07681568,0.01574939,0.1666236,-0.7386639,-4.031748,-0.3142027,0.637725,1.540041,0.4035351,-0.007710224,-0.09760924,0.07142254,-0.5672906,0.4859804,-0.168344,0.7531413,1.631557,0.2221234,0.429776,1.132154,0.2675196,301.0229,231.733,349.2223,False
2,0.2,-0.2726847,-0.4284721,-0.09998228,-1.446714,-4.06537,3.111589,0.6189583,1.285685,0.5031161,-1.512152,-0.02762945,26,28.5,-0.04823357,-0.01505543,0.1407566,-0.7378304,-4.033313,-0.3134298,0.6384559,1.54111,0.4035444,-0.006811492,-0.1337205,0.05099709,-0.5670259,0.4810213,-0.164079,0.7532928,1.631535,0.2216952,0.4299648,1.133687,0.2659654,300.9634,231.232,349.2924,False
2,0.2111111,-0.3026955,-0.3967147,-0.1170836,-1.444829,-4.062142,3.115668,0.6183679,1.286927,0.502924,-1.511653,0.04607838,26,28.5,-0.0205755,-0.04592341,0.1340759,-0.7361467,-4.035093,-0.3129361,0.6391099,1.54218,0.4035487,0.0004611164,-0.176221,0.02836088,-0.5669289,0.4745509,-0.1588418,0.7535565,1.631549,0.2212307,0.4301519,1.135472,0.2644006,300.8061,230.7783,349.3093,False
2,0.2222222,-0.3468061,-0.3268052,-0.1630809,-1.441423,-4.060784,3.120961,0.6180602,1.28852,0.5027118,-1.511237,0.03789232,26,28.5,0.022177,-0.1141505,0.1516802,-0.7326719,-4.039381,-0.3116436,0.6401606,1.543512,0.403455,0.02052166,-0.2336341,0.006609339,-0.5669242,0.4661075,-0.1525999,0.7539039,1.631559,0.2206988,0.4303197,1.137527,0.2629344,300.6124,230.291,349.3812,False
2,0.2333333,-0.3715412,-0.285466,-0.1844989,-1.438837,-4.058835,3.125536,0.6175681,1.289936,0.5025826,-1.51153,-0.02687342,26,28.5,0.04687233,-0.1813447,0.1768606,-0.7284672,-4.04464,-0.3092694,0.6410934,1.544746,0.4034026,0.0256823,-0.2793342,-0.01389829,-0.567012,0.4576028,-0.1458352,0.7542057,1.631591,0.2202284,0.4303586,1.139845,0.2616065,300.3849,229.778,349.5338,False
2,0.2444444,-0.4134895,-0.2101455,-0.2156198,-1.435223,-4.059273,3.131725,0.6172745,1.291511,0.5025368,-1.510918,0.05648756,25,28.5,0.08991531,-0.3072052,0.2337186,-0.7213598,-4.054183,-0.3046893,0.6423687,1.546188,0.4032235,0.03180851,-0.3239121,-0.04719413,-0.5680256,0.4473715,-0.1377893,0.7546244,1.631562,0.2195871,0.4301747,1.142412,0.2604348,300.131,229.2524,349.7656,False
2,0.2555556,-0.4446392,-0.1559962,-0.2264291,-1.432424,-4.059284,3.137783,0.6170274,1.293016,0.5025856,-1.511818,-0.08253428,25,28.5,0.114618,-0.3381782,0.2611457,-0.7162327,-4.059301,-0.3030025,0.6434401,1.547522,0.4031198,0.03692031,-0.3567978,-0.074035,-0.5691404,0.4379587,-0.1304241,0.7551554,1.631592,0.2188933,0.4296921,1.145256,0.2594914,299.876,228.6689,350.1218,False
2,0.2666667,-0.5048888,-0.02423694,-0.2471087,-1.428789,-4.063993,-3.136854,0.6169921,1.294722,0.5027332,-1.510952,0.08017343,25,28.5,0.1499397,-0.3819143,0.2831338,-0.7107993,-4.065862,-0.3010552,0.6446379,1.548886,0.4030154,0.04757804,-0.3845013,-0.07319167,-0.5692651,0.4280327,-0.1229803,0.7556616,1.631529,0.2182081,0.4289021,1.148329,0.258812,299.5136,228.1362,350.5145,False
2,0.2777778,-0.5339814,0.04907238,-0.2601425,-1.425602,-4.066741,-3.129686,0.6167983,1.296262,0.5028479,-1.511261,-0.02870924,25,28.5,0.1533055,-0.4182048,0.3064392,-0.7050421,-4.072564,-0.2976969,0.6459318,1.550331,0.4028769,0.04752499,-0.3919152,-0.08068524,-0.5698131,0.4196367,-0.1165341,0.7561835,1.631482,0.2175484,0.427778,1.151614,0.2584531,299.1197,227.6855,350.9262,False
2,0.2888889,-0.5887521,0.1478598,-0.2742901,-1.422058,-4.072286,-3.120259,0.6167128,1.297972,0.5029323,-1.509865,0.1281397,23.6,25.3,0.1556408,-0.4289488,0.335149,-0.6989477,-4.078082,-0.2953134,0.6472393,1.551756,0.4026339,0.0441246,-0.4162891,-0.1063481,-0.5713344,0.4089376,-0.1079273,0.7568399,1.631411,0.2167993,0.4263784,1.155095,0.2584434,298.6936,227.3266,351.3436,False
2,0.3,-0.6221986,0.2178128,-0.31819,-1.417188,-4.076969,-3.111435,0.6165402,1.299787,0.5029492,-1.511246,-0.1270442,23.6,25.3,0.1546406,-0.4343069,0.3447283,-0.6935462,-4.08361,-0.2926857,0.648603,1.553207,0.4024155,0.05449396,-0.4512633,-0.141759,-0.5735421,0.3969845,-0.09883923,0.7575692,1.631335,0.2160454,0.4245102,1.158808,0.2587816,298.3105,227.0534,351.7674,False
2,0.3111111,-0.6373248,0.2442267,-0.3512931,-1.412088,-4.08094,-3.103098,0.61624,1.30152,0.5029466,-1.510003,0.1151542,23.6,25.3,0.1334418,-0.4514049,0.3597386,-0.6875312,-4.090181,-0.2882869,0.65003,1.554562,0.4020576,0.06376252,-0.480895,-0.1813951,-0.5763448,0.3846451,-0.08948354,0.7583162,1.631204,0.2152655,0.4222696,1.162735,0.2594291,297.8365,226.8178,352.3341,False
2,0.3222222,-0.6782172,0.2948644,-0.4174588,-1.405311,-4.086123,-3.093349,0.6161335,1.30344,0.5029368,-1.510777,-0.0714905,23.6,25.3,0.1036901,-0.4695487,0.3705467,-0.6815189,-4.097157,-0.2828586,0.6514536,1.555873,0.4016182,0.06883824,-0.4881977,-0.2134368,-0.579417,0.3736221,-0.0812368,0.7591366,1.631125,0.214463,0.4196245,1.166889,0.2602835,297.3759,226.6273,352.9869,False
2,0.3333333,-0.7125041,0.3147857,-0.4526068,-1.39941,-4.090394,-3.083498,0.6159375,1.305176,0.502907,-1.51167,-0.0808097,23.6,25.3,0.08240551,-0.4727577,0.3749477,-0.6760019,-4.103293,-0.2781656,0.6529199,1.557164,0.4012823,0.06657669,-0.4838524,-0.2293777,-0.5820131,0.3641218,-0.07387449,0.7599435,1.631059,0.2136066,0.4167315,1.171265,0.2612707,296.8481,226.2507,353.9295,False
2,0.3444445,-0.7554144,0.351674,-0.4995219,-1.392466,-4.096135,-3.072596,0.615432,1.306884,0.5030091,-1.510913,0.07011209,23.2,24,0.08364165,-0.4664405,0.3994613,-0.6695906,-4.108531,-0.2750012,0.6542672,1.558366,0.400948,0.06013554,-0.4774284,-0.235687,-0.5844898,0.354697,-0.0664203,0.7607728,1.63094,0.2128494,0.4137978,1.175776,0.2623216,296.2294,225.7125,355.0529,False
2,0.3555556,-0.7811444,0.3695395,-0.5261565,-1.386216,-4.10117,-3.062165,0.6151056,1.30866,0.5031667,-1.510954,-0.00412065,23.2,24,0.08164015,-0.4601068,0.4186671,-0.663256,-4.113679,-0.2717791,0.6557109,1.559597,0.400599,0.06436265,-0.4699503,-0.2399457,-0.586982,0.3455722,-0.05967878,0.7616332,1.63077,0.2121198,0.4109195,1.180374,0.263381,295.6233,225.0232,356.2803,False
2,0.3666667,-0.8144536,0.4064867,-0.5688412,-1.378868,-4.10781,-3.050756,0.6141902,1.310428,0.503269,-1.510592,0.03351893,23.2,24,0.05723804,-0.4708071,0.4326554,-0.6567004,-4.120025,-0.2665084,0.6572109,1.560712,0.4001789,0.08034605,-0.4625002,-0.2400408,-0.5893496,0.3365262,-0.05375058,0.7625315,1.630589,0.2113819,0.4081044,1.184999,0.2643262,295.0139,224.2752,357.4816,False
2,0.3777778,-0.8242041,0.4286996,-0.5912874,-1.372253,-4.113886,-3.040287,0.6137118,1.312203,0.5033786,-1.51132,-0.06663603,23.2,24,0.04448745,-0.5017056,0.4358571,-0.6502188,-4.128284,-0.2600532,0.6588332,1.562006,0.3997309,0.08010745,-0.464489,-0.2688062,-0.5929752,0.3267972,-0.04633421,0.7635684,1.630664,0.2103286,0.4052498,1.189633,0.2651305,294.4518,223.4023,358.6696,False
2,0.3888889,-0.8403757,0.4433491,-0.6328537,-1.364297,-4.120364,-3.029045,0.6127267,1.313956,0.5034552,-1.511124,0.01875456,21,22,0.03175011,-0.5326179,0.4411763,-0.6435348,-4.137501,-0.2526176,0.6603198,1.563107,0.399339,0.07889983,-0.460138,-0.2868859,-0.5965864,0.3177019,-0.03965021,0.7644761,1.630525,0.2095721,0.4024109,1.194296,0.2658542,293.9166,222.4402,359.8727,False
2,0.4,-0.8597047,0.4494611,-0.6722353,-1.356328,-4.126532,-3.01757,0.6117803,1.315658,0.5034907,-1.512284,-0.1059732,21,22,0.01688749,-0.5539384,0.4476119,-0.6368412,-4.146449,-0.245128,0.6617644,1.564034,0.3988945,0.08516264,-0.4557989,-0.3050255,-0.6003522,0.3084614,-0.03340296,0.765299,1.630292,0.2089894,0.3993478,1.198987,0.266492,293.421,221.334,1.1584,False
2,0.4111111,-0.8768709,0.4609978,-0.6956733,-1.348526,-4.133283,-3.005763,0.6107999,1.317331,0.5035529,-1.51203,0.02435137,21,22,0.007296264,-0.5262392,0.4477648,-0.6308874,-4.15227,-0.2402318,0.6630813,1.564945,0.3984377,0.08403003,-0.4514952,-0.313518,-0.6040049,0.2997117,-0.02705532,0.7662567,1.630076,0.2082818,0.3962705,1.203725,0.2672283,292.8878,220.1734,2.568417,False
2,0.4222222,-0.898462,0.4958406,-0.7405193,-1.339787,-4.14141,-2.993225,0.6097254,1.31899,0.5036094,-1.511977,0.00465436,21,22,-0.00970614,-0.5028296,0.454347,-0.6246806,-4.158077,-0.2348453,0.6643804,1.565849,0.3979387,0.08083868,-0.4397872,-0.3123668,-0.6072338,0.2915947,-0.0210704,0.7671819,1.629902,0.2075682,0.3929998,1.208455,0.2680122,292.3607,218.8025,4.204551,False
2,0.4333333,-0.9029157,0.5212926,-0.7619131,-1.331919,-4.149701,-2.981017,0.6089821,1.32065,0.5039172,-1.512062,-0.00765641,21,22,-0.03840229,-0.4666626,0.4663781,-0.6182528,-4.162563,-0.2296801,0.6657803,1.566738,0.3974991,0.07981539,-0.4238446,-0.3069421,-0.6102149,0.2839453,-0.01560186,0.7682623,1.629697,0.2069349,0.3895986,1.21318,0.2688909,291.8594,217.3638,5.959289,False
2,0.4444444,-0.9043598,0.6075293,-0.7719122,-1.32464,-4.161105,-2.968284,0.6077754,1.322093,0.5040681,-1.511956,0.01003162,17.7,20.1,-0.05648535,-0.4475042,0.470825,-0.6120498,-4.167696,-0.2241953,0.6668885,1.567543,0.3971119,0.0745241,-0.4132127,-0.3025863,-0.6133308,0.276616,-0.01023906,0.7691351,1.629502,0.2062819,0.3860696,1.217915,0.2698876,291.3906,215.8894,7.774378,False
2,0.4555556,-0.9099356,0.6629651,-0.7689103,-1.318489,-4.172509,-2.954734,0.6068255,1.323945,0.5044076,-1.512605,-0.05924056,17.7,20.1,-0.061896,-0.4432035,0.4580883,-0.6064374,-4.174219,-0.2181254,0.6680816,1.568446,0.3967524,0.06704783,-0.3897671,-0.305613,-0.6169468,0.2701508,-0.005493569,0.7701994,1.629173,0.2055387,0.3824191,1.222701,0.2710886,290.9716,214.3056,9.707108,False
2,0.4666667,-0.9038724,0.7353727,-0.7809981,-1.31152,-4.185279,-2.94164,0.6056273,1.325436,0.504554,-1.51314,-0.04829099,17.7,20.1,-0.06302387,-0.4314585,0.449611,-0.6008507,-4.180055,-0.212594,0.6690782,1.569211,0.3963649,0.05422455,-0.3748255,-0.3107643,-0.6205559,0.2638732,-0.0005355617,0.7710823,1.628985,0.204978,0.3787302,1.227576,0.2726111,290.546,212.7383,11.64123,False
2,0.4777778,-0.8944226,0.771691,-0.7747899,-1.30548,-4.197254,-2.928783,0.6045167,1.327083,0.5045769,-1.512598,0.05015657,17.7,20.1,-0.06304741,-0.4261198,0.4453741,-0.5950791,-4.18621,-0.2068586,0.6701102,1.570079,0.3959365,0.03711462,-0.3556088,-0.3201258,-0.6245193,0.2579358,0.004319914,0.771962,1.628752,0.2042494,0.3746779,1.232553,0.2744184,290.1096,211.3354,13.44345,False
2,0.4888889,-0.9010016,0.8271115,-0.7643834,-1.300006,-4.210523,-2.915017,0.6032979,1.328514,0.5046782,-1.51353,-0.08554479,17.7,18.7,-0.06841487,-0.4303613,0.4390054,-0.5895546,-4.193147,-0.2001858,0.6709025,1.570798,0.3955598,0.02217716,-0.3438736,-0.3231458,-0.6282578,0.252196,0.009255816,0.7727898,1.628552,0.2036738,0.3703425,1.237728,0.2765751,289.7014,210.1478,15.19576,False
2,0.5,-0.8990047,0.8558402,-0.7677382,-1.294074,-4.222873,-2.901793,0.6023288,1.329604,0.5045855,-1.513828,-0.02656195,17.7,18.7,-0.07802054,-0.4207645,0.4369783,-0.584011,-4.198936,-0.1941349,0.6717311,1.57155,0.3951375,0.01043841,-0.3342752,-0.3262134,-0.6321119,0.2463974,0.01419731,0.7735661,1.628353,0.2031434,0.3656795,1.243059,0.2790104,289.2284,208.7499,17.34079,False
2,0.5111111,-0.894874,0.8996008,-0.7541145,-1.289279,-4.236769,-2.888175,0.6010951,1.330919,0.5046439,-1.513396,0.03976776,17.7,18.7,-0.1058348,-0.4058079,0.4201696,-0.579327,-4.204719,-0.1871257,0.6722825,1.57216,0.3947282,-0.01402885,-0.2970099,-0.3226431,-0.6356789,0.2430277,0.01788286,0.7743526,1.628193,0.2026763,0.3608983,1.248502,0.2816652,288.7108,207.3712,19.61068,False
2,0.5222223,-0.8811951,0.952997,-0.7416213,-1.285037,-4.251492,-2.874845,0.599797,1.332175,0.5044961,-1.513765,-0.03404263,17.7,18.7,-0.1507513,-0.368456,0.3961049,-0.5752534,-4.20855,-0.1806965,0.6725367,1.57266,0.3942604,-0.03101951,-0.269343,-0.3159795,-0.6389999,0.2397748,0.02143924,0.7750337,1.62799,0.202296,0.3561023,1.253975,0.2844418,288.1317,205.9171,22.03385,False
2,0.5333334,-0.8642793,0.9882392,-0.7375947,-1.280384,-4.266134,-2.861536,0.5987346,1.333483,0.5044734,-1.513936,-0.01534389,17.7,18.7,-0.1808587,-0.328136,0.3738303,-0.570855,-4.212873,-0.1745249,0.6729587,1.573223,0.3938401,-0.04696575,-0.2469875,-0.3125459,-0.6424264,0.2365538,0.02506168,0.7757384,1.627764,0.2018716,0.3515048,1.259354,0.2872349,287.5551,204.2528,24.66637,False
2,0.5444446,-0.8473818,1.040599,-0.7187278,-1.277151,-4.281924,-2.848196,0.5975765,1.334593,0.5045321,-1.514531,-0.05421565,17.4,15.9,-0.1967953,-0.2959388,0.3657601,-0.5671085,-4.214835,-0.1696852,0.6729404,1.573754,0.3934498,-0.08003727,-0.216069,-0.3195809,-0.6462139,0.2342809,0.02894004,0.7762355,1.62737,0.2015781,0.3469717,1.264639,0.2899391,287.0793,202.6677,27.06204,False
2,0.5555557,-0.8262415,1.100446,-0.6988635,-1.274333,-4.298595,-2.834869,0.5966615,1.335636,0.5045798,-1.51461,-0.006773965,17.4,15.9,-0.2235396,-0.2319935,0.3501659,-0.5635595,-4.214962,-0.1663589,0.6729965,1.574272,0.3929534,-0.1119807,-0.1905075,-0.3192071,-0.6498944,0.2321608,0.03282879,0.7768857,1.627108,0.2012019,0.3424836,1.269824,0.2925594,286.6643,201.1001,29.37311,False
2,0.5666668,-0.8082271,1.14753,-0.6703866,-1.27259,-4.315197,-2.821642,0.5955429,1.336616,0.5046849,-1.515493,-0.08005988,17.4,15.9,-0.2513424,-0.1861595,0.3377191,-0.5601091,-4.215175,-0.1623514,0.6728874,1.574693,0.3925467,-0.1343133,-0.1617646,-0.3146299,-0.6533219,0.231062,0.03595134,0.7774205,1.626893,0.2009346,0.3381848,1.274931,0.2952015,286.3342,199.4436,31.71327,True
2,0.577778,-0.7975989,1.174307,-0.6513895,-1.270627,-4.331358,-2.808372,0.5945137,1.337654,0.5047793,-1.516965,-0.1325328,17.4,15.9,-0.2630861,-0.1595106,0.3357526,-0.5563344,-4.215579,-0.1586131,0.6727957,1.5752,0.3921297,-0.1502188,-0.1394485,-0.3058638,-0.6563739,0.229585,0.03927177,0.7779059,1.626739,0.2006323,0.3340206,1.280028,0.2979377,286.0063,197.8183,33.97526,True
2,0.5888891,-0.7827212,1.203248,-0.6270758,-1.269755,-4.347713,-2.795488,0.5934262,1.338478,0.504889,-1.51861,-0.1478973,16.1,13.7,-0.276977,-0.1445872,0.3305692,-0.5527124,-4.216708,-0.154098,0.6725343,1.575603,0.391772,-0.173666,-0.1213276,-0.3077177,-0.6598434,0.2286057,0.04270219,0.7783117,1.626575,0.2004464,0.3299847,1.285179,0.3008532,285.6605,196.2,36.25205,True
2,0.6000003,-0.7667246,1.223689,-0.6006028,-1.269192,-4.36353,-2.783052,0.5924287,1.339265,0.5049973,-1.520308,-0.1525251,16.1,13.7,-0.2887413,-0.1360489,0.3253544,-0.5491343,-4.218121,-0.1492915,0.6722055,1.575916,0.3914351,-0.1885512,-0.1128192,-0.3043606,-0.6630642,0.2272812,0.04627775,0.7786805,1.626358,0.2003229,0.3259741,1.290443,0.3039344,285.285,194.5766,38.59848,True
2,0.6111114,-0.7667246,1.223689,-0.6006028,-1.269192,-4.36353,-2.783052,0.5924287,1.339265,0.5049973,-1.522875,-0.2318112,16.1,13.7,-0.2887413,-0.1360489,0.3253544,-0.5491343,-4.218121,-0.1492915,0.6722055,1.575916,0.3914351,-0.1885512,-0.1128192,-0.3043606,-0.6630642,0.2272812,0.04627775,0.7786805,1.626358,0.2003229,0.3220253,1.295852,0.3071505,284.9109,192.8034,41.17154,True
2,0.6222225,-0.7324551,1.226206,-0.5517343,-1.2689,-4.394041,-2.759072,0.590242,1.340667,0.5051847,-1.53259,-0.8852574,16.1,13.7,-0.266526,-0.1093368,0.3039669,-0.5430617,-4.219189,-0.1432474,0.6715637,1.576463,0.3908451,-0.2107576,-0.07030408,-0.2847964,-0.6686729,0.2272763,0.05144775,0.7791961,1.625967,0.2000597,0.3186475,1.301256,0.3104684,284.3137,190.9329,44.19163,True
2,0.6333337,-0.7077764,1.206193,-0.5272198,-1.268931,-4.408285,-2.747907,0.5891928,1.341347,0.5053284,-1.519431,1.211178,16.1,13.7,-0.2635334,-0.1081754,0.2751952,-0.5407985,-4.220795,-0.1390261,0.671221,1.576643,0.3904431,-0.2159446,-0.05442338,-0.2665684,-0.6710393,0.2271491,0.05412821,0.7796463,1.625778,0.1998761,0.3164409,1.3059,0.3134678,283.6101,187.6027,48.45077,True
2,0.6444448,-0.6927063,1.180769,-0.5100993,-1.269024,-4.422054,-2.73671,0.5880318,1.342018,0.5053873,-1.527339,-0.733391,15,12.1,-0.2605402,-0.1038258,0.2464236,-0.5390062,-4.22227,-0.1350023,0.6707563,1.576857,0.3901768,-0.2327098,-0.0268991,-0.231144,-0.6722745,0.2284139,0.05632186,0.7797717,1.625606,0.199748,0.3124434,1.310798,0.3160912,283.6724,185.8722,50.20049,True
2,0.655556,-0.6701037,1.145839,-0.4865699,-1.269312,-4.435111,-2.726234,0.5870221,1.342594,0.5054452,-1.529981,-0.2331023,15,12.1,-0.2531514,-0.1005974,0.2368028,-0.5364512,-4.223523,-0.1313881,0.6703708,1.57716,0.3898182,-0.240108,-0.02374542,-0.2236088,-0.6745265,0.2281625,0.05937837,0.7801001,1.625552,0.1997497,0.3082538,1.315938,0.3190925,283.5593,184.0062,52.51584,True
2,0.6666671,-0.6421741,1.110927,-0.4598554,-1.270025,-4.447537,-2.716452,0.5859232,1.34313,0.5053742,-1.530804,-0.07329009,15,12.1,-0.2383299,-0.08990069,0.2239481,-0.5343803,-4.224145,-0.1287481,0.6697751,1.577429,0.38954,-0.2496781,-0.01842904,-0.2213766,-0.6768722,0.2283779,0.06229347,0.7802832,1.625412,0.1996648,0.3044444,1.321044,0.3224521,283.2153,181.7851,55.62539,True
2,0.6777782,-0.6196305,1.086633,-0.4384898,-1.270981,-4.46019,-2.70661,0.5848393,1.34377,0.5053744,-1.532016,-0.1099735,15,12.1,-0.2288382,-0.06322581,0.2122448,-0.5324607,-4.223011,-0.1274293,0.6692387,1.577724,0.3892267,-0.2496857,-0.01523665,-0.2224314,-0.6794779,0.2283381,0.06507141,0.7804317,1.625177,0.199544,0.3011095,1.325939,0.3259382,282.8339,179.2043,59.25321,True
2,0.6888894,-0.5906974,1.061286,-0.4171529,-1.272063,-4.472437,-2.697341,0.583793,1.344311,0.5052674,-1.533146,-0.1019869,15,12.1,-0.2480368,-0.05149768,0.2081444,-0.5304138,-4.222905,-0.1241488,0.6685878,1.578012,0.3889675,-0.2560856,0.01033616,-0.2233203,-0.6819291,0.2302226,0.06668049,0.7805154,1.625062,0.1996245,0.2982357,1.3305,0.3293436,282.5082,176.4894,62.95065,True
2,0.7000005,-0.5713357,1.039137,-0.3883575,-1.273628,-4.484442,-2.68801,0.5827706,1.344895,0.5051599,-1.533635,-0.04363681,11.7,11.6,-0.2725452,-0.05362996,0.2072446,-0.5280671,-4.223656,-0.1195892,0.6679739,1.578304,0.3886988,-0.2613494,0.02946371,-0.2157276,-0.6840207,0.2317672,0.06857507,0.7807535,1.624935,0.1995857,0.2955977,1.334687,0.3324661,282.2613,173.9809,66.26757,True
2,0.7111117,-0.559474,1.020105,-0.3712509,-1.275217,-4.496366,-2.678684,0.5817116,1.345406,0.5050766,-1.534403,-0.06973076,11.7,11.6,-0.2822182,-0.0653071,0.1945045,-0.5260361,-4.22542,-0.1146395,0.6673536,1.578564,0.388376,-0.2644597,0.04858685,-0.2049536,-0.6858305,0.2338599,0.06999906,0.7808712,1.624814,0.1996405,0.2930301,1.33853,0.3352511,282.108,171.9096,68.96369,True
2,0.7222228,-0.5347645,0.9958356,-0.3446074,-1.277076,-4.507545,-2.670355,0.5807052,1.345814,0.5048349,-1.534554,-0.01312153,11.7,11.6,-0.2790544,-0.05357528,0.1902566,-0.5240259,-4.225393,-0.1116189,0.6666533,1.57884,0.3881528,-0.263419,0.05605954,-0.2081209,-0.6881976,0.2355132,0.0716385,0.7809923,1.624677,0.199724,0.290498,1.342062,0.3377263,282.0127,170.1594,71.23089,True
2,0.7333339,-0.5133092,0.993985,-0.3095085,-1.280091,-4.519243,-2.662008,0.57986,1.34613,0.5047295,-1.534708,-0.01391079,11.7,11.6,-0.2749236,-0.02795824,0.1732659,-0.5225586,-4.224087,-0.1097622,0.6659828,1.579031,0.3878779,-0.2548773,0.05711108,-0.2049877,-0.6903574,0.2368272,0.07324386,0.7812197,1.624372,0.1997354,0.2879907,1.345356,0.3399629,281.9468,168.7396,73.09017,True
2,0.7444451,-0.5068021,0.9877573,-0.2807353,-1.283259,-4.530344,-2.653404,0.578879,1.346483,0.5045784,-1.535621,-0.08323903,9.8,8.8,-0.2803129,-0.009823412,0.1648362,-0.5210475,-4.222749,-0.1075797,0.6653152,1.579253,0.387619,-0.2421035,0.04539764,-0.2062114,-0.6927037,0.2372814,0.07519675,0.7813301,1.62421,0.1997333,0.2855238,1.348489,0.3420522,281.8963,167.4339,74.80981,True
2,0.7555562,-0.485266,0.9635387,-0.2433675,-1.286785,-4.540389,-2.645939,0.578023,1.346707,0.5042975,-1.535895,-0.02433192,9.8,8.8,-0.2921335,0.009386584,0.1521887,-0.519857,-4.221112,-0.1051917,0.6646802,1.579446,0.3873439,-0.226067,0.03151534,-0.2000139,-0.6947181,0.237357,0.07705857,0.7814373,1.624157,0.1997364,0.2832023,1.351479,0.3440855,281.8308,166.0529,76.59896,True
2,0.7666674,-0.485266,0.9635387,-0.2433675,-1.286785,-4.540389,-2.645939,0.578023,1.346707,0.5042975,-1.535491,0.03710218,9.8,8.8,-0.2921335,0.009386584,0.1521887,-0.519857,-4.221112,-0.1051917,0.6646802,1.579446,0.3873439,-0.226067,0.03151534,-0.2000139,-0.6947181,0.237357,0.07705857,0.7814373,1.624157,0.1997364,0.2810337,1.354374,0.3461816,281.7247,164.6646,78.36715,True
2,0.7777785,-0.4412852,0.9170243,-0.205989,-1.292857,-4.559858,-2.631848,0.5763311,1.347219,0.5036802,-1.54076,-0.4821168,9.8,8.8,-0.2761412,-0.01085888,0.1552118,-0.516176,-4.222009,-0.09838862,0.6636727,1.579976,0.3868775,-0.205692,-0.004790395,-0.183303,-0.6982334,0.2360706,0.08206238,0.7816725,1.623846,0.1995747,0.27927,1.357135,0.3483179,281.5204,163.2644,80.37799,True
2,0.7888896,-0.4134435,0.8959261,-0.1857347,-1.296182,-4.569035,-2.625646,0.5756397,1.347427,0.5033305,-1.531808,0.8225712,9.8,8.8,-0.247419,-0.02894603,0.1485621,-0.5146953,-4.223599,-0.09522798,0.663232,1.580285,0.386641,-0.1906435,-0.050694,-0.1665916,-0.6996529,0.2330475,0.08601771,0.7816004,1.623614,0.1993515,0.2782326,1.359341,0.3501966,281.4323,160.8815,83.28013,True
2,0.8000008,-0.3887688,0.875921,-0.1601476,-1.299848,-4.577924,-2.619743,0.5749924,1.347679,0.5029838,-1.536341,-0.4220143,8.3,6.3,-0.2260429,-0.03322577,0.1569329,-0.51252,-4.224064,-0.09312142,0.6627433,1.58055,0.3863513,-0.1884717,-0.06030783,-0.1613294,-0.7013466,0.2317327,0.08904465,0.7816424,1.623408,0.1991844,0.2758209,1.361999,0.3519413,281.3834,160.417,83.84174,True
2,0.8111119,-0.3716309,0.8654097,-0.1452252,-1.303568,-4.58696,-2.613752,0.5743114,1.347878,0.502615,-1.537242,-0.07781231,8.3,6.3,-0.1961605,-0.04709041,0.1641496,-0.5101898,-4.225533,-0.09058529,0.6623429,1.581009,0.3860843,-0.1787236,-0.1222125,-0.140399,-0.7024993,0.2263614,0.09487591,0.7815806,1.623103,0.1987798,0.2733954,1.364857,0.3539163,281.2787,159.4606,85.1844,True
2,0.8222231,-0.3491588,0.8602921,-0.1197037,-1.307959,-4.595644,-2.608382,0.5738537,1.348075,0.5022371,-1.53734,-0.008839038,8.3,6.3,-0.1694065,-0.06205083,0.1809618,-0.5074792,-4.227515,-0.08787393,0.6620238,1.58146,0.3859253,-0.1701205,-0.1638113,-0.1300178,-0.7039353,0.2216236,0.1001338,0.7814518,1.622891,0.1984668,0.2713742,1.367682,0.3560852,281.1332,157.8764,87.36122,True
2,0.8333342,-0.3288023,0.8583983,-0.08885068,-1.312865,-4.604187,-2.603247,0.5734813,1.348243,0.5019493,-1.537111,0.0208863,8.3,6.3,-0.1533784,-0.07485343,0.1872056,-0.5050744,-4.229708,-0.08474419,0.6616627,1.581837,0.3858335,-0.1637186,-0.1830097,-0.1290891,-0.7055401,0.2176523,0.1047789,0.7813674,1.622851,0.1982951,0.2697546,1.370392,0.3583315,280.9848,155.8839,89.98461,True
2,0.8444453,-0.3191013,0.8446781,-0.06964004,-1.317345,-4.612072,-2.598095,0.5730848,1.34843,0.5016525,-1.537421,-0.02862594,6.8,4.2,-0.1139955,-0.1046575,0.1815121,-0.503077,-4.233966,-0.08118887,0.6613948,1.582237,0.3857694,-0.1371888,-0.2010574,-0.1421708,-0.7078165,0.2136092,0.108465,0.7811237,1.622709,0.1981077,0.2683816,1.372976,0.3605626,280.8497,153.8344,92.61033,True
2,0.8555565,-0.3049938,0.8043836,-0.04391426,-1.321656,-4.618686,-2.593668,0.572806,1.348517,0.5014606,-1.537452,-0.002738689,6.8,4.2,-0.07465834,-0.128054,0.1694435,-0.5014844,-4.238367,-0.0778133,0.661139,1.582549,0.3857026,-0.1085229,-0.1946222,-0.1562048,-0.7101607,0.2106053,0.1108932,0.780934,1.622598,0.1978724,0.2672154,1.375415,0.3627416,280.6992,151.9162,95.03371,True
2,0.8666676,-0.2930401,0.7533609,-0.02986041,-1.325252,-4.62456,-2.589329,0.5725858,1.348619,0.5012679,-1.537063,0.03550349,6.8,4.2,-0.04280142,-0.1333275,0.1542876,-0.5002024,-4.241576,-0.0756383,0.6609162,1.582775,0.3855324,-0.08824009,-0.1765386,-0.1509495,-0.7117969,0.2088368,0.1124967,0.7806934,1.622517,0.1976764,0.2661559,1.377713,0.3648431,280.5417,150.0983,97.30797,True
2,0.8777788,-0.2811607,0.7107981,-0.02968138,-1.328434,-4.630493,-2.585172,0.5722713,1.348737,0.5010307,-1.537243,-0.01687877,6.8,4.2,-0.03218175,-0.1194664,0.1510592,-0.4985752,-4.243056,-0.07416131,0.6606807,1.582947,0.3853464,-0.06566828,-0.142568,-0.1264338,-0.7119461,0.2083324,0.1127955,0.7804308,1.622164,0.1974192,0.2651477,1.379871,0.3668147,280.4053,148.4125,99.44065,True
2,0.8888899,-0.2649093,0.6362547,-0.03789181,-1.330374,-4.635006,-2.58176,0.572026,1.348941,0.5009274,-1.537008,0.02150641,6.8,4.2,-0.02564979,-0.09929702,0.1713135,-0.4959839,-4.243893,-0.07332881,0.6606069,1.583148,0.3850238,-0.0666382,-0.1202527,-0.1145966,-0.7128366,0.2076238,0.1140714,0.7799155,1.622316,0.197186,0.2642944,1.381825,0.3686106,280.292,146.7442,101.5387,True
2,0.900001,-0.2433439,0.5552988,-0.05355397,-1.33128,-4.638617,-2.578931,0.5717549,1.349148,0.5007625,-1.537022,-0.001575409,6.3,1.6,-0.02983257,-0.08334998,0.1831157,-0.4934821,-4.244218,-0.0725541,0.6604071,1.583321,0.3847146,-0.0921733,-0.1021546,-0.1100502,-0.714067,0.2070748,0.1164377,0.7796404,1.622251,0.1969788,0.2635621,1.383572,0.3701601,280.2179,145.2846,103.379,True
2,0.9111122,-0.2282816,0.5084305,-0.06722392,-1.332626,-4.643118,-2.575847,0.5716898,1.349324,0.5006137,-1.537282,-0.02385181,6.3,1.6,-0.03197295,-0.07483064,0.1831537,-0.4914944,-4.245227,-0.07112158,0.6602325,1.583473,0.3846037,-0.1080144,-0.07986312,-0.09171643,-0.7146763,0.2070459,0.1182089,0.7794222,1.62221,0.1968188,0.2628736,1.385145,0.3714449,280.1953,144.1102,104.8529,True
2,0.9222233,-0.2282816,0.5084305,-0.06722392,-1.332626,-4.643118,-2.575847,0.5716898,1.349324,0.5006137,-1.537515,-0.02120389,6.3,1.6,-0.03197295,-0.07483064,0.1831537,-0.4914944,-4.245227,-0.07112158,0.6602325,1.583473,0.3846037,-0.1080144,-0.07986312,-0.09171643,-0.7146763,0.2070459,0.1182089,0.7794222,1.62221,0.1968188,0.2622996,1.386514,0.3724585,280.2233,143.1966,106.0044,True
2,0.9333345,-0.1895639,0.390186,-0.09768205,-1.332895,-4.649457,-2.571295,0.571336,1.349556,0.5005848,-1.539272,-0.1606697,6.3,1.6,0.00281179,-0.08638727,0.1296128,-0.4897468,-4.24968,-0.06811141,0.6599863,1.583597,0.3845379,-0.1138507,-0.06251943,-0.1555074,-0.7198439,0.2062794,0.1215608,0.7791053,1.621908,0.1966603,0.2619477,1.387607,0.3731631,280.2785,142.3706,107.0467,True
2,0.9444456,-0.1734694,0.3625644,-0.0944053,-1.333758,-4.652623,-2.569193,0.5711324,1.349656,0.5005755,-1.535734,0.3246096,8.1,9.8,0.02715831,-0.09909761,0.1070313,-0.48922,-4.252863,-0.06643202,0.6598177,1.58368,0.384536,-0.09387989,-0.06981005,-0.1897916,-0.7232629,0.205369,0.1226375,0.7788374,1.621767,0.1966212,0.2618757,1.388277,0.3735202,280.3939,141.5328,107.946,True
2,0.9555568,-0.1402878,0.3297086,-0.08583793,-1.334581,-4.655293,-2.568179,0.5710502,1.349707,0.5005763,-1.53711,-0.1287937,8.1,9.8,0.05679309,-0.1299119,0.07903335,-0.488999,-4.258439,-0.06306632,0.6597393,1.583808,0.3844671,-0.07895844,-0.07620642,-0.1878198,-0.7253375,0.2042148,0.1239768,0.7786523,1.621653,0.1965129,0.2614113,1.388947,0.3737847,280.503,141.929,107.3914,True
2,0.9666679,-0.09107704,0.2894538,-0.07311731,-1.335345,-4.65749,-2.567869,0.5708797,1.349825,0.5006189,-1.537424,-0.02736403,8.1,9.8,0.07480843,-0.1533006,0.06498554,-0.4885324,-4.26346,-0.05996959,0.6595932,1.583904,0.3843079,-0.05637757,-0.07101082,-0.1613389,-0.7262339,0.2034846,0.1243313,0.7783065,1.621561,0.1963403,0.2609066,1.389593,0.374154,280.5845,142.1997,107.0199,True
2,0.977779,-0.06543302,0.270424,-0.06767392,-1.336145,-4.659585,-2.567865,0.5707586,1.34996,0.5006599,-1.538217,-0.07251879,8.1,9.8,0.07914366,-0.1501363,0.07561804,-0.4872354,-4.266627,-0.0581946,0.6594222,1.584005,0.3841538,-0.03148665,-0.06592722,-0.1114381,-0.7258132,0.2026684,0.1245675,0.7780042,1.621459,0.1960189,0.2604285,1.390216,0.3746714,280.5939,142.1157,107.1307,True
2,0.9888902,-0.03335321,0.2449999,-0.06339035,-1.336718,-4.661572,-2.568197,0.5706899,1.350058,0.5006235,-1.538633,-0.03764096,8.1,9.8,0.06750022,-0.1235373,0.08643059,-0.4859076,-4.267248,-0.05801963,0.6592044,1.584112,0.3838875,-0.0214843,-0.05766055,-0.05821132,-0.7248949,0.202021,0.1250935,0.777655,1.621316,0.1957879,0.2600766,1.390746,0.3753367,280.5874,141.7169,107.6611,True
2,1.000001,-0.008756176,0.2152452,-0.06758765,-1.336749,-4.663351,-2.56837,0.5706722,1.35016,0.5005755,-1.538636,-0.0002407933,8.1,9.8,0.0355987,-0.08629093,0.09635445,-0.4845765,-4.266425,-0.05796743,0.6589532,1.584182,0.3836079,-0.02976251,-0.05568111,-0.02724136,-0.7242317,0.2010516,0.1264104,0.7773955,1.621165,0.1954861,0.2597823,1.391153,0.3761069,280.5768,141.2488,108.2976,True
2,1.011112,0.00516681,0.1928955,-0.0749801,-1.336626,-4.665208,-2.568572,0.5706089,1.350232,0.500515,-1.538615,0.001626072,8.1,9.8,0.01644571,-0.05541559,0.1008461,-0.4833137,-4.265512,-0.05829047,0.6587535,1.584224,0.3834059,-0.03515664,-0.06416195,-0.03576657,-0.725118,0.1996824,0.1280142,0.7771578,1.621008,0.1952224,0.2595004,1.391409,0.3769393,280.5482,140.9067,108.8243,True
2,1.022224,0.02120623,0.165201,-0.08768223,-1.335989,-4.666814,-2.568857,0.5705488,1.350289,0.5005875,-1.538098,0.04710257,8.1,9.8,0.01954188,-0.0372644,0.08809867,-0.4827331,-4.26497,-0.05899062,0.6585373,1.584181,0.3832712,-0.02716602,-0.07873264,-0.1030206,-0.7287011,0.1985955,0.1288994,0.7768912,1.620754,0.1950557,0.2592165,1.391486,0.3777784,280.5114,140.7705,109.1686,True
2,1.033335,0.04048232,0.1397025,-0.08869167,-1.335531,-4.668079,-2.569664,0.570575,1.350279,0.500591,-1.537817,0.02506131,8.1,9.8,0.03004641,-0.03826511,0.06671335,-0.4826745,-4.26622,-0.05862736,0.6584334,1.584204,0.3832479,-0.02849504,-0.08282865,-0.1349933,-0.7312577,0.1977276,0.1300358,0.7766238,1.620697,0.1949189,0.2589083,1.39139,0.3785607,280.4745,140.9898,109.1548,True
2,1.044446,0.05010856,0.1312262,-0.08655076,-1.335407,-4.669568,-2.570196,0.5705867,1.350249,0.5005367,-1.537589,0.02046795,8.1,9.8,0.04162396,-0.04672322,0.04636505,-0.4827741,-4.267972,-0.05793254,0.6582246,1.58419,0.3831263,-0.02643141,-0.07852572,-0.1435112,-0.7332673,0.1969956,0.130786,0.7763532,1.620593,0.1947176,0.2585524,1.391155,0.3792528,280.4494,141.4816,108.8257,True
2,1.055557,0.05974083,0.1302439,-0.0769904,-1.335765,-4.671172,-2.570903,0.5707155,1.350191,0.5005372,-1.537798,-0.01937589,18.8,100,0.04998149,-0.05410619,0.02284925,-0.4831741,-4.269874,-0.05705982,0.6580665,1.58418,0.3830602,-0.0219793,-0.06266527,-0.1189703,-0.7337297,0.1968505,0.1310555,0.7760983,1.620531,0.1945426,0.2582057,1.390798,0.379855,280.4305,142.1562,108.2643,True
2,1.066668,0.07677409,0.1442157,-0.06539173,-1.336615,-4.673218,-2.571921,0.5708947,1.349994,0.5004742,-1.537397,0.03667903,18.8,100,0.05418527,-0.05408096,0.01429494,-0.4832487,-4.271206,-0.05666088,0.657863,1.584141,0.3829138,-0.01009218,-0.04679114,-0.09767923,-0.7341025,0.1969386,0.1307119,0.7757803,1.620426,0.1943135,0.2579284,1.390325,0.3803623,280.3925,142.8153,107.6984,True
2,1.077779,0.0852773,0.1624343,-0.04952589,-1.337915,-4.675348,-2.572634,0.5710288,1.349718,0.5003567,-1.537366,0.002360427,18.8,100,0.04989431,-0.06259426,0.01004265,-0.4831288,-4.273339,-0.05514767,0.6578491,1.584152,0.3827121,0.02320193,-0.03310335,-0.06378181,-0.7337062,0.1971215,0.1291742,0.7754419,1.620391,0.1941264,0.2576912,1.389797,0.3807835,280.3264,143.5385,107.0391,True
2,1.08889,0.09590493,0.1817174,-0.03580168,-1.339379,-4.677639,-2.573543,0.5712476,1.349515,0.50019,-1.537601,-0.02153036,18.8,100,0.06482695,-0.05939562,0.01207993,-0.4828567,-4.274307,-0.05554076,0.6576459,1.584186,0.3825619,0.02855757,-0.03631937,-0.05957907,-0.7343422,0.1964696,0.1292496,0.7751884,1.620253,0.1938701,0.257535,1.389253,0.381173,280.2512,144.2226,106.3859,True
2,1.100002,0.09695364,0.1891998,-0.03158409,-1.340388,-4.679798,-2.574086,0.571381,1.349282,0.5001404,-1.537163,0.04002357,19.3,100,0.06374884,-0.07110753,0.009921045,-0.4827507,-4.276797,-0.05400331,0.6575595,1.58414,0.3824096,0.02751951,-0.03206405,-0.05635013,-0.7348726,0.1964101,0.1290914,0.7748884,1.620128,0.1936536,0.2574386,1.38871,0.381594,280.1826,144.6054,106.0314,True
2,1.111113,0.09803268,0.1870784,-0.03050858,-1.341213,-4.681655,-2.574807,0.5716647,1.349016,0.4999807,-1.53718,-0.002024259,19.3,100,0.06690247,-0.09132524,0.002381138,-0.4828322,-4.280455,-0.05165547,0.6576068,1.58405,0.3821878,0.02747681,-0.03736427,-0.061702,-0.7357728,0.1957414,0.1293223,0.7747202,1.619962,0.1934116,0.2573271,1.388205,0.3820777,280.0864,144.8341,105.862,True
2,1.122224,0.09697701,0.183882,-0.0304958,-1.34192,-4.683619,-2.575373,0.5718894,1.34876,0.4997537,-1.536291,0.08072065,19.3,100,0.06893887,-0.1093964,-0.01153755,-0.4833142,-4.284506,-0.04892386,0.6575962,1.583838,0.382082,0.02837957,-0.04151874,-0.08197203,-0.737441,0.1953118,0.129321,0.7746009,1.619949,0.1931591,0.2571944,1.387735,0.3826486,279.9985,144.9794,105.8114,True
2,1.133335,0.09269616,0.1945526,-0.02414634,-1.34319,-4.685966,-2.575715,0.5722287,1.348357,0.4994304,-1.53538,0.08159096,19.3,100,0.07842737,-0.106152,-0.02544022,-0.483956,-4.286744,-0.04812066,0.6574187,1.583646,0.3819413,0.03458232,-0.04459131,-0.1065471,-0.7396137,0.1948514,0.1289998,0.7745482,1.619824,0.1929567,0.2570304,1.387256,0.3833148,279.9336,145.0613,105.859,True
2,1.144446,0.08947724,0.205219,-0.01886067,-1.344613,-4.688324,-2.576087,0.5724998,1.347971,0.4992199,-1.533752,0.1467349,19.3,100,0.08785468,-0.08903714,-0.04782599,-0.4852663,-4.287764,-0.04854596,0.65724,1.583455,0.3818223,0.04408598,-0.04027808,-0.1172543,-0.7413628,0.1947041,0.1282935,0.7743032,1.619729,0.1927483,0.2568935,1.38669,0.3840444,279.8676,145.0775,106.0277,True
2,1.155557,0.08624183,0.2287099,-0.006176144,-1.346802,-4.69115,-2.576447,0.5728049,1.347563,0.4989581,-1.531487,0.203981,19.4,100,0.08668582,-0.06769167,-0.06160158,-0.4863955,-4.288003,-0.04921655,0.6570469,1.583264,0.381706,0.05387655,-0.02974729,-0.09277865,-0.7415801,0.1947085,0.1272381,0.7740291,1.61973,0.1925342,0.2567317,1.38598,0.3847959,279.7902,145.1039,106.2099,True
2,1.166668,0.08942167,0.2533265,0.01500391,-1.349524,-4.693896,-2.577094,0.5730503,1.347134,0.498682,-1.528732,0.2478489,19.4,100,0.08355294,-0.04748297,-0.05192924,-0.4866336,-4.287788,-0.05022082,0.6569545,1.583105,0.3815401,0.05517449,-0.02669789,-0.0629437,-0.7413548,0.194398,0.1268717,0.7737083,1.619679,0.1922565,0.2565367,1.385061,0.3855636,279.6805,145.2032,106.3041,True
2,1.17778,0.0904748,0.2597331,0.01816651,-1.351395,-4.696351,-2.577647,0.5733266,1.34672,0.4984469,-1.525335,0.3056305,19.4,100,0.08152654,-0.05605131,-0.03702478,-0.4864754,-4.28971,-0.04936835,0.6568715,1.582952,0.3813429,0.06067154,-0.02999754,-0.04169958,-0.741293,0.1937267,0.1264868,0.7733715,1.619518,0.1920373,0.2562365,1.383906,0.3863657,279.5336,145.549,106.1083,True
2,1.188891,0.09261838,0.2597679,0.02241936,-1.353304,-4.698752,-2.578213,0.5735779,1.346369,0.498131,-1.521347,0.3585541,19.4,100,0.08686037,-0.06777074,-0.03602983,-0.4867902,-4.292185,-0.04828338,0.6567985,1.582815,0.3811636,0.07148937,-0.03116719,-0.02048158,-0.7407785,0.1930394,0.1258272,0.7730509,1.619472,0.1917717,0.2557901,1.382497,0.3872448,279.3213,146.1927,105.603,True
2,1.200002,0.09053911,0.2469865,0.02461935,-1.354829,-4.700583,-2.578723,0.5738609,1.346109,0.4977651,-1.516266,0.4576786,19.6,100,0.09852813,-0.07946379,-0.0436047,-0.4874544,-4.294957,-0.04731132,0.6567206,1.582702,0.3809819,0.07997506,-0.0322152,-0.02481487,-0.7412856,0.192515,0.1251039,0.7727735,1.61936,0.19133,0.255196,1.380798,0.388221,279.0568,147.1089,104.8658,True
2,1.211113,0.09058063,0.2363406,0.02573389,-1.356301,-4.702413,-2.579313,0.5742077,1.345765,0.4974382,-1.510596,0.5102046,19.6,100,0.1027678,-0.07839266,-0.04576051,-0.4879816,-4.296745,-0.04691984,0.6566923,1.582619,0.3807433,0.08623059,-0.04065348,-0.04195566,-0.7425532,0.1916561,0.124616,0.772545,1.61926,0.1909392,0.2544972,1.378765,0.3892727,278.7841,148.6123,103.5912,True
2,1.222224,0.09596758,0.2161054,0.02261437,-1.357292,-4.703859,-2.580205,0.5744426,1.345471,0.4970465,-1.504037,0.5905536,19.6,100,0.09423652,-0.07093211,-0.0467428,-0.4884973,-4.297827,-0.04671957,0.6566023,1.582518,0.3804693,0.0840615,-0.04701878,-0.04729152,-0.7432408,0.1906858,0.1243976,0.7722172,1.619275,0.1906102,0.2537034,1.376412,0.3903551,278.4808,150.8492,101.6216,True
2,1.233335,0.09596758,0.2161054,0.02261437,-1.357292,-4.703859,-2.580205,0.5744426,1.345471,0.4970465,-1.496953,0.6373193,19.6,100,0.09423652,-0.07093211,-0.0467428,-0.4884973,-4.297827,-0.04671957,0.6566023,1.582518,0.3804693,0.0840615,-0.04701878,-0.04729152,-0.7432408,0.1906858,0.1243976,0.7722172,1.619275,0.1906102,0.2528798,1.373753,0.3914025,278.1636,153.8175,98.93543,True
2,1.244446,0.09390907,0.1937189,0.02059212,-1.359544,-4.706885,-2.581512,0.5748267,1.344995,0.4963024,-1.488188,0.7902532,19.6,100,0.07186882,-0.0474994,-0.04545041,-0.489456,-4.298664,-0.04691717,0.6562859,1.582355,0.3800416,0.06274363,-0.04168142,-0.04922565,-0.7443684,0.1897739,0.1242698,0.7716854,1.619105,0.190104,0.2520411,1.370813,0.3923722,277.8798,157.3737,95.61712,True
2,1.255558,0.08861907,0.1830375,0.01958826,-1.36051,-4.708229,-2.581992,0.5750275,1.344686,0.49598,-1.48178,0.5730712,19.3,99.9,0.06871962,-0.04006853,-0.03795012,-0.4896147,-4.299223,-0.04705779,0.6561173,1.582231,0.3797617,0.06595559,-0.03956328,-0.04710702,-0.7448414,0.1892832,0.1237843,0.7714242,1.619087,0.18977,0.2510856,1.367698,0.3931848,277.6385,161.7453,91.4415,True
2,1.266669,0.08437998,0.1819796,0.02386745,-1.361953,-4.709768,-2.58251,0.5751328,1.344433,0.4957013,-1.471523,0.9263915,19.3,99.9,0.06766854,-0.03581407,-0.0357991,-0.4899119,-4.29975,-0.04729588,0.65593,1.582154,0.3795383,0.06170961,-0.0331823,-0.04491474,-0.7453453,0.1891317,0.1233472,0.7712084,1.619002,0.1894917,0.2501999,1.364328,0.3939187,277.4191,165.7566,87.61056,True
2,1.27778,0.08548199,0.1723958,0.02390896,-1.363013,-4.710999,-2.583271,0.575195,1.34412,0.495461,-1.461461,0.9050034,19.3,99.9,0.07089555,-0.02091888,-0.03045373,-0.4901441,-4.299367,-0.04849883,0.6557707,1.582063,0.3794317,0.0596664,-0.02684827,-0.03421483,-0.7454092,0.1888922,0.1229059,0.770951,1.619057,0.1891768,0.2492926,1.360718,0.3946105,277.2358,170.3231,83.16378,True
2,1.288891,0.08341312,0.1585516,0.02611148,-1.363992,-4.711969,-2.583984,0.5752908,1.343928,0.4952044,-1.451352,0.9095392,19.3,99.9,0.06984644,-0.0124056,-0.02829172,-0.4904265,-4.299133,-0.04947115,0.6555915,1.581988,0.3792167,0.05238704,-0.01950161,-0.0117504,-0.7447871,0.1888099,0.1226522,0.7706224,1.619063,0.1888821,0.2483267,1.356918,0.3952852,277.1242,175.6285,77.93626,True
2,1.300002,0.08666664,0.141507,0.02404837,-1.364637,1.570425,-2.584921,0.5753012,1.34371,0.4948151,-1.440978,0.9333913,19.1,100,0.06242958,-0.004967541,-0.02288545,-0.4904339,-4.298729,-0.05027196,0.6554547,1.581952,0.3789434,0.05473699,-0.02496374,0.01589574,-0.7439205,0.1879446,0.1225579,0.7703069,1.619011,0.1886795,0.2472715,1.352997,0.3960003,277.0706,181.4379,72.19328,True
2,1.311113,0.08138525,0.1286904,0.02093022,-1.365271,1.569597,-2.585588,0.5753371,1.343567,0.4945302,-1.429981,0.9900378,19.1,100,0.06037562,-0.007130574,-0.01222531,-0.4902091,-4.299008,-0.05064001,0.6552931,1.581946,0.3787391,0.05796686,-0.02498488,0.02013294,-0.7435881,0.1874634,0.1221352,0.7699719,1.619029,0.18841,0.2461925,1.34896,0.3967883,277.0849,187.383,66.351,True
2,1.322224,0.07824518,0.1094798,0.01570275,-1.36556,1.569048,-2.586255,0.575327,1.343477,0.4943056,-1.418937,0.9936107,19.1,100,0.0582694,-0.01672581,-0.01010733,-0.4901953,-4.300133,-0.05035345,0.6551872,1.581889,0.378536,0.05576953,-0.02494334,0.0116234,-0.7439125,0.1871105,0.1218362,0.7696466,1.618926,0.1880789,0.2451338,1.344836,0.3976344,277.1707,193.4803,60.42065,True
2,1.333336,0.07509708,0.0988126,0.01469808,-1.366049,1.568427,-2.587004,0.5753454,1.343335,0.494046,-1.407223,1.054786,19.1,100,0.05506813,-0.02951217,-0.01118924,-0.4903418,-4.301927,-0.04926608,0.654984,1.581849,0.3784075,0.05045542,-0.02707543,0.01271321,-0.7438912,0.1866389,0.1217363,0.7693309,1.618979,0.1878827,0.244103,1.340635,0.3984936,277.3407,199.3384,54.76809,True
2,1.344447,0.06771523,0.07639314,0.01056375,-1.36605,1.568286,-2.587542,0.575355,1.343193,0.4937837,-1.395458,1.058758,19.1,100,0.05615775,-0.04017465,-0.008033505,-0.49028,-4.303674,-0.0483939,0.6547975,1.58181,0.3781948,0.04719257,-0.02596797,0.004221627,-0.7441719,0.1863279,0.1215579,0.7690797,1.61896,0.187645,0.2431185,1.336385,0.3993548,277.6026,204.9696,49.31454,True
2,1.355558,0.0613307,0.07209651,0.008469671,-1.366384,1.567698,-2.587855,0.5753559,1.343111,0.4935882,-1.383693,1.058595,20.6,100,0.05826176,-0.03483733,-0.01228713,-0.4904456,-4.304148,-0.04875875,0.6545765,1.581872,0.3780084,0.04281127,-0.03228116,-0.01174995,-0.7448158,0.18557,0.1216897,0.7687645,1.619007,0.1874006,0.2421841,1.332116,0.4002067,277.9428,210.141,44.29516,True
2,1.366669,0.05710969,0.0625002,0.009593487,-1.366701,1.567429,-2.58831,0.5752894,1.34299,0.4933903,-1.37139,1.107884,20.6,100,0.04969971,-0.01672055,-0.01749872,-0.4908563,-4.303505,-0.04958406,0.6543721,1.581837,0.3778269,0.0375106,-0.03123832,-0.008509781,-0.7448798,0.184956,0.1218761,0.7686041,1.619038,0.1870706,0.2413317,1.327828,0.4010412,278.3173,214.746,39.84551,True
2,1.37778,0.05287518,0.05610763,0.01176786,-1.367115,1.567144,-2.588675,0.5751761,1.342934,0.4931171,-1.359092,1.106725,20.6,100,0.03692898,-0.0050098,-0.01523729,-0.4908994,-4.302783,-0.05022562,0.6541117,1.58186,0.3775613,0.02808239,-0.02281522,0.01184816,-0.7440223,0.1848531,0.1219901,0.7683038,1.619082,0.186832,0.2405527,1.323525,0.4018296,278.7446,218.8646,35.8745,True
2,1.388891,0.05287518,0.05610763,0.01176786,-1.367115,1.567144,-2.588675,0.5751761,1.342934,0.4931171,-1.346923,1.095074,20.6,100,0.03692898,-0.0050098,-0.01523729,-0.4908994,-4.302783,-0.05022562,0.6541117,1.58186,0.3775613,0.02808239,-0.02281522,0.01184816,-0.7440223,0.1848531,0.1219901,0.7683038,1.619082,0.186832,0.2398005,1.319241,0.4025898,279.2195,222.6135,32.23623,True
2,1.400002,0.05081974,0.03478933,0.009747656,-1.367451,1.566967,-2.589811,0.5748612,1.34288,0.4926643,-1.334103,1.154564,20.6,100,0.01894386,0.02049953,0.003075215,-0.4904014,-4.30027,-0.05239583,0.65367,1.581865,0.3771579,0.01883505,-0.01237802,0.05458609,-0.7414762,0.1841993,0.1222575,0.7677491,1.61903,0.1863477,0.2390845,1.314978,0.4033333,279.7203,225.9314,29.00757,True
2,1.411114,0.04658581,0.02518328,0.007680401,-1.367576,1.566931,-2.590166,0.5747133,1.342966,0.4925265,-1.322819,1.013464,25.9,99.9,0.01899922,0.01941184,0.01051986,-0.490199,-4.299892,-0.0530294,0.6534212,1.581927,0.3770697,0.01780727,0.0003838651,0.05891972,-0.7405825,0.1847324,0.1216761,0.7674258,1.619054,0.1862335,0.238374,1.31077,0.4040658,280.2617,229.0099,26.02801,True
2,1.422225,0.03809097,0.0176951,0.007742524,-1.367624,1.567039,-2.590326,0.5745659,1.342997,0.4923127,-1.309623,1.189606,25.9,99.9,0.01794358,0.007690148,0.01155674,-0.4900387,-4.30048,-0.05266055,0.6532725,1.581952,0.3769045,0.01666491,0.005750151,0.04936407,-0.740452,0.1848998,0.121434,0.7671789,1.619014,0.1860919,0.2376033,1.306584,0.404761,280.7582,231.7157,23.48615,True
2,1.433336,0.03067419,0.004870898,0.003572966,-1.367476,1.567256,-2.590565,0.5743283,1.343062,0.4922333,-1.2969,1.1446,25.9,99.9,0.01795817,-0.001911933,0.01365164,-0.4898949,-4.301448,-0.05198224,0.6531173,1.581988,0.3768079,0.01128438,0.007914614,0.04195808,-0.7403433,0.1850342,0.121332,0.7670681,1.618975,0.1859925,0.2368895,1.302366,0.4054079,281.3007,234.1078,21.22828,True
2,1.444447,0.0221694,-0.002632475,0.0004392161,-1.367237,1.567442,-2.590552,0.5741203,1.343111,0.4920664,-1.284051,1.156662,25.9,99.9,0.01895773,-0.0104047,0.00403067,-0.4901745,-4.302374,-0.05141925,0.6529309,1.582012,0.3766482,0.008046813,0.01007157,0.0366675,-0.7400994,0.1852794,0.1211853,0.7668955,1.619002,0.185807,0.2362641,1.298129,0.4060289,281.9035,236.2621,19.15202,True
2,1.455558,0.01261833,-0.01225481,0.0005134358,-1.367003,1.567821,-2.590468,0.5737956,1.343273,0.491998,-1.271431,1.135561,19.3,100,0.01037422,-0.007185892,-0.004416601,-0.4904637,-4.302305,-0.05127038,0.6527437,1.582105,0.3764451,0.00361991,-0.001547551,0.01639869,-0.7407716,0.1846702,0.1218268,0.7668575,1.61903,0.1856318,0.2357123,1.293887,0.4066352,282.5322,238.2027,17.27509,True
2,1.466669,0.004134645,-0.02294335,-0.001541533,-1.366631,1.568242,-2.590412,0.5735162,1.343342,0.491888,-1.258506,1.163685,19.3,100,0.009352224,0.00237828,0.002011711,-0.4902219,-4.301643,-0.05195641,0.6525544,1.582167,0.3762739,-0.002883866,-0.008935053,0.002564657,-0.7412941,0.1842061,0.1224854,0.766665,1.619061,0.1854551,0.2351939,1.289648,0.4072502,283.1695,239.8966,15.63563,True
2,1.47778,-0.001167593,-0.0304152,-0.0004274659,-1.366303,1.568735,-2.590234,0.5732762,1.343483,0.4916871,-1.245658,1.156232,19.3,100,-0.001186721,0.009779738,0.0191464,-0.4895423,-4.300838,-0.05227386,0.6524078,1.582193,0.376112,-0.009276791,-0.0110689,0.002607771,-0.7412552,0.1838005,0.1231406,0.7664322,1.61913,0.1853774,0.234691,1.285426,0.4078802,283.8239,241.4614,14.13842,True
2,1.488891,-0.008608723,-0.03148885,0.002795259,-1.36622,1.569083,-2.589991,0.5730448,1.343548,0.4915199,-1.232932,1.14527,19.3,100,-0.01391289,0.001226353,0.02772955,-0.4890128,-4.301447,-0.05110792,0.6522923,1.582239,0.3759847,-0.008063082,-0.00689976,0.01966356,-0.7404025,0.1835915,0.1231451,0.7662519,1.619079,0.1852126,0.2341736,1.281248,0.408529,284.4929,242.8942,12.78094,True
2,1.500003,-0.01818516,-0.03792764,-0.0003400315,-1.36582,1.569531,-2.589521,0.5726911,1.34371,0.4913728,-1.220037,1.160718,19.3,100,-0.01497583,-0.0009047268,0.02773214,-0.48869,-4.301617,-0.05078488,0.6521353,1.582289,0.3758473,-0.009102677,-0.0005237684,0.02289921,-0.7399811,0.1838625,0.1230551,0.7660751,1.619082,0.1851308,0.2337127,1.277106,0.4091852,285.1471,244.1861,11.59339,True
2,1.511114,-0.03098045,-0.03370893,-0.0003220728,-1.365687,1.569653,-2.588871,0.5723267,1.343883,0.4912632,-1.207204,1.155012,19.4,100,-0.01497096,0.002283175,0.02880886,-0.4883375,-4.301445,-0.05076598,0.6519781,1.582365,0.3757296,-0.01234284,0.002702385,0.01654777,-0.7399982,0.1840508,0.1230325,0.7658956,1.619038,0.1851089,0.2333447,1.273006,0.4098224,285.7981,245.3959,10.50619,True
2,1.522225,-0.04054971,-0.03692955,0.001853609,-1.365481,1.570156,-2.588204,0.5719819,1.34404,0.4911182,-1.194154,1.174752,19.4,100,-0.02027702,0.01079753,0.03206557,-0.4879545,-4.300432,-0.05125254,0.6517878,1.582463,0.3755698,-0.01872603,0.002697388,0.01766335,-0.7397601,0.1840516,0.1234636,0.7657489,1.619032,0.1850064,0.2330382,1.268942,0.4104332,286.4389,246.5057,9.503213,True
2,1.533336,-0.05437041,-0.04443695,0.000865493,-1.365096,1.570707,-2.587301,0.5715571,1.34424,0.4909809,-1.181208,1.165115,19.4,100,-0.02559536,0.02144424,0.0342591,-0.4876397,-4.29915,-0.05188211,0.6516458,1.58261,0.375483,-0.02196349,-0.01005984,0.01230056,-0.7398517,0.1832561,0.1243901,0.7656698,1.618994,0.1849008,0.2327066,1.264927,0.4110194,287.1024,247.489,8.593029,True
2,1.544447,-0.05437041,-0.04443695,0.000865493,-1.365096,1.570707,-2.587301,0.5715571,1.34424,0.4909809,-1.168294,1.162359,19.4,100,-0.02559536,0.02144424,0.0342591,-0.4876397,-4.29915,-0.05188211,0.6516458,1.58261,0.375483,-0.02196349,-0.01005984,0.01230056,-0.7398517,0.1832561,0.1243901,0.7656698,1.618994,0.1849008,0.232357,1.260982,0.4116087,287.7678,248.4056,7.733238,True
2,1.555558,-0.07353918,-0.04341122,0.006243778,-1.364839,-4.711579,-2.585269,0.5707238,1.344582,0.4906852,-1.156208,1.086602,15.1,100,-0.0319229,0.02674229,0.04389988,-0.4865579,-4.297329,-0.05257,0.6514065,1.582772,0.3754005,-0.02304312,-0.02816429,0.01115739,-0.7397766,0.1815426,0.1262722,0.7653399,1.619044,0.1845987,0.2321196,1.2571,0.4122069,288.3999,249.2197,6.979216,True
2,1.566669,-0.09166522,-0.03814584,0.007340057,-1.364795,-4.711285,-2.583706,0.5703316,1.344751,0.490515,-1.141496,1.327309,15.1,100,-0.02978459,0.02567709,0.04494682,-0.4860429,-4.296658,-0.05290236,0.6513188,1.582864,0.3752937,-0.02302174,-0.02817671,0.01328197,-0.7396818,0.1810096,0.1268237,0.7652119,1.618982,0.1844609,0.2320345,1.253224,0.412843,288.9823,249.9902,6.286849,True
2,1.577781,-0.1012933,-0.02752069,0.008380371,-1.364891,-4.711311,-2.582237,0.5700017,1.344944,0.4903712,-1.129141,1.109719,15.1,100,-0.02874704,0.007582173,0.04061537,-0.4858351,-4.297787,-0.05161393,0.6512501,1.582939,0.3752773,-0.01770815,-0.02923526,0.01217209,-0.7396035,0.180463,0.1273124,0.76511,1.618979,0.1843438,0.2316551,1.249409,0.4134167,289.6825,250.8279,5.593707,True
2,1.588892,-0.1162341,-0.01582453,0.01369128,-1.365247,-4.71146,-2.580438,0.5695504,1.345142,0.4902163,-1.116099,1.174618,15.1,100,-0.0212907,-0.00839154,0.04051443,-0.4853366,-4.298916,-0.05057929,0.6511768,1.583082,0.3751435,-0.01021323,-0.0271225,0.01638155,-0.739318,0.1801937,0.1272876,0.7649866,1.618927,0.1843746,0.2312468,1.245692,0.4139359,290.3573,251.5061,5.018154,True
2,1.600003,-0.1279834,-0.007345034,0.01368704,-1.365481,-4.711553,-2.578588,0.5691374,1.345363,0.4900918,-1.103419,1.140806,15.1,100,-0.02022406,-0.01584836,0.04048409,-0.4848754,-4.299759,-0.0496304,0.6511304,1.583182,0.3750613,-0.008048989,-0.02501302,0.02063628,-0.7389532,0.1798102,0.1275809,0.7648679,1.618895,0.1842809,0.2309475,1.242091,0.414423,290.9897,252.1462,4.43952,True
2,1.611114,-0.1418181,-0.009508515,0.01587082,-1.365588,-4.711305,-2.57663,0.5686871,1.345631,0.4904304,-1.090313,1.180069,16.3,100,-0.02340455,-0.02012117,0.04262812,-0.4842426,-4.300552,-0.04853824,0.6511231,1.583269,0.3749902,-0.00916941,-0.02177759,0.01320343,-0.7390624,0.1797466,0.1277255,0.7647098,1.61889,0.1842518,0.2307697,1.238605,0.414919,291.5787,252.7521,3.868383,True
2,1.622225,-0.1460892,-0.009539392,0.01268828,-1.365548,-4.711201,-2.574891,0.5682109,1.345893,0.4903324,-1.077388,1.163139,16.3,100,-0.02016165,-0.01588257,0.04900812,-0.4835384,-4.300619,-0.04841387,0.6511024,1.58335,0.3749294,-0.00386199,-0.02176446,0.009967815,-0.7390831,0.1793146,0.1278304,0.7646778,1.618988,0.1842561,0.2306089,1.235221,0.4154494,292.1495,253.3648,3.302832,True
2,1.633336,-0.158873,-0.01492798,0.008487612,-1.36529,-4.711007,-2.57266,0.567757,1.346234,0.490243,-1.064252,1.182457,16.3,100,-0.02123509,-0.009484514,0.04903495,-0.4830101,-4.300163,-0.0484421,0.6510854,1.583493,0.3748569,-0.0007672459,-0.02702797,-0.002866618,-0.7396355,0.1786787,0.128196,0.7645739,1.618958,0.1841877,0.2304728,1.231917,0.4160455,292.7074,253.8671,2.819972,True
2,1.644447,-0.1748305,-0.02459406,0.004322095,-1.364895,-4.710532,-2.570291,0.5671591,1.346545,0.490196,-1.051391,1.156982,16.3,100,-0.02120286,0.00541896,0.05333805,-0.4824018,-4.298884,-0.04941123,0.6510811,1.583518,0.3747666,0.0002482813,-0.03125503,-0.009288278,-0.7400552,0.1780523,0.1286293,0.7645372,1.618918,0.1840978,0.2303427,1.228667,0.4167608,293.2574,254.3161,2.38047,True
2,1.655559,-0.1886771,-0.03426782,-0.004114758,-1.364272,-4.71018,-2.567756,0.5666655,1.346873,0.4901555,-1.0377,1.233088,14.2,100,-0.02330225,0.022442,0.05979893,-0.4815214,-4.297153,-0.05045439,0.6511108,1.583603,0.3746574,-0.003819712,-0.02924509,0.01525655,-0.7391225,0.1774925,0.1292419,0.7644022,1.618896,0.1840203,0.2302156,1.225426,0.4175569,293.7953,254.8023,2.020638,True
2,1.66667,-0.2003699,-0.04283546,-0.005106699,-1.363776,-4.709652,-2.565232,0.5659506,1.347253,0.4901114,-1.024157,1.218793,14.2,100,-0.03612479,0.0245803,0.05563899,-0.4810122,-4.296571,-0.05000644,0.6510587,1.583708,0.3745265,0.00266755,-0.033564,0.02689828,-0.7385383,0.1766569,0.1295721,0.7642692,1.619022,0.1839941,0.2300873,1.222173,0.4183856,294.367,255.2749,1.727059,True
2,1.677781,-0.2162977,-0.05460793,-0.002877744,-1.363138,-4.708724,-2.562486,0.5651536,1.34763,0.4899921,-1.010642,1.216451,14.2,100,-0.03067655,0.01174564,0.0726067,-0.4796428,-4.297039,-0.04940723,0.6510119,1.583844,0.3745124,0.01226119,-0.01972018,0.02795496,-0.7381659,0.1768917,0.1290171,0.7641021,1.619026,0.1839776,0.2299295,1.218896,0.4191968,294.9618,255.6879,1.484623,True
2,1.688892,-0.2333099,-0.06532079,-0.002780041,-1.362494,-4.707898,-2.559435,0.564394,1.348082,0.4897554,-0.9971812,1.21134,14.2,100,-0.01893796,0.002151079,0.07569426,-0.478651,-4.297451,-0.04921389,0.6510009,1.584003,0.3744109,0.01439143,-0.005870234,0.02800503,-0.7377889,0.1774657,0.1283833,0.7640109,1.619101,0.1838903,0.2297836,1.215608,0.4199674,295.5798,256.0597,1.246072,True
2,1.700003,-0.2333099,-0.06532079,-0.002780041,-1.362494,-4.707898,-2.559435,0.564394,1.348082,0.4897554,-0.9833919,1.241469,14.2,100,-0.01893796,0.002151079,0.07569426,-0.478651,-4.297451,-0.04921389,0.6510009,1.584003,0.3744109,0.01439143,-0.005870234,0.02800503,-0.7377889,0.1774657,0.1283833,0.7640109,1.619101,0.1838903,0.2295634,1.212316,0.4206702,296.214,256.4346,0.9942511,True
2,1.711114,-0.2706282,-0.05904665,-0.001637485,-1.361878,-4.707143,-2.552524,0.5627193,1.3489,0.4894638,-0.9726732,0.9603687,13.1,89.2,-0.04885057,-0.015935,0.06413387,-0.4774563,-4.299207,-0.04571103,0.6509165,1.584257,0.3743865,-0.0005767802,-0.009033455,0.02170974,-0.7376743,0.1771766,0.1290826,0.7638307,1.619174,0.1841242,0.2294373,1.209042,0.4212725,296.8116,256.7491,0.783008,True
2,1.722225,-0.2887604,-0.04843393,0.003694033,-1.361969,-4.706863,-2.548802,0.5617836,1.34933,0.4893606,-0.9528284,1.797127,13.1,89.2,-0.06485704,-0.02764437,0.05994903,-0.476912,-4.300739,-0.04311764,0.6508135,1.584339,0.3744195,-0.005983005,-0.00578753,0.01111323,-0.7379428,0.1771113,0.1293423,0.7637914,1.619327,0.1843412,0.2296039,1.20566,0.421825,297.2943,257.0729,0.5312605,True
2,1.733337,-0.3111634,-0.03571936,0.006891612,-1.362017,-4.706766,-2.544767,0.5606418,1.349805,0.4892912,-0.9413604,1.023981,13.1,89.2,-0.06602058,-0.02972999,0.04610622,-0.4767628,-4.30142,-0.04178153,0.6506078,1.584459,0.3743429,-0.007099126,0.003832061,0.004777811,-0.7380413,0.1776687,0.1290365,0.7636578,1.619339,0.1845396,0.2290941,1.202296,0.422222,298.2082,257.5607,0.16675,True
2,1.744448,-0.3228812,-0.03040467,0.01329393,-1.362244,-4.706419,-2.540824,0.559512,1.350276,0.4892094,-0.9281873,1.187247,13.1,89.2,-0.08528055,-0.01798269,0.03455931,-0.4768145,-4.301226,-0.04040388,0.650211,1.584753,0.3743281,-0.006989693,0.01973888,0.01870552,-0.737253,0.178561,0.1284578,0.7633806,1.619295,0.1842623,0.2285002,1.199194,0.4225015,298.9971,257.8162,359.9415,True
2,1.755559,-0.3452455,-0.01977432,0.02608535,-1.362787,-4.706188,-2.536467,0.5580401,1.350975,0.4890082,-0.9143165,1.248867,13.1,89.2,-0.108591,-0.00951656,0.05393076,-0.4754765,-4.30057,-0.03894154,0.64996,1.584859,0.3741229,-0.006771099,0.02492864,0.04642833,-0.7358197,0.1789715,0.1282424,0.763114,1.619323,0.1843364,0.2279008,1.196385,0.4227329,299.6053,258.0782,359.644,True
2,1.76667,-0.3526441,-0.03149341,0.03148884,-1.362744,-4.705258,-2.532569,0.5567589,1.351599,0.4888818,-0.9006662,1.228265,12.1,81.4,-0.1339508,0.008490644,0.08505899,-0.4735058,-4.299001,-0.03794605,0.6496379,1.584998,0.3739865,-0.009740837,0.01839515,0.07518373,-0.7340737,0.1786602,0.1286736,0.7628205,1.619361,0.1843607,0.227238,1.193834,0.4229802,300.0949,258.339,359.3388,True
2,1.777781,-0.3792524,-0.0422732,0.02629222,-1.362295,-4.70447,-2.527716,0.5552576,1.352327,0.4887011,-0.8865935,1.267101,12.1,81.4,-0.1467123,0.01806791,0.08837573,-0.4724581,-4.297756,-0.03707759,0.6492751,1.585214,0.3738098,-0.02037764,0.01093403,0.07735967,-0.7332513,0.1783615,0.129456,0.7625825,1.619375,0.1844063,0.226506,1.191491,0.4232635,300.5375,258.6306,359.0585,True
2,1.788892,-0.3994654,-0.0530078,0.02213625,-1.361806,-4.703822,-2.522799,0.5537685,1.353015,0.4885674,-0.8731504,1.209163,12.1,81.4,-0.1606233,0.02341263,0.07996539,-0.4719643,-4.296983,-0.03552311,0.648928,1.585378,0.3736379,-0.02787918,0.01096492,0.07209419,-0.7326628,0.1785439,0.1299481,0.762316,1.619541,0.1844316,0.2256242,1.189322,0.4235604,300.9956,258.9411,358.8292,True
2,1.800003,-0.4388922,-0.06710187,0.002087295,-1.360546,-4.703146,-2.516788,0.5519564,1.353868,0.4882696,-0.8586559,1.306031,12.1,81.4,-0.1754472,0.02550198,0.09286161,-0.4704975,-4.296115,-0.03389671,0.6484523,1.585613,0.3734565,-0.02470717,0.01310063,0.06995084,-0.7319155,0.1786261,0.1301391,0.762036,1.619527,0.1841173,0.2247508,1.187272,0.4238405,301.4058,259.1219,358.7389,True
2,1.811115,-0.4591236,-0.07786477,-0.006321978,-1.359624,-4.702387,-2.511274,0.550442,1.35458,0.4880738,-0.845046,1.224298,14.7,86.5,-0.1881305,0.0275802,0.1078715,-0.4687936,-4.295319,-0.03207112,0.6480434,1.585906,0.3732762,-0.0236763,0.02164089,0.06571954,-0.7313424,0.1792042,0.1299375,0.7617545,1.619625,0.1841309,0.2237809,1.185296,0.4240978,301.8484,259.2456,358.673,True
2,1.822226,-0.4793349,-0.09503368,-0.0168305,-1.358227,-4.701384,-2.505474,0.5485093,1.355576,0.4879208,-0.830617,1.300139,14.7,86.5,-0.1880372,0.02648409,0.119584,-0.4671642,-4.294488,-0.03093927,0.6474441,1.586105,0.3731134,-0.0300836,0.03550034,0.06370775,-0.7305823,0.1803414,0.1296374,0.7613678,1.61977,0.1841316,0.2226836,1.183384,0.4243496,302.3084,259.3518,358.6023,True
2,1.833337,-0.4931119,-0.1228352,-0.0273066,-1.356383,-4.699875,-2.50006,0.5465133,1.356508,0.4877696,-0.8177598,1.155703,14.7,86.5,-0.1954798,0.0179584,0.1217415,-0.4657336,-4.294508,-0.02846813,0.6467873,1.586406,0.3728263,-0.04074983,0.03869901,0.06274536,-0.7297977,0.1809049,0.1301383,0.7609643,1.619853,0.1841409,0.2213842,1.181578,0.4245933,302.8206,259.4238,358.573,True
2,1.844448,-0.5005252,-0.1367209,-0.02934775,-1.354872,-4.69848,-2.494582,0.5445085,1.357547,0.4875891,-0.8043301,1.209452,14.7,86.5,-0.2178283,0.02326986,0.1240399,-0.4644137,-4.293592,-0.0262561,0.645987,1.586744,0.3726032,-0.04496282,0.04612739,0.06814529,-0.7287053,0.1818236,0.1299905,0.7604578,1.620044,0.1841738,0.220066,1.179933,0.4248334,303.2816,259.4669,358.5609,True
2,1.855559,-0.5164039,-0.16233,-0.02811389,-1.353113,-4.696606,-2.488855,0.5423992,1.358711,0.4874113,-0.7914457,1.159001,14.7,86.5,-0.2230634,0.04240407,0.1379827,-0.4624686,-4.290823,-0.02605956,0.6452772,1.587095,0.3725219,-0.04388238,0.05570751,0.07031756,-0.7276763,0.183153,0.129481,0.7599387,1.620264,0.1842825,0.2185979,1.178441,0.4250706,303.7432,259.4749,358.5779,True
2,1.86667,-0.5355026,-0.1826353,-0.02796071,-1.35123,-4.694702,-2.482759,0.5401605,1.359888,0.4871476,-0.7799312,1.036538,14.4,95.9,-0.2453959,0.06369685,0.1435289,-0.4607711,-4.287251,-0.02580976,0.6443478,1.587553,0.3722444,-0.04701741,0.06524834,0.07891282,-0.7263942,0.1843459,0.1292983,0.7593557,1.620453,0.1843746,0.2170107,1.177155,0.4252778,304.2042,259.4372,358.6511,False
2,1.877781,-0.551425,-0.1965268,-0.02570871,-1.349536,-4.69268,-2.476582,0.5378426,1.36114,0.487009,-0.7696706,0.9239361,14.4,95.9,-0.2655834,0.07219456,0.1511517,-0.4589223,-4.284603,-0.0245634,0.6434243,1.588032,0.3721547,-0.05864675,0.07265882,0.08969479,-0.7249034,0.185784,0.1292294,0.7587425,1.620689,0.1844974,0.2153214,1.176207,0.4254084,304.6805,259.4271,358.7146,False
2,1.888893,-0.5652462,-0.201873,-0.02031609,-1.348022,-4.690858,-2.470131,0.5355312,1.362336,0.4867411,-0.7607852,0.799979,14.4,95.9,-0.2900758,0.07962978,0.1534836,-0.4570656,-4.282329,-0.02250558,0.6425291,1.588502,0.3719006,-0.06815828,0.07793482,0.09938438,-0.7233896,0.1869618,0.1294102,0.7580082,1.620856,0.184623,0.2134506,1.175729,0.4253938,305.1436,259.3834,358.8201,False
2,1.900004,-0.5917992,-0.220058,-0.01588322,-1.346111,-4.688379,-2.463188,0.5329772,1.363632,0.4865487,-0.7534125,0.6633946,14.4,95.9,-0.3070922,0.07855448,0.1578632,-0.4552072,-4.280143,-0.02047039,0.6415287,1.58896,0.3717976,-0.08618984,0.08321691,0.1091345,-0.7218216,0.1883601,0.1298592,0.7572998,1.621021,0.1849658,0.2112883,1.175837,0.4251778,305.5232,259.2597,358.9683,False
2,1.911115,-0.6087254,-0.2456337,-0.006121919,-1.344114,-4.685377,-2.456531,0.5303488,1.364995,0.4863143,-0.7470076,0.5766832,11.7,86.2,-0.3080775,0.0870401,0.1696132,-0.4530026,-4.277227,-0.01967597,0.6404364,1.589475,0.3715584,-0.1074666,0.08639148,0.1125071,-0.7204687,0.1895647,0.1307972,0.7565441,1.621277,0.1851387,0.2088178,1.176623,0.4247425,305.7329,259.0677,359.1193,False
2,1.922226,-0.6288596,-0.2669671,0.00363031,-1.342064,-4.682201,-2.449533,0.5275986,1.366323,0.4859529,-0.7410991,0.5325271,11.7,86.2,-0.3154974,0.0934175,0.175017,-0.4508631,-4.274175,-0.01868847,0.6393437,1.589936,0.3712838,-0.1351257,0.09809197,0.1170423,-0.7188788,0.1915497,0.1317088,0.7557555,1.621486,0.1852818,0.2060331,1.178095,0.424078,305.7339,258.8195,359.2876,False
2,1.933337,-0.6405612,-0.265904,0.01218531,-1.340525,-4.679652,-2.442568,0.5248199,1.367684,0.4856005,-0.7367433,0.3913376,11.7,86.2,-0.3314101,0.1008469,0.184744,-0.4484337,-4.270758,-0.01751508,0.6380832,1.590418,0.3710246,-0.1499057,0.1129249,0.1342771,-0.7166103,0.1937997,0.132161,0.7550113,1.621595,0.1855125,0.2028928,1.180211,0.4231762,305.5842,258.4587,359.5245,False
2,1.944448,-0.6469312,-0.2637501,0.02178245,-1.339109,-4.677024,-2.435737,0.5220601,1.369043,0.4851737,-0.7325941,0.374088,11.7,86.2,-0.3441999,0.1104247,0.1838023,-0.4464012,-4.267342,-0.01636566,0.6369197,1.590939,0.3707519,-0.1593841,0.1213819,0.1482398,-0.7143211,0.1958996,0.1326542,0.7541758,1.621789,0.1857481,0.1994801,1.182893,0.422021,305.2708,257.9845,359.8526,False
2,1.955559,-0.6554836,-0.2434564,0.03768002,-1.338513,-4.674967,-2.428548,0.5192322,1.370587,0.4847243,-0.7294963,0.2782847,11.7,86.2,-0.3835151,0.1316772,0.1990605,-0.4437034,-4.262183,-0.01538109,0.6354167,1.591709,0.370446,-0.1783122,0.1361421,0.1793549,-0.7110267,0.1982944,0.1334273,0.7533995,1.622002,0.1860154,0.1958378,1.18601,0.4206105,304.8401,257.462,0.1959611,False
2,1.966671,-0.6661721,-0.2253411,0.04614536,-1.33786,-4.673009,-2.421272,0.5162983,1.3721,0.4842064,-0.7268603,0.2372081,12.2,49.8,-0.4142308,0.1603518,0.2249321,-0.4404069,-4.255872,-0.01557097,0.6338935,1.592304,0.3701339,-0.195338,0.1574329,0.1817245,-0.708665,0.2015667,0.1336696,0.7525039,1.622242,0.1862562,0.1920742,1.189444,0.4190024,304.3238,256.9431,0.4768427,False
2,1.977782,-0.6757654,-0.221099,0.04935651,-1.336844,-4.670711,-2.413984,0.5132551,1.373727,0.4837162,-0.7242674,0.2337382,12.2,49.8,-0.4311422,0.1879841,0.2453803,-0.4370237,-4.248696,-0.01668151,0.6324809,1.592903,0.3698239,-0.2104108,0.1394285,0.1615125,-0.7074421,0.202859,0.1354755,0.7516036,1.622442,0.1866412,0.1883003,1.193062,0.4172571,303.7845,256.4528,0.6982682,False
2,1.988893,-0.6831961,-0.223222,0.05577863,-1.335722,-4.668194,-2.406683,0.5102004,1.375273,0.4832098,-0.7221454,0.1909487,12.2,49.8,-0.4501949,0.2198832,0.2637192,-0.4335839,-4.24024,-0.01874546,0.6309137,1.593673,0.3694372,-0.2212091,0.1224793,0.1434059,-0.7063183,0.2038972,0.1375043,0.7505874,1.622681,0.1868923,0.1845036,1.196776,0.4154404,303.3032,256.046,0.8336927,False
2,2.000004,-0.7001536,-0.2392322,0.0644248,-1.334205,-4.664938,-2.399048,0.5069053,1.377008,0.4826643,-0.7203212,0.1642691,12.2,49.8,-0.457626,0.2305213,0.267002,-0.4305671,-4.233261,-0.01981658,0.6294158,1.594374,0.3690865,-0.2233607,0.1214321,0.1402182,-0.7047193,0.2056758,0.1386383,0.7496417,1.622902,0.1871183,0.1806346,1.200501,0.4136048,302.873,255.628,0.9938118,False
2,2.011115,-0.7001536,-0.2392322,0.0644248,-1.334205,-4.664938,-2.399048,0.5069053,1.377008,0.4826643,-0.7187781,0.1388811,12.2,49.8,-0.457626,0.2305213,0.267002,-0.4305671,-4.233261,-0.01981658,0.6294158,1.594374,0.3690865,-0.2233607,0.1214321,0.1402182,-0.7047193,0.2056758,0.1386383,0.7496417,1.622902,0.1871183,0.1767018,1.204201,0.4117872,302.4868,255.14,1.234746,False
2,2.022226,-0.7244756,-0.302254,0.04883162,-1.329012,-4.658076,-2.383978,0.500066,1.380638,0.4814987,-0.7251607,-0.5855381,19.3,30,-0.4841196,0.1750553,0.2851303,-0.4237601,-4.22812,-0.01301167,0.626155,1.595829,0.368355,-0.222241,0.1182018,0.1465885,-0.7008982,0.2087533,0.1410293,0.747372,1.62338,0.1875429,0.1733118,1.207901,0.4100575,301.8846,254.4556,1.633008,False
2,2.033337,-0.732942,-0.3193421,0.04682532,-1.326647,-4.654586,-2.376456,0.4966984,1.382464,0.4809358,-0.7079609,1.576911,19.3,30,-0.4894136,0.1707561,0.2904814,-0.4203874,-4.224126,-0.01106783,0.6243708,1.596643,0.3679519,-0.2435181,0.128835,0.1510708,-0.6988433,0.2110744,0.1428072,0.7462115,1.623711,0.1877487,0.170852,1.211091,0.4086328,301.0321,253.9236,1.900122,False
2,2.044448,-0.7413825,-0.3481705,0.03953396,-1.323483,-4.65089,-2.368897,0.4930818,1.384381,0.4803083,-0.7139738,-0.5642942,19.3,30,-0.4893308,0.177117,0.3022206,-0.4166995,-4.218451,-0.01088008,0.6224462,1.597151,0.3675842,-0.2530227,0.1426347,0.1618657,-0.6964475,0.2138144,0.1438339,0.7451411,1.62389,0.1880264,0.1659618,1.213881,0.4069895,301.7801,253.9559,1.943319,False
2,2.055559,-0.7424,-0.3631017,0.03748232,-1.320604,-4.647271,-2.361549,0.489556,1.386248,0.479701,-0.7144702,-0.03925117,19.3,30,-0.4883141,0.2048302,0.2959093,-0.4136454,-4.210664,-0.01268197,0.6204642,1.597839,0.3670883,-0.2583339,0.1543462,0.1640947,-0.6942962,0.2166772,0.1446781,0.7440037,1.624165,0.188339,0.1608133,1.217166,0.4051095,302.1659,253.1919,2.625905,False
2,2.06667,-0.730661,-0.3747946,0.032171,-1.317526,-4.643919,-2.354652,0.4859154,1.388063,0.4790547,-0.7138177,0.05906519,34.5,18.7,-0.5160905,0.23571,0.2855529,-0.4107649,-4.202726,-0.01342686,0.6182606,1.598669,0.3666408,-0.2593954,0.1639249,0.1652186,-0.6921161,0.2194108,0.1455425,0.742878,1.624346,0.1886132,0.1559853,1.221075,0.4030614,301.9538,252.4256,3.163723,False
2,2.077781,-0.729556,-0.3833094,0.0343385,-1.314655,-4.640269,-2.347635,0.4822632,1.389846,0.478333,-0.7134795,0.03004138,34.5,18.7,-0.5384464,0.2463573,0.2878736,-0.4075829,-4.194935,-0.01396562,0.6162913,1.599315,0.3661158,-0.270089,0.1735416,0.1600241,-0.6902136,0.2225489,0.1464166,0.741621,1.624695,0.1889174,0.1514793,1.225482,0.4008883,301.4008,251.6123,3.672271,False
2,2.088892,-0.7273824,-0.3939809,0.03546447,-1.311583,-4.63622,-2.340615,0.478524,1.391639,0.4775276,-0.7135115,-0.003470109,34.5,18.7,-0.5521848,0.2569623,0.3039846,-0.4036985,-4.186783,-0.01488734,0.6145754,1.599856,0.365484,-0.2850361,0.1831611,0.1559276,-0.6882855,0.2259932,0.1474257,0.7403321,1.624845,0.1891999,0.1472069,1.230182,0.398641,300.723,250.7147,4.243352,False
2,2.100003,-0.7241569,-0.4003505,0.03761584,-1.308575,-4.632507,-2.333663,0.4748268,1.393422,0.4767725,-0.7128984,0.05585938,34.5,18.7,-0.5478584,0.2707865,0.3135878,-0.3999141,-4.177685,-0.01736834,0.6123714,1.600508,0.3649073,-0.2871076,0.1937808,0.1634541,-0.6858769,0.2294631,0.1480134,0.7389913,1.625089,0.1893342,0.1429691,1.234926,0.3963735,300.0358,249.7567,4.891956,False
2,2.111114,-0.7177773,-0.3982191,0.03332835,-1.305643,-4.62922,-2.326887,0.4711241,1.39517,0.4760106,-0.7123492,0.04944036,34.5,18.7,-0.5520831,0.2750391,0.3178905,-0.3963753,-4.16924,-0.01896357,0.6102842,1.601176,0.3643017,-0.2913132,0.1958777,0.1709602,-0.6833304,0.2324937,0.149063,0.7376324,1.625237,0.1895893,0.1386734,1.239531,0.3940876,299.4258,248.8353,5.569798,False
2,2.122225,-0.7103254,-0.3939297,0.03435059,-1.302856,-4.625871,-2.320229,0.467337,1.396831,0.4751873,-0.7121351,0.01896011,22.3,8.5,-0.5700734,0.287769,0.3351034,-0.3921191,-4.159489,-0.02100382,0.6078826,1.601883,0.3636675,-0.30928,0.2011105,0.189235,-0.6803263,0.2354501,0.1508161,0.7361758,1.625417,0.1897821,0.1343075,1.243896,0.3917524,298.9329,247.9246,6.269055,False
2,2.133336,-0.7039194,-0.3938481,0.0428393,-1.300137,-4.62242,-2.313377,0.4635635,1.398556,0.4743774,-0.7121208,0.001011124,22.3,8.5,-0.5817826,0.318662,0.3374128,-0.3884252,-4.147031,-0.02563506,0.605465,1.602447,0.3630013,-0.3261952,0.2276688,0.2054807,-0.6770411,0.240243,0.1512601,0.7346368,1.625615,0.1900804,0.1299523,1.247996,0.3893911,298.5419,247.0249,6.91527,False
2,2.144447,-0.6932815,-0.3874146,0.04384243,-1.29743,-4.619104,-2.306929,0.4596713,1.400146,0.4735262,-0.7119541,0.01506182,22.3,8.5,-0.582957,0.340023,0.3225655,-0.3855538,-4.134699,-0.03049373,0.6028483,1.602964,0.3623171,-0.3324579,0.2467667,0.2216015,-0.6736237,0.2448689,0.1515256,0.7332094,1.625898,0.1902919,0.1256379,1.25183,0.3870545,298.2194,246.1711,7.484434,False
2,2.155558,-0.6858048,-0.3905904,0.04489075,-1.294375,-4.615527,-2.300507,0.4557719,1.401844,0.472652,-0.711473,0.0436567,22.3,8.5,-0.5745618,0.330506,0.3033063,-0.3828326,-4.125221,-0.03318539,0.6001606,1.603562,0.3615704,-0.3324351,0.2542089,0.2248341,-0.6705738,0.2491167,0.1519448,0.7317075,1.62611,0.1905663,0.121359,1.255417,0.3847608,297.9613,245.3943,7.997499,False
2,2.166669,-0.6666512,-0.3873289,0.04267974,-1.291455,-4.612337,-2.294501,0.4518123,1.403435,0.4717174,-0.7116467,-0.01636176,16.5,4.6,-0.5884623,0.3241453,0.2948614,-0.3799202,-4.115612,-0.03509806,0.5973307,1.604135,0.3608077,-0.3730476,0.245775,0.2091368,-0.6682867,0.2527129,0.154653,0.7299118,1.626351,0.1908643,0.1171086,1.258825,0.3824986,297.7812,244.6828,8.480135,False
2,2.17778,-0.6464154,-0.3829894,0.04578309,-1.288647,-4.608984,-2.288836,0.4478127,1.405005,0.4707556,-0.7114267,0.0201579,16.5,4.6,-0.6096669,0.3475397,0.3099849,-0.3762572,-4.102527,-0.03979642,0.5944811,1.604712,0.3600025,-0.4028952,0.2596437,0.2062412,-0.6656156,0.2575673,0.156273,0.7282768,1.626587,0.1912074,0.1128397,1.262104,0.3802507,297.6257,243.9657,8.990856,False
2,2.188891,-0.6357982,-0.3744451,0.0425113,-1.285945,-4.606027,-2.282967,0.4439073,1.406549,0.4697986,-0.711717,-0.02688196,16.5,4.6,-0.6256363,0.3784233,0.3123221,-0.3729235,-4.087855,-0.04594086,0.5915841,1.605227,0.3591936,-0.4198311,0.3000631,0.2204213,-0.6619591,0.2645073,0.1560865,0.7266113,1.626889,0.1915371,0.1085616,1.265327,0.3779954,297.4986,243.2292,9.528877,False
2,2.200002,-0.6155534,-0.3743744,0.04350789,-1.283035,-4.602741,-2.277709,0.4398343,1.407988,0.4687848,-0.711832,-0.01038633,16.5,4.6,-0.6416413,0.4263681,0.3093881,-0.3699035,-4.070003,-0.05493462,0.5884693,1.605738,0.3583019,-0.4186932,0.3149338,0.229005,-0.6585582,0.2702084,0.1561033,0.7248881,1.6271,0.1918163,0.1042537,1.268527,0.3757291,297.338,242.4717,10.08608,False
2,2.211113,-0.5953783,-0.3604514,0.04337187,-1.280557,-4.599999,-2.272321,0.4357616,1.409289,0.4677732,-0.7115253,0.02794306,16.5,4.6,-0.6405994,0.4562032,0.3073386,-0.3669522,-4.052928,-0.06377286,0.5853266,1.606205,0.3574185,-0.4229805,0.319211,0.2258715,-0.6555616,0.2754571,0.156768,0.723098,1.627234,0.192153,0.09995499,1.271716,0.3734484,297.1367,241.7148,10.64233,False
2,2.222224,-0.5762156,-0.3550402,0.0464869,-1.278065,-4.596932,-2.267351,0.4316911,1.41063,0.4667525,-0.7117916,-0.02476503,12.5,3,-0.6354215,0.4530743,0.2859881,-0.3646997,-4.03892,-0.0699671,0.5819812,1.606594,0.3564956,-0.436773,0.3298439,0.2324419,-0.6519355,0.2813594,0.1573534,0.7210869,1.627514,0.1924245,0.09567784,1.2749,0.3711599,296.9173,240.9544,11.20192,False
2,2.233335,-0.5517439,-0.3453564,0.04848637,-1.275623,-4.594069,-2.262717,0.4274549,1.411955,0.4656491,-0.7116323,0.01467043,12.5,3,-0.6335374,0.4478556,0.250803,-0.3633942,-4.024979,-0.07590515,0.5786422,1.607056,0.3555825,-0.4579977,0.3425845,0.2422619,-0.6482257,0.2876478,0.1581699,0.7191185,1.62776,0.1927829,0.09135692,1.278028,0.3688536,296.6607,240.126,11.83354,False
2,2.244446,-0.5336604,-0.3378359,0.04840001,-1.273222,-4.591209,-2.258119,0.4232307,1.413201,0.4645255,-0.7117181,-0.008131452,12.5,3,-0.6294491,0.4532627,0.2262882,-0.3621824,-4.00967,-0.08324242,0.5751706,1.607579,0.3546486,-0.4739414,0.3596088,0.2467328,-0.6445814,0.2945198,0.1585944,0.7171571,1.627974,0.1931047,0.08700234,1.281067,0.3665465,296.3937,239.3344,12.42459,False
2,2.255557,-0.5038661,-0.3270821,0.04931404,-1.270893,-4.588553,-2.254298,0.4189731,1.414341,0.4632444,-0.7119013,-0.01686102,12.5,3,-0.64003,0.4723963,0.2370811,-0.3595779,-3.992114,-0.09220263,0.57126,1.608148,0.3534486,-0.5112181,0.379858,0.2481895,-0.6409951,0.3020527,0.1596011,0.715028,1.628149,0.1933372,0.08264324,1.283996,0.3642347,296.1548,238.5827,12.98928,False
2,2.266668,-0.4741073,-0.3131422,0.04489513,-1.268762,-4.586321,-2.250609,0.4147339,1.415415,0.4620421,-0.7117266,0.01599398,10.2,1.3,-0.6780936,0.4978205,0.2800373,-0.3556875,-3.972901,-0.1013341,0.5674847,1.608454,0.3521979,-0.5451698,0.3829769,0.2665918,-0.6365956,0.3084935,0.1618158,0.7129871,1.62831,0.1936462,0.07823222,1.286782,0.3619109,295.9452,237.8397,13.55464,False
2,2.277779,-0.4507874,-0.2843243,0.04042502,-1.267195,-4.584588,-2.246856,0.4104724,1.416425,0.4608364,-0.7122965,-0.05244394,10.2,1.3,-0.7119972,0.5414048,0.3081002,-0.3522515,-3.950246,-0.1135588,0.5638503,1.608858,0.3510857,-0.5506155,0.3702697,0.2516528,-0.6337556,0.3139087,0.1636763,0.7108108,1.628494,0.194047,0.07380152,1.289411,0.3595725,295.7573,237.125,14.10915,False
2,2.28889,-0.4445169,-0.262,0.02857434,-1.265253,-4.583096,-2.242393,0.4061787,1.417477,0.4595485,-0.7123461,-0.004256217,10.2,1.3,-0.7724545,0.6073136,0.3481554,-0.3481028,-3.922311,-0.1291167,0.560253,1.609217,0.3497434,-0.544179,0.3904933,0.2560019,-0.6296991,0.3216218,0.1632209,0.7086791,1.628718,0.194406,0.06939051,1.291845,0.3572258,295.5617,236.4014,14.67102,False
2,2.300001,-0.4434964,-0.2577808,0.01896328,-1.263025,-4.581411,-2.23798,0.4017777,1.41847,0.4583399,-0.7121426,0.01838736,10.2,1.3,-0.7882375,0.6242713,0.3760247,-0.3439819,-3.898237,-0.1424762,0.556565,1.609582,0.3486247,-0.530116,0.4265732,0.2837676,-0.6246551,0.3305269,0.1615346,0.706358,1.628851,0.1947699,0.06502012,1.294058,0.3549238,295.3861,235.7353,15.13265,False
2,2.311112,-0.4392968,-0.254654,0.002950124,-1.26042,-4.579955,-2.233606,0.3973125,1.419335,0.4571772,-0.7112355,0.0825661,9.9,0.3,-0.7679315,0.592285,0.3853645,-0.3401645,-3.880442,-0.1514321,0.5528623,1.609556,0.3474603,-0.5331634,0.4531125,0.3010122,-0.6194167,0.3394902,0.1602459,0.7041686,1.629155,0.1951375,0.06064144,1.296067,0.3527128,295.264,235.2105,15.45066,False
2,2.322223,-0.4392968,-0.254654,0.002950124,-1.26042,-4.579955,-2.233606,0.3973125,1.419335,0.4571772,-0.7109495,0.02537765,9.9,0.3,-0.7679315,0.592285,0.3853645,-0.3401645,-3.880442,-0.1514321,0.5528623,1.609556,0.3474603,-0.5331634,0.4531125,0.3010122,-0.6194167,0.3394902,0.1602459,0.7041686,1.629155,0.1951375,0.05617478,1.29795,0.3506042,295.2446,234.7557,15.73299,False
2,2.333334,-0.4191081,-0.2557445,-0.01628437,-1.255212,-4.576902,-2.225717,0.3880984,1.421005,0.454705,-0.7155733,-0.4230866,9.9,0.3,-0.6676322,0.4914823,0.2543783,-0.3397128,-3.856117,-0.1624097,0.5448653,1.609844,0.3453772,-0.572702,0.5011512,0.2866255,-0.6116375,0.3598568,0.1578299,0.6989908,1.62934,0.1959825,0.05254317,1.299848,0.3487639,295.1396,234.066,16.21151,False
2,2.344445,-0.396737,-0.2556642,-0.01635025,-1.252853,-4.575187,-2.222551,0.3835223,1.42174,0.4535005,-0.7064413,0.8383722,9.9,0.3,-0.6368047,0.4904459,0.2456339,-0.3381373,-3.838641,-0.1727886,0.5407271,1.609706,0.3442354,-0.5759379,0.4926594,0.2812803,-0.6079288,0.3679333,0.1576642,0.6965327,1.629505,0.1963618,0.04996862,1.301495,0.3473903,294.7715,233.3556,16.73726,False
2,2.355556,-0.3860913,-0.2545713,-0.01745855,-1.250432,-4.573591,-2.21915,0.3790271,1.422555,0.4522169,-0.7105383,-0.3821626,9.9,0.3,-0.6241035,0.5086045,0.2338855,-0.3370944,-3.818468,-0.1853696,0.5366666,1.609807,0.3428783,-0.5739532,0.4959312,0.2683992,-0.6052486,0.3770565,0.1568415,0.6936578,1.629798,0.1967325,0.0438247,1.302863,0.3455724,295.1931,233.385,16.8175,False
2,2.366668,-0.3648648,-0.2417622,-0.02823617,-1.248226,-4.572735,-2.216088,0.3744801,1.423233,0.4510105,-0.7116824,-0.1005365,6,1.1,-0.6442523,0.5383848,0.2479674,-0.3352664,-3.795671,-0.1989712,0.5324515,1.609784,0.341507,-0.5728394,0.5033718,0.2758594,-0.6012219,0.386713,0.1553547,0.6911256,1.629873,0.1970584,0.0374562,1.304488,0.3436686,295.4401,232.9152,17.35967,False
2,2.377779,-0.3574555,-0.2385728,-0.0399996,-1.245806,-4.572084,-2.212584,0.3698814,1.423881,0.4499066,-0.7113889,0.02722769,6,1.1,-0.6792835,0.5766752,0.2664416,-0.3333308,-3.770241,-0.2141938,0.5282062,1.609733,0.3400931,-0.5780652,0.5182191,0.2898186,-0.5966099,0.3967504,0.153764,0.688375,1.630023,0.1975522,0.03179495,1.306384,0.3417838,295.3238,232.3133,17.96419,False
2,2.38889,-0.3522003,-0.2322091,-0.05499232,-1.243151,-4.571912,-2.208873,0.3652678,1.424594,0.448694,-0.7117223,-0.03095409,6,1.1,-0.6951382,0.5915306,0.2847092,-0.3311444,-3.746342,-0.2284896,0.5240103,1.609653,0.3387382,-0.5810941,0.5405374,0.3102189,-0.5911312,0.4085155,0.1507035,0.6856556,1.630084,0.1979275,0.02693476,1.30845,0.339919,295.0546,231.6241,18.59143,False
2,2.400001,-0.3501132,-0.2279857,-0.06460889,-1.240618,-4.57127,-2.205264,0.3606237,1.425098,0.4474611,-0.7112009,0.04785171,6,1.1,-0.7143825,0.6213903,0.2742931,-0.330404,-3.720888,-0.2441072,0.519763,1.609351,0.3373837,-0.5744597,0.5648949,0.3401158,-0.5852962,0.419925,0.1472891,0.6826715,1.630192,0.1983678,0.0225158,1.310527,0.3381019,294.7513,230.7869,19.27136,False
2,2.411112,-0.3426888,-0.2205172,-0.06679927,-1.238289,-4.570537,-2.201952,0.3559927,1.425671,0.4462018,-0.7109234,0.02483104,6,1.1,-0.7155552,0.6256772,0.2615312,-0.3297457,-3.69806,-0.2576446,0.515559,1.609004,0.3360238,-0.5648118,0.5766089,0.3465112,-0.5801217,0.4315641,0.1435606,0.679953,1.630319,0.1987591,0.01811823,1.312507,0.3363681,294.5258,229.9715,19.89413,False
2,2.422223,-0.3395204,-0.2130547,-0.06790905,-1.236131,-4.569866,-2.198507,0.3512937,1.42614,0.4449508,-0.7107316,0.01726235,2.9,3.3,-0.7080147,0.6203302,0.2678618,-0.328445,-3.675919,-0.2713649,0.5113451,1.608733,0.3348684,-0.5436453,0.5756301,0.3292984,-0.5761925,0.4423677,0.1399731,0.6771344,1.630507,0.1991043,0.01349949,1.314358,0.3347409,294.386,229.2353,20.49631,False
2,2.433334,-0.3363793,-0.2034916,-0.07435951,-1.233863,-4.569535,-2.194964,0.3466282,1.426468,0.4436219,-0.710876,-0.01340353,2.9,3.3,-0.693036,0.5595917,0.2697339,-0.3263587,-3.660744,-0.2788939,0.5072348,1.608175,0.3337302,-0.5309881,0.5735765,0.3132086,-0.5724555,0.4531896,0.1363568,0.6742334,1.63062,0.1995018,0.008654832,1.316054,0.3331985,294.2757,228.6109,21.09318,False
2,2.444445,-0.333223,-0.1939038,-0.07654294,-1.23182,-4.569156,-2.191483,0.3419163,1.426736,0.4423559,-0.7106821,0.01773466,2.9,3.3,-0.6782297,0.4935758,0.2545109,-0.3249909,-3.648739,-0.2830772,0.5029942,1.607802,0.3325205,-0.5152121,0.5427818,0.2894877,-0.5694706,0.4614523,0.1347283,0.6712426,1.630826,0.1998463,0.003698408,1.3176,0.3316978,294.1866,228.0955,21.64628,False
2,2.455556,-0.3312142,-0.1673072,-0.0852006,-1.230263,-4.569664,-2.187687,0.3371881,1.426787,0.4410758,-0.7105841,0.008763896,2.9,3.3,-0.6482398,0.4082994,0.2711083,-0.321843,-3.640171,-0.2853111,0.4985414,1.607632,0.330879,-0.5215747,0.5481034,0.2938184,-0.5651345,0.4725975,0.1314957,0.6680071,1.630877,0.2001948,-0.001306134,1.318997,0.3301966,294.1087,227.6256,22.16596,False
2,2.466667,-0.3280668,-0.155597,-0.0873986,-1.228445,-4.569643,-2.184169,0.3325134,1.426933,0.4397173,-0.7105458,0.003395348,1.2,4.2,-0.6353831,0.3901535,0.2816148,-0.319549,-3.625264,-0.2927831,0.4941218,1.607069,0.329567,-0.5193394,0.5821301,0.3067506,-0.5603999,0.4857903,0.1260964,0.6648896,1.63092,0.2005701,-0.006294885,1.320256,0.3286761,294.0428,227.1427,22.67146,False
2,2.477778,-0.3280668,-0.155597,-0.0873986,-1.228445,-4.569643,-2.184169,0.3325134,1.426933,0.4397173,-0.7104547,0.008258816,1.2,4.2,-0.6353831,0.3901535,0.2816148,-0.319549,-3.625264,-0.2927831,0.4941218,1.607069,0.329567,-0.5193394,0.5821301,0.3067506,-0.5603999,0.4857903,0.1260964,0.6648896,1.63092,0.2005701,-0.01126936,1.321398,0.3271361,293.9775,226.6655,23.1229,False
2,2.488889,-0.3195972,-0.151352,-0.09809171,-1.224469,-4.569798,-2.177279,0.3232844,1.427246,0.4371402,-0.7139019,-0.3153644,1.2,4.2,-0.6769173,0.4327526,0.2863027,-0.3167793,-3.585461,-0.3143332,0.4854431,1.606186,0.3265681,-0.4861509,0.5778102,0.3277901,-0.5507454,0.5087298,0.1165133,0.6584213,1.630847,0.2014458,-0.01520195,1.32251,0.325791,293.8663,226.1798,23.50228,False
2,2.5,-0.3100243,-0.1534833,-0.1055675,-1.222203,-4.56996,-2.174193,0.3186727,1.427246,0.4358613,-0.7071928,0.6159736,1.2,4.2,-0.6973411,0.4445509,0.2609145,-0.3164677,-3.567326,-0.3232356,0.4810535,1.605581,0.3250649,-0.4756322,0.5725591,0.3138167,-0.5472173,0.519878,0.1121476,0.6553286,1.63092,0.2020147,-0.0178572,1.323427,0.324768,293.61,225.6385,23.96715,False
2,2.511111,-0.3068577,-0.1513747,-0.1119866,-1.220028,-4.570308,-2.170783,0.3142171,1.427095,0.4346552,-0.7099583,-0.2583944,1.2,4.2,-0.7018545,0.4499661,0.2279518,-0.316734,-3.550672,-0.3311907,0.4766867,1.604852,0.323689,-0.476805,0.5790181,0.3000077,-0.5437243,0.5317491,0.1072335,0.6522393,1.630931,0.2025173,-0.02414256,1.324091,0.3231288,293.8278,225.6476,24.08592,False
2,2.522222,-0.2963183,-0.1258003,-0.1185333,-1.218722,-4.571333,-2.167535,0.3095469,1.426863,0.4333973,-0.7108105,-0.07506484,0.6,3.5,-0.6806174,0.4223093,0.2170669,-0.3160496,-3.537449,-0.3370616,0.4722103,1.604186,0.3224325,-0.4888,0.5898385,0.2660621,-0.5412465,0.5445741,0.1021559,0.6491135,1.630854,0.2029438,-0.03052005,1.324903,0.3213975,294.0146,225.3004,24.47448,False
2,2.533333,-0.2825372,-0.1012293,-0.1133671,-1.217817,-4.572024,-2.164706,0.3049157,1.426719,0.4322805,-0.7105431,0.02482574,0.6,3.5,-0.6635683,0.4137769,0.2190499,-0.3149673,-3.521679,-0.3452639,0.4677564,1.6036,0.3211398,-0.49215,0.5878145,0.2469013,-0.5384533,0.5567138,0.09732549,0.645799,1.630815,0.2034607,-0.03618924,1.325864,0.3197429,293.9682,224.6919,25.03766,False
2,2.544444,-0.2740639,-0.08627788,-0.1123981,-1.21677,-4.572811,-2.161742,0.3003877,1.426454,0.4309731,-0.7108158,-0.02527762,0.6,3.5,-0.6691382,0.4010798,0.1870877,-0.3153225,-3.508573,-0.3499668,0.4634144,1.602597,0.3196814,-0.4804434,0.5750518,0.2446105,-0.5353146,0.56783,0.09260371,0.642487,1.630639,0.2039726,-0.04110127,1.326905,0.318229,293.7843,224.0069,25.63753,False
2,2.555555,-0.2614017,-0.05532817,-0.1114981,-1.216659,-4.574012,-2.158745,0.2958752,1.426018,0.4295681,-0.7110555,-0.02176063,0.6,3.5,-0.6703526,0.39582,0.1657782,-0.3157071,-3.494462,-0.3559296,0.458945,1.601878,0.3180919,-0.4729439,0.5814167,0.2499094,-0.5318083,0.5802945,0.08682651,0.6391823,1.630515,0.2044673,-0.04568714,1.327951,0.3168536,293.5645,223.4161,26.14177,False
2,2.566666,-0.2476052,-0.03929761,-0.1105458,-1.216055,-4.575004,-2.156149,0.2914054,1.425431,0.4282484,-0.7108606,0.01789402,0.6,3.5,-0.6649694,0.3989878,0.1753391,-0.3150892,-3.477863,-0.3644413,0.4546088,1.600935,0.3165612,-0.451483,0.6228563,0.2712471,-0.527348,0.5962603,0.07746017,0.6357163,1.630295,0.2049229,-0.05020049,1.328935,0.3156035,293.3625,222.9445,26.58773,False
2,2.577777,-0.2370264,-0.02540414,-0.1148739,-1.215898,-4.576294,-2.15326,0.2869693,1.424873,0.4271216,-0.7108334,0.002234071,2,3.1,-0.6788629,0.3787717,0.167922,-0.3148144,-3.464916,-0.3687216,0.4502538,1.5999,0.3151832,-0.4311698,0.6441082,0.2818442,-0.5232781,0.6115735,0.06847653,0.632337,1.630021,0.2054765,-0.05480905,1.329792,0.314414,293.1889,222.5674,27.04472,False
2,2.588888,-0.2349168,-0.02114477,-0.1170337,-1.215026,-4.577464,-2.150302,0.2825125,1.424299,0.4258206,-0.7110523,-0.02009269,2,3.1,-0.6789774,0.3510274,0.1571483,-0.3144943,-3.455832,-0.3696153,0.4457155,1.59928,0.3137074,-0.4163085,0.6377568,0.2752893,-0.5201356,0.6249421,0.0610519,0.628953,1.62981,0.2059975,-0.05955536,1.330481,0.3132352,293.0103,222.2687,27.47038,False
2,2.599999,-0.2274793,-0.01580563,-0.1192234,-1.214057,-4.578805,-2.147619,0.2780228,1.42349,0.4242563,-0.7107726,0.02565953,2,3.1,-0.6535431,0.336166,0.1398682,-0.3147755,-3.444699,-0.3734945,0.4412382,1.597826,0.3122394,-0.4082609,0.6092854,0.2165061,-0.5191737,0.6369888,0.05511518,0.6254428,1.629574,0.2065599,-0.06433444,1.330948,0.3120703,292.849,221.9124,27.90177,False
2,2.61111,-0.2147242,-0.01579771,-0.1277882,-1.212942,-4.580265,-2.145125,0.2737195,1.422568,0.4229648,-0.7105308,0.0218057,2,3.1,-0.6322598,0.3351175,0.1365189,-0.3148373,-3.431945,-0.3793308,0.4368628,1.596683,0.3107655,-0.413716,0.6029692,0.2015982,-0.5170389,0.6500205,0.0486927,0.6220945,1.629302,0.207031,-0.06909936,1.331208,0.3109495,292.7466,221.6625,28.17152,False
2,2.622221,-0.1987702,-0.01257247,-0.1331874,-1.211878,-4.581779,-2.142949,0.2693806,1.421595,0.4214098,-0.7107604,-0.02127177,2.7,3.8,-0.6226838,0.3276654,0.1353846,-0.3146493,-3.419672,-0.3843021,0.4325317,1.595236,0.3091667,-0.3922093,0.6209536,0.2270856,-0.5134138,0.6649417,0.03942198,0.6186259,1.628827,0.2074003,-0.07388377,1.331297,0.3098402,292.7051,221.4704,28.43792,False
2,2.633332,-0.1785549,-0.008253545,-0.1364652,-1.211062,-4.583259,-2.141137,0.2652702,1.420646,0.4200499,-0.7109293,-0.0152438,2.7,3.8,-0.6247137,0.349993,0.1503909,-0.3143553,-3.402818,-0.393322,0.4282643,1.593952,0.3075721,-0.3793664,0.6230534,0.2344504,-0.5102745,0.6791437,0.03079307,0.6151226,1.628504,0.2078617,-0.07865446,1.331219,0.3087109,292.6674,221.2069,28.80841,False
2,2.644443,-0.1679232,-0.0007579066,-0.1365319,-1.210463,-4.584726,-2.139144,0.2611035,1.419732,0.4186935,-0.7111652,-0.02157622,2.7,3.8,-0.6335017,0.3735452,0.1143043,-0.3162189,-3.387844,-0.4001341,0.424183,1.592477,0.3061256,-0.3407855,0.6260925,0.2661251,-0.5060256,0.693584,0.02074203,0.6116146,1.627899,0.2081437,-0.08329573,1.330976,0.3075966,292.6185,220.9101,29.1779,False
2,2.655554,-0.1477909,0.02594819,-0.1377558,-1.210939,-4.586528,-2.137412,0.2572832,1.418542,0.4176631,-0.711399,-0.02129802,2.7,3.8,-0.6113626,0.3204128,0.07885224,-0.3171479,-3.38234,-0.3991932,0.4201161,1.591056,0.3049271,-0.3121528,0.5920928,0.2497444,-0.5037572,0.7051541,0.01329077,0.6081277,1.627462,0.2085311,-0.08782095,1.330575,0.3064824,292.5784,220.6936,29.46555,False
2,2.666665,-0.143606,0.0451187,-0.1389221,-1.210843,-4.588388,-2.135219,0.2532625,1.417359,0.4158952,-0.7110826,0.02898405,2.7,3.8,-0.573112,0.2405793,0.06235122,-0.31693,-3.381685,-0.3945897,0.416123,1.589553,0.3035004,-0.2911345,0.5666916,0.2153698,-0.5024629,0.7164695,0.006117814,0.6047314,1.62696,0.2089317,-0.09215978,1.330039,0.3054021,292.5637,220.5592,29.633,False
2,2.677776,-0.1277319,0.07607953,-0.1369883,-1.211632,-4.590808,-2.133458,0.2493717,1.415988,0.4145756,-0.7112733,-0.0177884,1.9,3.9,-0.5560896,0.2299706,0.05689241,-0.3173391,-3.372958,-0.3971929,0.4120377,1.587883,0.3017964,-0.2787382,0.5765343,0.1641794,-0.5024661,0.7306228,-0.00356038,0.601276,1.626381,0.2092457,-0.09637397,1.329413,0.3043734,292.5649,220.5016,29.68713,False
2,2.688887,-0.1139399,0.09424958,-0.134984,-1.212219,-4.59296,-2.131902,0.2456212,1.414543,0.4131205,-0.7107226,0.05043047,1.9,3.9,-0.5603657,0.2704615,0.05598008,-0.3185423,-3.359067,-0.4040644,0.4080625,1.586482,0.3001497,-0.2670671,0.6053079,0.1610437,-0.5007355,0.7468534,-0.01495844,0.597898,1.625743,0.2094262,-0.1004484,1.328716,0.3034365,292.4999,220.536,29.69696,False
2,2.699998,-0.1011272,0.08363403,-0.1371048,-1.211842,-4.594745,-2.130491,0.2418754,1.413112,0.4118781,-0.7111647,-0.04095758,1.9,3.9,-0.5594655,0.3418894,0.03702426,-0.3211783,-3.34137,-0.4145053,0.4041802,1.584801,0.298732,-0.2381533,0.5636679,0.1797962,-0.4981571,0.7574741,-0.0225599,0.5945477,1.625045,0.209702,-0.1046278,1.327971,0.3024752,292.4497,220.6493,29.74064,False
2,2.711109,-0.08934423,0.06663686,-0.1359943,-1.211276,-4.596226,-2.129311,0.2381183,1.41168,0.4106255,-0.7111982,-0.002772206,1.9,3.9,-0.5297413,0.3430163,0.02190191,-0.3229594,-3.330435,-0.4198985,0.4003468,1.583147,0.2974086,-0.1976684,0.5359461,0.1836125,-0.4959296,0.7682676,-0.03086923,0.5911232,1.62428,0.2099183,-0.1087936,1.32718,0.3015432,292.3609,220.6585,29.83765,False
2,2.72222,-0.08613773,0.06024277,-0.1391749,-1.210772,-4.598092,-2.127726,0.2345193,1.410303,0.4094036,-0.7110693,0.01166361,1.9,3.9,-0.486351,0.2941504,-0.01903698,-0.3249775,-3.327388,-0.4185784,0.3966668,1.58115,0.2962613,-0.1743044,0.5466511,0.1738935,-0.4945267,0.7818736,-0.04169152,0.5876226,1.62361,0.2101955,-0.1128584,1.326314,0.3006513,292.2511,220.5833,30.00452,False
2,2.733331,-0.07338104,0.06131832,-0.1466763,-1.210338,-4.600225,-2.126552,0.2309448,1.408704,0.4081831,-0.7110432,0.002170807,2.7,4.4,-0.462126,0.2559372,-0.05981103,-0.3274655,-3.325073,-0.4163016,0.3929313,1.5794,0.2950537,-0.1647894,0.5648063,0.1643189,-0.4933575,0.7966821,-0.05319611,0.5842475,1.622883,0.2103975,-0.1168242,1.325341,0.2998173,292.1848,220.3797,30.26678,False
2,2.744442,-0.06702812,0.06663712,-0.1531131,-1.210108,-4.602463,-2.12523,0.2273242,1.407261,0.4069631,-0.7106539,0.03550708,2.7,4.4,-0.4236628,0.209033,-0.04531652,-0.3277766,-3.322751,-0.4149801,0.3894621,1.577464,0.2939291,-0.1308038,0.5510156,0.1533296,-0.4924222,0.8093204,-0.06368204,0.5809887,1.621993,0.2105138,-0.1207171,1.324257,0.2990384,292.1633,220.2194,30.48601,False
2,2.755553,-0.05660092,0.1177413,-0.1672384,-1.211453,-4.606192,-2.12364,0.224011,1.405432,0.4057751,-0.7110124,-0.03315317,2.7,4.4,-0.4012615,0.2100914,-0.04121303,-0.3289931,-3.316027,-0.4176508,0.3859515,1.575527,0.2926586,-0.0979481,0.5149024,0.1326544,-0.492003,0.8191842,-0.0722236,0.5776772,1.621177,0.2106798,-0.1245397,1.323104,0.2983277,292.1731,220.1735,30.59905,False
2,2.766664,-0.05677235,0.176405,-0.1526052,-1.214038,-4.609462,-2.121755,0.2205929,1.403635,0.4046874,-0.7108371,0.01626517,2.7,4.4,-0.3875571,0.2410476,-0.05932606,-0.3318496,-3.306979,-0.4222876,0.3825871,1.573299,0.2915604,-0.05546647,0.4808955,0.1151102,-0.4917452,0.8277605,-0.08069964,0.5743291,1.620226,0.2107441,-0.1283457,1.321886,0.2977018,292.1633,220.1417,30.70808,False
2,2.777775,-0.05175027,0.2552241,-0.1593895,-1.217688,-4.614244,-2.119689,0.2172072,1.401776,0.4035921,-0.7109559,-0.0111,6.2,4.2,-0.3736061,0.1813637,-0.04682541,-0.3319156,-3.306761,-0.4187115,0.3791005,1.571274,0.2904003,-0.04570222,0.5138116,0.1375643,-0.490044,0.8427531,-0.09377283,0.5709485,1.619208,0.2108033,-0.1321657,1.32064,0.297176,292.1408,220.2178,30.71827,False
2,2.788886,-0.05193712,0.2934973,-0.1755527,-1.220139,-4.619047,-2.117451,0.2136798,1.40002,0.4025905,-0.7104121,0.04979246,6.2,4.2,-0.3583978,0.1269153,-0.007686047,-0.3304994,-3.306643,-0.415332,0.3756645,1.569,0.2893829,-0.03457612,0.5657166,0.2005767,-0.4863374,0.8614807,-0.1101507,0.5675095,1.618038,0.2107723,-0.135931,1.319384,0.2968206,292.027,220.4492,30.58174,False
2,2.799997,-0.07222398,0.3126351,-0.168125,-1.222922,-4.622894,-2.114586,0.2102143,1.398096,0.4017556,-0.7106091,-0.01850069,6.2,4.2,-0.3158267,0.1610315,-0.01108323,-0.3322219,-3.298115,-0.4210785,0.3722264,1.566734,0.2885282,-0.001309276,0.5602502,0.2322505,-0.4832444,0.8762687,-0.1241603,0.5641042,1.616763,0.2107103,-0.1397434,1.318169,0.296617,291.8708,220.9827,30.1915,False
2,2.811108,-0.08825043,0.3232137,-0.1713204,-1.225136,-4.626651,-2.111781,0.2068751,1.396284,0.4009745,-0.7103961,0.01958668,6.2,4.2,-0.2615653,0.133384,-0.02220665,-0.3330049,-3.297225,-0.4207637,0.3689088,1.564508,0.2875788,0.06998837,0.513425,0.2208251,-0.4817014,0.8856661,-0.1358425,0.560666,1.615602,0.2106459,-0.1436777,1.317043,0.2965889,291.7042,221.5569,29.77907,False
2,2.822219,-0.09566066,0.3093331,-0.1722966,-1.226675,-4.630047,-2.109295,0.2035011,1.394606,0.4001358,-0.7093777,0.09289316,6.2,4.2,-0.2338878,0.101446,-0.02569095,-0.3333095,-3.297434,-0.4187195,0.3656648,1.562151,0.2865598,0.1079571,0.4678418,0.1744976,-0.4819991,0.8933139,-0.1449433,0.5572631,1.614442,0.2105343,-0.1477452,1.316024,0.2967679,291.5589,221.9097,29.60524,False
2,2.83333,-0.09650108,0.2229247,-0.1974556,-1.224537,-4.632659,-2.107195,0.2004474,1.393188,0.39939,-0.709334,0.003262761,6.6,3.9,-0.226431,0.07801619,-0.02688283,-0.3336371,-3.297592,-0.4162313,0.3624167,1.56,0.2853737,0.1143814,0.4710236,0.1776581,-0.4808321,0.9053868,-0.1571936,0.5539073,1.613243,0.2104425,-0.1518124,1.315132,0.2971051,291.396,222.2518,29.51749,False
2,2.844441,-0.0846726,0.1749336,-0.217505,-1.223292,-4.635684,-2.10565,0.1972887,1.391653,0.3985851,-0.7096025,-0.02447486,6.6,3.9,-0.2305724,0.1280232,-0.006452551,-0.3343242,-3.28758,-0.4228439,0.3593335,1.557779,0.284241,0.1190862,0.471833,0.2362057,-0.4772166,0.9190249,-0.170417,0.5507172,1.612062,0.2103901,-0.1557679,1.314386,0.2975133,291.2343,222.5595,29.52694,False
2,2.855552,-0.07070517,0.1248185,-0.2375489,-1.221232,-4.638492,-2.104393,0.194439,1.390225,0.3979039,-0.7098049,-0.01826046,6.6,3.9,-0.2444028,0.1716806,-0.001959193,-0.3356345,-3.278133,-0.4286142,0.3562307,1.555693,0.2831485,0.1321847,0.4737729,0.2797878,-0.4734807,0.9326302,-0.1841054,0.5476422,1.610827,0.2103357,-0.1595377,1.313762,0.2978988,291.1055,222.6055,29.81536,False
2,2.866663,-0.06743221,0.09817544,-0.2427569,-1.220234,-4.64125,-2.102735,0.1915775,1.388592,0.3972185,-0.7105298,-0.06617635,6.6,3.9,-0.2675517,0.2141636,0.04092908,-0.3356936,-3.265274,-0.4369323,0.3533069,1.553672,0.2822013,0.1477808,0.4771894,0.2359959,-0.4736283,0.9446625,-0.1965882,0.5445836,1.60958,0.2104595,-0.1630066,1.313189,0.2982205,291.0662,222.1232,30.56149,False
2,2.877774,-0.0736611,0.04484273,-0.2520705,-1.217378,-4.643373,-2.100946,0.188798,1.38706,0.3965595,-0.7107812,-0.02243942,5.9,4.2,-0.2633923,0.1801205,0.02587447,-0.3363061,-3.26404,-0.4352423,0.3504549,1.551612,0.2814391,0.139627,0.4499208,0.1464428,-0.4759676,0.9528713,-0.2050924,0.5416949,1.608253,0.2109063,-0.1662987,1.312593,0.2984802,290.9821,221.5218,31.33741,False
2,2.888885,-0.07914455,0.07457772,-0.2671088,-1.21729,-4.647593,-2.098345,0.1860495,1.385446,0.3960428,-0.7103125,0.04298009,5.9,4.2,-0.2271417,0.137517,0.02869342,-0.3358683,-3.262655,-0.4351169,0.3476699,1.549524,0.2808688,0.1348999,0.419319,0.08560887,-0.4776603,0.9605074,-0.2132223,0.5387232,1.606949,0.2110338,-0.1693801,1.311876,0.2987192,290.8657,220.9537,32.02743,False
2,2.899997,-0.08770963,0.08733552,-0.2660783,-1.217061,-4.651018,-2.095898,0.1833082,1.383973,0.395504,-0.7098741,0.0396611,5.9,4.2,-0.2089982,0.09383518,0.03162508,-0.3352419,-3.263466,-0.4327022,0.3448696,1.547586,0.2801225,0.1295354,0.4129553,0.08030096,-0.4775762,0.9705861,-0.2235071,0.5358231,1.605702,0.2112725,-0.1723949,1.310972,0.2989239,290.7526,220.5502,32.57101,False
2,2.911108,-0.09085312,0.08418534,-0.2543348,-1.216742,-4.653708,-2.093949,0.180633,1.382738,0.3952136,-0.7097484,0.01114367,5.9,4.2,-0.2003724,0.03734499,0.04523364,-0.3337186,-3.266147,-0.4281748,0.3422256,1.545582,0.2794855,0.1160673,0.4297687,0.1305628,-0.4756107,0.9837207,-0.2359156,0.5330702,1.60438,0.2113807,-0.1754041,1.309876,0.2990888,290.7644,220.2122,33.01,False
2,2.922219,-0.09174278,0.05553561,-0.2296977,-1.215497,-4.655299,-2.092319,0.1779191,1.381506,0.3947222,-0.7096536,0.008702369,5.9,4.2,-0.215569,0.05131502,0.007027777,-0.3354795,-3.264099,-0.4269452,0.3394961,1.543553,0.27878,0.1164166,0.4306264,0.1742424,-0.4734408,0.9957781,-0.2480921,0.5302356,1.603173,0.2115645,-0.1785095,1.308719,0.2993217,290.8049,220.2829,32.96198,False
2,2.93333,-0.09156044,0.00225646,-0.2326392,-1.212598,-4.656893,-2.090735,0.1752315,1.380439,0.394351,-0.7099167,-0.02411601,4.9,5.1,-0.2209121,0.06517351,0.004981158,-0.3359897,-3.260438,-0.4277883,0.3368618,1.541667,0.2777929,0.1209315,0.4080989,0.2071263,-0.4708677,1.005793,-0.2585796,0.527603,1.60194,0.211916,-0.1816463,1.307623,0.2996601,290.8705,220.5789,32.72272,False
2,2.944441,-0.09024514,-0.06804791,-0.2323079,-1.208734,-4.657841,-2.089359,0.1726805,1.379365,0.3940399,-0.7099071,0.001111619,4.9,5.1,-0.2164406,0.08319539,0.03695635,-0.3353154,-3.254078,-0.4313687,0.3343315,1.539855,0.2772079,0.1256957,0.4105853,0.1335946,-0.4731601,1.015477,-0.2687004,0.5252472,1.600824,0.2123504,-0.1847029,1.306662,0.3000842,290.9397,220.7886,32.65537,False
2,2.955552,-0.09114215,-0.1074262,-0.2235942,-1.205416,-4.65855,-2.088045,0.17001,1.378305,0.3936536,-0.7099615,-0.004985936,4.9,5.1,-0.2173915,0.09060292,0.05402534,-0.3349452,-3.249245,-0.4333765,0.3319281,1.538144,0.276835,0.1273991,0.411913,0.07926464,-0.4752065,1.02508,-0.2786607,0.5227379,1.599679,0.2127531,-0.1876692,1.305832,0.3004757,290.998,220.7108,32.97046,False
2,2.966663,-0.08878168,-0.1552712,-0.2063261,-1.201813,-4.658412,-2.087238,0.1674628,1.377242,0.3933253,-0.7099593,0.0002016542,4.9,5.1,-0.2208095,0.05022305,0.02089934,-0.3354065,-3.252379,-0.4278259,0.3296343,1.536413,0.2764823,0.09088796,0.4387262,0.04344076,-0.4776209,1.036964,-0.2887365,0.5205865,1.598654,0.2132542,-0.1905108,1.305106,0.3007953,291.0833,220.2174,33.64857,False
2,2.977774,-0.08425383,-0.2019753,-0.1741572,-1.198108,-4.657162,-2.086915,0.1650031,1.376431,0.393014,-0.7099439,0.001410198,6,5.4,-0.2123963,0.02150927,0.003707517,-0.3355343,-3.255259,-0.4231153,0.3273549,1.534689,0.2759671,0.08574143,0.4386175,0.06798992,-0.4773556,1.048373,-0.2995454,0.5183791,1.597663,0.2138116,-0.1932145,1.304435,0.3010227,291.1605,219.5331,34.45334,False
2,2.988885,-0.08184764,-0.2497279,-0.137718,-1.194328,-4.655301,-2.086682,0.1626315,1.375462,0.3927851,-0.7101489,-0.01873161,6,5.4,-0.2090997,-0.01368037,0.01741719,-0.3344749,-3.257628,-0.4186311,0.3251936,1.533242,0.2758756,0.1008552,0.4246494,0.0954859,-0.4768811,1.058381,-0.3099568,0.5159872,1.596777,0.214304,-0.19588,1.303781,0.3011121,291.1967,218.9337,35.15587,False
2,2.999996,-0.08493916,-0.267788,-0.1248384,-1.190763,-4.654277,-2.086001,0.1602838,1.374554,0.3924842,-0.7102374,-0.007941029,6,5.4,-0.2101232,-0.04458123,0.02265242,-0.3335881,-3.261073,-0.4129727,0.3231385,1.531694,0.2756228,0.1083695,0.3969162,0.103823,-0.4765865,1.066567,-0.3186134,0.5137882,1.595741,0.2147746,-0.1984111,1.303074,0.3010142,291.2345,218.386,35.79903,False
2,3.011107,-0.08919361,-0.2538598,-0.1057183,-1.188484,-4.653706,-2.085083,0.1583116,1.373545,0.3921733,-0.710084,0.01400443,6,5.4,-0.2178237,-0.03062761,-0.01134156,-0.334827,-3.262286,-0.4091769,0.32102,1.530385,0.2754352,0.1017019,0.3587238,0.07065813,-0.4778968,1.071646,-0.3237973,0.511572,1.594603,0.21539,-0.2007413,1.302263,0.30066,291.3164,217.85,36.39695,False
2,3.022218,-0.09026869,-0.2538789,-0.1089109,-1.185397,-4.653453,-2.084145,0.1560713,1.372603,0.3918769,-0.7099125,0.01558516,6,5.4,-0.2145878,-0.01573724,-0.004921045,-0.3346805,-3.261082,-0.4080514,0.3190223,1.528902,0.2751808,0.1024483,0.362102,0.03442809,-0.4802319,1.079805,-0.3316991,0.5095968,1.593753,0.2161572,-0.2029028,1.301301,0.3000221,291.4294,217.2685,36.94674,False
2,3.033329,-0.07430914,-0.2377845,-0.09731723,-1.18336,-4.653053,-2.084101,0.1543263,1.371748,0.3918591,-0.709832,0.007255657,4.6,4.9,-0.2177271,-0.03493658,0.002497919,-0.3340137,-3.263769,-0.4030457,0.3171246,1.527652,0.2750485,0.08408257,0.3697164,0.0005137175,-0.4826857,1.087819,-0.3391898,0.5076309,1.592818,0.2167728,-0.204957,1.300226,0.2991696,291.5798,216.7866,37.26672,False
2,3.04444,-0.07750753,-0.2367307,-0.09731561,-1.180471,-4.652726,-2.08325,0.1523728,1.370893,0.3916399,-0.709937,-0.009624369,4.6,4.9,-0.2179103,-0.0167419,-0.02194111,-0.335129,-3.2636,-0.4006766,0.315266,1.526209,0.2748923,0.05639723,0.3995228,0.007233351,-0.4843805,1.09915,-0.3485146,0.5056306,1.591965,0.2173979,-0.2068861,1.299109,0.2982267,291.7241,216.4333,37.37591,False
2,3.055551,-0.08065441,-0.231309,-0.07496032,-1.17829,-4.651556,-2.082663,0.1506793,1.369921,0.3914123,-0.7107721,-0.07627495,4.6,4.9,-0.2064253,0.008926779,-0.05390402,-0.3370534,-3.262803,-0.3994712,0.3134951,1.52491,0.2749619,0.05760369,0.4079632,0.0264459,-0.4851209,1.109962,-0.3587512,0.5035769,1.590906,0.2179556,-0.2088104,1.298017,0.2973316,291.9008,216.035,37.47445,False
2,3.066662,-0.07742967,-0.2119694,-0.04310198,-1.17693,-4.650115,-2.08246,0.1489404,1.368804,0.3910236,-0.7100397,0.06755599,4.6,4.9,-0.211869,-0.01446128,-0.07097673,-0.3378204,-3.266909,-0.3930666,0.3118245,1.523466,0.2750857,0.09528196,0.4482064,0.08066601,-0.4848945,1.125016,-0.3742847,0.5014247,1.589967,0.2185445,-0.2105386,1.296975,0.2966474,292.0311,215.614,37.62163,False
2,3.077773,-0.0710678,-0.1873534,-0.02406335,-1.175942,-4.649097,-2.082249,0.147315,1.367676,0.3907328,-0.709865,0.01530171,4.6,4.9,-0.2195307,-0.0399361,-0.1008317,-0.3392441,-3.27288,-0.3847005,0.3101064,1.522153,0.2751422,0.1253938,0.4981077,0.1211316,-0.4853078,1.141755,-0.3911864,0.4993583,1.589169,0.2191517,-0.2122597,1.295999,0.2961861,292.1447,215.2713,37.84904,False
2,3.088884,-0.0669443,-0.1307691,-0.00197532,-1.1766,-4.648726,-2.081748,0.145938,1.366518,0.3906636,-0.7101356,-0.02483167,2.7,4,-0.221846,-0.09630308,-0.1286848,-0.3403722,-3.283448,-0.3721392,0.3085602,1.520748,0.2754467,0.110463,0.5439256,0.1193311,-0.4870687,1.157842,-0.4061579,0.4974389,1.588145,0.2196493,-0.2138901,1.295075,0.2958643,292.1956,215.0604,38.13127,False
2,3.099995,-0.0669443,-0.1307691,-0.00197532,-1.1766,-4.648726,-2.081748,0.145938,1.366518,0.3906636,-0.710306,-0.0153681,2.7,4,-0.221846,-0.09630308,-0.1286848,-0.3403722,-3.283448,-0.3721392,0.3085602,1.520748,0.2754467,0.110463,0.5439256,0.1193311,-0.4870687,1.157842,-0.4061579,0.4974389,1.588145,0.2196493,-0.2154748,1.294151,0.2955369,292.1731,214.9289,38.42622,False
2,3.111106,-0.07260675,-0.02419024,0.01351025,-1.178924,-4.649312,-2.079713,0.1432946,1.363649,0.389962,-0.7108744,-0.05186427,2.7,4,-0.1546945,-0.1165383,-0.1239014,-0.3414758,-3.29604,-0.358552,0.3057314,1.517948,0.2759261,0.06492138,0.5405403,0.1590781,-0.4877004,1.185222,-0.430052,0.4938998,1.586143,0.2206597,-0.2166553,1.293243,0.2951912,292.2213,215.0798,38.32193,False
2,3.122217,-0.08661082,0.02800202,0.02395824,-1.180804,-4.649692,-2.078101,0.1419966,1.362255,0.3897841,-0.7094118,0.134121,2.7,4,-0.1324558,-0.0791872,-0.1409917,-0.3437736,-3.296649,-0.3571365,0.3042736,1.516596,0.2761781,0.07548583,0.4958823,0.1417829,-0.4882427,1.19465,-0.4401625,0.491769,1.585304,0.2213593,-0.2173439,1.292441,0.2949027,292.2289,215.1016,38.2485,False
2,3.133328,-0.09416137,0.06853753,0.04083213,-1.183212,-4.649842,-2.076746,0.14076,1.360726,0.3897827,-0.7097633,-0.03334596,1.4,5.1,-0.1185181,-0.1037186,-0.1294484,-0.3440772,-3.303164,-0.3501215,0.302911,1.515333,0.2763734,0.05929497,0.4502135,0.1129285,-0.4895902,1.202014,-0.4468316,0.490081,1.58441,0.2219892,-0.2190085,1.291535,0.2944905,291.9161,214.755,38.64711,False
2,3.144439,-0.1006023,0.0812896,0.03972034,-1.184351,-4.650151,-2.075306,0.1394344,1.359433,0.3896575,-0.7093799,0.0354882,1.4,5.1,-0.1185082,-0.1548496,-0.1296039,-0.344164,-3.314561,-0.3380284,0.3015359,1.513967,0.2765749,0.03875545,0.3800926,0.07334292,-0.4908781,1.205435,-0.449548,0.4884223,1.583638,0.222508,-0.2207698,1.290518,0.2940237,291.7003,214.6485,38.76887,False
2,3.15555,-0.1154409,0.0502869,0.02819594,-1.183936,-4.649981,-2.073545,0.1381442,1.358195,0.3896685,-0.7095577,-0.01652231,1.4,5.1,-0.1013215,-0.1538448,-0.1094815,-0.3440229,-3.320209,-0.3322003,0.3001549,1.51264,0.2766387,0.02817306,0.4066811,0.08313252,-0.4921937,1.217019,-0.4597266,0.4868304,1.582837,0.2229788,-0.2223646,1.289455,0.2935582,291.6212,214.8235,38.52914,False
2,3.166661,-0.1164304,0.02362481,0.02299245,-1.183271,-4.649623,-2.072324,0.1368638,1.357144,0.3896816,-0.7096174,-0.00526296,1.4,5.1,-0.09600536,-0.1176219,-0.1094107,-0.345298,-3.321236,-0.3303063,0.2987128,1.511333,0.2767272,0.04343444,0.4181913,0.1278147,-0.4918752,1.229661,-0.4719422,0.4854524,1.582187,0.2234092,-0.2237372,1.288405,0.2931285,291.5714,215.0571,38.20692,False
2,3.177772,-0.1003234,-0.02004036,0.01356486,-1.181654,-4.64887,-2.072026,0.135678,1.356236,0.3896589,-0.7091822,0.03985202,1.4,5.1,-0.1138627,0.004758313,-0.0694897,-0.346179,-3.307804,-0.3410614,0.2975238,1.510394,0.2768781,0.04903126,0.3882017,0.1627899,-0.4906123,1.238704,-0.4806779,0.4840691,1.581397,0.2236707,-0.2250113,1.287427,0.2927427,291.579,215.0983,38.08691,False
2,3.188883,-0.07147332,-0.04766195,0.008278839,-1.180339,-4.648242,-2.07254,0.1346245,1.355437,0.3895307,-0.7096738,-0.04523274,6,2.5,-0.1247803,0.03256309,-0.1055495,-0.3489865,-3.307335,-0.3396937,0.296304,1.509402,0.2771044,0.02982008,0.3381702,0.1563207,-0.4903817,1.244331,-0.4853193,0.4829799,1.580651,0.224057,-0.2262398,1.286565,0.2924153,291.6469,214.9175,38.18908,False
2,3.199994,-0.05225068,-0.0571603,0.0125269,-1.179616,-4.647461,-2.072931,0.1334961,1.354638,0.3895609,-0.7105362,-0.07838503,6,2.5,-0.1180999,0.04735927,-0.06400809,-0.3487298,-3.30353,-0.3421962,0.2952343,1.508587,0.2772021,0.04776105,0.2924754,0.1357375,-0.4904611,1.249068,-0.4904808,0.4819263,1.58007,0.2244079,-0.2274299,1.285852,0.2921462,291.7068,214.6493,38.40322,False
2,3.211105,-0.02329015,-0.1006632,0.02756094,-1.177856,-4.645335,-2.074362,0.132621,1.354046,0.389667,-0.7114198,-0.08019692,6,2.5,-0.1178402,-0.009210557,-0.02903006,-0.3472293,-3.30822,-0.3364981,0.294338,1.50784,0.2772915,0.04760039,0.255294,0.11426,-0.4907684,1.252811,-0.494292,0.480772,1.579425,0.2247677,-0.2285055,1.28524,0.2919286,291.7348,214.2827,38.76031,False
2,3.222216,-0.01148602,-0.1251262,0.02657756,-1.176147,-4.643997,-2.075062,0.1317257,1.353274,0.3896952,-0.7111871,0.02179747,6,2.5,-0.08464155,-0.03058017,-0.005888909,-0.3463228,-3.31061,-0.3344174,0.2935732,1.507069,0.2773266,0.02827471,0.2085253,0.09502226,-0.4907716,1.255148,-0.495842,0.4797004,1.579043,0.2250304,-0.2294506,1.28464,0.2917606,291.7089,213.8857,39.15809,False
2,3.233327,0.006740071,-0.1591603,0.02455441,-1.173689,-4.642258,-2.076417,0.1309116,1.352754,0.3897572,-0.7115104,-0.029974,6.2,2.3,-0.06309388,0.006599933,0.02923005,-0.345314,-3.305258,-0.3395112,0.2926423,1.506408,0.2772803,0.03470968,0.1914583,0.1002232,-0.4903412,1.259472,-0.5002985,0.4787542,1.578594,0.2251046,-0.2303045,1.283975,0.291633,291.6645,213.5981,39.4406,False
2,3.244438,0.02173582,-0.1814766,0.02461766,-1.171504,-4.640577,-2.077781,0.1300908,1.352006,0.3895645,-0.7109607,0.05045025,6.2,2.3,-0.0600924,0.03225304,0.001588484,-0.3466797,-3.302197,-0.3418665,0.291761,1.505589,0.2772522,0.03803168,0.1594377,0.1149739,-0.4891353,1.263205,-0.5042565,0.4774925,1.578208,0.2253485,-0.2309616,1.283146,0.2915004,291.6702,213.2696,39.77776,False
2,3.255549,0.0441289,-0.1920746,0.01927341,-1.169311,-4.639233,-2.079602,0.1294343,1.351551,0.3895807,-0.7112446,-0.02653635,6.2,2.3,-0.04447463,0.1069796,-0.04729437,-0.3500022,-3.294467,-0.3491287,0.2909018,1.504869,0.2772112,0.05505326,0.1104522,0.1114204,-0.4879295,1.263472,-0.5056456,0.4765027,1.577672,0.2255256,-0.2312582,1.282437,0.2913969,291.7145,213.1995,39.83603,False
2,3.26666,0.05801675,-0.203742,0.01822179,-1.167269,-4.637805,-2.081195,0.1287608,1.350864,0.3894422,-0.7111689,0.0070997,6.2,2.3,-0.04335099,0.1442312,-0.0365405,-0.3511479,-3.287408,-0.3550628,0.2900471,1.504466,0.2772381,0.0655309,0.1148287,0.08792412,-0.4884855,1.26656,-0.5095551,0.4755807,1.577391,0.2257833,-0.2313358,1.282048,0.2912869,291.6833,213.1243,39.89865,False
2,3.277771,0.06331697,-0.1994859,0.01392526,-1.165441,-4.636634,-2.082508,0.1279777,1.350371,0.3895166,-0.7115796,-0.03777742,6.2,2.3,-0.0518579,0.103745,-0.03554095,-0.3514195,-3.288232,-0.3534372,0.2892851,1.503834,0.2772989,0.05908434,0.1052764,0.08047409,-0.4883822,1.269126,-0.5122535,0.4746986,1.577009,0.2260916,-0.231561,1.281744,0.2911193,291.5508,212.2929,40.77034,False
2,3.288882,0.06755565,-0.1941493,0.01282144,-1.163762,-4.635447,-2.083889,0.1272479,1.349942,0.3895664,-0.711194,0.0354952,8.8,0.8,-0.02952364,0.03984902,-0.04122821,-0.3513157,-3.294378,-0.3478392,0.2886163,1.503416,0.277343,0.04414224,0.07333396,0.07618088,-0.4875625,1.269276,-0.5123935,0.4739934,1.576776,0.2262752,-0.2317943,1.281456,0.2909398,291.4755,211.5779,41.4766,False
2,3.299993,0.07396073,-0.2016044,0.008573383,-1.161522,-4.634182,-2.085395,0.1265357,1.349677,0.3898067,-0.7108136,0.03430695,8.8,0.8,-0.001788624,0.04516599,-0.03501597,-0.3516757,-3.292528,-0.3505269,0.2879771,1.502847,0.2773314,0.04107631,0.09030426,0.09226357,-0.4869808,1.273922,-0.5169992,0.4733319,1.576427,0.2264419,-0.2320741,1.281141,0.2907827,291.3809,210.9934,42.05249,False
2,3.311104,0.07507208,-0.2143839,0.008631177,-1.159127,-4.632594,-2.086886,0.1257606,1.349356,0.3898642,-0.7107252,0.007740323,8.8,0.8,-0.007094964,0.07178415,-0.031704,-0.3526371,-3.28799,-0.3544433,0.287303,1.502464,0.27737,0.03691099,0.1040953,0.1051424,-0.4864413,1.278736,-0.5215012,0.4725579,1.576059,0.2266378,-0.2324046,1.28087,0.290681,291.2841,210.6999,42.28511,False
2,3.322215,0.08051275,-0.2345301,0.02362071,-1.156668,-4.630144,-2.088879,0.1250733,1.348987,0.3896444,-0.7107199,0.0004257196,8.8,0.8,-0.02830435,0.09729443,-0.01657122,-0.3531245,-3.282693,-0.3581912,0.2867305,1.502154,0.2774944,0.0294461,0.1104908,0.1030932,-0.4863321,1.282358,-0.5248904,0.4721375,1.575853,0.226788,-0.2327607,1.280648,0.2906216,291.1585,210.5162,42.37703,False
2,3.333326,0.09123236,-0.2376011,0.04171302,-1.154804,-4.627601,-2.091294,0.1244525,1.348778,0.3896425,-0.7104898,0.02099122,9.1,0,-0.03341281,0.09826299,0.01436239,-0.3524459,-3.278249,-0.3618011,0.2862626,1.502059,0.2775936,0.02610979,0.06584059,0.0837331,-0.4857371,1.281245,-0.52413,0.4716296,1.575694,0.2270424,-0.2331336,1.280451,0.2905853,291.0002,210.2979,42.49548,False
2,3.344437,0.1083035,-0.226782,0.06397697,-1.153615,-4.625121,-2.094015,0.123947,1.34848,0.3895285,-0.7105463,-0.005429659,9.1,0,-0.02802708,0.08331724,0.02279695,-0.3521572,-3.277151,-0.3626868,0.2857662,1.50161,0.2778718,0.01407063,0.02129476,0.04100723,-0.4859017,1.277943,-0.5210725,0.4712341,1.575505,0.22735,-0.2335224,1.280232,0.2904767,290.8375,210.0595,42.70749,False
2,3.355548,0.108308,-0.2139174,0.08096002,-1.152603,-4.622675,-2.096182,0.1234051,1.348186,0.3894832,-0.7108584,-0.02853823,9.1,0,-0.02277439,0.07482897,0.01208028,-0.3525205,-3.27581,-0.3638802,0.285375,1.501184,0.2780097,0.006478202,-0.01803761,0.02276847,-0.4854794,1.274987,-0.5182794,0.4707997,1.575242,0.227773,-0.2337486,1.279971,0.290197,290.7556,209.9899,42.81863,False
2,3.366659,0.09340571,-0.209669,0.08950873,-1.151328,-4.620242,-2.09772,0.1227647,1.347819,0.3894117,-0.7111167,-0.02344459,9.1,0,-0.03566984,0.08765382,-0.001648255,-0.35368,-3.272659,-0.3657945,0.2848463,1.500768,0.2782235,-0.006290374,-0.002068477,0.02507113,-0.4854032,1.276408,-0.5190458,0.4703836,1.574987,0.2281523,-0.2338408,1.279706,0.2897881,290.7193,209.4493,43.3823,False
2,3.37777,0.07425775,-0.2075499,0.1012737,-1.15011,-4.617593,-2.098975,0.1220509,1.347478,0.3894355,-0.7104887,0.0574921,9.1,0,-0.05503235,0.05151216,-0.02826253,-0.3546979,-3.275619,-0.3616128,0.2844484,1.500318,0.27862,-0.03605965,0.03091987,0.03290886,-0.4856264,1.280065,-0.5208882,0.4700956,1.574696,0.228622,-0.2338417,1.279431,0.2893135,290.7081,208.6209,44.21801,False
2,3.388881,0.01784102,-0.209827,0.113175,-1.14888,-4.614728,-2.098445,0.1213581,1.347063,0.3892798,-0.7097324,0.0686077,9.4,0,-0.06241791,0.03124049,-0.01868512,-0.3544545,-3.276448,-0.3598847,0.2839551,1.499835,0.278806,-0.05111799,0.05657747,0.0139688,-0.4867417,1.282225,-0.5217963,0.469744,1.574385,0.229094,-0.2338801,1.279159,0.2888346,290.7115,207.841,44.98778,False
2,3.399992,0.0189101,-0.209811,0.116371,-1.147563,-4.612062,-2.099748,0.1205842,1.346594,0.3888845,-0.7093026,0.03879651,9.4,0,-0.09434427,-0.005004175,-0.01431502,-0.3540545,-3.279784,-0.354614,0.2834887,1.499377,0.2792108,-0.06080618,0.06090548,0.0002165735,-0.4874927,1.283367,-0.521946,0.4692934,1.574133,0.2295985,-0.2340312,1.278909,0.2883736,290.7141,207.2945,45.51717,False
2,3.411103,-0.01740791,-0.1908118,0.106803,-1.146684,-4.610379,-2.099149,0.1199108,1.3462,0.3886583,-0.7075167,0.163092,9.4,0,-0.1178451,-0.01989351,-0.02378326,-0.3543762,-3.282284,-0.3501554,0.2829503,1.498884,0.2793148,-0.0640401,0.05240712,-0.005116621,-0.4876892,1.28375,-0.5215071,0.4688523,1.573764,0.2300351,-0.2342873,1.278688,0.2879201,290.6992,206.9702,45.84272,False
2,3.422215,-0.04839803,-0.1739343,0.09615903,-1.14576,-4.609017,-2.098125,0.1192214,1.345923,0.388464,-0.7094193,-0.1751859,9.4,0,-0.1198,0.007721156,0.001884619,-0.3539144,-3.278773,-0.3521916,0.282414,1.498533,0.2797344,-0.04918218,0.05670037,-0.0126716,-0.4884035,1.28462,-0.5222664,0.4685522,1.573418,0.2305517,-0.2346827,1.278545,0.2873569,290.7263,206.8992,46.01601,False
2,3.433326,-0.07189836,-0.1580493,0.09402406,-1.145203,-4.607446,-2.09717,0.1184241,1.345577,0.3882229,-0.7083241,0.1018875,9.4,0,-0.1357533,0.03114113,0.006330836,-0.354063,-3.275563,-0.3532305,0.2818709,1.497997,0.2798903,-0.05573914,0.08449844,-0.03379707,-0.490337,1.286928,-0.5234725,0.4680943,1.573051,0.2311547,-0.2350634,1.278361,0.286683,290.8066,206.6301,46.37881,False
2,3.444437,-0.08042767,-0.1420188,0.1110163,-1.145161,-4.605143,-2.097077,0.1175869,1.345303,0.388166,-0.7080621,0.02305329,11.5,0,-0.1421235,0.03219669,0.008505139,-0.3540918,-3.274675,-0.3524587,0.2815446,1.49757,0.2802999,-0.0609205,0.09400297,-0.0156018,-0.4906214,1.29001,-0.5253511,0.4676973,1.572673,0.2316446,-0.2354763,1.278246,0.285989,290.9435,206.3055,46.7106,False
2,3.455548,-0.1048615,-0.1387996,0.135574,-1.144961,-4.602129,-2.096437,0.116754,1.344974,0.3877988,-0.7082559,-0.01767453,11.5,0,-0.140997,-0.02002539,0.01579367,-0.3530345,-3.27948,-0.3464232,0.2810996,1.497108,0.280549,-0.04063308,0.08119392,-0.01048958,-0.4907807,1.290862,-0.5264111,0.4673757,1.572324,0.2319918,-0.2359717,1.27821,0.2853227,291.0892,206.1252,46.85389,False
2,3.466659,-0.1165424,-0.1355694,0.1515738,-1.14487,-4.599264,-2.095933,0.1159537,1.344627,0.3874769,-0.7090374,-0.07113889,11.5,0,-0.1377399,-0.04561432,0.02420384,-0.3522137,-3.283034,-0.341674,0.2807657,1.496857,0.2809722,-0.02041795,0.06842583,-0.01390148,-0.4911807,1.291149,-0.5271264,0.4669696,1.572021,0.2324312,-0.2366113,1.278196,0.284686,291.1864,205.8647,47.10413,False
2,3.47777,-0.1196437,-0.1493594,0.1665629,-1.144149,-4.595844,-2.095924,0.1152,1.344331,0.3870437,-0.7084461,0.05478553,11.5,0,-0.1334939,-0.04560703,0.02204331,-0.3518148,-3.284309,-0.3391429,0.2803708,1.496496,0.2811499,-0.008730708,0.06312457,-0.01827555,-0.4917862,1.291919,-0.5281429,0.4665447,1.571796,0.2328947,-0.2374176,1.278153,0.2840451,291.2254,205.1747,47.8722,False
2,3.488881,-0.1035643,-0.1716423,0.1730123,-1.142942,-4.592346,-2.096766,0.1145505,1.3441,0.3865793,-0.7087311,-0.02650868,10.8,0,-0.1432427,-0.06790301,-0.001401007,-0.352325,-3.288655,-0.3332525,0.2800215,1.496124,0.2813594,-0.003391244,0.04075582,-0.01736285,-0.4918544,1.291266,-0.5277032,0.4662337,1.57157,0.233393,-0.2381829,1.278075,0.283282,291.3478,205.0024,48.23362,False
