loc,t,aDotUA,bDotUA,gDotUA,aUA,bUA,gUA,xUA,yUA,zUA,qE,qDotE,emgA,emgB,aDotSH,bDotSH,gDotSH,aSH,bSH,gSH,xSH,ySH,zSH,aDotUB,bDotUB,gDotUB,aUB,bUB,gUB,xUB,yUB,zUB,xHand,yHand,zHand,aHand,bHand,gHand,enable
2,0,0.05288234,-1.295931,-0.172081,-1.356625,-4.01223,-3.09123,0.6073657,1.198037,0.5353491,-1.453918,0.01835438,14.37,0,-0.3268704,0.4409873,0.1344979,-0.6774229,-4.256963,0.1022001,0.6890811,1.46215,0.4420538,-0.1984804,0.145883,0.01058549,-0.9025602,0.2239113,0.08330874,0.8198416,1.517043,0.2466455,0.4199477,1.055054,0.304508,298.2207,222.1415,358.9822,False
2,0.01111111,0.04302657,-1.222374,-0.1565131,-1.354773,-4.001089,-3.09381,0.6058562,1.198469,0.5344081,-1.454111,-0.01784867,13.61,0,-0.3214881,0.4388076,0.1418991,-0.6751401,-4.249644,0.09985789,0.6885034,1.462492,0.4416368,-0.2027822,0.1426804,0.006368282,-0.9024622,0.2258188,0.08458466,0.8199973,1.517066,0.2466984,0.4206977,1.054627,0.3020745,298.6307,219.7925,0.6910768,False
2,0.02222222,0.02673233,-1.143536,-0.1420163,-1.353163,-3.990503,-3.095796,0.6041949,1.198921,0.5335333,-1.453688,0.03882329,12.9,0,-0.3129413,0.422807,0.1449166,-0.6731119,-4.243353,0.09805439,0.6878321,1.462677,0.4412444,-0.2092,0.1426673,0.004305238,-0.9022321,0.2277804,0.08597004,0.8201168,1.51714,0.2466948,0.4220512,1.053909,0.2991061,298.9345,218.4579,1.202885,False
2,0.03333334,0.01575623,-1.05721,-0.1275593,-1.351835,-3.981536,-3.097556,0.602852,1.199241,0.5325718,-1.453642,0.003898558,12.23,0,-0.292788,0.3706703,0.1348247,-0.6717616,-4.239766,0.09777237,0.6873795,1.462952,0.4408615,-0.2102452,0.1426674,0.00644579,-0.9019509,0.2297747,0.08709389,0.820256,1.517156,0.2466938,0.4239026,1.052999,0.2958199,299.2472,217.5181,1.085795,False
2,0.04444445,0.003790036,-0.9975562,-0.1161465,-1.35052,-3.971975,-3.099122,0.6014095,1.199595,0.5316288,-1.453207,0.03980728,11.64,0,-0.279094,0.3388355,0.1153326,-0.6708812,-4.235583,0.09711616,0.6868657,1.463257,0.4404955,-0.2113169,0.1416008,0.005397305,-0.9017133,0.2317232,0.08821082,0.8203065,1.517154,0.2467029,0.4259988,1.052015,0.2924437,299.5978,216.6229,0.794704,False
2,0.05555556,-0.01361275,-0.9017023,-0.1081423,-1.34921,-3.965101,-3.099964,0.6002249,1.199875,0.5306697,-1.453346,-0.01297316,11.09,0,-0.2622245,0.2782546,0.09455149,-0.6705046,-4.233838,0.09811432,0.6863974,1.463539,0.4401968,-0.2102621,0.1362726,0.003256332,-0.9016989,0.2334193,0.08941483,0.8204747,1.517165,0.2467146,0.4280227,1.051088,0.289164,299.9594,215.7573,0.4815956,False
2,0.06666667,-0.03633657,-0.8101582,-0.1032956,-1.347915,-3.958668,-3.100239,0.5991415,1.200235,0.5298188,-1.453126,0.02034646,10.58,0,-0.2506178,0.2485161,0.08041265,-0.6698766,-4.230912,0.09818835,0.6859596,1.463725,0.4398336,-0.2092196,0.1341423,0.001123168,-0.9015498,0.2352278,0.09064974,0.8206168,1.517168,0.2466989,0.4290709,1.050961,0.2872679,300.6381,211.779,4.231047,False
2,0.07777778,-0.07083718,-0.701627,-0.09851171,-1.346887,-3.953963,-3.099382,0.5981292,1.200417,0.5289936,-1.453054,0.006418684,10.11,0,-0.2431769,0.2474635,0.07821759,-0.6688199,-4.226605,0.09729166,0.6855526,1.463887,0.4395199,-0.2039195,0.1309439,-0.002124336,-0.9016063,0.2368454,0.09174324,0.8207687,1.517136,0.2466919,0.4294648,1.050939,0.2852973,300.2859,213.4783,2.011617,False
2,0.08888889,-0.1054104,-0.5738738,-0.08958976,-1.346019,-3.951581,-3.097744,0.5973259,1.200598,0.5282788,-1.452698,0.03259895,9.66,0,-0.2335609,0.2399833,0.08235683,-0.667508,-4.222696,0.09651881,0.6851581,1.464018,0.4391646,-0.1954501,0.1266899,-0.007525213,-0.9017336,0.2384779,0.09272221,0.8209218,1.517115,0.2467153,0.4299567,1.050875,0.2832581,300.1737,214.3184,0.6818013,False
2,0.1,-0.1303028,-0.4727355,-0.08051081,-1.345452,-3.949262,-3.095896,0.5965101,1.20079,0.5275953,-1.452072,0.0571373,9.24,0,-0.2229011,0.2175932,0.08425778,-0.6663543,-4.220304,0.09674571,0.6849183,1.4642,0.4388752,-0.187979,0.1288293,-0.004400734,-0.9015163,0.2403024,0.09360611,0.8210731,1.517102,0.2467012,0.4303332,1.050852,0.2813418,300.2465,213.831,0.6824808,False
2,0.1111111,-0.1756815,-0.302345,-0.05903061,-1.345534,-3.951606,-3.091968,0.5959744,1.20087,0.5270627,-1.45196,0.009982804,8.85,0,-0.2165169,0.194164,0.08405146,-0.6653157,-4.218102,0.0972368,0.6845986,1.464361,0.4385843,-0.181536,0.1277765,0.0008660872,-0.9012014,0.2420431,0.09432251,0.8212105,1.51706,0.2467299,0.4304872,1.050961,0.2796033,300.3211,213.2981,0.8025394,False
2,0.1222222,-0.2147177,-0.1191355,-0.0322858,-1.346295,-3.956036,-3.087285,0.5955338,1.200769,0.5266216,-1.452006,-0.004061537,8.48,0,-0.1995239,0.1387977,0.07821846,-0.6647692,-4.218863,0.09934789,0.684496,1.464318,0.4384327,-0.176258,0.1267092,-0.00451432,-0.9013852,0.2437035,0.09504742,0.8215343,1.516962,0.2467811,0.4303517,1.051301,0.2781393,300.3482,212.9937,0.8059937,False
2,0.1333333,-0.2559083,0.06938406,-0.01090328,-1.347171,-3.962905,-3.08166,0.5951685,1.200655,0.5262048,-1.451245,0.06972844,8.14,0,-0.1783718,0.09204859,0.05962628,-0.664839,-4.219445,0.1011487,0.6842724,1.464414,0.4382589,-0.1657265,0.1299133,-0.01740243,-0.9019035,0.2458236,0.09517738,0.8217387,1.51688,0.2467794,0.4298763,1.051915,0.2769675,300.3094,212.8147,0.7890426,False
2,0.1444445,-0.2981889,0.2664523,0.01789758,-1.348753,-3.971507,-3.075223,0.594758,1.200586,0.5259025,-1.451188,0.004890621,7.82,0,-0.1603238,0.07505354,0.05084112,-0.6646584,-4.218898,0.1018278,0.6839268,1.464505,0.4380689,-0.1637154,0.1299111,-0.03020856,-0.9025421,0.2477768,0.09572147,0.8219553,1.516887,0.2469049,0.4288585,1.052855,0.2761233,300.1894,212.8346,0.6659687,False
2,0.1555556,-0.3349143,0.400618,0.03211519,-1.35017,-3.98055,-3.068294,0.5944757,1.200414,0.5256267,-1.451137,0.00494879,7.52,0,-0.1315665,0.06013183,0.05052298,-0.6641008,-4.218701,0.1021416,0.6836934,1.464497,0.4379199,-0.1574076,0.1309741,-0.03879781,-0.9031626,0.2496837,0.09611561,0.8221567,1.516896,0.2469537,0.4271713,1.054154,0.2756488,299.9468,213.0397,0.5410492,False
2,0.1666667,-0.386829,0.6082861,0.05872712,-1.352704,-3.993714,-3.059363,0.5945026,1.200147,0.5254495,-1.451049,0.008220617,7.24,0,-0.1102124,0.05050226,0.05668739,-0.6632107,-4.218188,0.1022656,0.6834229,1.464432,0.4377255,-0.1488654,0.1299279,-0.03674606,-0.9033666,0.2516031,0.09632121,0.8223202,1.516873,0.2470508,0.4247586,1.055823,0.2755771,299.6172,213.3881,0.4757066,False
2,0.1777778,-0.4420487,0.842518,0.07454652,-1.355399,-4.010616,-3.049106,0.5946745,1.199747,0.5253878,-1.450999,0.004743393,6.98,0,-0.1048287,0.05258153,0.06411783,-0.6621923,-4.217318,0.1025285,0.6831822,1.464403,0.4375732,-0.1412826,0.1342056,-0.02297426,-0.9030257,0.2535449,0.09636755,0.8224922,1.516879,0.2471182,0.4216834,1.057871,0.2759363,299.1974,213.8924,0.4917543,False
2,0.1888889,-0.4746358,1.008689,0.09390157,-1.358477,-4.02712,-3.039349,0.5948696,1.199435,0.5251665,-1.450266,0.06728765,6.74,0,-0.09201787,0.06321955,0.06622142,-0.6613103,-4.215566,0.1016824,0.6829764,1.464226,0.4375536,-0.1294519,0.1395628,-0.01030172,-0.9024995,0.2557829,0.09601574,0.8225962,1.51693,0.2472262,0.4181321,1.060256,0.2767217,298.6728,214.49,0.6183643,False
2,0.2,-0.5255953,1.242911,0.1043909,-1.362235,-4.048887,-3.027003,0.595104,1.198994,0.5251348,-1.450076,0.01708636,6.55,0,-0.08889514,0.07073509,0.05666384,-0.6608821,-4.214056,0.1014097,0.6828558,1.464179,0.4374411,-0.1144703,0.1342597,-0.004048154,-0.9022497,0.2573576,0.09585116,0.8227299,1.516917,0.2473216,0.4141212,1.062967,0.2779163,298.0819,215.3091,0.6155443,False
2,0.2111111,-0.5712277,1.474989,0.1063646,-1.366285,-4.073262,-3.014105,0.5953829,1.198471,0.5250814,-1.450882,-0.07348054,6.37,0,-0.0920563,0.06751068,0.06199307,-0.6599526,-4.213076,0.1018462,0.6826936,1.464035,0.4373701,-0.1038081,0.135339,-0.003086655,-0.9021426,0.2593067,0.09543011,0.8228923,1.516852,0.247406,0.4096091,1.065998,0.2795272,297.4297,216.3151,0.5512378,False
2,0.2222222,-0.6188875,1.685847,0.1276332,-1.371858,-4.098791,-3.000378,0.5955569,1.197792,0.5250585,-1.449881,0.09250084,6.21,0,-0.09844963,0.06111629,0.06199579,-0.6592426,-4.212553,0.1027479,0.6826265,1.463885,0.4373388,-0.08575893,0.1353571,-0.009652162,-0.9023951,0.2612867,0.09457897,0.8229771,1.516863,0.2475936,0.4046987,1.069305,0.2815159,296.7136,217.383,0.5396082,False
2,0.2333333,-0.6792516,1.866627,0.1107302,-1.376394,-4.125402,-2.985685,0.595855,1.19714,0.5250745,-1.450127,-0.0230483,6.05,0,-0.09520918,0.05575298,0.06832004,-0.6583515,-4.211767,0.103099,0.6824956,1.463789,0.4373236,-0.07525984,0.1310978,-0.02679078,-0.9031088,0.2630306,0.09400612,0.8230413,1.516925,0.2477524,0.3992222,1.072873,0.2838906,295.9688,218.5991,0.374988,False
2,0.2444444,-0.7224146,2.010306,0.1174356,-1.382313,-4.152045,-2.971124,0.5960669,1.196602,0.5251255,-1.449946,0.0171088,5.91,0,-0.09090559,0.03759945,0.07455827,-0.6573305,-4.212269,0.1043656,0.6823922,1.463651,0.4373057,-0.05511992,0.1364578,-0.03763777,-0.9037107,0.265517,0.09235816,0.8231832,1.51698,0.2479353,0.3931306,1.076717,0.2867614,295.1451,219.9927,0.1362503,False
2,0.2555556,-0.8212075,2.222244,0.1802974,-1.392053,-4.182569,-2.953337,0.5966187,1.195872,0.5250108,-1.449565,0.0352482,5.65,0,-0.09419614,0.01104201,0.06375748,-0.6569896,-4.213552,0.1066111,0.6823411,1.463478,0.4372795,-0.03269998,0.1364924,-0.03252313,-0.9037666,0.2674834,0.09081939,0.8232785,1.517005,0.2481215,0.3865272,1.080824,0.2901987,294.2332,221.6326,359.8632,False
2,0.2666667,-0.8863194,2.251701,0.157841,-1.397972,-4.207911,-2.937073,0.5968575,1.195254,0.5248957,-1.45003,-0.04275416,5.41,0,-0.09961636,-0.0187053,0.05294273,-0.6569278,-4.215293,0.1093214,0.6822939,1.463304,0.4373415,-0.01877329,0.1333209,-0.02412949,-0.9036388,0.2692026,0.08960099,0.823372,1.517032,0.2483106,0.3796432,1.085186,0.2942462,293.3055,223.3258,359.7191,False
2,0.2777778,-0.9717491,2.307941,0.1789129,-1.406617,-4.234612,-2.918937,0.5967324,1.194664,0.5244277,-1.447952,0.1910255,5.19,0,-0.1104212,-0.0548017,0.03467621,-0.6572522,-4.218173,0.1132262,0.6822517,1.463158,0.4373739,-0.008134723,0.1376004,-0.02529418,-0.9037554,0.2714469,0.08800922,0.8234693,1.517052,0.2484739,0.3726701,1.089821,0.2988512,292.3681,225.3883,359.3193,False
2,0.2888889,-1.014227,2.271465,0.1621218,-1.413347,-4.25791,-2.902726,0.5963085,1.19428,0.5238392,-1.448771,-0.0758363,4.98,0,-0.1169408,-0.06214308,0.01869616,-0.6576671,-4.219395,0.1157615,0.6822078,1.462997,0.437422,0.007708788,0.1408061,-0.03929758,-0.9045799,0.2736517,0.08605153,0.8235582,1.517109,0.2486069,0.3656374,1.094802,0.303832,291.4131,228.0947,358.4836,False
2,0.3,-1.035381,2.224392,0.1432147,-1.419936,-4.280196,-2.887182,0.595976,1.193762,0.5231507,-1.447733,0.09565086,4.54,0,-0.1307757,-0.0728074,0.02086005,-0.6574924,-4.221334,0.1192172,0.6822237,1.462935,0.4374683,0.02484045,0.1259195,-0.03198865,-0.9045677,0.2747908,0.08461022,0.8236607,1.517271,0.2487586,0.3587932,1.100078,0.3088711,290.3786,230.3717,358.1276,False
2,0.3111111,-1.066778,2.071784,0.1163816,-1.425272,-4.297822,-2.871706,0.5946776,1.193519,0.5221667,-1.451101,-0.3056739,4.13,0,-0.1456156,-0.09843447,0.0314555,-0.6569843,-4.224475,0.1237539,0.6822554,1.462871,0.4375296,0.0292189,0.1131496,-0.02136697,-0.9043877,0.2758244,0.08349383,0.8237541,1.51735,0.2489188,0.3520006,1.105743,0.313559,289.398,232.8058,357.512,True
2,0.3222222,-1.07603,1.972658,0.107375,-1.431985,-4.316167,-2.856831,0.5939302,1.193347,0.5217779,-1.45543,-0.3893844,3.74,0,-0.166849,-0.1251313,0.04209206,-0.656458,-4.228385,0.1294094,0.6822127,1.462832,0.4375629,0.04519731,0.1057179,-0.02257518,-0.904556,0.2770754,0.08173721,0.8238627,1.517462,0.2490807,0.3455929,1.111872,0.3177161,288.33,234.9241,357.0532,True
2,0.3333333,-1.094593,1.811664,0.0965389,-1.436996,-4.330008,-2.842322,0.5923302,1.193348,0.5206547,-1.459703,-0.3831554,3.38,0,-0.1987011,-0.1518495,0.05707065,-0.6556638,-4.232754,0.1361693,0.682155,1.462774,0.4375269,0.05672002,0.1142428,-0.0418647,-0.905512,0.2791714,0.07946473,0.8239703,1.517556,0.2493126,0.3397719,1.118432,0.3211996,287.1147,236.7248,356.676,True
2,0.3444445,-1.143638,1.545074,0.0799191,-1.446948,-4.355649,-2.812622,0.5892268,1.193446,0.5186715,-1.4662,-0.5859653,2.96,0,-0.2421024,-0.126519,0.09379609,-0.6528372,-4.237208,0.1462677,0.6815917,1.462637,0.4374545,0.04052862,0.121663,-0.06302029,-0.9071701,0.2830136,0.07674857,0.8240393,1.51777,0.2497187,0.3345029,1.125399,0.3237777,285.8672,238.1324,356.3261,True
2,0.3555556,-1.177203,1.408518,0.06572121,-1.45075,-4.366467,-2.797361,0.5874113,1.19344,0.5172114,-1.460333,0.54682,2.57,0,-0.2782424,-0.06370652,0.1019498,-0.6512792,-4.235318,0.1489799,0.6811459,1.462635,0.4374199,0.04363921,0.144035,-0.06838742,-0.9078679,0.2860762,0.07434613,0.8240305,1.517904,0.2500658,0.3294325,1.132804,0.325561,284.594,239.4749,355.4744,True
2,0.3666667,-1.192726,1.291234,0.05678421,-1.454828,-4.376315,-2.782656,0.5852326,1.193704,0.5160031,-1.478494,-1.659601,2.2,0,-0.3143476,0.0001419634,0.1143671,-0.6494076,-4.232519,0.1512699,0.680705,1.462633,0.4372499,0.04695955,0.1472494,-0.05456739,-0.9078306,0.2882923,0.07235702,0.8240074,1.51807,0.2503135,0.3228754,1.141323,0.3264256,283.6542,241.6041,353.7962,True
2,0.3777778,-1.19569,1.23047,0.05070853,-1.459404,-4.387359,-2.768041,0.5830643,1.193901,0.5147505,-1.487731,-0.8234185,1.86,0,-0.3398701,0.03740892,0.1190693,-0.6477431,-4.230206,0.1540348,0.6802201,1.462691,0.4371519,0.04393509,0.1568492,-0.03537028,-0.90747,0.290932,0.07028508,0.8239285,1.518211,0.2505014,0.3174077,1.150796,0.3271202,282.0765,242.4491,353.713,True
2,0.3888889,-1.195392,1.158041,0.05004787,-1.463956,-4.397048,-2.753784,0.5804,1.19449,0.5135007,-1.495998,-0.7443799,1.54,0,-0.3715891,0.08196148,0.1494435,-0.6446783,-4.227068,0.1567257,0.6796631,1.462824,0.4370251,0.04303829,0.160057,-0.0172495,-0.9068927,0.2932861,0.0683463,0.8238578,1.518352,0.2507541,0.3134629,1.160655,0.3275498,280.0469,242.5357,354.2665,True
2,0.4,-1.201557,1.101594,0.05674255,-1.468847,-4.406503,-2.739163,0.5776785,1.195021,0.5121477,-1.504021,-0.7220497,1.11,0,-0.3915373,0.09557229,0.1869762,-0.6411384,-4.22539,0.1603172,0.6790303,1.462941,0.4368572,0.04211655,0.1536787,-0.002318066,-0.906262,0.295198,0.06678756,0.8237023,1.518558,0.2510767,0.3105909,1.17049,0.3276363,277.9109,242.2537,354.7676,True
2,0.4111111,-1.219543,1.068477,0.05375916,-1.473803,-4.416303,-2.723979,0.5749907,1.195513,0.5108533,-1.511857,-0.7053266,0.72,0,-0.4063108,0.1061099,0.2042042,-0.6381365,-4.223777,0.1639588,0.678561,1.463087,0.436692,0.04418575,0.1600707,-0.007670127,-0.9064165,0.2977816,0.06466901,0.8235487,1.518703,0.2513223,0.308095,1.180007,0.3274583,275.9087,241.602,355.3323,True
2,0.4222222,-1.219543,1.068477,0.05375916,-1.473803,-4.416303,-2.723979,0.5749907,1.195513,0.5108533,-1.518874,-0.630676,0.35,0,-0.4063108,0.1061099,0.2042042,-0.6381365,-4.223777,0.1639588,0.678561,1.463087,0.436692,0.04418575,0.1600707,-0.007670127,-0.9064165,0.2977816,0.06466901,0.8235487,1.518703,0.2513223,0.305359,1.189067,0.3271055,274.172,240.2681,356.5146,True
2,0.4333333,-1.247248,1.068326,0.04419041,-1.478941,-4.427293,-2.708025,0.5722671,1.196008,0.5096297,-1.53916,-1.845178,0,0,-0.4167536,0.06970477,0.2328098,-0.6346036,-4.225673,0.1704468,0.6778195,1.463152,0.4364216,0.04301608,0.1696532,-0.01725465,-0.9068207,0.3007574,0.06241624,0.8233624,1.518844,0.2515943,0.3030562,1.197404,0.3269598,272.6711,237.8491,359.0245,True
2,0.4444444,-1.26862,1.093838,0.04301471,-1.485023,-4.439196,-2.692186,0.5695813,1.196565,0.5084138,-1.532514,0.6272274,0,0,-0.4326787,0.1005672,0.2373976,-0.6315857,-4.222847,0.173384,0.6771226,1.463228,0.4362638,0.03545965,0.1856187,-0.02571406,-0.9071579,0.3042225,0.06014616,0.8230449,1.519042,0.2519166,0.3027167,1.203998,0.327346,271.0355,217.6248,19.38738,True
2,0.4555556,-1.300849,1.166202,0.05012137,-1.492632,-4.452836,-2.675587,0.5668032,1.197233,0.5073161,-1.536268,-0.3460107,0,0,-0.4358163,0.1047794,0.2449071,-0.6284144,-4.221525,0.1772613,0.6763101,1.463327,0.4360693,0.03240714,0.1984103,-0.008649126,-0.9065177,0.3075364,0.05787821,0.8226457,1.519238,0.2521758,0.3008866,1.209612,0.3274124,270.4261,149.5887,87.28887,True
2,0.4666667,-1.407766,1.276689,0.06561327,-1.501832,-4.467992,-2.655829,0.564034,1.197892,0.5062613,-1.542169,-0.5321573,0,0,-0.4549692,0.1186319,0.2451515,-0.6253939,-4.219647,0.1810939,0.6752072,1.463497,0.4358356,0.03361346,0.2016194,0.007316668,-0.9057459,0.3103669,0.05577192,0.8221473,1.519487,0.2525098,0.2973231,1.214916,0.3275393,270.5581,105.357,131.426,True
2,0.4777778,-1.542372,1.380689,0.08647937,-1.512114,-4.483515,-2.633548,0.5610711,1.198568,0.5051134,-1.546713,-0.4078167,0,0,-0.4699431,0.1261498,0.2367956,-0.6228335,-4.217661,0.1850857,0.6742201,1.46375,0.435643,0.02536005,0.1984321,0.03509802,-0.9043264,0.3128762,0.05416444,0.8216492,1.519735,0.2527914,0.2925728,1.220363,0.3282305,270.6546,88.53489,148.386,True
2,0.4888889,-1.571341,1.44676,0.1052939,-1.522274,-4.498224,-2.614933,0.5580863,1.199228,0.5038743,-1.548118,-0.1223263,0,0,-0.4933445,0.112292,0.2390186,-0.6199983,-4.21738,0.1907441,0.6731281,1.463904,0.4354684,0.02336806,0.2048311,0.05109377,-0.9031194,0.3159187,0.0521391,0.8211277,1.519991,0.2530727,0.2872397,1.226293,0.3299044,270.8646,68.90899,168.4159,True
2,0.5,-1.530093,1.540797,0.1239564,-1.534332,-4.514798,-2.598742,0.5543423,1.20007,0.5025005,-1.549426,-0.1161443,0,0,-0.5177968,0.1069225,0.2455635,-0.6168904,-4.216809,0.196794,0.6719884,1.464078,0.4351382,0.02464011,0.2144401,0.07451268,-0.9013607,0.3193261,0.04971056,0.8204843,1.520231,0.2533746,0.2817199,1.233061,0.3327563,271.3759,53.05397,184.9969,True
2,0.5111111,-1.286386,1.61407,0.1020566,-1.555176,-4.545729,-2.576255,0.5472254,1.202221,0.4995513,-1.556519,-0.6449832,0,0,-0.5397496,0.1385511,0.2949612,-0.608601,-4.213267,0.2059193,0.6692351,1.464416,0.4344883,-0.01057236,0.2399614,0.07162821,-0.8995135,0.3267399,0.04622422,0.8190596,1.520697,0.2540553,0.2762919,1.240997,0.3367077,272.2867,46.3144,192.835,True
2,0.5222223,-1.272656,1.643945,0.1018996,-1.56663,-4.561368,-2.562198,0.5438144,1.203058,0.4983475,-1.548409,0.7490728,0,0,-0.5461725,0.1705639,0.2888423,-0.604937,-4.209138,0.2087457,0.6677207,1.464684,0.4338894,-0.02981324,0.2644337,0.06859662,-0.8986843,0.3315229,0.04425002,0.8183253,1.520922,0.2544858,0.2701955,1.250399,0.341425,273.7299,48.06564,192.1632,True
2,0.5333334,-1.284258,1.62054,0.1127046,4.705376,-4.574948,-2.547142,0.5398396,1.204884,0.4967568,-1.573013,-2.254241,0,0,-0.5794222,0.2144627,0.2574289,-0.6025034,-4.203133,0.2113762,0.6660483,1.465056,0.4334104,-0.05639769,0.2910431,0.07735765,-0.897195,0.3367911,0.04245958,0.8174639,1.521281,0.2549007,0.261539,1.262285,0.3470513,275.392,45.97713,195.4698,True
2,0.5444446,-1.314979,1.585287,0.1097242,4.694932,-4.588131,-2.531685,0.5362577,1.206307,0.4952157,-1.570766,0.2265927,0,0,-0.62199,0.2368276,0.262176,-0.5986099,-4.198268,0.2158407,0.6643208,1.465386,0.4328041,-0.05409101,0.3091715,0.09862542,-0.8952221,0.3419141,0.03976792,0.8166581,1.521588,0.2553542,0.2551789,1.273868,0.3539333,277.8989,50.31578,193.0607,True
2,0.5555557,-1.364805,1.514671,0.08779174,4.686001,-4.59979,-2.514664,0.531379,1.208658,0.4938674,-1.57002,0.06501237,0,0,-0.7026802,0.290963,0.2951238,-0.5930594,-4.191362,0.2205976,0.6625444,1.465781,0.432081,-0.0477062,0.3187656,0.09962448,-0.8939342,0.3467725,0.03707679,0.815665,1.521948,0.2557433,0.2510205,1.284145,0.3611985,280.5106,52.68774,192.6905,True
2,0.5666668,-1.25432,1.314751,0.0749287,4.680584,-4.605944,-2.505193,0.5268739,1.210296,0.492156,-1.570528,-0.04596456,0,0.46,-0.7259298,0.2801442,0.3207962,-0.5881469,-4.188379,0.2269972,0.6607115,1.466162,0.4314306,-0.05848202,0.3230054,0.08694053,-0.8932098,0.3516003,0.03503708,0.8145243,1.522211,0.2561343,0.2477464,1.29332,0.3678584,282.7222,53.62743,193.6258,True
2,0.577778,-1.241141,1.204983,0.05843842,4.674758,-4.613701,-2.491964,0.5218478,1.212534,0.4910343,-1.570014,0.04817247,0,0.91,-0.7669525,0.2658452,0.3902594,-0.5811316,-4.186917,0.2355553,0.6587068,1.466628,0.4307075,-0.07557076,0.3304362,0.08390208,-0.8922218,0.3565047,0.03342747,0.8134737,1.522553,0.2565091,0.2445461,1.301571,0.3733296,284.4096,54.35847,194.3981,True
2,0.5888891,-1.249057,1.046171,0.04332107,4.670907,-4.618476,-2.478431,0.5175161,1.214391,0.4894378,-1.578404,-0.7669587,0,1.32,-0.7917436,0.3354903,0.4899922,-0.5713003,-4.179959,0.2392736,0.6566275,1.466941,0.4298973,-0.09147422,0.3581235,0.09575561,-0.8905184,0.3627985,0.03097762,0.8121415,1.522938,0.2568765,0.2405644,1.309417,0.3772369,285.6067,54.95696,194.9389,True
2,0.6000003,-1.263352,0.8863231,0.0346117,4.667658,-4.622252,-2.464359,0.5128671,1.21642,0.488044,-1.575944,0.2319137,0,1.78,-0.7754024,0.4236133,0.5341412,-0.5624591,-4.169213,0.2382299,0.6544436,1.467244,0.4292102,-0.1094026,0.380486,0.1182793,-0.8883235,0.3690871,0.0287925,0.8107988,1.523232,0.2574043,0.2365026,1.316307,0.379359,286.7286,55.97312,194.6551,True
2,0.6111114,-1.274541,0.7403198,0.03432766,4.665002,-4.624749,-2.450024,0.5078617,1.218517,0.4865038,-1.575647,0.02462238,0,2.21,-0.7657927,0.4491549,0.5374343,-0.5553895,-4.161447,0.2398651,0.6521974,1.467525,0.4284256,-0.1336884,0.4081767,0.1451194,-0.8857147,0.3760579,0.02664972,0.8093566,1.523613,0.2579083,0.232105,1.32237,0.3798602,287.4042,56.71967,194.0691,True
2,0.6222225,-1.278451,0.6518586,0.02311835,4.662172,-4.628089,-2.436185,0.5031694,1.220539,0.4850693,-1.575551,0.009120312,0,2.62,-0.7647147,0.459789,0.539628,-0.5483177,-4.154412,0.2424225,0.6498017,1.467904,0.4275751,-0.1452055,0.4358765,0.1707768,-0.8828661,0.3833381,0.02401585,0.8078549,1.523962,0.2583668,0.2279216,1.327607,0.3790141,287.7014,57.23835,193.4233,True
2,0.6333337,-1.274832,0.5335906,0.01948866,4.660716,-4.629397,-2.422192,0.4980112,1.222812,0.4834728,-1.575746,-0.01755705,0,3,-0.7711148,0.4630042,0.5386347,-0.5411975,-4.147237,0.2451224,0.6472669,1.468218,0.4267039,-0.149336,0.4497311,0.1867968,-0.8800384,0.3903206,0.02132766,0.8064297,1.524337,0.2588224,0.2238148,1.332496,0.3771666,287.7491,57.68882,192.5779,True
2,0.6444448,-1.239256,0.4250944,0.02112621,4.659535,-4.630109,-2.409877,0.4929049,1.225133,0.4820659,-1.5766,-0.07765586,0,3.83,-0.7733269,0.4620107,0.5279914,-0.5346307,-4.140218,0.2477792,0.6447445,1.468566,0.4259167,-0.1609798,0.463581,0.1964827,-0.8774658,0.3976541,0.01879579,0.8048049,1.524661,0.2591727,0.2197341,1.337456,0.3747263,287.7415,58.25273,191.449,True
2,0.655556,-1.220984,0.3815275,0.0298685,4.657005,-4.631934,-2.396924,0.4878667,1.227408,0.4806554,-1.57695,-0.0311755,0,4.6,-0.7584035,0.4737099,0.5290192,-0.5275519,-4.132333,0.2488572,0.6421796,1.468827,0.4251068,-0.1801223,0.4880681,0.2030391,-0.8749246,0.4057715,0.01617684,0.8031947,1.524974,0.2595985,0.2158115,1.342702,0.3721961,287.8363,59.07905,190.019,True
2,0.6666671,-1.199453,0.3348859,0.05034913,4.654504,-4.632843,-2.384888,0.4827799,1.229893,0.4792099,-1.578892,-0.1772472,0,5.33,-0.7243365,0.4982153,0.5257251,-0.5205404,-4.123078,0.2476551,0.6395915,1.469137,0.4241636,-0.1929266,0.5136178,0.2042131,-0.8724995,0.4141576,0.01331527,0.8014212,1.525331,0.2599914,0.2119715,1.348455,0.3698493,288.1404,60.0582,188.5642,True
2,0.6777782,-1.190807,0.3029926,0.05796409,4.652314,-4.633873,-2.372131,0.477716,1.232271,0.4777472,-1.578499,0.03758803,0,6,-0.7030336,0.5088826,0.5245703,-0.5135416,-4.113892,0.2467267,0.6368566,1.469595,0.4232886,-0.1939127,0.5200117,0.2127359,-0.869863,0.4217237,0.01047208,0.7996911,1.525779,0.2604926,0.2083679,1.354601,0.3679115,288.7051,61.17998,187.0574,True
2,0.6888894,-1.181022,0.2530401,0.06886922,4.65065,-4.634041,-2.359402,0.4727867,1.234556,0.4762788,-1.579414,-0.0841554,0,6.63,-0.701793,0.439445,0.551795,-0.5059809,-4.112559,0.2534032,0.6341213,1.470004,0.422323,-0.1906813,0.5200226,0.2169707,-0.8672366,0.4292944,0.007606254,0.7978761,1.52622,0.2608166,0.2049335,1.361081,0.3665906,289.4494,62.09526,185.8777,True
2,0.7000005,-1.172467,0.2435145,0.07957914,4.647974,-4.63476,-2.346725,0.4678972,1.23677,0.4751875,-1.578795,0.05737371,0,7.91,-0.7146913,0.4001434,0.5377849,-0.4998466,-4.108866,0.2584595,0.6312948,1.470473,0.4211421,-0.1959262,0.5072344,0.2234206,-0.8645515,0.435954,0.005570534,0.7959125,1.526662,0.261086,0.2016287,1.367776,0.3659085,290.3596,62.82652,185.117,True
2,0.7111117,-1.148932,0.2169725,0.079695,4.646263,-4.635278,-2.334844,0.4626996,1.239198,0.4737844,-1.578795,-0.00064329,0,9.11,-0.7186995,0.380743,0.5717737,-0.4917586,-4.105316,0.2633829,0.6283574,1.470841,0.4201281,-0.21174,0.4976394,0.2395538,-0.8613665,0.4427843,0.004005394,0.7937138,1.527023,0.2612913,0.1984587,1.374501,0.3657485,291.3632,63.45248,184.6868,True
2,0.7222228,-1.127525,0.1925824,0.08513549,4.644503,-4.635416,-2.323227,0.4574792,1.241576,0.4722292,-1.578846,-0.004512616,0,10.23,-0.721658,0.3698794,0.6036812,-0.4832455,-4.101945,0.2684363,0.6253758,1.471271,0.4188786,-0.2179199,0.500845,0.2630476,-0.8576694,0.4502823,0.001702026,0.7916528,1.527448,0.2616317,0.1954734,1.381077,0.3659147,292.3792,63.99357,184.4265,True
2,0.7333339,-1.090002,0.1244986,0.07800878,4.644582,-4.634337,-2.312231,0.4523126,1.244015,0.4707811,-1.579653,-0.07376032,0,11.29,-0.7247409,0.3900262,0.6187495,-0.4749561,-4.09551,0.2709561,0.6222622,1.471706,0.4176581,-0.2335677,0.5030134,0.2962159,-0.8532987,0.4583214,-0.0005797702,0.7895079,1.527645,0.2616339,0.1925076,1.387505,0.3662893,293.3636,64.41367,184.2768,True
2,0.7444451,-1.068581,0.09255071,0.0643137,4.644329,-4.634205,-2.301016,0.4471806,1.246632,0.4692898,-1.579967,-0.02812148,0,12.28,-0.7150422,0.429353,0.6317232,-0.4660569,-4.086818,0.2709428,0.6191473,1.472182,0.4163957,-0.2503417,0.4987454,0.3240889,-0.8486434,0.4655305,-0.00202853,0.787209,1.528062,0.2616634,0.1893355,1.39382,0.3666453,294.3409,64.79768,184.2551,True
2,0.7555562,-1.01944,0.04784198,0.03787744,4.645311,-4.633892,-2.291119,0.4420611,1.249146,0.4677877,-1.580567,-0.05478767,0,14.84,-0.6881756,0.4909303,0.6617483,-0.4560312,-4.075439,0.2677262,0.6159162,1.472869,0.4149678,-0.2608711,0.4838516,0.333783,-0.8446444,0.4726282,-0.003546265,0.7848746,1.528467,0.2617183,0.1859868,1.399898,0.3667429,295.2544,65.09556,184.351,True
2,0.7666674,-0.979885,0.007406756,0.01782798,4.646303,-4.633421,-2.281354,0.4371234,1.251553,0.4663031,-1.580187,0.03513478,0,17.24,-0.6763467,0.4961441,0.6766202,-0.4466382,-4.06795,0.2682831,0.6127924,1.473453,0.4136114,-0.2693307,0.4678674,0.3381468,-0.8406066,0.4790962,-0.004560397,0.7824391,1.528899,0.2616813,0.1825556,1.405622,0.3663397,296.0197,65.42597,184.3265,True
2,0.7777785,-0.95534,-0.007482134,0.006167307,4.646969,-4.63328,-2.271443,0.4322023,1.253891,0.4648197,-1.581271,-0.09967683,0,19.48,-0.6560321,0.4886278,0.6860069,-0.4374764,-4.060975,0.2686938,0.6094979,1.474064,0.4121091,-0.2682528,0.4625707,0.3359968,-0.8370587,0.4862768,-0.006539658,0.7800753,1.529232,0.2616162,0.179012,1.411062,0.365373,296.5885,65.82704,184.0498,True
2,0.7888896,-0.928718,-0.003148027,-0.0002586059,4.646819,-4.633563,-2.262037,0.427417,1.256103,0.4632783,-1.581295,-0.001431058,0,21.58,-0.6454863,0.4780515,0.6741315,-0.4293026,-4.054075,0.2694261,0.6063594,1.474453,0.4106452,-0.2801276,0.4763918,0.3211827,-0.8340392,0.4940999,-0.008249141,0.7775434,1.52963,0.2615082,0.1754896,1.416126,0.3638701,297.0622,66.35841,183.477,True
2,0.8000008,-0.9000835,0.03208629,-0.004729852,4.645762,-4.634745,-2.253023,0.4227265,1.258097,0.4617827,-1.580844,0.04090694,0,26.1,-0.637084,0.4653815,0.6580077,-0.4214618,-4.047014,0.269812,0.603062,1.474931,0.4090426,-0.2813158,0.4934316,0.3115963,-0.8308951,0.5025218,-0.01068327,0.7749524,1.530123,0.2616348,0.1720388,1.420807,0.3619415,297.4466,66.8807,182.7524,True
2,0.8111119,-0.8810016,0.05770358,-0.008076549,4.644682,-4.635899,-2.24389,0.4179987,1.260091,0.4602745,-1.581024,-0.01693708,0,30.33,-0.6412573,0.4557136,0.6707547,-0.4124683,-4.040807,0.2715548,0.5999036,1.475333,0.4075408,-0.2673681,0.4987814,0.3221227,-0.8269078,0.5103958,-0.01357227,0.7723291,1.530486,0.2615607,0.1686055,1.425236,0.3597757,297.7516,67.36169,181.9607,True
2,0.8222231,-0.8565985,0.08546814,-0.01143109,4.643252,-4.637269,-2.235309,0.4134818,1.261785,0.4587612,-1.581131,-0.009833098,0,34.29,-0.6262482,0.4268581,0.6842964,-0.4035978,-4.037038,0.2745578,0.5967483,1.475631,0.4060385,-0.2437458,0.5020204,0.3421349,-0.8224731,0.518178,-0.01706021,0.7696326,1.530872,0.2615778,0.1652029,1.429489,0.3576186,298.0322,67.8154,181.1536,True
2,0.8333342,-0.8343076,0.1122387,-0.005208179,4.641511,-4.638578,-2.227039,0.4092365,1.26331,0.4572842,-1.580773,0.03270819,0,37.99,-0.6092483,0.3970371,0.6818227,-0.3956648,-4.034024,0.2779514,0.5936428,1.475831,0.4045708,-0.2330199,0.5084524,0.3484161,-0.8186057,0.5264737,-0.020566,0.7669218,1.531089,0.261328,0.1618084,1.433624,0.3557332,298.3441,68.24596,180.4048,True
2,0.8444453,-0.8141933,0.1528546,0.005207121,4.63891,-4.640177,-2.218777,0.4049349,1.264773,0.4557362,-1.581027,-0.02372455,0,41.45,-0.5923019,0.3427871,0.6706771,-0.3883421,-4.034302,0.2841388,0.590418,1.476043,0.4031126,-0.2373396,0.5084327,0.3420849,-0.8149992,0.5342912,-0.02315592,0.7642493,1.531402,0.2611489,0.1584078,1.437701,0.3542779,298.701,68.60176,179.8642,True
2,0.8555565,-0.8141933,0.1528546,0.005207121,4.63891,-4.640177,-2.218777,0.4049349,1.264773,0.4557362,-1.581126,-0.009029847,0,44.69,-0.5923019,0.3427871,0.6706771,-0.3883421,-4.034302,0.2841388,0.590418,1.476043,0.4031126,-0.2373396,0.5084327,0.3420849,-0.8149992,0.5342912,-0.02315592,0.7642493,1.531402,0.2611489,0.1551553,1.441594,0.3533252,299.1172,68.8583,179.5825,True
2,0.8666676,-0.7897971,0.183856,0.009283163,4.63624,-4.641885,-2.210904,0.4005914,1.266041,0.4542634,-1.588981,-0.7184557,0,50.42,-0.5872782,0.3174659,0.6331799,-0.3820614,-4.031761,0.2883005,0.587173,1.476122,0.4016581,-0.2363637,0.5148194,0.3335442,-0.8117251,0.5425909,-0.02621376,0.7614295,1.53178,0.260947,0.1528641,1.44468,0.3529181,299.3174,68.85989,179.6088,True
2,0.8777788,-0.7207119,0.235355,0.03025736,4.630193,-4.644841,-2.197104,0.3923641,1.268289,0.4512568,-1.580773,0.7561241,0,55.79,-0.535739,0.283899,0.5505188,-0.371103,-4.026124,0.2934774,0.5805466,1.476243,0.3985424,-0.1925859,0.5031771,0.3405895,-0.8044509,0.558035,-0.03398726,0.7559112,1.532196,0.2604811,0.1523315,1.446074,0.3530541,299.645,69.06647,179.5241,True
2,0.8888899,-0.6962574,0.2525014,0.03120279,4.627393,-4.646558,-2.190456,0.3882645,1.269624,0.4497452,-1.572193,0.7764861,0,60.81,-0.5220087,0.2978276,0.5366569,-0.3647513,-4.020604,0.2937618,0.5773215,1.476244,0.3971212,-0.1786902,0.4925343,0.3447359,-0.8006474,0.5650679,-0.03735137,0.7530404,1.532503,0.2601852,0.1498886,1.448838,0.3533946,300.55,69.23371,179.756,True
2,0.900001,-0.6600659,0.261161,0.03325751,4.624536,-4.64806,-2.184599,0.3842676,1.270668,0.4482782,-1.579423,-0.6677244,0,66.71,-0.490324,0.2927149,0.5022812,-0.3597691,-4.015946,0.2937605,0.574052,1.476289,0.3956072,-0.1679643,0.5053632,0.3520752,-0.7968513,0.5740803,-0.04219672,0.7501485,1.532697,0.2599537,0.1445338,1.453953,0.3537281,301.4773,68.99104,180.5218,True
2,0.9111122,-0.6312858,0.2580596,0.03111874,4.622204,-4.649406,-2.178742,0.3802736,1.271717,0.4467995,-1.579063,0.03821705,0,72.24,-0.4575299,0.2556024,0.4751429,-0.3552332,-4.015419,0.2973347,0.5709738,1.476173,0.3941538,-0.1476119,0.5021939,0.3636073,-0.7926931,0.5818709,-0.04669214,0.747243,1.532953,0.2595844,0.139467,1.458522,0.3540083,301.9606,68.81145,181.1397,True
2,0.9222233,-0.600312,0.2347207,0.02908676,4.620626,-4.650221,-2.173336,0.3763349,1.27262,0.4453454,-1.577751,0.117106,0,77.41,-0.4384927,0.2226555,0.4598552,-0.3504901,-4.016147,0.30226,0.5677741,1.476159,0.392566,-0.1357525,0.4894281,0.3794952,-0.7881689,0.5891416,-0.05050978,0.7442805,1.533309,0.2592552,0.1352385,1.46196,0.354129,302.1831,68.73414,181.5435,True
2,0.9333345,-0.5789292,0.2123636,0.01853502,4.619469,-4.651124,-2.1678,0.3724261,1.273449,0.4437058,-1.5752,0.230146,0,82.25,-0.4343444,0.2078319,0.4479899,-0.3456794,-4.014746,0.3058238,0.5646499,1.476007,0.3910856,-0.1314618,0.4819781,0.3815908,-0.7841721,0.5966023,-0.05448055,0.7413573,1.533529,0.2588584,0.1317925,1.464293,0.3540432,302.4217,68.70508,181.8041,True
2,0.9444456,-0.5597337,0.2016824,-0.001667149,4.618233,-4.652853,-2.162323,0.3687345,1.274153,0.4422596,-1.572527,0.2398178,0,86.77,-0.4226645,0.2100003,0.442594,-0.3404053,-4.011992,0.3074963,0.5614899,1.475805,0.3896112,-0.1314807,0.4606529,0.3773465,-0.7804511,0.6028659,-0.05744731,0.7383541,1.533767,0.2583547,0.1286577,1.465939,0.3536881,302.7043,68.68811,182.0043,True
2,0.9555568,-0.52674,0.2070497,-0.01557307,4.616581,-4.654766,-2.157819,0.3650506,1.274883,0.4407482,-1.568714,0.3437251,0,91,-0.4100605,0.2442281,0.4213988,-0.3356499,-4.004328,0.3046811,0.5582888,1.475548,0.3882027,-0.1261534,0.451089,0.3751664,-0.7767029,0.610118,-0.06137281,0.7354074,1.533881,0.257829,0.1254381,1.46721,0.3529877,302.9883,68.6945,182.1532,True
2,0.9666679,-0.4980148,0.2188368,-0.01992581,4.614352,-4.656521,-2.153383,0.3612607,1.275581,0.4392383,-1.56447,0.381924,0,94.96,-0.3866968,0.27836,0.4150366,-0.3302171,-3.995851,0.3006001,0.5550637,1.475215,0.3866763,-0.1016568,0.4500475,0.3738801,-0.7728163,0.6176869,-0.06645865,0.7323802,1.533981,0.2573462,0.1218874,1.468302,0.3519112,303.1638,68.74422,182.1874,True
2,0.977779,-0.4766827,0.2243616,-0.01552756,4.611921,-4.658433,-2.148973,0.3575542,1.276284,0.4378045,-1.560667,0.3408561,0,98.67,-0.3590358,0.2933094,0.4096017,-0.3249089,-3.988594,0.2968239,0.5519173,1.474987,0.3851492,-0.08675617,0.443686,0.3716132,-0.7690671,0.6250591,-0.07119775,0.7293695,1.534091,0.2567832,0.1179824,1.469254,0.3505876,303.1658,68.84669,182.0349,True
2,0.9888902,-0.451213,0.2446177,-0.01581787,4.609335,-4.66021,-2.145037,0.3541395,1.276891,0.4364541,-1.555455,0.4696107,0,100,-0.3463373,0.2891155,0.4009407,-0.3201461,-3.983099,0.2952612,0.5489244,1.474711,0.3836782,-0.07613876,0.447955,0.3683246,-0.7654351,0.6327919,-0.07627586,0.7263724,1.534211,0.2562637,0.1137285,1.470068,0.349191,303.0833,68.91219,181.8531,True
2,1.000001,-0.4363492,0.2574254,-0.02016751,4.606799,-4.662302,-2.140967,0.3507013,1.277365,0.435128,-1.54939,0.5459532,0,100,-0.3304815,0.2668525,0.3846958,-0.3159516,-3.979789,0.2952117,0.5458775,1.474486,0.3822589,-0.08152241,0.4511506,0.3630458,-0.7619975,0.6407457,-0.08086236,0.7234231,1.534232,0.2556906,0.1091459,1.470718,0.347878,302.9553,68.8587,181.7926,True
2,1.011112,-0.4267988,0.2659382,-0.02874615,4.604489,-4.664587,-2.136697,0.3473656,1.277861,0.4337602,-1.543208,0.5556592,0,100,-0.3082997,0.2339743,0.3640534,-0.3123648,-3.977899,0.2964258,0.5429127,1.474149,0.3807905,-0.08260813,0.443681,0.3598762,-0.7584475,0.6478804,-0.08509172,0.7205492,1.534205,0.2551,0.1043667,1.471122,0.3467689,302.7479,68.70051,181.8926,True
2,1.022224,-0.4087029,0.2680911,-0.03623176,4.602283,-4.666796,-2.133081,0.3439891,1.278299,0.4324417,-1.535802,0.6671084,0,100,-0.2839456,0.1914775,0.3454797,-0.3091131,-3.978755,0.2995393,0.539925,1.473859,0.3794916,-0.07626474,0.427712,0.3523636,-0.755208,0.6545259,-0.0893147,0.7175832,1.534248,0.254559,0.09956891,1.47117,0.345932,302.4985,68.4846,182.1393,True
2,1.033335,-0.3927276,0.268107,-0.0447758,4.600261,-4.669096,-2.129521,0.3407162,1.278863,0.4313631,-1.527615,0.7370629,0,100,-0.2680485,0.1659651,0.3387811,-0.3055541,-3.97865,0.3021806,0.5369543,1.473519,0.3781362,-0.0616245,0.4031986,0.3202874,-0.7531089,0.6599999,-0.09314539,0.7146682,1.534314,0.2539706,0.09474449,1.470908,0.345383,302.2525,68.24171,182.5173,True
2,1.044446,-0.3767517,0.2681122,-0.05437817,4.598245,-4.671468,-2.12617,0.3374346,1.279217,0.4301476,-1.51973,0.708567,0,100,-0.258661,0.126724,0.3128856,-0.3029814,-3.980786,0.3067847,0.5339979,1.473139,0.3767219,-0.05328485,0.3840176,0.2989087,-0.7508719,0.6657378,-0.09697635,0.7116386,1.534341,0.2534773,0.08985782,1.470446,0.3450804,301.9979,67.96217,183.0297,True
2,1.055557,-0.3650102,0.2606509,-0.06286743,4.596465,-4.673673,-2.122792,0.3341213,1.279536,0.4288712,-1.510677,0.8150895,0,100,-0.2620138,0.09704697,0.2935286,-0.3004855,-3.982099,0.3112178,0.5309601,1.472649,0.3753417,-0.05228165,0.3797519,0.2914387,-0.7483286,0.6720917,-0.1010832,0.7086669,1.53438,0.2528639,0.08487644,1.469832,0.3449547,301.7497,67.65779,183.6017,True
2,1.066668,-0.3670681,0.2414533,-0.06596161,4.595108,-4.675485,-2.118904,0.3307653,1.279985,0.4278426,-1.501133,0.8587424,0,100,-0.2641548,0.1066379,0.2935957,-0.2970085,-3.980613,0.3129694,0.5280551,1.472187,0.3739002,-0.05153769,0.3605468,0.2562818,-0.74707,0.6771139,-0.1040928,0.7056168,1.534264,0.2521112,0.07978529,1.469093,0.3449449,301.481,67.33202,184.2,True
2,1.077779,-0.3734179,0.2275437,-0.07333932,4.593897,-4.677496,-2.114757,0.3273929,1.280361,0.4267802,-1.49079,0.9309845,0,100,-0.2630896,0.1354081,0.2927095,-0.2931022,-3.975833,0.3112945,0.5250683,1.471718,0.3723607,-0.05069044,0.3562715,0.2328364,-0.7456403,0.6830725,-0.1078918,0.7026459,1.534171,0.251338,0.07460303,1.468162,0.3449538,301.2437,66.99113,184.8539,True
2,1.08889,-0.3839425,0.1880276,-0.08697522,4.593891,-4.679212,-2.110303,0.3242027,1.280633,0.4258389,-1.47946,1.020441,0,100,-0.2482108,0.1524735,0.2905611,-0.2895943,-3.971391,0.3095959,0.5220861,1.471252,0.3709054,-0.04147658,0.3434675,0.1912129,-0.7452627,0.6881847,-0.1115548,0.6997451,1.533974,0.2505894,0.06928869,1.46704,0.3448684,300.9825,66.61619,185.5372,True
2,1.100002,-0.3965851,0.1409763,-0.1122833,4.594987,-4.681027,-2.105659,0.320906,1.28098,0.4249194,-1.467729,1.055797,0,100,-0.204385,0.1651131,0.3105555,-0.2849907,-3.968183,0.3073141,0.519062,1.470905,0.3695049,-0.05986229,0.3178542,0.1583781,-0.7448696,0.6922275,-0.1132171,0.6968508,1.533978,0.2497377,0.06379989,1.465792,0.3446171,300.6308,66.22408,186.1703,True
2,1.111113,-0.3975609,0.1121425,-0.1259757,4.595552,-4.682824,-2.101448,0.3176161,1.281218,0.4239757,-1.455571,1.094426,0,100,-0.1587074,0.1364352,0.2961573,-0.2823952,-3.969234,0.3087189,0.5159935,1.470382,0.3681421,-0.0598923,0.3093266,0.1541297,-0.7435541,0.6971474,-0.1161865,0.6939701,1.53381,0.249006,0.05821462,1.464385,0.3441641,300.2031,65.86033,186.7206,True
2,1.122224,-0.3910602,0.07693148,-0.1407093,4.596984,-4.684434,-2.097488,0.3143188,1.281609,0.4231956,-1.442961,1.13494,0,100,-0.152628,0.08449457,0.2584623,-0.2813214,-3.973156,0.3144085,0.5130133,1.470002,0.3668296,-0.03847665,0.3210829,0.1677717,-0.7416158,0.7035118,-0.1211824,0.6911447,1.533719,0.2483072,0.05265701,1.462764,0.3434748,299.7141,65.58749,187.1407,True
2,1.133335,-0.3728515,0.04711469,-0.1512234,4.598304,-4.686021,-2.094236,0.311125,1.282104,0.4225655,-1.430502,1.120596,0,100,-0.1496439,0.05165175,0.2305264,-0.279976,-3.976982,0.3196408,0.51002,1.469619,0.3655157,-0.04083744,0.3338526,0.1454105,-0.7412717,0.7099016,-0.1253734,0.6883495,1.533533,0.2476206,0.04708861,1.461007,0.3425454,299.1917,65.41577,187.399,True
2,1.144446,-0.3493641,0.02795282,-0.1649881,4.599568,-4.687912,-2.091287,0.3080521,1.282749,0.4221218,-1.417487,1.171248,0,100,-0.1433896,0.03046609,0.2122241,-0.2785363,-3.980078,0.3239866,0.5070385,1.469353,0.3642311,-0.05923381,0.3455288,0.1168055,-0.7416019,0.7161385,-0.1286003,0.6856811,1.533423,0.2470427,0.04149954,1.459125,0.341436,298.6659,65.22803,187.5883,True
2,1.155557,-0.331204,0.009826384,-0.1798215,4.601264,-4.689829,-2.088451,0.3049502,1.283229,0.4213893,-1.404453,1.17224,0,100,-0.1062163,0.003901392,0.2000481,-0.2771722,-3.985058,0.3287563,0.5043706,1.468994,0.3630059,-0.05189982,0.3551095,0.1039541,-0.7413772,0.7223886,-0.1329975,0.6830665,1.533191,0.2463527,0.03584971,1.45715,0.3402157,298.0877,65.03606,187.7156,True
2,1.166668,-0.3291101,0.01616445,-0.1915743,4.602068,-4.692184,-2.084985,0.3019583,1.283674,0.420877,-1.390639,1.243341,0,100,-0.09458575,-0.01094129,0.1902685,-0.2757948,-3.988886,0.3333164,0.5015979,1.468549,0.3617842,-0.04026589,0.3433936,0.09426929,-0.7410219,0.727439,-0.136695,0.6802989,1.533062,0.2457681,0.03015077,1.455065,0.3389966,297.441,64.82185,187.8028,True
2,1.17778,-0.3302714,0.03949547,-0.2108724,4.602472,-4.695318,-2.081665,0.2990651,1.284058,0.4201076,-1.376299,1.290663,0,100,-0.105173,-0.02591519,0.1998359,-0.2737463,-3.994885,0.3405848,0.4989886,1.468153,0.3606575,-0.03265932,0.3338231,0.1091179,-0.7397984,0.7326344,-0.1403521,0.6776462,1.532886,0.2449732,0.02441325,1.452852,0.3379006,296.7708,64.58337,187.9408,True
2,1.188891,-0.3292577,0.05011316,-0.2194506,4.602902,-4.698158,-2.078207,0.2961899,1.284434,0.4194007,-1.360928,1.384396,0,100,-0.1136485,-0.03127714,0.2062513,-0.2715498,-3.999424,0.3464767,0.4962659,1.467795,0.3592675,-0.01650998,0.326399,0.1260163,-0.7382847,0.7379833,-0.144717,0.6749651,1.532693,0.2442868,0.01866039,1.450441,0.3369627,296.131,64.32682,188.18,True
2,1.200002,-0.3207831,0.06180967,-0.2291075,4.603325,-4.701218,-2.075257,0.2933572,1.284856,0.4185989,-1.345934,1.348933,0,100,-0.1148792,-0.04498594,0.1859188,-0.2707833,-4.004059,0.3523959,0.4936827,1.467313,0.357975,0.01016131,0.3147193,0.1289745,-0.7372274,0.7429982,-0.1494297,0.6724819,1.532447,0.243561,0.01288155,1.447862,0.3362699,295.46,63.93193,188.5873,True
2,1.211113,-0.3176011,0.06285702,-0.2344382,4.60401,-4.703898,-2.072067,0.2905015,1.28515,0.4179544,-1.330602,1.380099,0,100,-0.109502,-0.05036184,0.1943647,-0.2687763,-4.009612,0.3588945,0.491094,1.466843,0.3567586,0.01442429,0.3083235,0.1278824,-0.736282,0.7478747,-0.1533741,0.6698511,1.532315,0.2428725,0.007095505,1.44514,0.3358598,294.781,63.42493,189.2066,True
2,1.222224,-0.3133381,0.06179515,-0.2365664,4.604736,-4.706593,-2.069029,0.2877276,1.28555,0.4172404,-1.315585,1.350763,0,100,-0.1232816,-0.04722027,0.2040832,-0.2663161,-4.014699,0.3656616,0.488582,1.466385,0.3554251,-0.01240912,0.2859037,0.1047176,-0.7363161,0.7514353,-0.154756,0.6673058,1.532268,0.242182,0.001319473,1.442313,0.3357031,294.1015,62.79056,190.052,True
2,1.233335,-0.3090164,0.0436857,-0.2407412,4.606196,-4.709084,-2.066007,0.2850522,1.285979,0.4165266,-1.29972,1.428366,0,100,-0.1295886,-0.02492036,0.2159841,-0.2636412,-4.016597,0.3692481,0.4859701,1.466027,0.3541925,-0.0003894269,0.2880681,0.1376246,-0.7342202,0.7569141,-0.1592613,0.6648251,1.532071,0.2415607,-0.004421354,1.439385,0.3357178,293.4546,62.12017,191.0068,True
2,1.244446,-0.3014591,0.01709531,-0.2395491,4.608023,-4.711215,-2.063197,0.2823653,1.286633,0.4160595,-1.283932,1.420617,0,100,-0.1264813,0.03803537,0.201453,-0.2611261,-4.009683,0.3638227,0.4835623,1.465672,0.3529468,-0.00117588,0.276364,0.1664079,-0.7318947,0.761424,-0.1624789,0.6624312,1.531746,0.2408206,-0.01010893,1.436344,0.335808,292.8246,61.38632,192.0389,True
2,1.255558,-0.2800105,-0.02437206,-0.2382815,4.610704,1.570454,-2.060946,0.2797274,1.287169,0.4154031,-1.26791,1.44201,0,100,-0.1189834,0.06677076,0.2058497,-0.258235,-4.007111,0.362392,0.4810518,1.465331,0.3517778,-0.003210127,0.2753073,0.176005,-0.7303011,0.7665031,-0.16619,0.6599376,1.531621,0.2401197,-0.01573075,1.433212,0.3358669,292.1757,60.57592,193.1636,True
2,1.266669,-0.2639204,-0.05952872,-0.24876,4.613636,1.568501,-2.058677,0.2771162,1.287824,0.415257,-1.251943,1.436673,0,100,-0.1190326,0.07960213,0.1995362,-0.2558989,-4.004908,0.3617023,0.478645,1.464958,0.3506281,-0.003264576,0.2689164,0.1696191,-0.7291256,0.7711825,-0.1695781,0.6573778,1.531443,0.2394452,-0.02126199,1.430009,0.3357907,291.4722,59.75724,194.2638,True
2,1.27778,-0.2499797,-0.08610763,-0.2475651,4.616491,1.566926,-2.056458,0.2746167,1.288283,0.4146938,-1.236222,1.41412,0,100,-0.1180622,0.06797004,0.1866678,-0.2542733,-4.005736,0.3638009,0.4763089,1.464665,0.3494489,-0.006596446,0.2539886,0.1536754,-0.7283745,0.7750358,-0.1722383,0.6549967,1.531236,0.2388222,-0.02671208,1.426785,0.3355193,290.7368,58.93904,195.3022,True
2,1.288891,-0.2467698,-0.09248174,-0.2464668,4.61871,1.565051,-2.053807,0.2721042,1.288846,0.4145257,-1.219719,1.485754,0,100,-0.1158598,0.04872448,0.1982419,-0.2519063,-4.009625,0.3689061,0.4739572,1.464268,0.3483374,-0.006694168,0.2390639,0.1409075,-0.7275564,0.7785894,-0.1748434,0.6525304,1.531,0.2381496,-0.0320237,1.423465,0.3349768,290.0136,58.24132,196.137,True
2,1.300002,-0.247869,-0.0818157,-0.2433265,4.620426,1.56298,-2.051187,0.2696491,1.289125,0.4140434,-1.203189,1.487541,0,100,-0.1008805,0.03374644,0.2076239,-0.2494572,-4.013933,0.3736782,0.4717204,1.463877,0.3472316,-0.005731344,0.2294721,0.1281117,-0.727035,0.7822338,-0.1775719,0.6501793,1.530829,0.2374766,-0.03723868,1.420036,0.3342384,289.2586,57.6075,196.7653,True
2,1.311113,-0.2479315,-0.06473132,-0.2359606,4.621627,1.560866,-2.048436,0.2672621,1.289348,0.4136162,-1.186075,1.541033,0,100,-0.09344372,0.02523418,0.2064409,-0.2475094,-4.01686,0.3774498,0.469437,1.463443,0.3461244,-0.007894948,0.2177525,0.1238952,-0.7260187,0.7858432,-0.1800025,0.64807,1.530444,0.2368159,-0.04234548,1.416451,0.3333564,288.4997,56.85494,197.4576,True
2,1.322224,-0.2522456,-0.04875546,-0.2339111,4.622807,1.558578,-2.045675,0.2648135,1.289543,0.4131722,-1.16935,1.504935,0,100,-0.08698903,0.01772191,0.2148701,-0.2450076,-4.021202,0.3823556,0.4671657,1.46304,0.3449948,-0.005616099,0.2167033,0.1387802,-0.7245204,0.7899643,-0.1831512,0.6457267,1.530185,0.2362051,-0.04742951,1.412775,0.3324819,287.7045,55.89526,198.2907,True
2,1.333336,-0.2587303,-0.01994687,-0.2223437,4.623144,1.55625,-2.042726,0.2625037,1.289672,0.4129004,-1.152511,1.51567,0.72,100,-0.07331448,-0.003437087,0.1922591,-0.2439828,-4.025843,0.3873538,0.4648347,1.462631,0.3439431,-0.00109899,0.2305813,0.1685647,-0.7221801,0.7954514,-0.1873576,0.6433461,1.529851,0.2356629,-0.05244312,1.408978,0.3317142,286.947,54.74702,199.3621,True
2,1.344447,-0.2555929,-0.0007032603,-0.2117915,4.623551,1.554196,-2.040176,0.2601948,1.289666,0.4123552,-1.135734,1.50986,1.89,100,-0.06171851,0.001983643,0.1772921,-0.2425394,-4.027534,0.3895693,0.4626179,1.462144,0.3428774,-0.01152676,0.2529503,0.1952863,-0.7197939,0.8015296,-0.1914797,0.6411171,1.529613,0.2350922,-0.0573932,1.40508,0.3311321,286.2151,53.37659,200.7123,True
2,1.355558,-0.2546584,0.04091941,-0.1981635,4.622696,1.551785,-2.037585,0.2579143,1.289588,0.4119649,-1.118781,1.526059,3.23,100,-0.06298076,0.03199788,0.1487314,-0.2412653,-4.023792,0.3866939,0.4603412,1.46158,0.3417547,-0.008211553,0.267875,0.2101603,-0.7176968,0.8074235,-0.1959218,0.6388381,1.529323,0.2345212,-0.0623032,1.401113,0.3307853,285.4984,51.81004,202.301,True
2,1.366669,-0.2590128,0.06652816,-0.1887042,4.622044,1.549425,-2.034605,0.2557321,1.289684,0.4118211,-1.102392,1.474239,4.49,100,-0.06401805,0.05328436,0.1520699,-0.2391673,-4.021748,0.3854729,0.4582732,1.461069,0.3407173,-0.007103801,0.2689433,0.2165472,-0.7157075,0.8127144,-0.1997371,0.6367594,1.528952,0.2339916,-0.06710818,1.397086,0.3307136,284.8262,49.90318,204.2921,True
2,1.37778,-0.2729736,0.1049548,-0.1654595,4.620286,1.547351,-2.03132,0.2536315,1.289529,0.4114373,-1.085528,1.518143,5.67,100,-0.06283716,0.07768807,0.1671335,-0.2363097,-4.01933,0.3837266,0.4561581,1.460539,0.3396711,-0.003864169,0.2529767,0.2186559,-0.7137756,0.8169588,-0.2029941,0.6344965,1.528768,0.2333364,-0.07178147,1.392982,0.3308509,284.2492,47.79441,206.5896,True
2,1.388891,-0.2772528,0.1135216,-0.1537854,4.619682,1.545482,-2.028306,0.2515141,1.289545,0.4110415,-1.068271,1.55366,6.77,100,-0.06920855,0.07873878,0.1703796,-0.2341579,-4.018747,0.384198,0.4541146,1.459871,0.3387063,0.003641844,0.2508593,0.2249875,-0.7115956,0.8219557,-0.2069324,0.6323484,1.528355,0.2327986,-0.07636197,1.388827,0.331183,283.7134,45.31396,209.2465,True
2,1.400002,-0.2879204,0.1188342,-0.1495438,4.619002,1.543455,-2.024939,0.2495014,1.289507,0.4105651,-1.051096,1.545821,7.79,100,-0.07122895,0.05413675,0.1862152,-0.231875,-4.023991,0.3901411,0.4521809,1.459418,0.3378351,0.01443237,0.2540883,0.2397892,-0.7092211,0.8274719,-0.2116057,0.630182,1.528126,0.2322078,-0.08083993,1.384674,0.3316925,283.1888,42.45057,212.2963,True
2,1.411114,-0.2943121,0.1209805,-0.1420934,4.618436,1.541648,-2.021699,0.24753,1.289448,0.4096491,-1.034634,1.480991,9.03,100,-0.07216699,0.03058535,0.2052399,-0.229402,-4.030474,0.3973234,0.4502709,1.458811,0.3369234,0.01566681,0.2594226,0.2578939,-0.7064211,0.833084,-0.2161509,0.6280138,1.527827,0.2317348,-0.08516418,1.380557,0.33229,282.7591,39.24608,215.7794,True
2,1.422225,-0.2985588,0.1177927,-0.137812,4.617959,1.539879,-2.018414,0.2455038,1.289522,0.4091516,-1.01769,1.525681,10.19,100,-0.08292629,0.001918107,0.1912827,-0.2283426,-4.036993,0.4049704,0.4484088,1.45833,0.3360214,0.01996067,0.2615626,0.2610384,-0.7042644,0.8384823,-0.2206511,0.6259123,1.527562,0.2312365,-0.08933841,1.376511,0.3328293,282.3743,36.11827,219.2526,True
2,1.433336,-0.2974296,0.1008078,-0.1281323,4.617873,1.53858,-2.015254,0.2435335,1.289775,0.4087615,-1.001281,1.476334,11.28,100,-0.08191813,0.009431593,0.1838569,-0.226667,-4.037829,0.4067529,0.4466302,1.457782,0.335202,0.02624592,0.2711466,0.2524545,-0.7025877,0.8442615,-0.2254805,0.6238278,1.527286,0.2309082,-0.09333684,1.372546,0.3331868,282.0434,32.99272,222.7361,True
2,1.444447,-0.3005856,0.09019283,-0.1195463,4.617644,1.53733,-2.011916,0.2415574,1.290052,0.4087322,-0.9848215,1.481498,12.3,100,-0.0796098,0.02419603,0.2084242,-0.2236496,-4.039449,0.4091468,0.4447955,1.457254,0.3342924,0.03689292,0.2647578,0.2512932,-0.700519,0.8491521,-0.2299549,0.622022,1.526891,0.2304645,-0.09718259,1.368673,0.3332331,281.7574,29.86946,226.1639,True
2,1.455558,-0.2994705,0.07745253,-0.1120229,4.617663,1.536256,-2.008727,0.239608,1.290295,0.4083021,-0.9686087,1.458905,13.26,100,-0.09778954,0.0359882,0.1979771,-0.2216522,-4.039827,0.4111343,0.4430446,1.456757,0.3334143,0.03790504,0.2445248,0.2427707,-0.6986681,0.8533298,-0.2335424,0.6201558,1.526578,0.2298834,-0.1009511,1.364926,0.3329834,281.442,26.57301,229.5645,True
2,1.466669,-0.3090073,0.06145629,-0.109793,4.617909,1.535143,-2.004985,0.2377672,1.290377,0.4077427,-0.9521243,1.48394,14.52,100,-0.1019735,0.04657596,0.2087277,-0.2188985,-4.041018,0.4136043,0.4414696,1.456266,0.3325119,0.03140727,0.2349185,0.230056,-0.6971037,0.8575737,-0.2369295,0.6182572,1.526276,0.2293828,-0.1046349,1.361306,0.3325118,281.1013,23.08314,232.9831,True
2,1.47778,-0.3237852,0.02200145,-0.1074419,4.619382,1.534617,-2.000927,0.2359437,1.290743,0.4073319,-0.9359866,1.452083,15.7,100,-0.08905924,0.06990052,0.2258303,-0.2153975,-4.040202,0.4133357,0.4398425,1.455804,0.3316784,0.02280501,0.2285132,0.2216216,-0.6955388,0.8620979,-0.2403021,0.6165637,1.525932,0.2289772,-0.1082373,1.357803,0.3319583,280.8008,19.49008,236.4286,True
2,1.488891,-0.3322641,0.009194903,-0.1073639,4.620018,1.53361,-1.997087,0.2341457,1.291177,0.4074411,-0.9192183,1.509995,16.8,100,-0.07419608,0.06674675,0.2193022,-0.2132718,-4.04117,0.414655,0.4382898,1.45535,0.3307753,0.01534167,0.2199768,0.2206405,-0.6935984,0.8662929,-0.24337,0.6148837,1.525516,0.2284946,-0.1117076,1.354343,0.3313553,280.5951,16.15738,239.7209,True
2,1.500003,-0.3428308,-0.01532581,-0.10403,4.621357,1.533091,-1.992982,0.2323837,1.291642,0.4070635,-0.9027365,1.483389,17.83,100,-0.08057898,0.06674355,0.220413,-0.2107349,-4.042696,0.4172566,0.4367854,1.454918,0.3299513,0.01435065,0.2178493,0.2291753,-0.6914115,0.8708876,-0.2469587,0.6131867,1.525162,0.2280633,-0.1150186,1.350865,0.3306994,280.4248,12.82013,243.0861,True
2,1.511114,-0.3459018,-0.05154875,-0.1038383,4.623297,1.532634,-1.989105,0.2305915,1.292212,0.4068165,-0.8867815,1.435495,18.83,100,-0.1006933,0.08687048,0.2387942,-0.2070805,-4.04215,0.4187331,0.4353452,1.454509,0.329083,0.0218969,0.2199981,0.2408431,-0.6888442,0.8762266,-0.2514631,0.6115022,1.524642,0.2276366,-0.1182302,1.347415,0.3300124,280.201,8.96923,246.888,True
2,1.522225,-0.3563581,-0.1090925,-0.09925726,4.626348,1.533049,-1.984696,0.2288254,1.292938,0.406765,-0.8706332,1.453796,19.77,100,-0.1154888,0.1091511,0.2539515,-0.2033308,-4.039752,0.4180652,0.4338381,1.454068,0.3282907,0.02522054,0.2210786,0.2546597,-0.6862327,0.881402,-0.2558214,0.6097928,1.524342,0.227088,-0.121377,1.344043,0.329438,280.022,4.709457,251.0172,True
2,1.533336,-0.3656394,-0.1996907,-0.1019676,4.631478,1.533961,-1.98023,0.2270381,1.293776,0.4063904,-0.8550292,1.403878,20.65,100,-0.115419,0.1293354,0.2626027,-0.1995709,-4.036883,0.4165013,0.4324147,1.453718,0.3275063,0.02638051,0.2200226,0.2653103,-0.6835195,0.886533,-0.2600833,0.6080177,1.523972,0.2266514,-0.1244531,1.340771,0.3289654,279.9244,0.5211824,255.2074,True
2,1.544447,-0.3696826,-0.2646933,-0.1037525,4.636453,1.534741,-1.975875,0.2252444,1.29452,0.4059076,-0.8389096,1.451556,21.48,100,-0.1207784,0.1219068,0.259389,-0.1966505,-4.037053,0.4183211,0.4310723,1.45329,0.3266871,0.03496522,0.205131,0.2695028,-0.6809292,0.8907753,-0.2640657,0.6065225,1.523557,0.2261021,-0.1274571,1.337605,0.3285587,279.8386,356.5259,259.2658,True
2,1.555558,-0.3672895,-0.3468249,-0.1246272,4.643554,1.535407,-1.971772,0.2234928,1.295393,0.4055686,-0.8232683,1.407367,22.25,100,-0.1219746,0.08153696,0.242095,-0.1948678,-4.043673,0.4261627,0.4298517,1.453041,0.3258438,0.03695521,0.1795549,0.2503174,-0.6792014,0.8934435,-0.2666639,0.6050884,1.523355,0.2255406,-0.1303624,1.334556,0.3281288,279.7428,352.5757,263.3437,True
2,1.566669,-0.3970987,-0.3456892,-0.09372306,4.646806,1.536557,-1.966332,0.2219483,1.296139,0.4055321,-0.8078902,1.383878,23.13,100,-0.1167229,0.0805502,0.2313916,-0.1924651,-4.043399,0.4270195,0.4287052,1.452824,0.3250313,0.02824581,0.1656754,0.2290967,-0.6778017,0.8962494,-0.2688136,0.6037694,1.52318,0.2249918,-0.1331656,1.331613,0.3275141,279.5964,348.855,267.2577,True
2,1.577781,-0.4416846,-0.382935,-0.05727012,4.651604,1.539188,-1.959715,0.2203239,1.297009,0.4052813,-0.7928502,1.353299,23.96,100,-0.117679,0.09855394,0.2453597,-0.1889875,-4.043015,0.4279101,0.4275458,1.452675,0.3243773,0.02599354,0.1550091,0.2152759,-0.6762586,0.8994021,-0.2714398,0.602555,1.522876,0.2246006,-0.1358705,1.328737,0.3266361,279.4268,345.2473,270.9769,True
2,1.588892,-0.4372314,-0.4426094,-0.06441605,4.658161,1.540861,-1.95482,0.218831,1.297885,0.4048321,-0.7764819,1.475169,24.73,100,-0.1185993,0.1144179,0.2656954,-0.1849677,-4.041212,0.4275902,0.4264134,1.452567,0.3236265,0.02378273,0.1326215,0.2035944,-0.6745585,0.9013762,-0.2731471,0.6014693,1.522577,0.2240598,-0.1384348,1.325862,0.3255318,279.2327,341.2268,274.8957,True
2,1.600003,-0.429662,-0.4756013,-0.06318368,4.664299,1.542631,-1.950213,0.2173055,1.298886,0.404563,-0.7621445,1.29097,25.46,100,-0.1251436,0.1070803,0.2443818,-0.183055,-4.042062,0.4299428,0.4253453,1.45263,0.3227122,0.02793191,0.1187754,0.1897079,-0.673286,0.9035198,-0.2752364,0.6002827,1.522329,0.2235634,-0.140827,1.323151,0.3243305,279.3152,336.3539,279.549,False
2,1.611114,-0.419915,-0.5224158,-0.0576158,4.671173,1.544841,-1.945882,0.2159278,1.299769,0.4038615,-0.7524778,0.8668662,26.22,98.33,-0.1218923,0.08998045,0.252772,-0.1801554,-4.047128,0.4361467,0.4244016,1.452635,0.3220282,0.01928833,0.101716,0.173825,-0.6720726,0.9051746,-0.276504,0.5991552,1.522094,0.2230721,-0.1430736,1.320899,0.3229824,279.4501,331.1776,284.6451,False
2,1.622225,-0.4006209,-0.5575044,-0.05744608,4.678119,1.546945,-1.941989,0.2146082,1.300866,0.4035094,-0.7432904,0.8276515,26.93,96.65,-0.1087982,0.07386701,0.281372,-0.1764776,-4.052866,0.4425907,0.4234793,1.452552,0.321048,0.01403762,0.09638386,0.1781427,-0.6705509,0.9077567,-0.278483,0.5981256,1.521824,0.2225416,-0.1450792,1.319247,0.3214913,279.3905,326.5818,289.1598,False
2,1.633336,-0.3622331,-0.5691341,-0.06593864,4.684606,1.548375,-1.939211,0.2132912,1.301822,0.4028659,-0.7352205,0.7260569,27.6,95.08,-0.1046304,0.05781689,0.2822898,-0.173302,-4.062671,0.4530213,0.4226199,1.452656,0.3202908,0.009892806,0.08787207,0.1930926,-0.6680199,0.9098867,-0.2800761,0.5971482,1.521707,0.2220104,-0.1468481,1.318261,0.3199366,279.2487,323.0764,292.5149,False
2,1.644447,-0.3292408,-0.5583459,-0.06069316,4.690137,1.550007,-1.936542,0.2120751,1.302823,0.4024746,-0.7284102,0.612476,28.23,93.61,-0.1102284,0.03248747,0.245949,-0.1721068,-4.069112,0.4608576,0.4219784,1.452529,0.3195164,-0.01145025,0.07079627,0.1869113,-0.6662952,0.9111806,-0.2802604,0.5963424,1.521447,0.221597,-0.148339,1.317891,0.3183088,279.0147,320.6724,294.7725,False
2,1.655559,-0.2931799,-0.5058882,-0.03543179,4.693545,1.551825,-1.934503,0.2110077,1.303637,0.402106,-0.7232288,0.4651229,28.82,92.23,-0.1190511,0.04021993,0.2002718,-0.1711528,-4.06856,0.461619,0.4211644,1.452731,0.3188353,-0.04057633,0.03877401,0.1435077,-0.6662505,0.9101927,-0.2780423,0.59562,1.521371,0.2209435,-0.1496298,1.318069,0.3166729,278.6893,318.8501,296.3868,False
2,1.66667,-0.2773296,-0.4653124,-0.02819797,4.696987,1.553111,-1.931866,0.209957,1.304432,0.4018371,-0.7179446,0.476173,29.57,90.46,-0.1339568,0.07859192,0.198492,-0.1681786,-4.062333,0.4572922,0.4201768,1.452685,0.3180912,-0.04934993,0.01956291,0.1137732,-0.6658803,0.9095392,-0.2767291,0.5948821,1.521195,0.2203865,-0.1507917,1.318616,0.3151059,278.2919,317.8778,297.126,False
2,1.677781,-0.2541258,-0.401343,-0.03495046,4.699285,1.55327,-1.929864,0.2089678,1.305039,0.4014096,-0.7137676,0.3751045,30.27,88.81,-0.1435185,0.1020156,0.1987296,-0.1651842,-4.059736,0.4563808,0.4192808,1.452797,0.3172479,-0.04941708,0.001446016,0.1041971,-0.6648288,0.9090508,-0.2757786,0.5941948,1.520991,0.2198296,-0.1518271,1.319359,0.3137003,277.9496,317.4545,297.2907,False
2,1.688892,-0.2329779,-0.3522987,-0.03948187,4.701584,1.553492,-1.927969,0.2079904,1.305597,0.4009218,-0.7090533,0.4255553,30.92,87.27,-0.1415157,0.1234404,0.1828664,-0.1629008,-4.051347,0.4499099,0.4186021,1.452806,0.31636,-0.04824089,0.004646458,0.1159012,-0.6632534,0.9099658,-0.2761189,0.5935245,1.520849,0.2192707,-0.1527383,1.320127,0.3125022,277.6944,317.6824,296.851,False
2,1.700003,-0.2106828,-0.3287582,-0.03429776,4.704288,1.5543,-1.926374,0.2069614,1.3061,0.4004266,-0.7060077,0.2728443,31.53,85.83,-0.1287481,0.1500905,0.1776339,-0.1601071,-4.042861,0.4423356,0.4177103,1.452874,0.3155687,-0.05874859,0.02062228,0.1340996,-0.6614259,0.9121848,-0.2768204,0.5928513,1.520684,0.2188034,-0.1536561,1.320834,0.3115517,277.49,317.6646,296.7182,False
2,1.711114,-0.1852048,-0.3042035,-0.0408401,4.706951,1.554587,-1.92516,0.2059905,1.306553,0.3998919,-0.7030814,0.2636174,32.51,84.22,-0.1236511,0.1801272,0.1458241,-0.1583942,-4.027135,0.4281143,0.4169503,1.45278,0.3146424,-0.07155267,0.02698995,0.1331472,-0.6602061,0.9134873,-0.2765917,0.5921302,1.520642,0.2182567,-0.1546271,1.321407,0.3108974,277.3213,317.6468,296.6678,False
2,1.722225,-0.1575744,-0.2870745,-0.04306703,4.7098,1.555058,-1.924188,0.2050083,1.306999,0.3993709,-0.7006942,0.2144891,33.43,82.72,-0.1290542,0.18446,0.1331234,-0.1564085,-4.018497,0.4209976,0.4160507,1.452749,0.313849,-0.08856475,0.03869542,0.138623,-0.6588809,0.9155968,-0.2766763,0.5914717,1.520507,0.2178767,-0.1556581,1.321793,0.3105026,277.1999,317.5346,296.8364,False
2,1.733337,-0.1480465,-0.2689551,-0.04744845,4.71234,1.55529,-1.922884,0.2041107,1.307166,0.3987386,-0.6987405,0.1755005,34.29,81.31,-0.1290807,0.1716866,0.1309104,-0.1545997,-4.014552,0.4186814,0.4153062,1.452748,0.3129864,-0.08104677,0.05042265,0.1470639,-0.6573379,0.9177575,-0.2777381,0.590826,1.520408,0.2174001,-0.1567309,1.321963,0.3102407,277.1077,317.1547,297.3811,False
2,1.744448,-0.1428268,-0.2391324,-0.04974799,-1.568856,1.555277,-1.921339,0.203152,1.307342,0.3976943,-0.6969482,0.1612394,35.09,79.99,-0.133492,0.1313305,0.1115063,-0.1540772,-4.015818,0.4215541,0.4143974,1.452634,0.3122363,-0.08753254,0.06000039,0.1375274,-0.6565188,0.9198849,-0.2783579,0.5902042,1.520249,0.2169561,-0.1578113,1.321914,0.3100075,277.0471,316.3687,298.3511,False
2,1.755559,-0.1280855,-0.1879429,-0.04896518,-1.568364,1.554916,-1.920438,0.2022911,1.307327,0.3971646,-0.694831,0.1911881,35.84,78.75,-0.1336615,0.1027119,0.08895132,-0.1538109,-4.015742,0.4229523,0.413509,1.45253,0.3114591,-0.09507851,0.06637469,0.1290724,-0.6556734,0.9218376,-0.2785999,0.5894786,1.520045,0.2165093,-0.1588705,1.321663,0.3097156,277.0064,315.3008,299.5828,False
2,1.76667,-0.09947728,-0.1387961,-0.03647955,-1.567916,1.554901,-1.920218,0.2013518,1.307201,0.3956351,-0.6930131,0.1637263,36.86,77.74,-0.1307438,0.08697812,0.04942125,-0.1541832,-4.011786,0.4202338,0.4125738,1.45256,0.3105998,-0.1100837,0.07912244,0.1217414,-0.6550013,0.9240634,-0.2785597,0.5888878,1.519907,0.2160218,-0.1599089,1.321257,0.309288,277.0168,314.211,300.8405,False
2,1.777781,-0.08361476,-0.1013892,-0.02390653,-1.568102,1.554992,-1.919821,0.2004454,1.307162,0.3950834,-0.6923169,0.06155669,37.82,76.8,-0.1274774,0.1039658,0.05697891,-0.1524649,-4.004352,0.4140108,0.4116789,1.452493,0.3097773,-0.1207305,0.09083684,0.1239619,-0.6540207,0.92717,-0.2793009,0.5882908,1.519783,0.2155521,-0.1609723,1.320812,0.3086605,277.0931,312.9191,302.2405,False
2,1.788892,-0.05397655,-0.041524,-0.00294554,-1.569624,1.555105,-1.920147,0.1996132,1.306825,0.3940835,-0.6918951,0.0374678,38.72,75.92,-0.1318018,0.1285293,0.04970132,-0.15116,-3.990151,0.4018534,0.4110009,1.452334,0.3088489,-0.1207416,0.09402362,0.1239609,-0.6529629,0.9294097,-0.279695,0.5878408,1.51973,0.215117,-0.1619945,1.320386,0.3078827,277.1927,312.1973,303.0041,False
2,1.800003,-0.03383961,-0.00837542,0.007516092,4.712357,1.555156,-1.920519,0.1987843,1.306599,0.3934805,-0.6907191,0.1065474,39.56,75.09,-0.1320004,0.1532166,0.0200427,-0.1509096,-3.973301,0.3865554,0.41013,1.452338,0.3082051,-0.117614,0.09295738,0.1164743,-0.6522657,0.931412,-0.2801289,0.5872763,1.51963,0.214721,-0.1629853,1.319978,0.3068672,277.2559,312.0107,303.2541,False
2,1.811115,0.006533897,0.02487921,0.02647858,4.710916,1.555558,-1.92175,0.1981834,1.306185,0.3923252,-0.6904469,0.0233807,40.35,74.32,-0.1278268,0.1692778,0.009450041,-0.1503253,-3.956386,0.3713586,0.4093317,1.452299,0.3075347,-0.101799,0.07805051,0.09609725,-0.6520111,0.9321315,-0.2801574,0.5868284,1.519545,0.2142344,-0.1639061,1.319597,0.3057157,277.317,311.6969,303.4476,False
2,1.822226,0.03209656,0.02281545,0.02327302,4.710861,1.555642,-1.92277,0.1975854,1.306073,0.3917308,-0.6896916,0.0684064,41.53,72.87,-0.1203598,0.1543486,0.01037526,-0.149626,-3.950527,0.3664978,0.4085672,1.452236,0.3068783,-0.09226669,0.0535502,0.08643346,-0.6513096,0.9319924,-0.2793502,0.5863096,1.519432,0.2139101,-0.1647275,1.319204,0.3044958,277.3766,311.9594,303.0192,False
2,1.833337,0.06514056,0.01652434,0.02114823,4.710857,1.55582,-1.924641,0.1970095,1.305717,0.3908885,-0.6897321,-0.004825648,42.63,71.51,-0.1130667,0.1065376,-0.009171635,-0.150606,-3.951238,0.368374,0.4077845,1.452153,0.3061957,-0.07539362,0.01307817,0.06179784,-0.6511195,0.9299266,-0.2774271,0.5857884,1.519346,0.2133996,-0.1654487,1.318764,0.3033044,277.4312,312.2523,302.5735,False
2,1.844448,0.09819485,0.007034635,0.01797209,4.711031,1.555923,-1.926807,0.1964629,1.305431,0.3903577,-0.6888522,0.08005181,43.67,70.23,-0.12084,0.05461185,-0.04993869,-0.1529501,-3.952534,0.3714814,0.407129,1.451894,0.3054781,-0.06692829,-0.01354421,0.05214645,-0.6506017,0.9286091,-0.2757972,0.5852758,1.51924,0.2127981,-0.1659933,1.318194,0.3021283,277.4622,312.6005,302.1573,False
2,1.855559,0.1226893,0.009247739,0.01794035,4.710795,1.556036,-1.929008,0.1958673,1.304887,0.3895841,-0.6889667,-0.01157701,44.64,69.04,-0.1209551,0.05258609,-0.06698515,-0.1538087,-3.946675,0.3669258,0.4063779,1.45168,0.3048689,-0.05514093,-0.01352304,0.0594938,-0.6496691,0.928772,-0.2757075,0.5846847,1.51913,0.2122633,-0.1664724,1.317484,0.3010398,277.4695,312.1147,302.5339,False
2,1.86667,0.1312252,0.002874604,0.01477465,4.710792,1.556162,-1.93061,0.1952796,1.304353,0.3889337,-0.6886796,0.02597934,45.63,67.64,-0.1093608,0.05269739,-0.08305462,-0.1549363,-3.93809,0.3593976,0.4056752,1.45143,0.3041177,-0.03899511,-0.009216577,0.07851017,-0.6482992,0.929951,-0.2766708,0.5840359,1.51896,0.2118399,-0.1669257,1.316582,0.3000765,277.4588,311.6489,302.9031,False
2,1.877781,0.1397043,0.01351114,0.006189499,4.710394,1.55574,-1.932494,0.1946489,1.303652,0.3882551,-0.6881092,0.05150412,46.56,66.32,-0.1031546,0.08056894,-0.1106105,-0.1562626,-3.922359,0.3447164,0.4047702,1.451151,0.3035126,-0.03447957,0.0003997311,0.1072267,-0.6463055,0.9315009,-0.2776585,0.5832825,1.518791,0.2113698,-0.1674106,1.315445,0.2992885,277.4844,311.2415,303.2355,False
2,1.888893,0.1535219,0.02098448,0.0008166288,4.709983,1.55547,-1.934621,0.1940393,1.30289,0.3877149,-0.6869539,0.1048285,47.43,65.09,-0.09034766,0.09334194,-0.1074343,-0.1568261,-3.909817,0.3330059,0.4039478,1.450929,0.3027401,-0.04071469,0.00785885,0.1253871,-0.644567,0.9328979,-0.2780646,0.5826434,1.518621,0.2108855,-0.167985,1.314044,0.2986471,277.571,310.9925,303.5044,False
2,1.900004,0.1652353,0.02423289,0.003980568,4.709668,1.555492,-1.936878,0.1933218,1.301989,0.3867211,-0.6867152,0.02067085,48.24,63.93,-0.07774773,0.08817423,-0.1331239,-0.158743,-3.90063,0.3243254,0.4029306,1.450457,0.3019233,-0.05973037,0.006791532,0.1447497,-0.6423518,0.9343479,-0.2775994,0.5820593,1.51824,0.2104466,-0.1686691,1.312428,0.2981177,277.7333,310.254,304.3041,False
2,1.911115,0.1769228,0.03278375,0.001794857,4.709052,1.5552,-1.939244,0.1926043,1.301133,0.3861263,-0.6866024,0.01002799,49,62.85,-0.07567132,0.09994046,-0.1405255,-0.1601401,-3.888045,0.3127883,0.401826,1.450075,0.3012195,-0.06914078,0.03022945,0.1671987,-0.6401243,0.9373572,-0.27896,0.5812033,1.517935,0.2100067,-0.1694355,1.310654,0.2976938,277.9256,309.3257,305.2896,False
2,1.922226,0.1918505,0.02853947,-0.003520759,4.709043,1.554955,-1.941884,0.1918785,1.300261,0.3855016,-0.686401,0.01809107,49.79,61.3,-0.07660644,0.1222002,-0.1233249,-0.1601226,-3.874324,0.300134,0.4009704,1.449641,0.3006551,-0.07544181,0.06113979,0.1810794,-0.6384311,0.9413373,-0.281167,0.5802702,1.517777,0.2094295,-0.1702248,1.30876,0.2973468,278.1288,308.6131,306.1125,False
2,1.933337,0.2036099,0.01796112,0.002916871,4.709073,1.555214,-1.944528,0.1911896,1.299297,0.3849313,-0.686189,0.01903719,50.53,59.84,-0.07652888,0.1530328,-0.1145953,-0.1602456,-3.857133,0.2839036,0.3999762,1.449194,0.3000951,-0.07320389,0.06967321,0.1938371,-0.6362206,0.9442766,-0.2827766,0.5794605,1.517498,0.2089937,-0.1710484,1.306777,0.2969559,278.3311,308.1134,306.7869,False
2,1.944448,0.2089492,0.01372672,0.006133457,4.709068,1.555466,-1.946931,0.1905251,1.29838,0.3842511,-0.686164,0.00194291,51.22,58.48,-0.06917801,0.1595229,-0.1295314,-0.16164,-3.841308,0.2688325,0.3989391,1.448606,0.2995231,-0.07322274,0.07181096,0.1927644,-0.634554,0.946658,-0.2838232,0.5785221,1.517305,0.2086699,-0.1718789,1.304745,0.2965089,278.5352,307.3938,307.5868,False
2,1.955559,0.2089492,0.01372672,0.006133457,4.709068,1.555466,-1.946931,0.1905251,1.29838,0.3842511,-0.6859062,0.02334188,51.87,57.2,-0.06917801,0.1595229,-0.1295314,-0.16164,-3.841308,0.2688325,0.3989391,1.448606,0.2995231,-0.07322274,0.07181096,0.1927644,-0.634554,0.946658,-0.2838232,0.5785221,1.517305,0.2086699,-0.1726713,1.302678,0.2960061,278.7007,306.559,308.4494,False
2,1.966671,0.2313576,0.002094933,0.008304073,4.70927,1.555776,-1.952614,0.1892044,1.296355,0.382643,-0.6830785,0.2582367,53.13,56.55,-0.05440821,0.1287551,-0.1500629,-0.1648891,-3.823997,0.2523883,0.3970829,1.447501,0.2984173,-0.05757535,0.08033921,0.158511,-0.6328619,0.9511549,-0.2866563,0.5767327,1.51673,0.2080092,-0.1732694,1.300612,0.2954636,278.9533,305.2645,309.6858,False
2,1.977782,0.2335053,-0.003230897,0.007265609,4.709455,1.555894,-1.955264,0.1885673,1.295334,0.381979,-0.6879648,-0.4490873,54.31,55.94,-0.06827965,0.09150282,-0.1533905,-0.1665392,-3.822305,0.2517617,0.3959568,1.446847,0.2980385,-0.05343318,0.09206219,0.1478161,-0.6320182,0.9541701,-0.2885735,0.5758003,1.516437,0.2077353,-0.1737362,1.298821,0.2949413,279.2586,303.678,311.2634,False
2,1.988893,0.2281828,-0.005427415,-0.001248943,4.709775,1.555559,-1.957611,0.1878649,1.294114,0.3807836,-0.6857011,0.2109088,55.41,55.37,-0.08097702,0.09569187,-0.1415531,-0.1673712,-3.813536,0.2444449,0.3949644,1.446283,0.2975419,-0.03324446,0.1091287,0.1444197,-0.6311079,0.9577416,-0.2918308,0.5748197,1.516029,0.207567,-0.1744497,1.297005,0.2942597,279.0852,304.7673,310.3817,False
2,2.000004,0.223948,-0.01613637,-0.008642432,4.710382,1.555498,-1.959913,0.187257,1.293065,0.3800712,-0.6850204,0.05981527,56.44,54.84,-0.08838548,0.1105683,-0.134995,-0.1679443,-3.801366,0.2336687,0.3940898,1.445659,0.296988,-0.01613159,0.1272824,0.1548957,-0.6297827,0.9622183,-0.2957049,0.5738577,1.515767,0.2071562,-0.1751694,1.294999,0.2933617,279.067,305.3779,309.8573,False
2,2.011115,0.2260966,-0.02145635,-0.008616102,4.710814,1.555561,-1.962453,0.1866667,1.292079,0.379488,-0.6845394,0.04356929,57.4,54.35,-0.07995194,0.1223663,-0.1477642,-0.1695432,-3.788426,0.2215039,0.393176,1.445023,0.2964988,-0.00866577,0.1209012,0.1548302,-0.6284991,0.9648865,-0.2980272,0.5729055,1.515488,0.2068601,-0.1758773,1.292818,0.2923017,279.1724,304.8278,310.361,False
2,2.022226,0.2271863,-0.02780787,-0.002194047,4.711164,1.555892,-1.964973,0.1861184,1.290968,0.3788342,-0.684369,0.01520765,58.79,54.72,-0.07683714,0.1224338,-0.158425,-0.171155,-3.778399,0.2123844,0.3924147,1.444275,0.2959969,-0.009748325,0.1155595,0.1516521,-0.6272682,0.9671928,-0.299767,0.5721297,1.515189,0.2065983,-0.1765932,1.290514,0.2911288,279.3432,303.6502,311.4553,False
2,2.033337,0.2271969,-0.0288288,0.006334333,4.711349,1.556349,-1.967498,0.1855043,1.28991,0.3782663,-0.6845347,-0.01528887,60.09,55.07,-0.07894228,0.1298707,-0.1551659,-0.1723864,-3.766799,0.201903,0.3914655,1.443642,0.2955487,-0.0001939088,0.1177017,0.1483656,-0.6262152,0.970167,-0.3024818,0.5712022,1.514897,0.2063181,-0.1772408,1.288177,0.2899684,279.5629,302.0214,312.9025,False
2,2.044448,0.2229144,-0.0203056,0.01055283,4.711288,1.556578,-1.969853,0.1848185,1.288663,0.3773329,-0.6844777,0.00531061,61.31,55.4,-0.06929378,0.1298147,-0.1467019,-0.1732136,-3.757109,0.1928001,0.3905195,1.442918,0.2951944,0.02439579,0.1241497,0.1598411,-0.624801,0.9741343,-0.3066105,0.570236,1.514673,0.2059562,-0.177806,1.285886,0.2889237,279.7781,300.6343,314.1146,False
2,2.055559,0.2175618,-0.01287267,0.009453,4.711163,1.556584,-1.972093,0.184269,1.287613,0.3767996,-0.6844148,0.00565396,62.45,55.71,-0.05980389,0.1085857,-0.15969,-0.1752317,-3.752368,0.1884684,0.3896602,1.442222,0.2947211,0.04265456,0.124188,0.1756501,-0.6228798,0.9777193,-0.3106053,0.5693498,1.514405,0.2056832,-0.1783072,1.283667,0.2880222,279.9566,299.7668,314.8927,False
2,2.06667,0.2165423,-0.02563555,0.01378645,4.711707,1.557172,-1.974462,0.1837538,1.286647,0.3766983,-0.6841916,0.02034527,63.14,56.4,-0.05887939,0.09166104,-0.1768454,-0.1775775,-3.74642,0.1834444,0.3888315,1.441673,0.2942333,0.0416349,0.1220719,0.1799018,-0.6215312,0.9809697,-0.3136322,0.5684273,1.514175,0.2053115,-0.1788404,1.281543,0.2872441,280.0976,299.3657,315.308,False
2,2.077781,0.2197788,-0.03516094,0.02342174,4.712127,1.558024,-1.977028,0.1833021,1.28565,0.3762186,-0.6840255,0.01497847,63.79,57.05,-0.04817389,0.08841375,-0.170543,-0.1789815,-3.740648,0.1777996,0.3880781,1.441194,0.2939317,0.0394848,0.1220742,0.1777911,-0.6202087,0.9843369,-0.3166717,0.5676786,1.513964,0.2049553,-0.1794389,1.279498,0.2865268,280.2195,299.2032,315.5372,False
2,2.088892,0.2230152,-0.04576596,0.02986862,-1.570548,1.558868,-1.979594,0.1828652,1.284565,0.3755863,-0.6841277,-0.009434774,64.4,57.66,-0.03743728,0.08302079,-0.1589377,-0.1800952,-3.734338,0.1716461,0.3873396,1.440709,0.2933812,0.03623608,0.09864069,0.1693027,-0.6189916,0.985842,-0.3180981,0.5669984,1.513657,0.2045612,-0.1799936,1.277541,0.2859085,280.3573,298.6754,316.0159,False
2,2.100003,0.2188132,-0.06282138,0.02995729,-1.569554,1.559576,-1.981882,0.1823802,1.28375,0.3753951,-0.684319,-0.01741479,64.97,58.23,-0.03849936,0.1021908,-0.1577365,-0.1814103,-3.72267,0.1607812,0.3865441,1.440026,0.2929261,0.03946634,0.06883484,0.1682062,-0.6174811,0.9866629,-0.3193207,0.5661785,1.513565,0.2041883,-0.1804359,1.275673,0.2854306,280.4723,298.018,316.6001,False
2,2.111114,0.2167102,-0.07244564,0.02468285,-1.568559,1.560127,-1.98427,0.1819725,1.282833,0.3748934,-0.6843051,0.001368115,65.5,58.76,-0.04381865,0.1256282,-0.1575469,-0.1828159,-3.709264,0.1482734,0.3858267,1.439496,0.292484,0.03523113,0.06456932,0.1703795,-0.6157804,0.988693,-0.3212449,0.5655055,1.513382,0.2038465,-0.1807642,1.273863,0.2850105,280.548,297.794,316.8988,False
2,2.122225,0.2188543,-0.0788973,0.01193018,-1.567461,1.560252,-1.986822,0.1815615,1.282023,0.3744156,-0.6839957,0.02825417,65.19,59.18,-0.04590735,0.1437113,-0.1542051,-0.1839136,-3.697006,0.1365879,0.3851451,1.438941,0.2921562,0.03103481,0.06671448,0.1778588,-0.6141835,0.9915134,-0.323712,0.5647368,1.513198,0.20347,-0.1810423,1.272066,0.2845483,280.6017,297.6405,317.1535,False
2,2.133336,0.2242147,-0.08954769,0.008785263,-1.566251,1.560815,-1.989492,0.18121,1.281268,0.3739462,-0.6840489,-0.005083391,64.9,59.57,-0.04920596,0.1352775,-0.1680858,-0.1861092,-3.688884,0.1292653,0.38449,1.438423,0.2917552,0.0310245,0.07417154,0.1778533,-0.6126517,0.9944248,-0.3264423,0.5640788,1.513026,0.203192,-0.1813481,1.270291,0.2840453,280.6783,297.0973,317.7067,False
2,2.144447,0.2253141,-0.1002113,0.005647756,-1.564981,1.561434,-1.992078,0.1808902,1.280553,0.3736167,-0.6842129,-0.01498282,64.63,59.94,-0.04810736,0.1277857,-0.1617405,-0.1873965,-3.681115,0.1222804,0.3838848,1.438036,0.2912898,0.02452874,0.08800203,0.1715401,-0.6112104,0.9980172,-0.3291681,0.5637228,1.512399,0.2033248,-0.1816716,1.268527,0.2834925,280.7571,296.4968,318.3057,False
2,2.155558,0.2243176,-0.122626,-0.001691766,-1.56293,1.562062,-1.994572,0.1805694,1.279886,0.3731384,-0.6843216,-0.009850372,64.38,60.29,-0.05023432,0.09901282,-0.1608403,-0.1890408,-3.679543,0.121332,0.3832864,1.437584,0.2909427,0.02237435,0.09653133,0.1694227,-0.6099582,1.001546,-0.3323407,0.5630037,1.512281,0.2032163,-0.1820026,1.266768,0.2829138,280.846,295.8359,318.9454,False
2,2.166669,0.224349,-0.1322575,-0.01017237,-1.561182,1.562327,-1.997191,0.1801806,1.279172,0.3725355,-0.6842151,0.009810929,64.14,60.61,-0.05665097,0.04789557,-0.1632596,-0.1911532,-3.683577,0.1260256,0.3827404,1.437025,0.2906179,0.01049492,0.09330221,0.1514266,-0.6091438,1.003614,-0.3337985,0.5624851,1.512103,0.2030425,-0.1822747,1.264999,0.2823107,280.9433,295.1384,319.6136,False
2,2.17778,0.2233059,-0.1429414,-0.01227092,-1.559373,1.562844,-1.999676,0.1798302,1.27847,0.3720851,-0.684083,0.01197029,63.31,60.62,-0.06304859,0.04577151,-0.16429,-0.1929252,-3.679996,0.123384,0.382115,1.436527,0.2901702,-0.0003124624,0.09007679,0.1344857,-0.608511,1.00557,-0.3350265,0.561973,1.511878,0.2028146,-0.1824885,1.26322,0.2816909,281.0439,294.3651,320.3549,False
2,2.188891,0.2190757,-0.1461619,-0.01966368,-1.557498,1.563322,-2.00204,0.1794717,1.277649,0.3712907,-0.6841784,-0.008794108,62.54,60.62,-0.07154018,0.06278191,-0.1577148,-0.1941189,-3.671987,0.1168997,0.3815328,1.436102,0.2896235,-0.02293865,0.09321852,0.1070004,-0.608528,1.007601,-0.3358334,0.5613084,1.511822,0.2027342,-0.1827027,1.261436,0.2810403,281.1294,293.4805,321.2384,False
2,2.200002,0.2180052,-0.1451169,-0.02179806,-1.555938,1.563761,-2.004458,0.1792216,1.276957,0.370928,-0.6840393,0.01280236,61.81,60.62,-0.07364175,0.09044655,-0.152185,-0.195272,-3.661138,0.1073289,0.3810075,1.435613,0.2891576,-0.02949686,0.09639147,0.09110248,-0.6080508,1.010007,-0.337125,0.5611255,1.511444,0.2025251,-0.1829653,1.259647,0.2803656,281.2099,292.6545,322.0532,False
2,2.211113,0.212654,-0.1387469,-0.02183317,-1.554636,1.564088,-2.006641,0.1789483,1.276291,0.370507,-0.6838955,0.01300164,61.13,60.62,-0.07248043,0.1287206,-0.1402276,-0.196145,-3.646467,0.0937177,0.3804702,1.435222,0.2887111,-0.03496645,0.09957021,0.07623653,-0.6081147,1.01217,-0.3383054,0.560689,1.511248,0.2023828,-0.1832424,1.257844,0.2796747,281.2932,291.9293,322.7753,False
2,2.222224,0.2040676,-0.1185088,-0.01660347,-1.554068,1.564434,-2.008656,0.1786949,1.27554,0.369765,-0.6839424,-0.004364255,60.29,60.3,-0.06713165,0.1393516,-0.1338072,-0.1972593,-3.63513,0.08355481,0.3800697,1.434753,0.2880106,-0.03716867,0.1059512,0.06665926,-0.608176,1.014627,-0.3402321,0.5600541,1.511285,0.2020741,-0.1835058,1.256018,0.2789377,281.3873,291.2079,323.5,False
2,2.233335,0.1943976,-0.09403004,-0.01459622,-1.553791,1.564455,-2.01053,0.1784316,1.274856,0.3693702,-0.6837293,0.01952049,59.5,60,-0.0595406,0.1243123,-0.1147828,-0.197883,-3.630368,0.07931932,0.3796146,1.434338,0.2876256,-0.03611389,0.1134098,0.06664442,-0.6079837,1.017577,-0.3422841,0.5596125,1.511114,0.2019143,-0.1836959,1.254198,0.2782146,281.5272,290.3621,324.26,False
2,2.244446,0.1815705,-0.08130043,-0.01571046,-1.553163,1.564622,-2.012161,0.1781391,1.274018,0.3687923,-0.6835685,0.01455344,58.77,59.72,-0.05734453,0.08805144,-0.1065128,-0.1988822,-3.629712,0.07906392,0.3791597,1.433909,0.2872701,-0.02857523,0.1155467,0.07510629,-0.6071698,1.020311,-0.3445542,0.5590475,1.511052,0.2017717,-0.1838687,1.252433,0.2775391,281.6998,289.689,324.8795,False
2,2.255557,0.1676351,-0.05578005,-0.0158333,-1.553313,1.564373,-2.013552,0.1779669,1.273332,0.3684199,-0.6834705,0.008908881,58.08,59.46,-0.05951969,0.06357015,-0.1109248,-0.2004114,-3.62995,0.08014437,0.3787223,1.433687,0.287375,-0.02747127,0.114482,0.07936275,-0.6065328,1.022943,-0.3464296,0.5586207,1.510926,0.2016129,-0.1840511,1.250765,0.2768873,281.8782,289.2863,325.2841,False
2,2.266668,0.1590316,-0.03236254,-0.01275221,-1.553548,1.564278,-2.015013,0.1778321,1.272722,0.3678887,-0.6832819,0.01719118,57.43,59.22,-0.05422515,0.04760031,-0.1121179,-0.2015129,-3.629034,0.07990948,0.3782335,1.433293,0.286983,-0.02638131,0.1048878,0.07935991,-0.6059842,1.024738,-0.3477793,0.5582731,1.510796,0.2014673,-0.1842631,1.249222,0.2762927,282.0176,288.9427,325.6045,False
2,2.277779,0.15257,-0.01106165,-0.009663276,-1.55412,1.564011,-2.016486,0.1776372,1.272114,0.3675172,-0.6831179,0.01495894,56.7,58.73,-0.0489144,0.05506647,-0.1142422,-0.2028455,-3.624248,0.07561753,0.3778261,1.43305,0.2868624,-0.02738862,0.09849979,0.08470121,-0.6052252,1.026927,-0.3492299,0.557881,1.510628,0.2012763,-0.184491,1.247798,0.2757556,282.1111,288.6551,325.872,False
2,2.28889,0.1397058,0.01233822,-0.008708751,-1.55491,1.563612,-2.017609,0.17744,1.271653,0.3674703,-0.6832681,-0.01378953,56.03,58.28,-0.05519703,0.04964077,-0.09609789,-0.202886,-3.620874,0.07340178,0.377481,1.432764,0.2862322,-0.02312542,0.08252548,0.08146857,-0.6046707,1.027944,-0.350085,0.5575284,1.510599,0.2010453,-0.1846752,1.246528,0.2753173,282.2384,288.4942,326.0054,False
2,2.300001,0.1279976,0.006915194,-0.0193309,-1.554424,1.563094,-2.018679,0.1771692,1.27115,0.3670316,-0.6833948,-0.01136711,55.4,57.85,-0.06045729,0.04746058,-0.08861908,-0.2036679,-3.618738,0.071969,0.3770129,1.432229,0.2862239,-0.0221227,0.08571085,0.07507107,-0.6043532,1.029995,-0.3515916,0.5571172,1.510354,0.2009232,-0.1848131,1.24543,0.2749631,282.3541,288.4719,326.0456,False
2,2.311112,0.1120191,0.004686555,-0.02782686,-1.554134,1.562567,-2.019362,0.176919,1.27068,0.3667119,-0.6831456,0.02289936,54.81,57.46,-0.06038619,0.05272496,-0.07899743,-0.2041505,-3.614805,0.06878866,0.3765724,1.431877,0.285918,-0.01680001,0.09530667,0.07608061,-0.6039922,1.032783,-0.3538606,0.5567369,1.510213,0.2007723,-0.1849562,1.244498,0.2747093,282.4388,288.4976,325.999,False
2,2.322223,0.1045613,0.002474522,-0.03739024,-1.55378,1.562088,-2.020269,0.1765805,1.2702,0.3662062,-0.6831626,-0.001659886,54.01,56.65,-0.05927368,0.06014792,-0.0746989,-0.2048472,-3.61054,0.06499817,0.3761083,1.431521,0.2857885,-0.01783527,0.09957383,0.08250598,-0.6030025,1.03587,-0.3558614,0.5565663,1.509661,0.2006831,-0.1851541,1.243734,0.274598,282.4936,288.5451,325.9325,False
2,2.333334,0.1045613,0.002474522,-0.03739024,-1.55378,1.562088,-2.020269,0.1765805,1.2702,0.3662062,-0.6828942,0.02461246,53.26,55.9,-0.05927368,0.06014792,-0.0746989,-0.2048472,-3.61054,0.06499817,0.3761083,1.431521,0.2857885,-0.01783527,0.09957383,0.08250598,-0.6030025,1.03587,-0.3558614,0.5565663,1.509661,0.2006831,-0.185437,1.243087,0.2745879,282.463,288.5345,326.0204,False
2,2.344445,0.08118962,-0.01569304,-0.03302326,-1.552813,1.561752,-2.021483,0.1760272,1.269453,0.3655906,-0.6823189,0.05250878,52.56,55.19,-0.05806486,0.0738886,-0.05756936,-0.2056354,-3.600808,0.05657673,0.3754061,1.430914,0.2851627,-0.02864178,0.09423508,0.06664243,-0.6025551,1.040042,-0.3581249,0.5560663,1.509125,0.2004199,-0.1857001,1.242547,0.2746584,282.485,288.485,326.14,False
2,2.355556,0.07055663,-0.02104436,-0.0308559,-1.552318,1.561694,-2.021917,0.17572,1.269064,0.3653643,-0.6840265,-0.1564526,51.91,54.52,-0.05906752,0.07703171,-0.04901789,-0.2058235,-3.595946,0.05250049,0.3750456,1.430493,0.2847512,-0.02982444,0.09316276,0.05387,-0.6027634,1.041828,-0.3592285,0.5557585,1.508945,0.2003894,-0.1859453,1.242172,0.2747638,282.5166,288.5124,326.2386,False
2,2.366668,0.05567295,-0.03066079,-0.02759289,-1.55173,1.561815,-2.022017,0.175446,1.268667,0.365324,-0.6831722,0.07954711,51.3,53.91,-0.06541611,0.07807507,-0.04470441,-0.2061782,-3.591384,0.04883225,0.3747504,1.430249,0.2844172,-0.02671304,0.09315621,0.04425877,-0.6028353,1.043571,-0.360547,0.5551066,1.508994,0.2002418,-0.1863751,1.241781,0.274785,282.3163,288.8994,326.0533,False
2,2.377779,0.047168,-0.03602183,-0.02862329,-1.551044,1.561757,-2.022249,0.1751461,1.268313,0.3651326,-0.6830667,0.008839769,50.32,52.93,-0.06638108,0.07587404,-0.03299808,-0.2062256,-3.5873,0.04536828,0.374244,1.430019,0.2841303,-0.02462124,0.0931511,0.03891242,-0.6029349,1.045329,-0.3619561,0.5547286,1.508858,0.2002604,-0.1867502,1.241307,0.2746877,282.2249,289.0718,325.9732,False
2,2.38889,0.03544969,-0.03609295,-0.03501255,-1.550426,1.561282,-2.022343,0.1748243,1.268057,0.3649065,-0.6828505,0.01985432,49.4,52.01,-0.03972395,0.05879481,-0.02904004,-0.2063156,-3.586462,0.04413444,0.3738758,1.429712,0.2839115,-0.02359866,0.09528065,0.03464024,-0.6031144,1.047348,-0.3633974,0.5543921,1.508669,0.200151,-0.1870642,1.240758,0.2744863,282.223,288.9113,326.1092,False
2,2.400001,0.03118892,-0.03611631,-0.03714159,-1.549902,1.560976,-2.022616,0.1746288,1.267858,0.3649459,-0.6830885,-0.02182077,48.54,51.15,-0.03122739,0.03004743,-0.03248385,-0.2068877,-3.589502,0.04711425,0.3734838,1.429365,0.2835655,-0.02896197,0.09953443,0.03149349,-0.6033067,1.049662,-0.3647654,0.5540431,1.508435,0.1999674,-0.1873272,1.240172,0.2742318,282.2756,288.5396,326.402,False
2,2.411112,0.0226627,-0.03508551,-0.0382053,-1.549371,1.56075,-2.022573,0.1743113,1.267568,0.3648381,-0.6831093,-0.001624253,47.74,50.34,-0.03765567,-0.01254116,-0.03590882,-0.2075162,-3.597112,0.05517218,0.3730779,1.429079,0.2832453,-0.03104089,0.09100784,0.03471439,-0.6030856,1.051039,-0.3656451,0.5536995,1.508438,0.1998675,-0.1876045,1.239598,0.27396,282.3404,288.1287,326.7545,False
2,2.422223,0.01306772,-0.03298963,-0.03820834,-1.548903,1.560522,-2.022423,0.1739464,1.267308,0.3647218,-0.6833879,-0.02540084,46.34,49.18,-0.0439559,0.0001876727,-0.02513183,-0.2074459,-3.593909,0.05265096,0.3727499,1.428794,0.2828815,-0.03424001,0.09099855,0.03367594,-0.6031437,1.052793,-0.3667042,0.5534704,1.508194,0.1997235,-0.1879061,1.239088,0.2737297,282.4162,287.6846,327.1261,False
2,2.433334,0.007703701,-0.02345392,-0.04464619,-1.548631,1.559849,-2.022329,0.1736545,1.267074,0.3645821,-0.6831924,0.01814633,45.03,48.1,-0.04182233,0.03321749,-0.02599902,-0.2077026,-3.586725,0.04601836,0.3723805,1.428494,0.2825007,-0.03531136,0.09525824,0.03368336,-0.6032321,1.055017,-0.3681056,0.5531409,1.508047,0.1995354,-0.1881699,1.238663,0.2736081,282.4586,287.3345,327.3997,False
2,2.444445,0.007674474,-0.01601833,-0.04788667,-1.548313,1.559216,-2.022418,0.1732921,1.266574,0.3637433,-0.6831546,0.003336366,43.81,47.09,-0.03208023,0.09490806,-0.009685274,-0.2070997,-3.57061,0.02995444,0.3720071,1.428345,0.2819483,-0.03417209,0.09740454,0.04434836,-0.602595,1.057867,-0.369822,0.5530661,1.507556,0.1993492,-0.1884915,1.238333,0.2735919,282.4614,287.1983,327.5335,False
2,2.455556,0.003365853,-0.002189834,-0.04902139,-1.548456,1.558517,-2.022296,0.1730172,1.266342,0.3635631,-0.6833187,-0.01492977,42.67,46.15,-0.02348991,0.1150908,-0.001093939,-0.2067481,-3.560799,0.02030474,0.3716742,1.428067,0.2815869,-0.02880694,0.09102224,0.04749814,-0.6022978,1.059558,-0.3710825,0.5527428,1.507375,0.1991799,-0.1888793,1.2381,0.2736584,282.4485,287.1769,327.6034,False
2,2.466667,-0.001980298,0.005238868,-0.05119328,-1.548335,1.55782,-2.02217,0.1728069,1.266016,0.3632095,-0.6835999,-0.02553769,41.59,45.27,-0.01817727,0.09166434,-0.003420111,-0.2069905,-3.560906,0.02030234,0.3713391,1.427781,0.2813179,-0.02234843,0.07505304,0.05170912,-0.6017146,1.06038,-0.3718021,0.5521978,1.507389,0.1989343,-0.1892958,1.237944,0.2737711,282.3925,287.3936,327.5327,False
2,2.477778,-0.007343753,0.01907538,-0.05019623,-1.548592,1.557288,-2.021945,0.1725742,1.265906,0.3633654,-0.6834832,0.01093445,39.78,44.15,-0.02029345,0.03731235,-0.0005595731,-0.206934,-3.568577,0.02802658,0.3710853,1.427572,0.2811458,-0.007437527,0.07933118,0.05156977,-0.6015591,1.062418,-0.3739629,0.5518323,1.507357,0.1989107,-0.1897209,1.237792,0.2738053,282.2966,287.7791,327.3519,False
2,2.488889,-0.01166222,0.02968266,-0.05663707,-1.549093,1.555884,-2.021599,0.1723115,1.265714,0.3633318,-0.6835226,-0.00368694,38.08,43.11,-0.02032159,-0.001023758,-0.00293805,-0.2071108,-3.575341,0.03488528,0.370777,1.427365,0.2808959,-0.005271241,0.08892496,0.05687079,-0.6012725,1.065087,-0.3761819,0.5515102,1.507237,0.1987693,-0.1900739,1.237634,0.2737761,282.2594,287.9612,327.2338,False
2,2.5,-0.02130054,0.04565024,-0.05351873,-1.549847,1.554981,-2.02104,0.1720516,1.265535,0.3631971,-0.6834875,0.003297294,36.49,42.13,-0.01713502,-0.01165841,-0.005157777,-0.2072131,-3.57654,0.03598836,0.3704145,1.427227,0.280674,-0.01167102,0.09530239,0.05692916,-0.6010888,1.067417,-0.3777372,0.5512752,1.507204,0.1985998,-0.1903412,1.237466,0.2737107,282.2544,287.9183,327.2405,False
2,2.511111,-0.01496299,0.0605891,-0.05253881,-1.550614,1.554003,-2.021008,0.1718076,1.265425,0.3630326,-0.6834438,0.003972017,35,41.21,-0.0202931,-0.01382251,0.0001777513,-0.2070373,-3.577701,0.03744698,0.3700832,1.427082,0.2803555,-0.01387978,0.08890732,0.04736086,-0.6012698,1.068836,-0.3787143,0.5509995,1.50708,0.1984019,-0.1905954,1.237337,0.2737136,282.2961,287.7539,327.2796,False
2,2.522222,-0.0107146,0.06379306,-0.05469707,-1.551013,1.552978,-2.021034,0.17156,1.265146,0.362515,-0.6832883,0.01426,33.6,40.35,-0.02561512,-0.002098404,-0.0007719407,-0.2070373,-3.57589,0.03601366,0.3698236,1.426866,0.2800605,-0.009718835,0.07611668,0.03454368,-0.6014792,1.06924,-0.3791132,0.5506849,1.50693,0.1982427,-0.1904835,1.237449,0.2741336,282.2272,288.9405,326.0139,False
2,2.533333,-0.006401327,0.04890478,-0.05249164,-1.550864,1.5525,-2.021103,0.1712779,1.265075,0.3622727,-0.683863,-0.05259738,31.48,39.33,-0.02977122,0.01272707,0.01320351,-0.2064019,-3.572802,0.03347274,0.3695301,1.42677,0.2797074,-0.00762897,0.05800757,0.02707066,-0.6015506,1.069271,-0.3791857,0.5504323,1.506798,0.1979597,-0.1910663,1.237368,0.274442,282.3047,288.0716,327.0788,False
2,2.544444,-0.008503981,0.04250677,-0.05246015,-1.55082,1.551793,-2.021004,0.1709092,1.264758,0.3615794,-0.6840202,-0.01389847,29.5,38.37,-0.03194856,0.01703875,0.005786625,-0.2065468,-3.571099,0.03213716,0.369233,1.426527,0.2792375,-0.008601744,0.04628704,0.03454224,-0.6010067,1.069806,-0.379603,0.5501716,1.506651,0.1978149,-0.1916162,1.237365,0.2747644,282.3346,288.5293,326.8149,False
2,2.555555,-0.009558535,0.03821968,-0.05669791,-1.55074,1.550976,-2.020838,0.1705709,1.26466,0.3613353,-0.6840638,-0.003922416,27.65,37.48,-0.03418812,0.01287475,-0.009139013,-0.2071748,-3.570997,0.03248977,0.3688965,1.426359,0.2788625,-0.0127745,0.04735354,0.04416716,-0.6004741,1.071335,-0.3805945,0.5498743,1.506525,0.1976295,-0.1920874,1.237378,0.2749817,282.2823,289.0842,326.4676,False
2,2.566666,-0.01377616,0.02755045,-0.05771095,-1.550421,1.55025,-2.020647,0.1702238,1.264513,0.3611636,-0.6839019,0.01479502,25.92,36.64,-0.03518534,0.00748736,-0.0006473099,-0.2069244,-3.57211,0.03387701,0.3684951,1.426211,0.2784421,-0.02652657,0.06012621,0.05815888,-0.599533,1.074232,-0.3820156,0.5498334,1.50606,0.1975131,-0.1924832,1.237313,0.2750194,282.219,289.3301,326.3738,False
2,2.577777,-0.01906958,0.01686298,-0.06084611,-1.549906,1.549599,-2.020228,0.1698301,1.264431,0.3608859,-0.6838279,0.006650197,23.52,35.64,-0.04369849,0.02772442,-0.0004568677,-0.206918,-3.567576,0.03019279,0.3680657,1.42605,0.2780399,-0.03188121,0.07929245,0.05713233,-0.5995649,1.077082,-0.3839791,0.5493874,1.505992,0.1973176,-0.1929642,1.235508,0.2751383,282.5522,284.4222,331.7076,False
2,2.588888,-0.01798045,0.009374965,-0.06826852,-1.549406,1.548626,-2.020123,0.1695151,1.264534,0.3610446,-0.6838151,0.001130125,21.28,34.7,-0.03929055,0.05636707,0.01887137,-0.2060221,-3.559451,0.02255644,0.3676619,1.425961,0.2777832,-0.02768065,0.08782182,0.05175832,-0.5997375,1.079479,-0.385814,0.5490983,1.505822,0.1971819,-0.1934892,1.23314,0.2756002,283.3016,281.3861,335.1175,False
2,2.599999,-0.0158393,0.007260028,-0.06719261,-1.549177,1.547979,-2.020048,0.1692376,1.264467,0.3610268,-0.6836137,0.018465,19.18,33.82,-0.03927448,0.0574136,0.02101303,-0.2056658,-3.556806,0.02039529,0.3673052,1.425767,0.2773986,-0.02774321,0.08035914,0.04645417,-0.5993944,1.080824,-0.3862824,0.5489966,1.505414,0.1970851,-0.1940653,1.230729,0.2762897,284.1679,280.284,336.5314,False
2,2.61111,-0.014794,0.01366651,-0.06509653,-1.549244,1.547205,-2.019915,0.1689007,1.264325,0.3607814,-0.6839435,-0.03033136,17.22,33,-0.0435013,0.04886019,0.02631328,-0.2052679,-3.555596,0.01987091,0.3669418,1.425647,0.2771337,-0.03315742,0.0665015,0.03479163,-0.5995718,1.081287,-0.3861022,0.5487328,1.505269,0.1970077,-0.1947992,1.228671,0.2766008,285.0417,281.8386,334.9462,False
2,2.622221,-0.01906831,0.01790323,-0.06724886,-1.549194,1.546278,-2.01957,0.1685917,1.264158,0.3605745,-0.6840212,-0.006770617,15.39,32.23,-0.03926147,0.03929251,0.02301755,-0.2052264,-3.555032,0.01953482,0.3666694,1.425456,0.2767572,-0.0343211,0.06649591,0.02308298,-0.6000219,1.082457,-0.3867842,0.548153,1.505422,0.1966803,-0.1953683,1.227939,0.2766552,285.3557,282.7305,333.899,False
2,2.633332,-0.01907196,0.01896851,-0.06725444,-1.549099,1.545513,-2.019336,0.1682522,1.264002,0.3603401,-0.6839722,0.004467343,13.56,31.33,-0.03507218,0.009525061,0.01427347,-0.2053872,-3.55918,0.02382224,0.3663255,1.425297,0.2764165,-0.03218915,0.06543288,0.02306417,-0.6000001,1.083737,-0.38756,0.5478384,1.505314,0.1965132,-0.195726,1.228163,0.2766841,285.2336,282.0921,334.492,False
2,2.644443,-0.02544576,0.0157854,-0.05976928,-1.548968,1.545226,-2.018834,0.1678458,1.263802,0.3598425,-0.6837655,0.01883751,11.83,30.49,-0.03824303,-0.007540613,0.01737817,-0.2051449,-3.562549,0.0275504,0.365933,1.425153,0.276103,-0.0309948,0.06757332,0.03690217,-0.599484,1.085705,-0.3889075,0.5475183,1.505336,0.1963537,-0.1959737,1.228889,0.2766901,284.901,281.6104,335.0297,False
2,2.655554,-0.02430767,-0.003335522,-0.05008184,-1.548275,1.545345,-2.01862,0.1674777,1.263731,0.3596001,-0.6838705,-0.009724829,10.22,29.7,-0.04358501,-0.005390193,0.0152999,-0.2050298,-3.561989,0.02770806,0.3655751,1.425003,0.2757459,-0.02992564,0.06544611,0.03689126,-0.5993907,1.087104,-0.3897643,0.5471936,1.505188,0.196111,-0.1961689,1.229877,0.2767097,284.4921,281.7108,334.9791,False
2,2.666665,-0.02430767,-0.003335522,-0.05008184,-1.548275,1.545345,-2.01862,0.1674777,1.263731,0.3596001,-0.6836324,0.02190554,8.71,28.96,-0.04358501,-0.005390193,0.0152999,-0.2050298,-3.561989,0.02770806,0.3655751,1.425003,0.2757459,-0.02992564,0.06544611,0.03689126,-0.5993907,1.087104,-0.3897643,0.5471936,1.505188,0.196111,-0.1964447,1.230975,0.2766919,284.0364,282.525,334.2206,False
2,2.677776,-0.01022274,-0.07358139,-0.04652632,-1.544556,1.546136,-2.018798,0.1668475,1.263813,0.3593676,-0.6841224,-0.04498715,7.83,28.05,-0.04689959,0.01278875,0.006960773,-0.2045425,-3.557206,0.02504463,0.3647483,1.424927,0.2746129,-0.03631668,0.05476881,0.03697493,-0.5986419,1.088991,-0.3901201,0.5468324,1.504755,0.19575,-0.1967092,1.232159,0.2766154,283.5616,283.5309,333.2901,False
2,2.688887,0.003753416,-0.1108327,-0.04847502,-1.541995,1.546621,-2.01938,0.1665385,1.263946,0.3593612,-0.6840467,0.007313066,7,27.2,-0.04054068,0.05330878,0.0007853387,-0.2047129,-3.547565,0.01586046,0.3644197,1.424836,0.2741299,-0.03745744,0.05902452,0.02952588,-0.5988815,1.090311,-0.3907656,0.5465703,1.504628,0.1955407,-0.196915,1.233418,0.2764871,283.052,284.5359,332.2891,False
2,2.699998,0.01870029,-0.1203643,-0.04737193,-1.54034,1.546853,-2.020099,0.1662326,1.263889,0.359107,-0.6842343,-0.0172277,6.23,26.4,-0.0339843,0.1000398,0.02127957,-0.2037744,-3.535257,0.003925233,0.3642237,1.424529,0.2739351,-0.03537475,0.06861763,0.02416498,-0.5993487,1.092231,-0.3922333,0.5462303,1.504658,0.1954312,-0.1972544,1.234668,0.2762252,282.5019,285.2722,331.5321,False
2,2.711109,0.02296326,-0.1203218,-0.04205057,-1.539094,1.547097,-2.020465,0.1660362,1.263792,0.3590138,-0.6847088,-0.04325072,5.5,25.65,-0.04789408,0.1256753,0.0119568,-0.2039987,-3.524462,-0.005625395,0.36401,1.424396,0.2736692,-0.03538533,0.06222472,0.0220378,-0.5993673,1.093089,-0.3925459,0.5459617,1.504519,0.1952131,-0.197507,1.235876,0.2757357,282.0663,286.8775,329.6913,False
2,2.72222,0.02081372,-0.1128357,-0.03462669,-1.538188,1.547475,-2.020588,0.165933,1.263606,0.3587639,-0.684826,-0.01042739,4.83,24.96,-0.05317269,0.1277639,0.02054601,-0.2032977,-3.516705,-0.01226306,0.3638059,1.424192,0.2731068,-0.02682679,0.05265088,0.02302415,-0.5992501,1.093647,-0.3931779,0.5456192,1.504359,0.1950214,-0.19765,1.236885,0.2749731,281.6441,287.9583,328.2675,False
2,2.733331,0.01221508,-0.08940598,-0.03048173,-1.537997,1.547351,-2.020411,0.1659536,1.263351,0.3585281,-0.6843961,0.03927537,4.68,24.02,-0.0531202,0.1245194,0.02798172,-0.2027385,-3.510585,-0.01765862,0.363744,1.423971,0.272841,-0.006486464,0.05801274,0.03455232,-0.5988544,1.095518,-0.3953388,0.54535,1.504195,0.1947184,-0.1977296,1.237457,0.2740996,281.2682,287.8625,328.0676,False
2,2.744442,0.004623286,-0.05003031,-0.03281367,-1.538446,1.546596,-2.020132,0.1660023,1.262949,0.3579531,-0.6840462,0.03162322,4.54,23.13,-0.02544817,0.09682481,0.026543,-0.2024178,-3.509488,-0.01927569,0.3637885,1.42367,0.2725995,0.0009949505,0.05696302,0.03875916,-0.5983803,1.097092,-0.396664,0.545303,1.503839,0.1945059,-0.1977548,1.237521,0.2732563,281.0841,287.4998,328.1795,False
2,2.755553,-0.004088081,0.008581652,-0.02352705,-1.540309,1.545762,-2.019763,0.166151,1.262563,0.3577726,-0.6837218,0.02940923,4.41,22.3,-0.007462654,0.05323712,0.01227084,-0.2029339,-3.513788,-0.01546711,0.3637796,1.423494,0.2723527,0.009567302,0.03780711,0.04081361,-0.5979036,1.097041,-0.3970549,0.5451069,1.50377,0.1943269,-0.1977357,1.237107,0.272512,281.1014,287.0706,328.4427,False
2,2.766664,-0.004327392,0.08214647,-0.01326773,-1.543315,1.544412,-2.019702,0.1662878,1.262269,0.3577375,-0.6836334,0.007871309,4.29,21.53,0.02227117,-0.01595355,0.0009489991,-0.2034021,-3.526847,-0.003992078,0.3637936,1.423205,0.2725396,0.01049651,0.03034141,0.0248341,-0.5980948,1.096914,-0.3971024,0.5448031,1.503887,0.1940436,-0.1977039,1.236336,0.2719293,281.2802,286.6812,328.7487,False
2,2.777775,-0.005558018,0.1333266,-0.003948297,-1.546332,1.543268,-2.019568,0.1664046,1.261878,0.3576462,-0.6835828,0.004611861,4.17,20.8,0.03397433,-0.02021922,0.001896541,-0.2033835,-3.527404,-0.003842409,0.3637421,1.423125,0.2724593,0.0135406,0.03247471,0.009894134,-0.5985678,1.097631,-0.3977964,0.5448226,1.503589,0.1937819,-0.1976935,1.235368,0.2715387,281.5616,286.4662,328.9361,False
2,2.788886,0.003809647,0.2027023,0.01378734,-1.550754,1.541929,-2.019923,0.1666206,1.261662,0.3581884,-0.6839386,-0.0325295,4.8,19.87,0.04473775,0.01164614,0.01587498,-0.2027369,-3.52154,-0.01044678,0.3639159,1.423061,0.2722874,0.024009,0.0228917,-0.01150518,-0.5993332,1.096981,-0.3978696,0.5447726,1.503523,0.1934128,-0.1977821,1.234689,0.2715337,281.791,287.3793,328.0369,False
2,2.799997,0.01220722,0.2422024,0.02422567,-1.554706,1.540731,-2.020345,0.1669119,1.261329,0.3581893,-0.6839157,0.002374575,5.39,19,0.04588515,0.03500836,0.02774527,-0.2019581,-3.515539,-0.01665994,0.3641683,1.423209,0.2721441,0.0334772,0.0005267225,-0.02862689,-0.5998408,1.09519,-0.397162,0.5445029,1.503656,0.1930172,-0.1978586,1.234184,0.2718778,282.0475,287.6726,327.7795,False
2,2.811108,0.008827967,0.2976284,0.03245884,-1.559494,1.539128,-2.020266,0.1674232,1.261166,0.3583138,-0.6843941,-0.04377294,5.94,18.18,0.04917292,0.04131997,0.04054388,-0.2011826,-3.511992,-0.02073804,0.3645094,1.423388,0.2720892,0.0473238,-0.03248026,-0.03406477,-0.5997694,1.092238,-0.3957655,0.5444899,1.503707,0.1926358,-0.197845,1.233825,0.2724867,282.2852,288.1915,327.3109,False
2,2.822219,0.003446106,0.3135676,0.02811224,-1.562965,1.537486,-2.020115,0.1678732,1.260869,0.3582463,-0.6844697,-0.006547344,6.45,17.41,0.05769057,0.03813112,0.03832128,-0.2009978,-3.510883,-0.02290265,0.3648436,1.423331,0.2720864,0.06439073,-0.04310432,-0.0342283,-0.5999633,1.090796,-0.3959407,0.5444046,1.503956,0.1922557,-0.1976721,1.233644,0.273348,282.5016,289.1747,326.3856,False
