loc,t,aDotUA,bDotUA,gDotUA,aUA,bUA,gUA,xUA,yUA,zUA,qE,qDotE,emgA,emgB,aDotSH,bDotSH,gDotSH,aSH,bSH,gSH,xSH,ySH,zSH,aDotUB,bDotUB,gDotUB,aUB,bUB,gUB,xUB,yUB,zUB,xHand,yHand,zHand,aHand,bHand,gHand,enable
0,0,-0.3315342,-0.5516055,-0.02971256,-1.408417,-3.960099,2.763421,0.529343,1.286007,0.4947934,-1.516188,0.7689302,6.2,45.4,-0.4468755,0.0880177,-0.0790386,-0.5610769,-3.76458,-0.3001742,0.4939934,1.497782,0.3873761,-0.175128,0.2525128,0.1593015,-0.618434,0.5425203,-0.19044,0.6194674,1.560797,0.2543998,0.4081526,1.053529,0.3055553,319.5826,226.7531,351.5156,True
0,0.01111111,-0.3315342,-0.5516055,-0.02971256,-1.408417,-3.960099,2.763421,0.529343,1.286007,0.4947934,-1.507499,0.7819553,6.2,45.4,-0.4468755,0.0880177,-0.0790386,-0.5610769,-3.76458,-0.3001742,0.4939934,1.497782,0.3873761,-0.175128,0.2525128,0.1593015,-0.618434,0.5425203,-0.19044,0.6194674,1.560797,0.2543998,0.4075557,1.051786,0.3045795,319.7838,225.9206,351.9973,True
0,0.02222222,-0.3291375,-0.6602369,-0.02370104,-1.414483,-3.94338,2.767988,0.5256848,1.284446,0.4923272,-1.50207,0.4836844,6.2,45.4,-0.5045705,0.2946446,-0.05604431,-0.5652922,-3.742688,-0.3059192,0.4918747,1.497148,0.3858078,-0.1998501,0.2588714,0.1264355,-0.6177697,0.5533328,-0.1941511,0.6189262,1.560792,0.2546208,0.4072608,1.0499,0.3037789,319.9673,225.6034,352.0504,True
0,0.03333334,-0.3320709,-0.7658501,-0.04540408,-1.420157,-3.923927,2.772391,0.522169,1.283155,0.4899685,-1.487013,1.366401,6.8,31.3,-0.5223173,0.3809012,-0.04750547,-0.5694467,-3.724047,-0.309475,0.4901803,1.496625,0.3844557,-0.208511,0.2812044,0.1040751,-0.6174321,0.5655453,-0.1992297,0.6184375,1.560734,0.2546837,0.407532,1.047929,0.3034708,320.1101,225.6218,351.9846,True
0,0.04444445,-0.3446757,-0.8394997,-0.06304508,-1.423225,-3.912097,2.774951,0.5204414,1.282561,0.48891,-1.476476,0.9453955,6.8,31.3,-0.4849493,0.3496993,-0.03011124,-0.5700081,-3.719172,-0.3095198,0.4896006,1.496457,0.3838465,-0.1990137,0.271592,0.09229421,-0.6174837,0.570259,-0.201148,0.6182054,1.560733,0.2545667,0.4074724,1.044727,0.3019508,320.7176,225.5044,352.2823,True
0,0.05555556,-0.3552408,-0.8747594,-0.07346556,-1.426152,-3.901106,2.77773,0.5187679,1.282038,0.4878254,-1.471416,0.4496278,6.8,31.3,-0.4583983,0.3058731,-0.02445234,-0.5705934,-3.716078,-0.3079333,0.4890037,1.496242,0.3832562,-0.1926143,0.2641338,0.09545583,-0.6168414,0.5751567,-0.2031465,0.6179122,1.560708,0.2545049,0.4078897,1.041031,0.2991,321.5433,224.9552,352.5206,True
0,0.06666667,-0.3733138,-0.8886934,-0.07977335,-1.428781,-3.890792,2.781093,0.5174133,1.281564,0.4869027,-1.462793,0.7791783,6.8,31.3,-0.4351923,0.2472448,-0.02850139,-0.571214,-3.715354,-0.3044659,0.4886258,1.496089,0.3828018,-0.1882882,0.252434,0.1050299,-0.6158688,0.5798061,-0.2050642,0.6176956,1.560606,0.2544022,0.4095879,1.038016,0.2960488,322.1383,224.3313,352.1368,True
0,0.07777778,-0.3787246,-0.8556752,-0.07678896,-1.43106,-3.882419,2.784374,0.516093,1.28113,0.4859068,-1.454102,0.7819595,6.8,19.6,-0.4142102,0.1929953,-0.04313704,-0.5722904,-3.715329,-0.3005529,0.4882239,1.495972,0.382369,-0.1786799,0.2268675,0.1103381,-0.6147721,0.5829185,-0.2059955,0.6175776,1.560493,0.2542663,0.4123099,1.03573,0.2931437,322.5421,223.6825,351.4166,True
0,0.08888889,-0.3703082,-0.8141202,-0.07918552,-1.432776,-3.874985,2.78715,0.5148592,1.28071,0.4849927,-1.445271,0.7952266,6.8,19.6,-0.4006141,0.1536597,-0.05540851,-0.5733759,-3.715617,-0.2963864,0.4878307,1.495815,0.3819003,-0.1671322,0.1970045,0.08792481,-0.6150832,0.5850305,-0.206294,0.6174581,1.560508,0.2541413,0.4145167,1.0344,0.290624,322.4199,222.4509,351.4617,True
0,0.1,-0.3544967,-0.7426534,-0.07005315,-1.434376,-3.86941,2.78973,0.5139213,1.280442,0.4840524,-1.43745,0.7030086,6.8,19.6,-0.3624746,0.1077817,-0.06161402,-0.5741216,-3.716911,-0.2926007,0.4874955,1.495703,0.3815351,-0.1630926,0.1735085,0.05811536,-0.6157617,0.5868903,-0.2061393,0.6175346,1.560412,0.2540619,0.4155326,1.034027,0.2894844,322.3407,220.5,353.3559,True
0,0.1111111,-0.3544967,-0.7426534,-0.07005315,-1.434376,-3.86941,2.78973,0.5139213,1.280442,0.4840524,-1.430259,0.6464981,6.8,19.6,-0.3624746,0.1077817,-0.06161402,-0.5741216,-3.716911,-0.2926007,0.4874955,1.495703,0.3815351,-0.1630926,0.1735085,0.05811536,-0.6157617,0.5868903,-0.2061393,0.6175346,1.560412,0.2540619,0.4155793,1.033843,0.2891367,322.5017,220.0067,353.7765,True
0,0.1222222,-0.3183938,-0.6924683,-0.06612518,-1.435771,-3.863737,2.791017,0.5129728,1.280107,0.4830987,-1.426342,0.3476407,6.8,19.6,-0.3381017,0.09714216,-0.07049891,-0.5753541,-3.716121,-0.2903581,0.487138,1.49557,0.3810899,-0.1610363,0.1628355,0.04853383,-0.6158954,0.5893089,-0.2064043,0.6174532,1.560385,0.2539241,0.4153835,1.033726,0.2891404,322.5771,220.2785,353.5249,True
0,0.1333333,-0.2580703,-0.5324731,-0.05435984,-1.437519,-3.856792,2.793688,0.5118468,1.279832,0.4816377,-1.413716,1.146471,6.2,9.8,-0.2620806,0.1617057,-0.05463555,-0.577785,-3.707136,-0.2945698,0.4868989,1.495697,0.3802712,-0.1523973,0.1298532,0.06876875,-0.6141883,0.5934049,-0.2065612,0.6174276,1.56049,0.253329,0.4152808,1.033587,0.2894159,322.4657,220.7605,353.0942,True
0,0.1444445,-0.2635747,-0.4610893,-0.05161628,-1.437892,-3.854253,2.79657,0.5116898,1.279952,0.481117,-1.410507,0.2786936,6.2,9.8,-0.2016894,0.1757592,0.008817391,-0.5760487,-3.701641,-0.2993675,0.4870382,1.495809,0.3798571,-0.1312939,0.1095601,0.04308213,-0.61495,0.5944106,-0.2065223,0.6174887,1.560552,0.252933,0.4151723,1.033501,0.289045,322.6947,220.7839,353.1706,True
0,0.1555556,-0.3649853,-0.3759473,-0.02338676,-1.43887,-3.853426,2.804537,0.5115573,1.280139,0.48071,-1.401883,0.7822279,6.2,9.8,-0.1599232,0.1411935,0.04105321,-0.5745519,-3.70021,-0.300122,0.4872823,1.49593,0.3794718,-0.1144978,0.07112962,0.01109172,-0.6157266,0.5929714,-0.20469,0.6176335,1.560482,0.2525928,0.4153095,1.033497,0.2887487,322.7667,220.4619,353.5278,True
0,0.1666667,-0.3779622,-0.2971813,-0.02922036,-1.438404,-3.852761,2.809064,0.511489,1.280249,0.4802313,-1.394708,0.6449155,6.2,9.8,-0.1473906,0.1146998,0.02359342,-0.5751485,-3.700051,-0.2991846,0.4874371,1.496021,0.3790429,-0.1018538,0.04553271,-0.007062042,-0.6164749,0.5924656,-0.203608,0.6177946,1.5605,0.2523108,0.4154958,1.033509,0.288585,322.7574,220.256,353.7943,True
0,0.1777778,-0.3578475,-0.2450507,-0.04553235,-1.437804,-3.851255,2.811972,0.5113251,1.280433,0.4798999,-1.383813,0.9870258,3.9,9.5,-0.1265591,0.1044381,-0.02147028,-0.577148,-3.699733,-0.2991108,0.487816,1.496289,0.3787851,-0.09017939,0.02741183,-0.01030264,-0.6166033,0.5920988,-0.2025683,0.6178302,1.560604,0.2517862,0.4156681,1.033516,0.2885258,322.7053,220.1589,353.9543,True
0,0.1888889,-0.3366131,-0.2163085,-0.057441,-1.437228,-3.849502,2.81468,0.5113513,1.280714,0.4794185,-1.381258,0.2218626,3.9,9.5,-0.08417932,0.1194934,-0.04839206,-0.5792423,-3.697247,-0.3018949,0.4882063,1.496596,0.3785505,-0.07205302,0.005028091,-0.00612095,-0.6163396,0.5907788,-0.2014255,0.6180862,1.560591,0.2513015,0.4155723,1.033502,0.2882652,322.8929,220.1602,354.011,True
0,0.2,-0.3122454,-0.1609623,-0.07164064,-1.436069,-3.849046,2.817153,0.5115275,1.281239,0.4791989,-1.378354,0.261359,3.9,9.5,-0.007626489,0.1268794,-0.06613696,-0.5805745,-3.694773,-0.3069253,0.4891115,1.49728,0.3783441,-0.03159726,-0.02587573,-0.005286107,-0.6163391,0.5888298,-0.2008074,0.6183735,1.560655,0.2509451,0.4154062,1.033498,0.2879582,323.1317,220.0906,354.0894,True
0,0.2111111,-0.3187596,-0.1131118,-0.08366238,-1.434626,-3.849132,2.821024,0.5117573,1.281801,0.478951,-1.374346,0.3616733,3.9,9.5,0.01039234,0.1290365,-0.07482697,-0.5821031,-3.692889,-0.3091009,0.4899777,1.497828,0.3781793,-0.02105898,-0.03976727,-0.02130129,-0.6168488,0.5869696,-0.1995139,0.6186588,1.560532,0.2505596,0.4153239,1.033511,0.2877645,323.2722,220.0168,354.1661,True
0,0.2222222,-0.3368932,-0.1059116,-0.1146073,-1.432567,-3.847312,2.825323,0.5123625,1.282786,0.4788299,-1.37091,0.308805,3.9,9.5,0.01939822,0.112501,-0.02394923,-0.5806597,-3.690731,-0.311388,0.4912898,1.498546,0.378063,0.02533022,-0.08785503,-0.0854511,-0.619642,0.5818222,-0.1971618,0.6193504,1.560542,0.2500949,0.4153683,1.033537,0.2876452,323.3209,219.9382,354.2794,True
0,0.2333333,-0.371939,-0.1510402,-0.1601194,-1.430438,-3.842711,2.830144,0.5130965,1.284008,0.4788916,-1.366304,0.4165803,2.3,4.2,0.06366599,0.0476604,0.05161867,-0.5769467,-3.691968,-0.3126532,0.4926915,1.499383,0.3781602,0.05899952,-0.1295526,-0.1420648,-0.6225698,0.5754111,-0.1938784,0.619951,1.560531,0.2496135,0.4154586,1.03357,0.2876146,323.3045,219.8629,354.3791,True
0,0.2444444,-0.3964142,-0.1651287,-0.188784,-1.42823,-3.839606,2.834992,0.5139253,1.285114,0.4790668,-1.362698,0.3246908,2.3,4.2,0.1426716,-0.04573254,0.09563927,-0.5733354,-3.697162,-0.3126559,0.4943621,1.500241,0.3782682,0.07675309,-0.1712009,-0.1889859,-0.6258119,0.5687602,-0.189926,0.6205674,1.560612,0.2489989,0.4155394,1.033614,0.2875553,323.3138,219.8399,354.4599,True
0,0.2555556,-0.4156831,-0.1323117,-0.2124315,-1.425267,-3.838308,2.840171,0.5150164,1.286251,0.4794092,-1.359461,0.2920408,2.3,4.2,0.2438215,-0.1229425,0.1129502,-0.5704976,-3.703157,-0.3138349,0.4961618,1.501109,0.3785009,0.112123,-0.2031188,-0.1540127,-0.6255664,0.5630409,-0.1876953,0.621206,1.560689,0.2482638,0.4158218,1.033711,0.2874222,323.2837,219.6695,354.7528,True
0,0.2666667,-0.4156831,-0.1323117,-0.2124315,-1.425267,-3.838308,2.840171,0.5150164,1.286251,0.4794092,-1.357707,0.156998,2.3,4.2,0.2438215,-0.1229425,0.1129502,-0.5704976,-3.703157,-0.3138349,0.4961618,1.501109,0.3785009,0.112123,-0.2031188,-0.1540127,-0.6255664,0.5630409,-0.1876953,0.621206,1.560689,0.2482638,0.4162963,1.033838,0.2871889,323.2315,219.2248,355.3305,True
0,0.2777778,-0.4300465,0.07307012,-0.239318,-1.417415,-3.843595,2.850827,0.5174849,1.2887,0.4801724,-1.361326,-0.3330279,1.1,3.8,0.3816341,-0.2188867,0.07641967,-0.5676842,-3.715692,-0.3155087,0.5001937,1.502883,0.3788986,0.1645129,-0.2904325,-0.116911,-0.625291,0.5478355,-0.1805615,0.622475,1.560881,0.2467723,0.4166012,1.033978,0.2869143,323.2678,218.7489,355.8517,True
0,0.2888889,-0.4376345,0.1252178,-0.2449802,-1.413737,-3.845817,2.856275,0.5187649,1.290006,0.4805524,-1.350135,1.02526,1.1,3.8,0.4379958,-0.2243127,0.0683139,-0.5664208,-3.720218,-0.3187173,0.5024026,1.504018,0.3791978,0.1783363,-0.3117522,-0.1180287,-0.6258519,0.5402157,-0.176905,0.6232026,1.560934,0.2459342,0.4168737,1.034048,0.2869571,323.1378,218.6178,356.0479,True
0,0.3,-0.46549,0.1889456,-0.2613696,-1.409149,-3.8489,2.86288,0.5203741,1.29167,0.4810421,-1.353359,-0.3045934,1.1,3.8,0.5940105,-0.1836009,0.09905493,-0.5637475,-3.719395,-0.3318677,0.5056404,1.505575,0.3796828,0.2176547,-0.3831725,-0.1245529,-0.6263084,0.5279015,-0.1708,0.6241508,1.560948,0.2449927,0.4171853,1.034266,0.2870561,322.9917,218.4879,356.2499,True
0,0.3111111,-0.503915,0.2120086,-0.3030513,-1.403805,-3.850412,2.870334,0.5222265,1.293647,0.4814551,-1.353008,0.0353031,1.1,3.8,0.6826475,-0.2578257,0.1410331,-0.5592356,-3.727228,-0.3359527,0.5088623,1.507315,0.3800025,0.295895,-0.5399743,-0.1918828,-0.6287808,0.5065264,-0.1596672,0.6252488,1.560922,0.2439048,0.4184679,1.034658,0.2864092,323.3937,220.2381,353.605,True
0,0.3222222,-0.5230928,0.2105941,-0.3499142,-1.397773,-3.851131,2.877,0.5239491,1.295656,0.4817245,-1.351201,0.1641185,1.1,3.8,0.6886601,-0.3674912,0.2367994,-0.5508291,-3.737924,-0.3346885,0.5120609,1.509097,0.3802209,0.3432422,-0.6168787,-0.2676892,-0.6328923,0.4893278,-0.1511232,0.6264102,1.56101,0.2428424,0.4204655,1.035422,0.285476,323.7325,220.317,352.4965,True
0,0.3333333,-0.5464987,0.1942276,-0.4009341,-1.39139,-3.850847,2.883862,0.5261985,1.297945,0.4818959,-1.349391,0.1636862,0.3,1.9,0.666622,-0.5750328,0.4309196,-0.5351244,-3.756288,-0.3253789,0.5158971,1.511332,0.3805413,0.3578424,-0.6691754,-0.3070959,-0.6362031,0.4727595,-0.1421673,0.6275213,1.561077,0.2418454,0.4225962,1.03688,0.2845473,323.973,219.7921,352.0543,True
0,0.3444445,-0.5593992,0.237643,-0.4374287,-1.384396,-3.853564,2.891056,0.5285357,1.300461,0.4821453,-1.349507,-0.01223629,0.3,1.9,0.65956,-0.7997642,0.6353755,-0.5164764,-3.779191,-0.3125582,0.5200362,1.513758,0.3807032,0.404354,-0.7406868,-0.3498819,-0.6400465,0.4535744,-0.1328403,0.6287857,1.561079,0.2406838,0.4243926,1.039145,0.283698,324.0384,219.2171,351.9099,True
0,0.3555556,-0.5414784,0.31112,-0.4474946,-1.377646,-3.858117,2.897285,0.5309489,1.302899,0.4823883,-1.348885,0.05693923,0.3,1.9,0.6920193,-1.003352,0.842802,-0.495463,-3.804722,-0.2990125,0.5243003,1.516233,0.3807881,0.4221578,-0.8015015,-0.3871686,-0.6441441,0.4340668,-0.1225352,0.6301389,1.561167,0.2395246,0.4255339,1.042151,0.2829536,323.823,218.6783,352.0221,True
0,0.3666667,-0.4991276,0.4146017,-0.4417682,-1.371085,-3.865133,2.902659,0.5335603,1.305358,0.4827657,-1.34877,0.009820017,0.3,1.9,0.7355672,-1.127314,0.9689084,-0.4762824,-3.829692,-0.2865838,0.5285574,1.518325,0.3807089,0.4304382,-0.8452531,-0.4159024,-0.6484696,0.4148268,-0.1121502,0.6314595,1.561156,0.2382703,0.4260304,1.045872,0.2824169,323.3782,218.2239,352.3601,True
0,0.3777778,-0.4483054,0.5373104,-0.4287148,-1.364424,-3.874088,2.907684,0.5363326,1.307709,0.483145,-1.349842,-0.09815344,0.3,1.9,0.8004843,-1.311229,1.01533,-0.4581644,-3.867214,-0.26454,0.5329089,1.520499,0.3803954,0.4462546,-0.9028276,-0.4318622,-0.6524372,0.3937703,-0.1009184,0.6328361,1.561293,0.2369595,0.4257514,1.05014,0.2821328,322.7701,217.9318,352.7561,True
0,0.3888889,-0.4186675,0.6120376,-0.416408,-1.358139,-3.882502,2.913162,0.5390811,1.310039,0.483567,-1.350975,-0.1028412,0.3,1.9,0.8340504,-1.384619,0.9896727,-0.4443356,-3.90117,-0.2444015,0.537161,1.522476,0.3801157,0.4675688,-0.9369324,-0.4266199,-0.6558375,0.3736924,-0.09102339,0.6342541,1.56127,0.2356133,0.4247206,1.054736,0.2822117,321.9787,217.8296,353.232,True
0,0.4,-0.3901924,0.7229609,-0.4054072,-1.351368,-3.893511,2.918829,0.5422226,1.312366,0.4839578,-1.351405,-0.03884853,0.3,1.9,0.8476155,-1.316051,0.9454674,-0.4327482,-3.923836,-0.2335603,0.5409398,1.524349,0.3798549,0.4740804,-0.9251862,-0.4107137,-0.6589587,0.3571177,-0.08337212,0.6356123,1.561321,0.2344365,0.423129,1.059433,0.2828385,321.0606,217.9076,353.8115,True
0,0.4111111,-0.3701823,0.8158475,-0.3804499,-1.345378,-3.904902,2.924808,0.5454139,1.314867,0.4843318,-1.350429,0.08910663,0.3,1.9,0.8810995,-1.184105,0.9507656,-0.4200433,-3.938169,-0.2313272,0.5446423,1.526368,0.3794155,0.4751657,-0.9358395,-0.4064347,-0.662407,0.3388445,-0.07424307,0.6371025,1.561454,0.2332487,0.4211984,1.063943,0.2840984,320.1454,218.1103,354.5385,True
0,0.4222222,-0.3701823,0.8158475,-0.3804499,-1.345378,-3.904902,2.924808,0.5454139,1.314867,0.4843318,-1.350279,0.01250583,0.3,1.9,0.8810995,-1.184105,0.9507656,-0.4200433,-3.938169,-0.2313272,0.5446423,1.526368,0.3794155,0.4751657,-0.9358395,-0.4064347,-0.662407,0.3388445,-0.07424307,0.6371025,1.561454,0.2332487,0.4192033,1.068066,0.2859342,319.4221,218.3775,355.3913,True
0,0.4333333,-0.349208,0.9440161,-0.3354683,-1.334166,-3.928443,2.937355,0.5517468,1.319299,0.4852202,-1.35308,-0.2564147,0,2.7,1.052315,-0.9140364,1.149932,-0.3861828,-3.950346,-0.2479267,0.5518696,1.530255,0.3783524,0.4749019,-0.944444,-0.4383764,-0.6717366,0.3031571,-0.05657034,0.6401274,1.561371,0.230711,0.4170804,1.071398,0.2879465,318.8455,218.671,356.2952,True
0,0.4444444,-0.3450655,0.9932488,-0.3016981,-1.329553,-3.940891,2.943915,0.5549041,1.32127,0.4856081,-1.346025,0.6468449,0,2.7,1.114237,-0.7209375,1.307889,-0.3663556,-3.939538,-0.27215,0.5554863,1.532408,0.3776221,0.4898262,-0.9689583,-0.4309672,-0.6755513,0.2842047,-0.0476578,0.6417442,1.561296,0.2292702,0.4153528,1.073758,0.2899219,318.4585,219.0614,357.0281,True
0,0.4555556,-0.3525631,1.008256,-0.2826213,-1.325002,-3.952092,2.950771,0.5580051,1.323178,0.4858792,-1.348259,-0.2103208,0,2.7,1.120075,-0.5772325,1.416944,-0.3469955,-3.927657,-0.2954561,0.5598105,1.534549,0.3766711,0.496152,-1.009445,-0.4341253,-0.6798224,0.2637972,-0.03743073,0.6433767,1.561435,0.2279046,0.4148662,1.076834,0.2930007,318.8123,219.6906,357.4524,True
0,0.4666667,-0.3588857,0.9838041,-0.2728816,-1.320559,-3.96162,2.957319,0.5610472,1.324747,0.4858477,-1.348579,-0.02687534,0,2.7,1.116201,-0.4643323,1.522568,-0.3268492,-3.911198,-0.3228475,0.5641266,1.536305,0.3756354,0.5087606,-1.069159,-0.4479262,-0.6848564,0.241099,-0.02579564,0.6450192,1.561445,0.2263031,0.4144275,1.079881,0.2960677,319.034,220.143,357.9977,True
0,0.4777778,-0.3587921,0.9421557,-0.2886089,-1.31507,-3.969823,2.9635,0.5639679,1.326046,0.48564,-1.34788,0.06392213,0,2.7,1.129403,-0.5225482,1.47921,-0.3104031,-3.9215,-0.3262335,0.5686088,1.537814,0.3746121,0.5236589,-1.111784,-0.446874,-0.6894764,0.2187777,-0.01499546,0.6466205,1.561453,0.2249012,0.4138464,1.082753,0.2986909,319.0206,220.6284,358.5327,True
0,0.4888889,-0.3576232,0.9026155,-0.3085961,-1.309389,-3.977682,2.969395,0.5667842,1.327401,0.4855101,-1.347617,0.02324498,0,4.3,1.146171,-0.5757794,1.36768,-0.2975678,-3.936779,-0.3252013,0.5727723,1.5392,0.3739717,0.5430567,-1.103227,-0.4129225,-0.6924347,0.2000785,-0.007310377,0.6480906,1.561252,0.223479,0.4131766,1.085453,0.3006668,318.843,221.0587,359.1017,True
0,0.5,-0.3712913,0.8203441,-0.3389642,-1.303615,-3.982913,2.975603,0.5696994,1.32847,0.4849992,-1.347592,0.002057007,0,4.3,1.225113,-0.5590725,1.16992,-0.2906041,-3.948018,-0.3310237,0.5771444,1.540765,0.3735583,0.5625812,-1.059474,-0.3694688,-0.6946243,0.1844848,-0.002344913,0.6495737,1.561206,0.2223856,0.4125575,1.087987,0.3018987,318.5373,221.3071,359.7181,True
0,0.5111111,-0.3860933,0.7753928,-0.365312,-1.29759,-3.989313,2.982057,0.5726476,1.329716,0.4842842,-1.347751,-0.01471275,0,4.3,1.276344,-0.5101883,1.165644,-0.276949,-3.94489,-0.3498579,0.5816154,1.542347,0.373008,0.5774236,-1.05845,-0.3717114,-0.6989141,0.1663023,0.004958273,0.6510804,1.561152,0.2212048,0.4121549,1.090411,0.3024911,318.17,221.31,0.2699539,True
0,0.5222223,-0.4051266,0.7165204,-0.4021956,-1.291067,-3.994532,2.988651,0.5751507,1.3311,0.4836514,-1.346763,0.09059387,0,4.3,1.30938,-0.569066,1.183863,-0.2610063,-3.956752,-0.3542449,0.58653,1.543759,0.3721514,0.6080115,-1.093725,-0.4080628,-0.7047662,0.1454926,0.01308464,0.6526273,1.561104,0.219914,0.4120998,1.092821,0.3026806,317.7691,221.186,0.7190717,True
0,0.5333334,-0.427375,0.6630602,-0.423177,-1.284737,-3.999358,2.995675,0.5779506,1.332328,0.4829755,-1.346737,0.001455,0,4.9,1.282555,-0.8369886,1.142994,-0.2444457,-4.014768,-0.3116247,0.591405,1.544848,0.3714509,0.619383,-1.100222,-0.4550292,-0.7117884,0.1265687,0.0201572,0.6542645,1.561083,0.2187316,0.4124031,1.095174,0.3025032,317.4141,220.9937,1.173554,True
0,0.5444446,-0.4772985,0.6021123,-0.4387406,-1.278856,-4.003207,3.003976,0.5802424,1.333187,0.4824772,-1.346372,0.03353201,0,4.9,1.197746,-1.191939,0.9846487,-0.2328098,-4.114748,-0.2252121,0.5959641,1.545667,0.3705826,0.6202825,-1.051284,-0.4828258,-0.71827,0.1118343,0.02443157,0.6556904,1.560965,0.2176437,0.4129503,1.09752,0.3020449,317.1678,220.759,1.526633,True
0,0.5555557,-0.5325836,0.5584049,-0.4214121,-1.274294,-4.007489,3.013161,0.5824262,1.333959,0.4818974,-1.3459,0.04285861,0,4.9,1.099291,-1.358941,0.7868174,-0.2276534,-4.201726,-0.1496047,0.5999039,1.546311,0.3700926,0.6045384,-0.9936888,-0.4519763,-0.7224064,0.09855413,0.0284636,0.6570629,1.560882,0.216665,0.4135573,1.099908,0.3014215,316.967,220.4281,1.842334,True
0,0.5666668,-0.5325836,0.5584049,-0.4214121,-1.274294,-4.007489,3.013161,0.5824262,1.333959,0.4818974,-1.344493,0.1284467,0,4.9,1.099291,-1.358941,0.7868174,-0.2276534,-4.201726,-0.1496047,0.5999039,1.546311,0.3700926,0.6045384,-0.9936888,-0.4519763,-0.7224064,0.09855413,0.0284636,0.6570629,1.560882,0.216665,0.4141124,1.102352,0.3007331,316.6802,220.0462,2.204354,True
0,0.577778,-0.5718495,0.5052031,-0.3965504,-1.270478,-4.011037,3.021755,0.5845733,1.334739,0.4813898,-1.351579,-0.6489553,0,4.9,1.01458,-1.209552,0.689115,-0.2217076,-4.232233,-0.1284807,0.6035311,1.546979,0.3695569,0.5929697,-0.9477748,-0.4170204,-0.7266504,0.08557216,0.03235155,0.6585242,1.560877,0.2156496,0.4141574,1.104629,0.2998126,316.3409,219.6822,2.453037,True
0,0.5888891,-0.5910006,0.4977488,-0.3879907,-1.265906,-4.016038,3.030442,0.5868192,1.335638,0.4808133,-1.344351,0.6665417,0,4.6,0.985172,-1.010002,0.668056,-0.214344,-4.247116,-0.1237949,0.6071211,1.547737,0.3688023,0.5846289,-0.9338714,-0.3935511,-0.7304705,0.07106845,0.03705123,0.659862,1.560821,0.2147176,0.4138528,1.106514,0.2988327,315.6724,219.4437,2.616337,True
0,0.6000003,-0.6112896,0.5020894,-0.3741076,-1.256958,-4.027593,3.04825,0.5909893,1.337017,0.4798949,-1.343945,0.03082574,0,4.6,0.8786023,-0.750056,0.591974,-0.2021627,-4.282749,-0.1057323,0.6131662,1.548501,0.3670292,0.577321,-0.9008138,-0.3765121,-0.7389596,0.04300259,0.04532194,0.6625369,1.560618,0.2129416,0.4136508,1.10828,0.2980818,315.3325,219.3671,2.914332,True
0,0.6111114,-0.6112896,0.5020894,-0.3741076,-1.256958,-4.027593,3.04825,0.5909893,1.337017,0.4798949,-1.337639,0.577204,0,4.6,0.8786023,-0.750056,0.591974,-0.2021627,-4.282749,-0.1057323,0.6131662,1.548501,0.3670292,0.577321,-0.9008138,-0.3765121,-0.7389596,0.04300259,0.04532194,0.6625369,1.560618,0.2129416,0.4137684,1.110348,0.2976477,315.2458,219.2515,3.409238,True
0,0.6222225,-0.6145311,0.5192947,-0.3475845,-1.25345,-4.034001,3.057199,0.5931786,1.337368,0.4794738,-1.351895,-1.307868,0,4.6,0.8025281,-0.6776996,0.5253776,-0.1976321,-4.308016,-0.08761294,0.6165954,1.549181,0.3663192,0.5443937,-0.8390383,-0.3762932,-0.7432153,0.03212398,0.04834463,0.663609,1.560343,0.2122602,0.4136826,1.113079,0.2972462,315.4613,219.1191,3.877263,True
0,0.6333337,-0.6125389,0.5750687,-0.2925301,-1.251522,-4.042898,3.0667,0.5951357,1.337682,0.4790616,-1.3466,0.4958771,0,4.6,0.6838579,-0.5027298,0.4336069,-0.1959501,-4.306291,-0.09302342,0.6189971,1.549348,0.3658845,0.5116991,-0.7654182,-0.3410487,-0.7459924,0.02368069,0.05001337,0.664737,1.560051,0.2117131,0.4131035,1.115971,0.2966658,314.8349,218.7759,4.324029,True
0,0.6444448,-0.5988243,0.6276347,-0.2406811,-1.249897,-4.052007,3.075722,0.5971438,1.337969,0.4786234,-1.345777,0.06968753,0,4.2,0.6390153,-0.3849448,0.3895091,-0.1928544,-4.306785,-0.09811112,0.6219145,1.549651,0.3653173,0.490628,-0.7291454,-0.3153511,-0.7487621,0.01350809,0.05273272,0.6659967,1.559912,0.2110822,0.4124124,1.118865,0.2961807,314.0338,218.631,4.750724,True
0,0.655556,-0.5818202,0.6447988,-0.2312002,-1.247126,-4.060051,3.084069,0.5990549,1.338359,0.4780951,-1.34612,-0.03140192,0,4.2,0.606286,-0.3445406,0.3039666,-0.1921684,-4.320309,-0.09066332,0.6240212,1.549622,0.364913,0.4630508,-0.665177,-0.3067687,-0.752074,0.006369749,0.053835,0.6671412,1.559602,0.2105722,0.411593,1.121676,0.2957998,313.3284,218.5574,5.201077,True
0,0.6666671,-0.5775611,0.6480328,-0.2269543,-1.244422,-4.067535,3.092615,0.6008002,1.338515,0.4777582,-1.346825,-0.06399121,0,4.2,0.566468,-0.3600779,0.2722642,-0.1899766,-4.344874,-0.07136766,0.6262846,1.549696,0.364506,0.4418093,-0.6086678,-0.3046438,-0.7557731,-0.0001274323,0.05440412,0.6684617,1.559439,0.210068,0.4105973,1.124403,0.295531,312.7614,218.6976,5.508364,True
0,0.6777782,-0.5828581,0.6416492,-0.222681,-1.2416,-4.07447,3.101456,0.6024206,1.338552,0.4773283,-1.347287,-0.04162401,0,4.2,0.518693,-0.289556,0.2660351,-0.1868623,-4.348536,-0.07209177,0.6283694,1.549599,0.3641267,0.4290501,-0.5575327,-0.3120373,-0.7593035,-0.006339122,0.05452609,0.6699542,1.559447,0.2095344,0.4095496,1.127068,0.2954013,312.258,218.8728,5.868845,True
0,0.6888894,-0.5711358,0.6438206,-0.2227061,-1.238744,-4.08212,3.109834,0.6038609,1.338595,0.4771004,-1.346958,0.0302508,0,4.2,0.4702791,-0.2109148,0.1970359,-0.1870551,-4.348262,-0.07615842,0.6304289,1.549605,0.3639207,0.4100267,-0.530831,-0.2949186,-0.7622318,-0.01333511,0.05562864,0.6710758,1.559257,0.2091432,0.4085434,1.129634,0.2954019,311.7803,218.8558,6.386673,True
0,0.7000005,-0.5550686,0.6075214,-0.2395293,-1.235353,-4.087748,3.117261,0.6052315,1.338879,0.4768858,-1.346476,0.04379928,0,4.1,0.4557328,-0.120402,0.2055927,-0.184572,-4.338041,-0.09071393,0.6327801,1.54981,0.3635499,0.4015771,-0.5180237,-0.2874123,-0.76536,-0.02087093,0.0569011,0.6718827,1.559004,0.2087498,0.4075544,1.132012,0.2954884,311.2952,218.7584,6.918379,True
0,0.7111117,-0.5409908,0.5189337,-0.2719936,-1.231229,-4.090777,3.123797,0.6064688,1.33938,0.4764483,-1.347167,-0.06354524,0,4.1,0.4591216,0.02581111,0.2805908,-0.1793809,-4.30584,-0.1276674,0.6352546,1.550094,0.3631129,0.4313368,-0.5351002,-0.2950579,-0.7692988,-0.0299354,0.05761616,0.6728928,1.558855,0.2084668,0.4065244,1.134161,0.2955815,310.8668,218.6777,7.383253,True
0,0.7222228,-0.5343822,0.431409,-0.3001926,-1.226964,-4.092705,3.130252,0.6077938,1.339967,0.4760389,-1.347553,-0.03465132,0,4.1,0.5014658,-0.0199908,0.3702258,-0.1721089,-4.310129,-0.1304536,0.6376575,1.550354,0.3625588,0.4323285,-0.5298117,-0.3067722,-0.7733372,-0.03796975,0.05850885,0.6737912,1.558685,0.208039,0.4054992,1.136148,0.2957456,310.5057,218.6028,7.784293,True
0,0.7333339,-0.5212669,0.2991041,-0.3376877,-1.221988,-4.091471,3.135273,0.608884,1.340528,0.4757078,-1.347579,-0.002280304,0,4.1,0.5459372,-0.2603178,0.415177,-0.1651192,-4.372946,-0.07629797,0.6404352,1.550474,0.3621445,0.4363109,-0.5352178,-0.3451363,-0.7788383,-0.04620717,0.05942311,0.6747835,1.558578,0.2075877,0.4046375,1.138057,0.2959971,310.2505,218.4632,8.28992,True
0,0.7444451,-0.5051634,0.2479189,-0.3490969,-1.217591,-4.092462,3.14078,0.6101651,1.340982,0.4755037,-1.347241,0.03084167,0,11.9,0.5776975,-0.4900142,0.3645053,-0.1622158,-4.451728,-0.006116482,0.6427984,1.550498,0.3618052,0.4308451,-0.5405794,-0.3642646,-0.7838961,-0.05462969,0.06076987,0.675562,1.55852,0.2071655,0.4040504,1.139921,0.2962064,310.0992,218.2053,8.941845,True
0,0.7555562,-0.498768,0.2501163,-0.3437871,-1.213942,-4.095913,-3.135914,0.6114215,1.341462,0.4755435,-1.347523,-0.02611688,0,11.9,0.5831037,-0.5702738,0.2943428,-0.1616177,-4.504862,0.03959322,0.6452784,1.550623,0.3615341,0.4213536,-0.5288115,-0.3546413,-0.7878126,-0.06191676,0.06148706,0.676354,1.558475,0.2068086,0.4038213,1.141772,0.296241,309.9747,217.8381,9.643544,True
0,0.7666674,-0.4872257,0.3216568,-0.3250884,-1.210859,-4.102539,-3.128563,0.6128193,1.34178,0.4757383,-1.347766,-0.02199891,0,11.9,0.6006424,-0.5911646,0.2470648,-0.1606355,-4.548888,0.07575761,0.6472633,1.550554,0.3613474,0.4185462,-0.4935575,-0.3035603,-0.7896496,-0.06787905,0.06111741,0.6771382,1.558377,0.2064469,0.4039636,1.143557,0.2959808,309.8195,217.2896,10.32548,True
0,0.7777785,-0.485347,0.4175729,-0.3203847,-1.207462,-4.110808,-3.120215,0.6141812,1.341989,0.4758177,-1.347588,0.01640421,0,11.9,0.6547618,-0.4970945,0.1995584,-0.1600752,-4.564177,0.0817681,0.6489445,1.550566,0.3611441,0.4104646,-0.476371,-0.2460087,-0.790806,-0.07450846,0.06138906,0.6778674,1.55815,0.2061749,0.4043478,1.145277,0.2954967,309.6221,216.774,10.70521,True
0,0.7888896,-0.4823003,0.4782853,-0.3239858,-1.203762,-4.118721,-3.112126,0.6154983,1.342215,0.4757175,-1.347747,-0.01464682,0,11.9,0.6849114,-0.350036,0.1858642,-0.1583175,-4.556767,0.06576943,0.6507755,1.550606,0.3608611,0.4000156,-0.4517851,-0.2225519,-0.7926766,-0.08011162,0.0611294,0.6784794,1.558041,0.2060311,0.4046926,1.146989,0.2949818,309.4011,216.393,10.76811,True
0,0.8000008,-0.4749398,0.5176302,-0.3380836,-1.199819,-4.126276,-3.104453,0.6165588,1.342508,0.4756539,-1.3473,0.04096428,0.1,36.5,0.6886803,-0.07488418,0.2568691,-0.1525682,-4.503912,0.005772135,0.6525028,1.550654,0.3604803,0.3999342,-0.3943071,-0.2386743,-0.79625,-0.08345561,0.05907424,0.6791649,1.557993,0.205904,0.4046974,1.148758,0.2946872,309.1247,216.1255,10.74943,True
0,0.8111119,-0.4727983,0.5153032,-0.3710952,-1.194789,-4.132522,-3.09707,0.6176127,1.342846,0.4755332,-1.34735,-0.005049963,0.1,36.5,0.6538666,-0.06335562,0.2850445,-0.1486758,-4.509622,0.005160141,0.6542629,1.55059,0.3601975,0.391211,-0.3773005,-0.271679,-0.8004828,-0.08793692,0.05802229,0.6798827,1.557865,0.2057722,0.4041147,1.150625,0.294761,308.8359,215.9287,10.90905,True
0,0.8222231,-0.4717357,0.5120055,-0.3849282,-1.190301,-4.138603,-3.089506,0.6186974,1.343084,0.4754958,-1.347623,-0.02495871,0.1,36.5,0.6080024,-0.1144216,0.2945716,-0.1452083,-4.530351,0.02030154,0.6562373,1.550602,0.3598814,0.3878118,-0.3688509,-0.2993713,-0.8049692,-0.09327535,0.05758047,0.6805142,1.557767,0.2056158,0.4029657,1.152649,0.2952662,308.5524,215.7446,11.3603,True
0,0.8333342,-0.4717619,0.5259469,-0.3722319,-1.186963,-4.145797,-3.081618,0.6195532,1.343314,0.4755561,-1.347436,0.01721777,0.1,36.5,0.5215359,-0.2219149,0.3103351,-0.141531,-4.575403,0.06191823,0.657984,1.550683,0.3597848,0.381475,-0.3315315,-0.2983394,-0.8083365,-0.09615383,0.05542225,0.681179,1.557648,0.205569,0.4013921,1.154843,0.2961991,308.2501,215.5375,12.06973,True
0,0.8444453,-0.4707478,0.5506766,-0.340424,-1.184746,-4.153674,-3.073579,0.6203719,1.343635,0.4756746,-1.347143,0.02659822,0,46.1,0.4774432,-0.2459348,0.2785975,-0.1396503,-4.601329,0.08365975,0.6598822,1.550914,0.3596001,0.3581654,-0.3218991,-0.2790317,-0.810981,-0.1005675,0.05533649,0.6818836,1.557656,0.2055213,0.3996457,1.157182,0.2974895,307.9255,215.2712,13.0017,True
0,0.8555565,-0.4717345,0.519883,-0.3242509,-1.182038,-4.159048,-3.066268,0.6211041,1.344141,0.4756637,-1.347199,-0.005361669,0,46.1,0.5018208,-0.2191924,0.258372,-0.1377078,-4.612859,0.08848353,0.6618339,1.551107,0.3593209,0.347569,-0.3250576,-0.2714963,-0.8139398,-0.1053975,0.05514608,0.6825861,1.55752,0.2053061,0.3978741,1.159605,0.2989857,307.5753,215.0876,13.9008,True
0,0.8666676,-0.4821098,0.4090323,-0.3309832,-1.178257,-4.160501,-3.06,0.6217225,1.344995,0.4755955,-1.347309,-0.009935363,0,46.1,0.526736,-0.2517642,0.3078386,-0.1330675,-4.645577,0.1142456,0.6637988,1.551382,0.3589711,0.3380395,-0.315459,-0.2639847,-0.8167729,-0.109743,0.05468162,0.6833075,1.557468,0.2051995,0.3960678,1.162057,0.3005137,307.2192,215.0925,14.58414,True
0,0.8777788,-0.5030572,0.2660306,-0.3609515,-1.173235,-4.159349,-3.054194,0.6222788,1.345728,0.4754372,-1.347093,0.01980777,0,46.1,0.5368148,-0.3067871,0.3700061,-0.1275276,-4.693406,0.1552849,0.6656477,1.551481,0.3585398,0.3241875,-0.306919,-0.263923,-0.820048,-0.1136471,0.05425631,0.6838979,1.557379,0.2050116,0.394325,1.164534,0.3019489,306.8765,215.2103,15.16743,True
0,0.8888899,-0.5156406,0.1870713,-0.3774822,-1.168567,-4.159577,-3.048,0.6228114,1.346351,0.4753742,-1.346626,0.0424044,18.2,35.9,0.4992259,-0.338439,0.3508914,-0.1251771,1.546802,0.1935428,0.6674554,1.551555,0.3580046,0.3348203,-0.340983,-0.2660569,-0.8231714,-0.1197701,0.05419586,0.6844292,1.557524,0.2050347,0.3928614,1.167013,0.3031018,306.6108,215.1746,15.90695,True
0,0.900001,-0.5282192,0.1059726,-0.3929431,-1.163587,-4.158542,-3.042113,0.6232805,1.347029,0.4752564,-1.345594,0.09332269,18.2,35.9,0.4378753,-0.3504574,0.2970899,-0.1246221,1.511341,0.2259871,0.6689777,1.55186,0.3575578,0.3262891,-0.3857081,-0.2605896,-0.8263336,-0.127388,0.05595807,0.6849784,1.557448,0.2049093,0.3919061,1.16943,0.3037486,306.4197,214.7847,16.85816,True
0,0.9111122,-0.5228502,0.0877929,-0.4077357,-1.158685,-4.159764,-3.036017,0.6237677,1.34779,0.4751375,-1.34479,0.0717608,18.2,35.9,0.4304578,-0.2820849,0.2797664,-0.1224021,1.497918,0.2347406,0.6706163,1.552029,0.3571041,0.329459,-0.4016723,-0.2659104,-0.8297153,-0.1337521,0.05637459,0.6854615,1.557428,0.2047129,0.3914703,1.171653,0.3037136,306.2439,214.0667,17.79976,True
0,0.9222233,-0.513249,0.08018559,-0.4321965,-1.153254,-4.161041,-3.030164,0.624387,1.348461,0.4750767,-1.343325,0.1323816,18.2,35.9,0.4623194,-0.2489627,0.2606072,-0.1204367,1.480838,0.2454649,0.6720984,1.552023,0.3566775,0.3380162,-0.3995399,-0.261694,-0.8325388,-0.1391693,0.0560425,0.6860511,1.557487,0.204386,0.3914204,1.173623,0.3030619,306.0428,213.264,18.4512,True
0,0.9333345,-0.5196474,0.08539024,-0.4503473,-1.147782,-4.163011,-3.023492,0.6249309,1.349113,0.4751146,-1.342293,0.09168058,18.2,35.9,0.5205258,-0.2626784,0.227878,-0.1200122,1.450267,0.2679587,0.673452,1.552089,0.3563273,0.3445197,-0.4261125,-0.2478437,-0.8350976,-0.1462784,0.05659617,0.6864784,1.557445,0.2040448,0.391624,1.175324,0.3019565,305.9,212.4268,18.87849,True
0,0.9444456,-0.5239799,0.1130486,-0.4569041,-1.142969,-4.1662,-3.016257,0.6253862,1.349776,0.475251,-1.340457,0.1654177,18.2,35.9,0.5140212,-0.2679077,0.2193723,-0.1188558,1.417243,0.2953366,0.6748693,1.55214,0.3560357,0.3457556,-0.4387957,-0.2190667,-0.8367221,-0.1526733,0.05732055,0.6871285,1.557155,0.2037916,0.3919129,1.176816,0.3007191,305.8021,211.57,19.16646,True
0,0.9555568,-0.5241534,0.1802824,-0.437101,-1.139266,-4.171355,-3.008188,0.6258665,1.350359,0.4753573,-1.337338,0.2816097,22.6,22.1,0.4624551,-0.2470003,0.1721932,-0.1191999,1.400142,0.3089941,0.6760418,1.55225,0.3557935,0.3342366,-0.4344551,-0.1923566,-0.8381378,-0.1586988,0.05800711,0.6875364,1.557116,0.2036369,0.3921861,1.178133,0.2997067,305.7214,210.6783,19.48589,True
0,0.9666679,-0.5062391,0.2625294,-0.4131283,-1.13616,-4.17809,-3.000434,0.6264011,1.351017,0.4753993,-1.334289,0.2741406,22.6,22.1,0.43567,-0.2328731,0.1534584,-0.1188036,1.379477,0.3256428,0.6773443,1.552416,0.355531,0.3056852,-0.3821633,-0.168823,-0.8392712,-0.1615125,0.05751443,0.6878295,1.55705,0.2035546,0.3922113,1.179312,0.29915,305.6986,209.9159,19.77382,True
0,0.977779,-0.4829571,0.3223915,-0.3879541,-1.13334,-4.184433,-2.993022,0.6269776,1.35165,0.4754753,-1.331075,0.2892338,22.6,22.1,0.4371188,-0.2386203,0.1917401,-0.1164451,1.344938,0.3548025,0.6782162,1.552578,0.3551662,0.2758788,-0.3139101,-0.1762235,-0.8415035,-0.1623247,0.0557341,0.6879901,1.557009,0.2034047,0.3917902,1.180448,0.2991968,305.7154,209.4444,19.9876,True
0,0.9888902,-0.4617838,0.3780094,-0.3638095,-1.130876,-4.191472,-2.985555,0.6274036,1.35239,0.4755695,-1.328712,0.2113076,22.6,22.1,0.4049144,-0.2190321,0.1624553,-0.1161724,1.325902,0.3700353,0.6790544,1.552776,0.354728,0.24177,-0.3149318,-0.1823733,-0.8438658,-0.1665598,0.0566995,0.6883719,1.556887,0.2032492,0.3908179,1.181665,0.2998999,305.74,209.3383,20.16677,True
0,1.000001,-0.4501213,0.4004639,-0.3543667,-1.128074,-4.197601,-2.978289,0.6279172,1.353155,0.4755936,-1.325495,0.2899718,48.7,16.6,0.3687454,-0.1729944,0.1526644,-0.1151679,1.318045,0.3748162,0.6800417,1.553068,0.3543699,0.215042,-0.3149367,-0.1949642,-0.8465731,-0.1711542,0.05822682,0.6886718,1.55693,0.2030835,0.3893988,1.183065,0.3012732,305.7247,209.4357,20.48716,True
0,1.011112,-0.4309589,0.4091249,-0.3416443,-1.125454,-4.203523,-2.971621,0.628301,1.3541,0.4755793,-1.32211,0.304323,48.7,16.6,0.3000569,-0.1530147,0.1994113,-0.1121015,1.2978,0.3938008,0.680717,1.553416,0.3539131,0.1937709,-0.26909,-0.1991706,-0.84893,-0.1726414,0.05742734,0.6889284,1.556791,0.2028246,0.3877051,1.18465,0.3032052,305.6653,209.6172,20.98316,True
0,1.022224,-0.4149511,0.3942593,-0.3394278,-1.122373,-4.208348,-2.965322,0.6286349,1.354997,0.4755955,-1.318723,0.3052438,48.7,16.6,0.25986,-0.1755939,0.2326289,-0.1097526,1.260598,0.4290246,0.6814958,1.5536,0.3535674,0.1756716,-0.261615,-0.1990508,-0.8511745,-0.1758733,0.05811017,0.6891313,1.556783,0.2026296,0.3858297,1.186403,0.3054827,305.5892,209.8703,21.56246,True
0,1.033335,-0.3990036,0.4092659,-0.3320738,-1.119815,-4.214502,-2.958819,0.6289474,1.355766,0.4757147,-1.316411,0.2072861,48.7,16.6,0.2218636,-0.1587273,0.2609052,-0.1068615,1.234233,0.4540154,0.6820534,1.553842,0.3531587,0.1587968,-0.2604942,-0.1744271,-0.8524289,-0.1796054,0.05944335,0.6892958,1.556768,0.2025011,0.383947,1.188308,0.307843,305.5342,210.1345,22.20952,True
0,1.044446,-0.3885267,0.4829228,-0.3144471,-1.118334,-4.223805,-2.950801,0.6292022,1.356284,0.475935,-1.313936,0.2231925,84.5,13.2,0.1802393,-0.1777414,0.2590131,-0.105581,1.201471,0.4857236,0.6824433,1.554022,0.3529577,0.1505053,-0.2529614,-0.1381662,-0.8529194,-0.182973,0.06043937,0.6894138,1.556705,0.2023916,0.3821656,1.190345,0.3100267,305.4758,210.323,22.87838,True
0,1.055557,-0.3791545,0.5704666,-0.289443,-1.117738,-4.234289,-2.942325,0.6295455,1.356517,0.4762778,-1.312183,0.1571548,84.5,13.2,0.143784,-0.1677656,0.2339326,-0.1048241,1.180756,0.5059447,0.6828685,1.554184,0.3527751,0.1271689,-0.2230855,-0.1295203,-0.8540432,-0.1846504,0.06073152,0.6895206,1.556351,0.2023163,0.3805667,1.192454,0.3118438,305.3767,210.3334,23.55032,True
0,1.066668,-0.3718821,0.6451481,-0.276072,-1.117088,-4.245306,-2.933613,0.6295785,1.356756,0.4765546,-1.310248,0.1745819,84.5,13.2,0.1051489,-0.1352939,0.1973938,-0.1042489,1.173447,0.5133179,0.6830609,1.554122,0.3527906,0.1208193,-0.1974909,-0.1273901,-0.8553924,-0.1860462,0.06043299,0.6896607,1.55612,0.2021224,0.3790779,1.194591,0.313259,305.1847,210.2241,24.05942,True
0,1.077779,-0.3580807,0.6633205,-0.2729964,-1.115771,-4.254596,-2.925977,0.629676,1.357089,0.4766829,-1.308707,0.1386189,84.5,13.2,0.09942016,-0.1177715,0.1539572,-0.1044689,1.167378,0.5184557,0.6832643,1.554124,0.3527112,0.1092291,-0.176154,-0.1102908,-0.8560082,-0.1877792,0.06076534,0.6898634,1.555989,0.2021658,0.3775091,1.196749,0.3144059,304.8685,210.1177,24.35495,True
0,1.08889,-0.3335389,0.6462773,-0.2824775,-1.113812,-4.262621,-2.919564,0.6293681,1.35734,0.4767029,-1.307343,0.1227704,84.5,13.2,0.07639226,-0.05290967,0.07177459,-0.1056774,1.190425,0.4953163,0.6832289,1.554305,0.3525643,0.09121302,-0.163318,-0.1016657,-0.8568103,-0.1892397,0.06105297,0.6899765,1.555807,0.2021956,0.3757825,1.198925,0.315486,304.4683,210.0204,24.60122,True
0,1.100002,-0.3120855,0.5876597,-0.2959529,-1.111157,-4.268591,-2.914122,0.6291005,1.357963,0.4765856,-1.306475,0.07755022,85.9,8.8,0.05562874,0.01501254,0.1025447,-0.1025951,1.198739,0.4871475,0.6834167,1.554554,0.3522787,0.07946019,-0.1377568,-0.1069618,-0.8583251,-0.1900316,0.06118852,0.6902744,1.555857,0.2020667,0.3738077,1.201109,0.3166219,304.0997,209.9281,24.93541,True
0,1.111113,-0.2894665,0.4863587,-0.3208614,-1.107453,-4.272079,-2.910033,0.6286232,1.358764,0.4764926,-1.306494,-0.0024052,85.9,8.8,0.0609491,0.08127227,0.1820299,-0.09717715,1.204004,0.481067,0.6836991,1.554912,0.35185,0.06426369,-0.1175722,-0.1527052,-0.8616083,-0.1903394,0.06086601,0.6904416,1.55574,0.2020593,0.3717315,1.203295,0.317862,303.8095,209.7852,25.47659,True
0,1.122224,-0.2806679,0.3754729,-0.3403909,-1.103327,-4.274158,-2.90618,0.6281868,1.359675,0.4762421,-1.306532,-0.003095505,85.9,8.8,0.08037842,0.1290478,0.2920697,-0.08982097,1.196067,0.4873795,0.6841421,1.555196,0.3515406,0.06096148,-0.1058894,-0.1676137,-0.8639348,-0.191399,0.061033,0.6904256,1.555612,0.2020013,0.3695959,1.205429,0.3191355,303.5919,209.6088,26.14215,True
0,1.133335,-0.2879539,0.3061389,-0.3516605,-1.099473,-4.276574,-2.901592,0.6277525,1.360519,0.4760463,-1.30734,-0.0730564,85.9,8.8,0.1361026,0.1990806,0.4019585,-0.08021495,1.198695,0.481356,0.6848623,1.555632,0.3511124,0.07695593,-0.09630106,-0.165604,-0.8656355,-0.1920624,0.06012725,0.6904786,1.555874,0.2021918,0.3676307,1.207535,0.3203471,303.4961,209.4505,26.82882,True
0,1.144446,-0.3027307,0.2506323,-0.3651412,-1.095523,-4.279236,-2.896468,0.6272901,1.361417,0.47577,-1.308258,-0.08190651,85.9,8.8,0.1596278,0.06210002,0.3512449,-0.08049351,1.146425,0.5307547,0.6853957,1.555991,0.3506885,0.09636171,-0.1548416,-0.1262065,-0.8658826,-0.1971742,0.06189719,0.6906295,1.556096,0.2019684,0.3659382,1.209617,0.3213267,303.4964,209.2056,27.54707,True
0,1.155557,-0.3123065,0.2452137,-0.3757583,-1.091697,-4.283278,-2.890768,0.62686,1.362159,0.4754894,-1.309732,-0.1321379,99.9,6.7,0.1205088,-0.09519255,0.3276172,-0.08184001,1.059863,0.6170105,0.6861273,1.556303,0.3503568,0.09851962,-0.2048981,-0.1186658,-0.8671854,-0.2024134,0.06412706,0.6907486,1.556201,0.2018499,0.364542,1.211719,0.3218929,303.5447,208.8998,28.2042,True
0,1.166668,-0.3433167,0.2898305,-0.3845585,-1.088624,-4.290148,-2.882688,0.6264337,1.362708,0.4753916,-1.31223,-0.2245539,99.9,6.7,0.04163298,-0.2616205,0.274478,-0.08639082,0.9693289,0.7096517,0.6867299,1.556391,0.3500979,0.1102201,-0.248576,-0.1165351,-0.8687626,-0.2078569,0.0661966,0.6906507,1.556191,0.2016072,0.3633328,1.21394,0.321936,303.5804,208.5406,28.72695,True
0,1.17778,-0.3753993,0.3398749,-0.3774168,-1.08635,-4.297315,-2.874137,0.6262043,1.363093,0.4754093,-1.316113,-0.3499262,99.9,6.7,0.03536645,-0.3867962,0.2252729,-0.09118131,0.8965839,0.7818269,0.6871707,1.556573,0.3498883,0.1092473,-0.2410854,-0.1059024,-0.8698624,-0.2104976,0.06664827,0.6908252,1.555933,0.2012691,0.3621762,1.216425,0.3214325,303.5779,208.0477,29.20121,True
0,1.188891,-0.4022284,0.4198334,-0.3576851,-1.085194,-4.306383,-2.864579,0.6259828,1.363593,0.4754064,-1.319831,-0.3330298,99.9,6.7,0.0881117,-0.3864532,0.1757071,-0.09408043,0.8623471,0.813119,0.6874017,1.55681,0.349699,0.1030808,-0.2079779,-0.07928349,-0.8697618,-0.2116168,0.06625918,0.6907911,1.555912,0.2012336,0.3609539,1.219315,0.3205209,303.4607,207.3141,29.72112,True
0,1.200002,-0.4108631,0.4689938,-0.3313687,-1.084352,-4.31472,-2.855972,0.6257503,1.364213,0.4753752,-1.325111,-0.4753454,79.6,7.7,0.1251597,-0.2356276,0.2067545,-0.08982736,0.8532991,0.8195434,0.6875599,1.55711,0.3494585,0.09250975,-0.1589583,-0.067591,-0.8702539,-0.2118587,0.06595106,0.6908106,1.555867,0.2011445,0.3595409,1.222777,0.319458,303.1798,206.4477,30.28569,True
0,1.211113,-0.4162026,0.474434,-0.3122218,-1.083205,-4.321548,-2.847967,0.625459,1.364774,0.4754157,-1.3315,-0.575106,79.6,7.7,0.137198,-0.1782707,0.2189554,-0.08788645,0.8286585,0.8421738,0.6876316,1.557302,0.3491821,0.08825156,-0.1610669,-0.07182015,-0.871267,-0.2138249,0.06600858,0.6907753,1.555794,0.2009845,0.3580082,1.226931,0.3184804,302.7339,205.5228,31.00766,True
0,1.222224,-0.4215255,0.4755295,-0.3058361,-1.081632,-4.32826,-2.840043,0.6250175,1.365332,0.4753988,-1.339414,-0.7131785,79.6,7.7,0.0967882,-0.1461299,0.2154575,-0.08701932,0.8036278,0.8674696,0.6875446,1.557452,0.3489881,0.07217175,-0.1546902,-0.08344776,-0.8728558,-0.2158445,0.06721818,0.6906129,1.555767,0.2009625,0.3563306,1.231851,0.3177102,302.1686,204.6147,31.90357,True
0,1.233335,-0.4247878,0.5033739,-0.2825735,-1.081402,-4.336148,-2.831564,0.6245897,1.365591,0.4755638,-1.347327,-0.7116595,79.6,7.7,0.01028282,-0.09538689,0.1796171,-0.08608508,0.800945,0.8730173,0.6873565,1.557483,0.3488762,0.0646951,-0.1429514,-0.08979876,-0.8739254,-0.2168503,0.06718543,0.6904894,1.555822,0.2010427,0.3546269,1.237469,0.3171805,301.4805,203.5243,33.20749,True
0,1.244446,-0.4312977,0.5525615,-0.2530577,-1.082083,-4.345363,-2.822269,0.6241629,1.3659,0.4756444,-1.355969,-0.7778347,79.6,7.7,-0.01540494,-0.03104863,0.1475503,-0.08454045,0.8073815,0.8675311,0.687446,1.557701,0.3488343,0.05510083,-0.1376266,-0.08974579,-0.8750433,-0.2185835,0.06804296,0.6903729,1.555903,0.2009749,0.3529676,1.243571,0.3167957,300.7067,202.1382,34.94925,True
0,1.255558,-0.4335195,0.589964,-0.2341193,-1.082756,-4.354518,-2.813099,0.6237562,1.3662,0.4756567,-1.365209,-0.8316059,71,9.1,0.01208763,0.0406824,0.2066185,-0.07954489,0.789399,0.8843511,0.6874105,1.557909,0.3487399,0.04650603,-0.1120617,-0.105715,-0.8767254,-0.2185547,0.06744376,0.690256,1.555822,0.2010212,0.3513159,1.249924,0.3164362,299.8937,200.4931,36.94059,True
0,1.266669,-0.4346767,0.6284546,-0.2141166,-1.083859,-4.36418,-2.803751,0.6233592,1.366728,0.4755123,-1.37479,-0.8618801,71,9.1,0.111109,0.1504931,0.2685381,-0.07191973,0.778539,0.890552,0.6876402,1.558188,0.3485839,0.03909416,-0.07264304,-0.09935063,-0.877706,-0.2178913,0.06699475,0.6901891,1.555807,0.2011588,0.3496715,1.256348,0.3160878,299.0247,198.8199,38.89461,True
0,1.27778,-0.4494998,0.5943326,-0.2149629,-1.083374,-4.371039,-2.795125,0.6227667,1.367261,0.4750993,-1.385098,-0.9279931,71,9.1,0.1225757,0.09619585,0.2614506,-0.07100627,0.7432174,0.9240692,0.6878399,1.5584,0.3484499,0.04771887,-0.08965507,-0.08551022,-0.8779308,-0.2198495,0.06726959,0.6901778,1.555716,0.201293,0.3480147,1.262753,0.3157334,298.1901,197.2677,40.72787,True
0,1.288891,-0.4600522,0.553822,-0.2157678,-1.082772,-4.377177,-2.786766,0.6221359,1.367665,0.474838,-1.395792,-0.9623925,71,9.1,0.0838941,0.01328932,0.255659,-0.0718867,0.6891527,0.9784323,0.6881385,1.558571,0.3483758,0.04885048,-0.1226431,-0.07906452,-0.8787302,-0.2226954,0.06814337,0.6901278,1.555622,0.2011495,0.3464172,1.269097,0.3153506,297.4668,195.7914,42.50788,True
0,1.300002,-0.4780274,0.4983592,-0.2207432,-1.081609,-4.382326,-2.778386,0.6214656,1.367936,0.4745758,-1.406187,-0.9346614,71,9.1,-0.006385803,-0.09891807,0.216002,-0.07571207,0.6409804,1.030013,0.6885118,1.5585,0.348464,0.0703143,-0.1215511,-0.05471566,-0.8787409,-0.2246311,0.06808132,0.6899387,1.555728,0.2010431,0.3449106,1.275398,0.3148634,296.8469,194.3625,44.29326,True
0,1.311113,-0.4928732,0.4695266,-0.2258776,-1.080718,-4.388006,-2.769699,0.6205301,1.368018,0.474431,-1.417354,-1.005306,50.2,11.9,-0.03398313,-0.2336073,0.06571073,-0.08408026,0.6406019,1.031786,0.688783,1.558136,0.3486733,0.08429153,-0.1214975,-0.03882182,-0.8785204,-0.2259226,0.06729675,0.6898144,1.555675,0.2010963,0.3435607,1.281611,0.314089,296.3309,192.7217,46.3035,True
0,1.322224,-0.5024228,0.4545942,-0.2268414,-1.080124,-4.394197,-2.760885,0.6195838,1.367964,0.47438,-1.428337,-0.9879348,50.2,11.9,-0.01967482,-0.2405217,0.01008722,-0.08717272,0.6405393,1.031365,0.6887116,1.558015,0.3487647,0.08645293,-0.131085,-0.03243378,-0.8789188,-0.228428,0.06800275,0.6896793,1.555695,0.2011497,0.342506,1.287686,0.3129619,295.8489,190.7655,48.48297,True
0,1.333336,-0.5088077,0.4514177,-0.2214876,-1.079925,-4.400381,-2.752081,0.6186314,1.367978,0.4743173,-1.439819,-1.03359,50.2,11.9,-0.01327156,-0.2138335,0.002843551,-0.08845743,0.6331991,1.038581,0.6886732,1.557774,0.3489647,0.07795145,-0.05758762,-0.03037178,-0.8790274,-0.2262081,0.06622802,0.6895221,1.555835,0.201381,0.3417309,1.293578,0.3114463,295.4059,188.5212,50.74358,True
0,1.344447,-0.5014041,0.4727938,-0.2152298,-1.080258,-4.407802,-2.743262,0.6178159,1.36767,0.4743385,-1.451605,-1.060947,50.2,11.9,-0.0179444,-0.174926,-0.0478418,-0.08988062,0.6502455,1.021951,0.6883105,1.557387,0.3492651,0.07158585,-0.01710052,-0.02827368,-0.8791904,-0.224588,0.06459311,0.6893971,1.555767,0.2015116,0.3410839,1.299294,0.3096167,295.0067,186.0471,53.0027,True
0,1.355558,-0.4940683,0.5250933,-0.2038407,-1.081488,-4.416602,-2.734008,0.6168126,1.367099,0.4743838,-1.463224,-1.045558,53.5,12.6,-0.08421779,-0.1338549,-0.08186089,-0.09099542,0.6669583,1.008363,0.6879508,1.557038,0.3497016,0.05343852,0.01486263,-0.03565995,-0.8796698,-0.2230549,0.06351692,0.6892399,1.555448,0.2015979,0.3405293,1.304864,0.3076734,294.6569,183.5068,55.20662,True
0,1.366669,-0.4942668,0.6062709,-0.1702636,-1.084492,-4.426637,-2.723818,0.6158583,1.366402,0.4744191,-1.475284,-1.086135,53.5,12.6,-0.1400378,-0.123626,-0.1248466,-0.09337842,0.6868795,0.99196,0.6875099,1.556582,0.3502166,0.04812502,0.05536814,-0.03675481,-0.8797976,-0.2201952,0.06114059,0.6889765,1.555234,0.2017226,0.3400495,1.310339,0.3058084,294.3568,180.9923,57.38601,True
0,1.37778,-0.4784916,0.6906947,-0.1345857,-1.088225,-4.437355,-2.714033,0.614765,1.365619,0.4744136,-1.486808,-1.037072,53.5,12.6,-0.2103604,-0.1223235,-0.2263723,-0.09791058,0.7297031,0.9540884,0.6868622,1.555897,0.3509839,0.05137555,0.08306412,-0.02937261,-0.8797763,-0.2182108,0.05922204,0.6886935,1.555297,0.2018836,0.3396052,1.315723,0.3042416,294.0675,178.332,59.7531,True
0,1.388891,-0.4615759,0.744182,-0.1061614,-1.092166,-4.447654,-2.704721,0.6136715,1.364839,0.4744346,-1.497507,-0.9621245,53.5,12.6,-0.2160574,-0.09736463,-0.3698735,-0.1035442,0.7980404,0.8885522,0.6861308,1.555592,0.3516476,0.03434528,0.07457218,-0.02709537,-0.8797401,-0.2171648,0.05864387,0.6885059,1.555029,0.2020197,0.3389824,1.321031,0.3031257,293.7501,175.651,62.2262,True
0,1.400002,-0.418016,0.7914289,-0.06386086,-1.097074,-4.457789,-2.696822,0.6124415,1.364193,0.474369,-1.509045,-1.039571,53.5,12.6,-0.1967551,-0.06442794,-0.3686602,-0.1057935,0.8286955,0.8593379,0.6853335,1.555228,0.3522444,0.0108882,0.1374252,-0.03025712,-0.8801055,-0.2126317,0.05651068,0.6881588,1.554828,0.2024114,0.3380586,1.326324,0.302556,293.3806,173.2115,64.64337,True
0,1.411114,-0.3635891,0.7544834,-0.03166988,-1.100823,-4.464707,-2.691403,0.6110744,1.36368,0.474462,-1.519965,-0.9826442,37.3,11.9,-0.2262603,-0.03900081,-0.3457052,-0.1074282,0.8518069,0.8397394,0.6841959,1.554786,0.3527138,-0.009412296,0.1906917,-0.04299542,-0.8807122,-0.2070132,0.05334498,0.6878804,1.554691,0.2028179,0.3368238,1.331612,0.3025616,293.0016,170.907,67.15629,True
0,1.422225,-0.3304232,0.6992875,-0.01427409,-1.103707,-4.470481,-2.686189,0.609844,1.363084,0.4744852,-1.531575,-1.046519,37.3,11.9,-0.2921675,-0.02076936,-0.3373604,-0.109571,0.8765368,0.8206427,0.683252,1.554242,0.3533349,-0.0382308,0.2375316,-0.0514172,-0.8814083,-0.202004,0.05164242,0.6877174,1.554673,0.2032783,0.3353865,1.336864,0.3030894,292.628,168.7901,69.687,True
0,1.433336,-0.2886369,0.6025663,0.004449666,-1.105698,-4.473251,-2.683299,0.6083889,1.362284,0.4747107,-1.54255,-0.9881625,37.3,11.9,-0.43938,0.02480233,-0.3694206,-0.1118501,0.9208893,0.7863255,0.6819003,1.553602,0.354142,-0.0489317,0.2662866,-0.05778646,-0.8820512,-0.197244,0.04958353,0.6872988,1.554748,0.2038329,0.3338582,1.342008,0.3040067,292.2356,166.752,72.29499,True
0,1.444447,-0.2639328,0.5218351,0.03053731,-1.108267,-4.475948,-2.679906,0.6067909,1.361202,0.4751468,-1.551797,-0.8310207,37.3,11.9,-0.5633606,0.06941789,-0.4209195,-0.1149133,0.9745388,0.7431133,0.6806141,1.552639,0.3553493,-0.05402026,0.3142888,-0.02481745,-0.8810067,-0.1908379,0.04628601,0.6869315,1.554616,0.2042747,0.3324917,1.34681,0.3051099,291.881,164.632,75.08312,True
0,1.455558,-0.2446437,0.4772761,0.05212316,-1.111089,-4.478935,-2.676596,0.6052365,1.360004,0.475584,-1.561908,-0.9115577,25.8,9.4,-0.6006111,0.06733221,-0.5175114,-0.1214668,1.025585,0.6998937,0.6792768,1.551755,0.3566549,-0.07521439,0.3334908,-0.007664636,-0.8803409,-0.1856356,0.04473232,0.6865441,1.554484,0.204777,0.3314199,1.351062,0.306114,291.6115,162.4951,77.87076,True
0,1.466669,-0.2232895,0.4595037,0.09589815,-1.115349,-4.48239,-2.673234,0.6036287,1.358397,0.4762521,-1.570332,-0.7567284,25.8,9.4,-0.5607495,0.1212384,-0.6931636,-0.1303809,1.109932,0.6210856,0.6775336,1.550833,0.3584812,-0.1229128,0.3420886,0.02674109,-0.8786637,-0.1804047,0.04443484,0.6860875,1.554383,0.2052643,0.3306696,1.354553,0.3067631,291.4322,160.2247,80.57114,True
0,1.47778,-0.1903139,0.4822592,0.1426226,-1.121,-4.487062,-2.670153,0.6021304,1.356692,0.4768002,-1.579054,-0.7856745,25.8,9.4,-0.5030365,0.1465028,-0.784068,-0.1384902,1.172351,0.5629254,0.6759447,1.550097,0.3598566,-0.1321837,0.3560312,0.07365789,-0.8760852,-0.1747726,0.04254373,0.6855305,1.554113,0.2056127,0.3300705,1.357231,0.3069269,291.3085,158.148,82.75719,True
0,1.488891,-0.1222572,0.5348811,0.1827588,-1.127533,-4.493028,-2.668489,0.6007104,1.355244,0.4771402,-1.587452,-0.7558598,25.8,9.4,-0.3991727,0.1798279,-0.84554,-0.1469053,1.231254,0.5055947,0.6741611,1.549565,0.3610952,-0.1533946,0.3635307,0.08764562,-0.8743669,-0.1689676,0.04111228,0.6849808,1.553999,0.2063084,0.329518,1.359171,0.3066658,291.25,156.3988,84.33144,True
0,1.500003,-0.03282627,0.560818,0.2060097,-1.133259,-4.498515,-2.668724,0.5994757,1.354234,0.4772763,-1.596143,-0.7831755,25.8,9.4,-0.3323361,0.2344052,-0.7870795,-0.1508446,1.277496,0.4615426,0.6722655,1.549162,0.362021,-0.1853127,0.4253224,0.09306648,-0.8730513,-0.1607011,0.03906937,0.6844542,1.553942,0.2072957,0.3289223,1.360515,0.3061948,291.1808,154.9493,85.40952,True
0,1.511114,0.0503455,0.5291111,0.2136576,-1.137799,-4.501976,-2.670465,0.598383,1.353351,0.4773653,-1.605672,-0.8597373,22.2,7.8,-0.3418922,0.2686179,-0.6939255,-0.1531552,1.315053,0.4286011,0.6704723,1.54868,0.3628368,-0.2087718,0.4796521,0.08886547,-0.8718625,-0.1513308,0.03619369,0.6838402,1.553915,0.2081549,0.3281703,1.361508,0.3057489,291.0563,153.9408,86.02425,True
0,1.522225,0.119717,0.4780313,0.1947967,-1.140745,-4.504827,-2.672653,0.5973001,1.352231,0.477592,-1.614486,-0.7943383,22.2,7.8,-0.4714364,0.3188683,-0.4672313,-0.1490103,1.340349,0.4130754,0.6685212,1.548065,0.3637114,-0.218587,0.512602,0.05797756,-0.8720244,-0.1428209,0.03369778,0.6831101,1.553987,0.2087996,0.3272045,1.362387,0.3055658,290.8939,153.3551,86.34618,True
0,1.533336,0.1485303,0.4578401,0.1917215,-1.144459,-4.50815,-2.673776,0.5962044,1.351023,0.4780011,-1.621729,-0.651556,22.2,7.8,-0.5126506,0.3229468,-0.4369236,-0.1511781,1.373085,0.3877538,0.6667261,1.547524,0.3647981,-0.2121557,0.5040757,0.06646926,-0.8707546,-0.1365377,0.03182291,0.6824749,1.553815,0.2092826,0.3261469,1.363237,0.3058014,290.726,153.0013,86.68098,True
0,1.544447,0.1943332,0.4690605,0.2630187,-1.156185,-4.514819,-2.676562,0.5937707,1.347693,0.4794116,-1.628059,-0.5693991,12.6,7,-0.5710765,0.1732956,-0.6786904,-0.1718628,1.420277,0.3558103,0.6624341,1.545922,0.3683751,-0.2054069,0.470084,0.1197473,-0.8662411,-0.1245859,0.02846466,0.6810804,1.553746,0.2105689,0.3251759,1.363982,0.3064511,290.5775,152.5023,87.3811,True
0,1.555558,0.2443137,0.5101111,0.3319955,-1.164934,-4.51897,-2.679356,0.5924472,1.345955,0.4801617,-1.635476,-0.6698979,12.6,7,-0.5044984,0.2313112,-0.8481841,-0.1851446,1.471408,0.308879,0.6600734,1.545373,0.3701556,-0.203292,0.4636876,0.1176145,-0.8648483,-0.1180574,0.02642442,0.6802691,1.553746,0.2114475,0.3241497,1.364498,0.3074838,290.5427,151.1613,88.78841,True
0,1.566669,0.3050047,0.5265075,0.3734324,-1.172763,-4.522735,-2.683336,0.5912443,1.344601,0.4806364,-1.638875,-0.3015845,12.6,7,-0.3910776,0.4538406,-0.8704761,-0.1914477,1.552131,0.2298862,0.6577144,1.544921,0.3714428,-0.200999,0.4733193,0.1410112,-0.8624279,-0.1107779,0.02395354,0.6794835,1.553804,0.212543,0.322647,1.364636,0.3091401,290.2615,149.0065,90.87971,True
0,1.577781,0.3050047,0.5265075,0.3734324,-1.172763,-4.522735,-2.683336,0.5912443,1.344601,0.4806364,-1.645367,-0.5877522,12.6,7,-0.3910776,0.4538406,-0.8704761,-0.1914477,1.552131,0.2298862,0.6577144,1.544921,0.3714428,-0.200999,0.4733193,0.1410112,-0.8624279,-0.1107779,0.02395354,0.6794835,1.553804,0.212543,0.3208816,1.364375,0.3113016,289.7565,148.2989,91.90079,True
0,1.588892,0.3573746,0.4562913,0.3685441,-1.177401,-4.523534,-2.688745,0.5901496,1.343676,0.4808948,-1.645745,-0.02686824,12.6,7,-0.2723228,0.5790744,-0.7596009,-0.1938803,-4.673674,0.172821,0.6555583,1.544654,0.3722446,-0.1946987,0.5073804,0.1270511,-0.8612977,-0.1018414,0.020056,0.6786237,1.553897,0.2136331,0.319127,1.363798,0.3137477,289.163,148.9809,91.94057,True
0,1.600003,0.4176762,0.1852954,0.2818363,-1.17934,-4.518569,-2.701645,0.5881134,1.342023,0.4814105,-1.654774,-0.8231821,12,6.9,-0.3162571,0.4619564,-0.3448623,-0.188865,-4.639463,0.1469183,0.6516491,1.543963,0.3737419,-0.2150449,0.5361281,0.1186468,-0.8574916,-0.08534606,0.01480691,0.6770427,1.554167,0.215591,0.3177184,1.363208,0.3158799,288.8225,151.16,90.61988,True
0,1.611114,0.4176762,0.1852954,0.2818363,-1.17934,-4.518569,-2.701645,0.5881134,1.342023,0.4814105,-1.66464,-0.8929898,12,6.9,-0.3162571,0.4619564,-0.3448623,-0.188865,-4.639463,0.1469183,0.6516491,1.543963,0.3737419,-0.2150449,0.5361281,0.1186468,-0.8574916,-0.08534606,0.01480691,0.6770427,1.554167,0.215591,0.3162907,1.362821,0.3175745,288.4734,151.4317,90.74887,True
0,1.622225,0.4210082,0.1288059,0.275805,-1.181996,-4.5172,-2.70693,0.5871298,1.340746,0.4821074,-1.65623,0.7776508,12,6.9,-0.4694084,0.2484494,-0.3572203,-0.1941136,-4.658821,0.1766672,0.6495994,1.543402,0.3749413,-0.2477508,0.5575309,0.1646375,-0.8540582,-0.07603312,0.01248357,0.6760227,1.55423,0.2165501,0.3150659,1.36196,0.318867,288.0731,150.0447,92.41714,True
0,1.633336,0.427404,0.1289751,0.3003034,-1.186478,-4.516834,-2.712064,0.5861389,1.339554,0.4827473,-1.662431,-0.5729663,12,6.9,-0.5307032,0.06750548,-0.5587814,-0.2083572,-4.671013,0.1965232,0.6472133,1.543158,0.3764606,-0.266887,0.5298356,0.1712199,-0.8519346,-0.06969852,0.01196638,0.6749195,1.554095,0.217545,0.3141889,1.360682,0.3195276,287.9076,150.751,91.98496,True
0,1.644447,0.4624958,0.1613742,0.3554938,-1.193199,-4.51734,-2.718313,0.5852157,1.338411,0.4835541,-1.664791,-0.2087612,12,6.9,-0.4827595,0.08336622,-0.6645943,-0.2190439,-4.655278,0.1850559,0.6447415,1.542998,0.3778009,-0.2690569,0.5021273,0.1659645,-0.8501348,-0.06350281,0.01101111,0.6739296,1.554132,0.2185905,0.3136264,1.359077,0.3195604,287.933,151.196,91.41053,True
0,1.655559,0.51789,0.1660563,0.4002021,-1.199504,-4.516855,-2.726143,0.5843813,1.33749,0.4841447,-1.666737,-0.1756192,12,6.9,-0.4073611,0.2521982,-0.635929,-0.2234179,-4.612204,0.1450262,0.6421763,1.542614,0.3790796,-0.2693703,0.5179978,0.1211736,-0.8505657,-0.05534861,0.008676047,0.6730425,1.554264,0.2195528,0.3132365,1.357161,0.3192551,287.8512,151.2844,90.81284,True
0,1.66667,0.5573281,0.1575797,0.3927948,-1.203821,-4.516496,-2.733747,0.5836935,1.336539,0.4845488,-1.669623,-0.2616496,13.9,12,-0.3629622,0.520663,-0.5472904,-0.2251463,-4.547247,0.08431675,0.6397911,1.542292,0.3798752,-0.2589388,0.5126054,0.08915276,-0.8505977,-0.04794595,0.006350041,0.6720896,1.554358,0.2205732,0.3127188,1.355108,0.3189047,287.6387,151.5202,89.93663,True
0,1.677781,0.5658655,0.1521299,0.3693915,-1.207467,-4.516699,-2.740241,0.5829844,1.335566,0.4849474,-1.672077,-0.2216192,13.9,12,-0.354041,0.621806,-0.4397799,-0.2260363,-4.501647,0.04349395,0.6374372,1.542106,0.3806353,-0.2378021,0.4763185,0.06669184,-0.850774,-0.04289061,0.005070925,0.6710846,1.554532,0.2216613,0.3119908,1.353019,0.3188587,287.2982,152.0289,88.90331,True
0,1.688892,0.5710966,0.1891902,0.3318682,-1.211023,-4.518879,-2.746018,0.5825714,1.334358,0.4852331,-1.672816,-0.06531417,13.9,12,-0.3549311,0.6344687,-0.3256393,-0.2253689,-4.4676,0.01424312,0.6352549,1.541808,0.3814352,-0.2396853,0.4870393,0.1039678,-0.8482733,-0.03526598,0.002897253,0.6699621,1.554569,0.2226136,0.3110982,1.350856,0.3192593,286.9249,152.7567,87.98655,True
0,1.700003,0.5816553,0.2286091,0.3273565,-1.215869,-4.521254,-2.752021,0.5819476,1.333084,0.4857023,-1.672518,0.02797866,13.9,12,-0.3759742,0.5658618,-0.279255,-0.2268715,-4.45361,0.005714078,0.6334068,1.541417,0.382467,-0.2318474,0.4818113,0.1582409,-0.8449033,-0.02838797,0.0006937535,0.6688409,1.554765,0.2236028,0.3100864,1.348532,0.3201012,286.644,153.6734,87.14053,True
0,1.711114,0.5975013,0.2840827,0.3333963,-1.221394,-4.524597,-2.757942,0.5814537,1.331856,0.4862256,-1.672992,-0.04322274,13.1,15,-0.3667414,0.4101421,-0.3672809,-0.2343433,-4.457968,0.01380956,0.6314914,1.541138,0.383713,-0.233764,0.4520419,0.1892062,-0.841944,-0.02311171,-0.0002207761,0.6676933,1.55477,0.2244654,0.3089228,1.346076,0.3213353,286.404,154.8491,86.14159,True
0,1.722225,0.6230201,0.3087415,0.3481459,-1.226888,-4.527019,-2.764837,0.5808014,1.330685,0.4867651,-1.67382,-0.07499498,13.1,15,-0.3004357,0.1734745,-0.4748638,-0.2432883,-4.481661,0.03802754,0.6294674,1.540703,0.3852236,-0.226178,0.4467428,0.2083399,-0.8390625,-0.01693344,-0.002102299,0.6667198,1.554887,0.2253954,0.3076408,1.343545,0.3229712,286.146,156.194,85.01759,True
0,1.733337,0.643287,0.2981991,0.3578037,-1.231953,-4.528224,-2.77216,0.5801252,1.329643,0.4873815,-1.674551,-0.06589203,13.1,15,-0.2543842,0.07905266,-0.5253376,-0.2503915,-4.486661,0.04423031,0.6270481,1.540512,0.3864181,-0.2314879,0.4573988,0.2094062,-0.8370544,-0.009678726,-0.004287689,0.6657142,1.555041,0.2263589,0.3061796,1.341036,0.3249849,285.782,157.661,83.80549,True
0,1.744448,0.6827976,0.2600322,0.3708246,-1.236717,-4.528084,-2.781042,0.5793496,1.328694,0.4878416,-1.675562,-0.09174383,13.1,15,-0.2027184,0.05376709,-0.5687603,-0.2581823,-4.486747,0.04473658,0.6247871,1.540204,0.3875828,-0.2441891,0.4712727,0.2211844,-0.8342453,-0.002019209,-0.006298109,0.6646644,1.555106,0.227309,0.3045834,1.3386,0.3273328,285.3432,159.2852,82.54733,True
0,1.755559,0.7116391,0.2259972,0.3667731,-1.240805,-4.528248,-2.789622,0.5787362,1.327881,0.4882424,-1.675879,-0.02806698,13.1,15,-0.1545247,0.1602325,-0.5766712,-0.2644519,-4.462941,0.02181954,0.6223862,1.540017,0.3883803,-0.2560185,0.4744313,0.2042001,-0.8328536,0.00502139,-0.007811318,0.6635769,1.555071,0.228215,0.3029225,1.336218,0.3298661,284.8809,160.9277,81.39719,True
0,1.76667,0.7223238,0.2121065,0.3562069,-1.24479,-4.528813,-2.797777,0.578208,1.326893,0.4885578,-1.677125,-0.1136613,11.1,15.4,-0.1561001,0.3563409,-0.4819112,-0.2664855,-4.421853,-0.01620587,0.6199642,1.53958,0.3889627,-0.2562527,0.4967332,0.1700658,-0.8322458,0.01346068,-0.01064199,0.6625079,1.555109,0.229126,0.3013109,1.333829,0.3323648,284.4183,162.6654,80.22367,True
0,1.777781,0.7116556,0.2225496,0.3273821,-1.248321,-4.530796,-2.804708,0.5776789,1.325712,0.488801,-1.677087,0.004459899,11.1,15.4,-0.2022885,0.5738447,-0.3811293,-0.2677734,-4.370671,-0.06175391,0.6176983,1.539047,0.3894143,-0.2350872,0.4849595,0.1497222,-0.8310575,0.02000687,-0.01327293,0.6613168,1.555249,0.2299242,0.2998521,1.331333,0.3345875,283.989,164.4256,79.00813,True
0,1.788892,0.6475186,0.3149446,0.3065583,-1.257334,-4.538303,-2.814837,0.5769142,1.323217,0.4891684,-1.676768,0.02902836,11.1,15.4,-0.2998935,0.630429,-0.2591106,-0.2711546,-4.312294,-0.1086887,0.6135031,1.538191,0.3909414,-0.1957087,0.4082419,0.1485417,-0.8277781,0.02904071,-0.01596778,0.6590934,1.555277,0.2313278,0.2986238,1.328657,0.3364064,283.6582,166.2982,77.54134,True
0,1.800003,0.6260586,0.378794,0.3040263,-1.262533,-4.543549,-2.819397,0.5765217,1.321841,0.48931,-1.681908,-0.4702805,8,14.5,-0.3109479,0.4748194,-0.3511902,-0.2783392,-4.316553,-0.1007234,0.6114988,1.537697,0.3920715,-0.1796568,0.3912176,0.1591185,-0.825695,0.03412481,-0.01803493,0.6579399,1.555363,0.232044,0.297507,1.325777,0.3378388,283.4148,167.6368,76.32861,True
0,1.811115,0.6260586,0.378794,0.3040263,-1.262533,-4.543549,-2.819397,0.5765217,1.321841,0.48931,-1.674998,0.6355923,8,14.5,-0.3109479,0.4748194,-0.3511902,-0.2783392,-4.316553,-0.1007234,0.6114988,1.537697,0.3920715,-0.1796568,0.3912176,0.1591185,-0.825695,0.03412481,-0.01803493,0.6579399,1.555363,0.232044,0.2963631,1.322413,0.3393051,283.0634,167.8586,76.02405,True
0,1.822226,0.6269788,0.4417052,0.3121448,-1.268293,-4.549326,-2.824692,0.5760133,1.320499,0.4895129,-1.66802,0.6322479,8,14.5,-0.2859071,0.3181335,-0.4543134,-0.2869167,-4.327016,-0.08833439,0.6094401,1.537124,0.3933363,-0.1943726,0.3603854,0.1890989,-0.822742,0.03819426,-0.01805517,0.656745,1.555309,0.2327631,0.2950721,1.318749,0.340773,282.7915,170.9016,73.16357,True
0,1.833337,0.6396247,0.5004236,0.3277532,-1.274632,-4.555401,-2.83046,0.5754508,1.31935,0.4898546,-1.674172,-0.5668405,8,14.5,-0.2021311,0.06065467,-0.6155659,-0.2985872,-4.358963,-0.05838395,0.6070665,1.536833,0.3947928,-0.201654,0.3700152,0.2125699,-0.8197252,0.04433963,-0.01986079,0.6554002,1.555394,0.2336321,0.2937131,1.315465,0.3419179,282.9465,176.328,68.02761,True
0,1.844448,0.6821162,0.5572039,0.362543,-1.287503,-4.56647,-2.84371,0.5742705,1.317794,0.4904308,-1.676297,-0.188477,8,14.5,-0.04137692,0.1339889,-0.6484463,-0.3146908,-4.350313,-0.07067337,0.6017885,1.536336,0.396708,-0.246051,0.4553319,0.2648968,-0.8126817,0.06133673,-0.02454263,0.6528578,1.555543,0.2351871,0.2923946,1.312881,0.3430088,283.0124,179.6614,64.73425,True
0,1.855559,0.6769532,0.4888362,0.3352771,-1.290916,-4.568555,-2.850551,0.5735883,1.317294,0.490607,-1.685221,-0.8147451,5.3,12.3,-0.07362497,0.4475379,-0.5681143,-0.3197274,-4.30076,-0.1160728,0.5992604,1.535979,0.3970182,-0.221824,0.4158348,0.2253923,-0.8115739,0.06601071,-0.0260846,0.6516825,1.555654,0.2358668,0.290924,1.310998,0.3444016,282.7622,180.9957,63.20213,True
0,1.86667,0.6314044,0.3786647,0.2827185,-1.292231,-4.568635,-2.855963,0.5729634,1.316619,0.4908431,-1.677836,0.6816851,5.3,12.3,-0.1651762,0.6272923,-0.4107932,-0.320896,-4.261767,-0.1479969,0.5970756,1.53562,0.3973458,-0.1850031,0.3474922,0.1592483,-0.8118556,0.06746133,-0.02632402,0.650527,1.555613,0.2365358,0.2891748,1.309353,0.3467406,282.0223,180.442,63.69767,True
0,1.877781,0.5634403,0.2855173,0.2353806,-1.293221,-4.568466,-2.860038,0.5722511,1.315637,0.491102,-1.675988,0.1622318,5.3,12.3,-0.2299004,0.6464931,-0.2905856,-0.3211671,-4.236351,-0.1673608,0.5947473,1.535091,0.397773,-0.1692011,0.3421139,0.1335819,-0.8113709,0.07248698,-0.0284383,0.6493464,1.55566,0.2371049,0.2873916,1.307546,0.3497555,281.4286,181.6626,63.16851,True
0,1.888893,0.5634403,0.2855173,0.2353806,-1.293221,-4.568466,-2.860038,0.5722511,1.315637,0.491102,-1.67402,0.1792308,5.3,12.3,-0.2299004,0.6464931,-0.2905856,-0.3211671,-4.236351,-0.1673608,0.5947473,1.535091,0.397773,-0.1692011,0.3421139,0.1335819,-0.8113709,0.07248698,-0.0284383,0.6493464,1.55566,0.2371049,0.2857545,1.305495,0.3528698,281.2083,184.0744,61.79031,True
0,1.900004,0.4601429,0.2670105,0.211009,-1.298633,-4.572869,-2.866174,0.5709591,1.313271,0.4919348,-1.668849,0.4717664,10.6,24.1,-0.2952405,0.5775415,-0.4024896,-0.3346411,-4.211427,-0.181998,0.5906411,1.533689,0.3994834,-0.1668102,0.3059439,0.1719992,-0.8061846,0.08083546,-0.03030411,0.6465645,1.555781,0.2381046,0.2845197,1.303225,0.3555814,281.1948,187.3943,59.45045,True
0,1.911115,0.4601429,0.2670105,0.211009,-1.298633,-4.572869,-2.866174,0.5709591,1.313271,0.4919348,-1.677034,-0.7518191,10.6,24.1,-0.2952405,0.5775415,-0.4024896,-0.3346411,-4.211427,-0.181998,0.5906411,1.533689,0.3994834,-0.1668102,0.3059439,0.1719992,-0.8061846,0.08083546,-0.03030411,0.6465645,1.555781,0.2381046,0.2835098,1.301147,0.3574722,281.3506,190.7441,56.7076,True
0,1.922226,0.4408395,0.3235165,0.2255665,-1.303187,-4.577696,-2.869307,0.5702148,1.312257,0.4923058,-1.670331,0.6200013,10.6,24.1,-0.1949443,0.5353673,-0.4764367,-0.3433038,-4.202155,-0.1920344,0.5886052,1.53288,0.4005854,-0.1376009,0.3071021,0.2357175,-0.8015827,0.08531343,-0.03294943,0.6451373,1.555914,0.2385995,0.2826884,1.299089,0.3586546,281.2195,191.598,56.00448,True
0,1.933337,0.4365118,0.3512169,0.2275202,-1.307002,-4.581771,-2.873122,0.5692724,1.311361,0.4925809,-1.673178,-0.2658355,10.6,24.1,-0.07609421,0.3879845,-0.4781578,-0.3481881,-4.205896,-0.1914933,0.5865126,1.532248,0.40148,-0.1117765,0.2879457,0.2718048,-0.7974559,0.08836675,-0.03477875,0.6436738,1.556143,0.2391269,0.2820757,1.297256,0.3590961,281.3122,193.6048,53.96484,True
0,1.944448,0.4322485,0.3499308,0.194504,-1.309083,-4.585369,-2.876913,0.5683323,1.310374,0.4928522,-1.675319,-0.1925876,10.6,24.1,0.002646044,0.1697927,-0.5228152,-0.3544273,-4.224997,-0.1761641,0.5846469,1.53153,0.4023447,-0.106539,0.2708759,0.2590177,-0.7950724,0.0919242,-0.0362411,0.6423692,1.556206,0.2395794,0.2813441,1.295821,0.3591072,281.3659,194.3822,52.80266,True
0,1.955559,0.4099053,0.336858,0.1562288,-1.310318,-4.588696,-2.879938,0.5672402,1.309463,0.4931624,-1.676233,-0.08197674,10.6,24.1,0.004175842,0.08167598,-0.5525118,-0.3611625,-4.232654,-0.1686644,0.5826337,1.530964,0.4030855,-0.1205269,0.2718783,0.2377874,-0.7935948,0.09593306,-0.03725389,0.6414981,1.556155,0.2398534,0.280395,1.29476,0.3591434,281.2411,194.5688,52.1732,True
0,1.966671,0.3866265,0.2684345,0.126844,-1.311069,-4.589405,-2.883344,0.5659232,1.308733,0.4935498,-1.676279,-0.003543264,10.7,45.7,-0.06100966,0.05323154,-0.5627774,-0.3676877,-4.236965,-0.1616888,0.580658,1.53039,0.4037075,-0.1173089,0.287864,0.2409299,-0.7909577,0.1013533,-0.03982171,0.6402942,1.556151,0.2403197,0.2792257,1.293879,0.3594813,281.0487,194.149,52.36036,True
0,1.977782,0.3804227,0.1905573,0.1113589,-1.311685,-4.588821,-2.887613,0.5646445,1.308093,0.4939423,-1.675547,0.06688902,10.7,45.7,-0.1616511,0.102165,-0.5228399,-0.3723871,-4.229822,-0.1630859,0.5786211,1.529944,0.4040534,-0.100278,0.2835611,0.2365541,-0.7886248,0.1051206,-0.04216743,0.6391189,1.556094,0.2408655,0.2779283,1.292925,0.3602591,280.9097,193.3778,53.11436,True
0,1.988893,0.3722279,0.05077562,0.0792326,-1.310457,-4.584665,-2.892579,0.5631313,1.307675,0.4943726,-1.675334,0.01904661,10.7,45.7,-0.2215407,0.1560379,-0.4598516,-0.3758327,-4.221166,-0.1665645,0.5766097,1.529364,0.4044707,-0.1081165,0.2781274,0.1812219,-0.7885796,0.109124,-0.04353523,0.6380494,1.556272,0.2414856,0.2764519,1.29178,0.3614702,280.827,193.2344,53.41536,True
0,2.000004,0.3533126,-0.06023898,0.05224309,-1.309056,-4.580449,-2.89698,0.5616351,1.307076,0.4948184,-1.676027,-0.06337951,10.7,45.7,-0.2706162,0.2000921,-0.3778908,-0.3776384,-4.211447,-0.1710479,0.5746779,1.528426,0.4050207,-0.1179821,0.2705853,0.1418838,-0.7885188,0.112876,-0.04445535,0.6371008,1.556345,0.2418408,0.2748662,1.290401,0.3629276,280.7685,194.1915,52.78811,True
0,2.011115,0.3268013,-0.111505,0.04191846,-1.308479,-4.577542,-2.900475,0.5602297,1.306154,0.495297,-1.676031,0.000410182,10.7,45.7,-0.2801197,0.1850665,-0.3640917,-0.3815324,-4.209322,-0.1695826,0.5725276,1.527366,0.4055889,-0.1245203,0.2534979,0.1217056,-0.7880027,0.1159412,-0.04494217,0.6359979,1.556409,0.2420433,0.2733489,1.288746,0.3643601,280.7482,195.8633,51.57135,True
0,2.022226,0.2766869,-0.09566345,0.0386228,-1.308554,-4.577013,-2.901877,0.5589945,1.304681,0.4958599,-1.675573,0.04190642,18.2,65,-0.2769669,0.1829548,-0.4685557,-0.3905563,-4.20826,-0.1676183,0.5704228,1.526344,0.4062562,-0.1200371,0.2503639,0.1536403,-0.7853646,0.1199988,-0.04657815,0.6346414,1.556418,0.2422974,0.2719855,1.28678,0.3653868,280.8425,197.5995,50.25434,True
0,2.033337,0.2594509,-0.01677778,0.053037,-1.3103,-4.579386,-2.903597,0.5578505,1.303571,0.4962754,-1.675128,0.0404571,18.2,65,-0.2618385,0.2478732,-0.5681822,-0.4012212,-4.199561,-0.1732764,0.5682738,1.525598,0.4069562,-0.1209794,0.2450682,0.171767,-0.7829379,0.1237266,-0.04782984,0.633404,1.5564,0.2426531,0.2707899,1.28453,0.3658184,281.0224,199.0277,48.97192,True
0,2.044448,0.2708749,0.1091265,0.07992798,-1.313339,-4.584327,-2.905711,0.5567532,1.302911,0.4963973,-1.673864,0.1154089,18.2,65,-0.2370394,0.4110147,-0.5891113,-0.4105194,-4.176809,-0.1925692,0.5664355,1.524985,0.4074144,-0.1097147,0.2623404,0.2611103,-0.7773511,0.1299543,-0.0513311,0.6323966,1.556655,0.2432001,0.269725,1.282072,0.3657338,281.2081,199.9779,47.82801,True
0,2.055559,0.2793674,0.1208315,0.07452364,-1.314241,-4.585676,-2.908753,0.5554359,1.302179,0.4966021,-1.674731,-0.08058655,18.2,65,-0.2226612,0.3815649,-0.5288454,-0.4144028,-4.171564,-0.1952174,0.5643434,1.524366,0.4079998,-0.1247539,0.2538277,0.2462886,-0.7756904,0.1341964,-0.05215455,0.6311705,1.556714,0.2437685,0.26864,1.279555,0.365408,281.4055,200.9205,46.43814,True
0,2.06667,0.2942962,0.1120784,0.03303374,-1.313425,-4.586795,-2.912271,0.5542245,1.301542,0.4966836,-1.675305,-0.05236295,10.5,48.6,-0.2113769,0.2430449,-0.4281362,-0.4150324,-4.17741,-0.1879222,0.5623423,1.523653,0.4084086,-0.1359081,0.2717913,0.1738874,-0.7765069,0.1392464,-0.05382169,0.630155,1.556763,0.2442095,0.2673368,1.277252,0.3652134,281.6243,202.5447,44.3184,True
0,2.077781,0.2836871,0.09706985,0.02354943,-1.313549,-4.58718,-2.915064,0.5527656,1.300678,0.4969602,-1.67425,0.0956208,10.5,48.6,-0.2063162,0.1855868,-0.4362513,-0.4202516,-4.179559,-0.1837957,0.5601164,1.522984,0.4089537,-0.1573618,0.3058536,0.153716,-0.7758246,0.1460522,-0.05612612,0.628818,1.556673,0.2445636,0.265758,1.275324,0.3654674,281.7859,204.3108,42.30962,True
0,2.088892,0.2602983,0.07791968,0.03646273,-1.314494,-4.58715,-2.917109,0.5515141,1.299984,0.4972832,-1.672893,0.1215871,10.5,48.6,-0.203552,0.2693751,-0.5025145,-0.4290065,-4.168875,-0.1914581,0.5580869,1.522419,0.4094369,-0.1529136,0.3059023,0.1813822,-0.7730203,0.1509811,-0.05802415,0.6276455,1.556816,0.2450287,0.2641079,1.27363,0.3661722,281.8673,205.2344,41.49605,True
0,2.100003,0.2604139,0.03119193,0.05913357,-1.315677,-4.585651,-2.920351,0.5502108,1.29957,0.4975619,-1.669788,0.2810389,10.5,48.6,-0.2040861,0.3628956,-0.4802198,-0.4348468,-4.154121,-0.2026394,0.5561415,1.521959,0.4098268,-0.1400284,0.2856945,0.1973097,-0.7704717,0.1546225,-0.05949688,0.626452,1.55692,0.2454364,0.2625207,1.271959,0.3672333,281.9029,205.3755,41.60913,True
0,2.111114,0.2743967,-0.02204126,0.05948019,-1.315965,-4.583532,-2.924551,0.5488964,1.299394,0.497725,-1.666264,0.317709,10.5,48.6,-0.1933731,0.4515355,-0.4016317,-0.4381241,-4.136694,-0.2167763,0.5542855,1.521456,0.4099529,-0.1337819,0.2622148,0.1760071,-0.7694544,0.1576673,-0.06049823,0.6253304,1.5571,0.2459693,0.2609228,1.270164,0.3685302,281.8545,205.8602,41.38908,True
0,2.122225,0.2755089,-0.04019023,0.04893634,-1.31606,-4.582389,-2.928126,0.5477874,1.298975,0.497874,-1.664148,0.1887477,6.4,47.7,-0.1733585,0.4292651,-0.3157778,-0.4395531,-4.127627,-0.2237854,0.5526491,1.521069,0.4100046,-0.1488036,0.241941,0.1612446,-0.7682538,0.1607612,-0.06053365,0.6241622,1.557147,0.2464309,0.2593642,1.268219,0.3698969,281.8336,207.46,40.11069,True
0,2.133336,0.2605486,-0.02434611,0.03712806,-1.316093,-4.582834,-2.930199,0.5468155,1.298369,0.4980319,-1.661744,0.2156577,6.4,47.7,-0.1889582,0.349858,-0.2557173,-0.4408544,-4.125449,-0.2230847,0.5510676,1.520687,0.4102521,-0.1466782,0.247263,0.1601513,-0.7666969,0.1651155,-0.06210598,0.6230056,1.55724,0.246855,0.2578932,1.266128,0.3710908,281.9201,209.6289,38.31593,True
0,2.144447,0.239122,0.02561623,0.02828851,-1.316511,-4.584807,-2.931624,0.5459784,1.297732,0.4981604,-1.657705,0.3647126,6.4,47.7,-0.239045,0.2816401,-0.2367276,-0.4429428,-4.124492,-0.2196626,0.5495473,1.520214,0.4104731,-0.1178222,0.2291776,0.1727778,-0.7644183,0.1682501,-0.06413425,0.6217725,1.557221,0.2472067,0.2565839,1.263839,0.3719388,282.1179,211.4339,36.79668,True
0,2.155558,0.23904,0.05756388,0.02701994,-1.317146,-4.586416,-2.933844,0.5450585,1.297086,0.4982789,-1.652502,0.4694954,6.4,47.7,-0.266893,0.2487551,-0.2410434,-0.4463303,-4.121599,-0.2184194,0.5479058,1.519775,0.410876,-0.1050002,0.2249159,0.1769495,-0.7626175,0.1716205,-0.06592229,0.620597,1.557187,0.247515,0.2554607,1.26129,0.3724587,282.3526,212.6552,35.63961,True
0,2.166669,0.2442048,0.1257911,0.03297366,-1.318433,-4.589973,-2.935894,0.5443943,1.296684,0.4984522,-1.64787,0.4165025,9.3,47.3,-0.2403971,0.2178126,-0.244844,-0.4494063,-4.120093,-0.2179225,0.5465073,1.519432,0.4111376,-0.09638202,0.2185522,0.190752,-0.7601514,0.1750822,-0.06766053,0.6194071,1.557115,0.2478125,0.2543916,1.258523,0.3728011,282.6296,213.7539,34.40359,True
0,2.17778,0.2473991,0.1322225,0.03825673,-1.31932,-4.591446,-2.938569,0.5434157,1.296427,0.4986043,-1.643979,0.3490367,9.3,47.3,-0.1495555,0.2097531,-0.2160566,-0.4513201,-4.116003,-0.2231774,0.5449401,1.51923,0.4113314,-0.0921222,0.2174622,0.1885883,-0.758439,0.1783693,-0.06927654,0.6182795,1.557085,0.2480845,0.2532655,1.255643,0.3731731,282.9436,215.0653,32.90301,True
0,2.188891,0.2495753,0.1130662,0.04051191,-1.319954,-4.591855,-2.941321,0.542748,1.296313,0.49877,-1.639436,0.4089107,9.3,47.3,-0.08852993,0.2071175,-0.1868959,-0.4528514,-4.111598,-0.2283099,0.5435456,1.519056,0.4115365,-0.08598161,0.2173868,0.1523238,-0.7582132,0.1819297,-0.07115034,0.6173093,1.557195,0.248553,0.2520753,1.252717,0.3737355,283.281,216.6236,31.20532,True
0,2.200002,0.2539541,0.06299971,0.03869654,-1.320071,-4.590864,-2.944497,0.5420988,1.296382,0.4989071,-1.634289,0.463284,9.3,47.3,-0.03376518,0.2043718,-0.1448826,-0.4535267,-4.10662,-0.2341454,0.5423052,1.51903,0.4115961,-0.09144005,0.2045456,0.1310827,-0.7575148,0.1844355,-0.07189869,0.6163301,1.557307,0.2488315,0.2508402,1.249833,0.3746554,283.6432,218.4652,29.3421,True
0,2.211113,0.2540626,0.01715954,0.03366412,-1.320003,-4.589441,-2.947694,0.5414082,1.296365,0.4990201,-1.628561,0.5158632,9.3,47.3,-0.04067391,0.195309,-0.09056324,-0.4531667,-4.101803,-0.2376368,0.5412869,1.519098,0.4116797,-0.08617136,0.1927988,0.1214782,-0.7565827,0.1869588,-0.07307155,0.6152865,1.557511,0.2490849,0.2495763,1.247018,0.3758813,283.9983,220.3883,27.60894,True
0,2.222224,0.2521356,-0.06920882,0.02249763,-1.319156,-4.585809,-2.951376,0.5408024,1.296476,0.4992366,-1.622861,0.5127823,4.5,45.3,-0.04332991,0.1434828,-0.0239587,-0.4513398,-4.100852,-0.2378751,0.5403939,1.519166,0.4117296,-0.08623049,0.1725411,0.1129967,-0.7557327,0.1887928,-0.07343001,0.6143395,1.55763,0.2492373,0.2485332,1.244262,0.3772743,284.3634,222.3055,26.0404,True
0,2.233335,0.2468863,-0.101189,0.02057103,-1.318958,-4.583831,-2.954459,0.5401531,1.296384,0.4994674,-1.616856,0.5406516,4.5,45.3,-0.02093437,0.1295017,-0.01795275,-0.451825,-4.098425,-0.2406185,0.5393733,1.519107,0.4118788,-0.07021472,0.1459063,0.1172021,-0.7542567,0.1899871,-0.07414107,0.6133845,1.557717,0.2493916,0.2477401,1.241552,0.3786083,284.7333,223.9913,24.74493,True
0,2.244446,0.2363051,-0.1310284,0.02289427,-1.318812,-4.581226,-2.957358,0.5396357,1.296293,0.4997211,-1.61071,0.5531674,4.5,45.3,0.01282832,0.1094116,-0.04302432,-0.4531731,-4.097919,-0.242349,0.5384578,1.519037,0.4119813,-0.07529715,0.1086914,0.1524676,-0.7514162,0.1902291,-0.07332961,0.6124413,1.557823,0.2494497,0.2471601,1.238838,0.3796895,285.0847,225.3735,23.69086,True
0,2.255557,0.2245714,-0.1235521,0.03029613,-1.319108,-4.580125,-2.959774,0.539251,1.296096,0.499742,-1.604321,0.5751824,4.5,45.3,0.02441569,0.1330065,-0.06206956,-0.4549675,-4.093745,-0.2466114,0.5374846,1.519187,0.4120209,-0.04537344,0.09911314,0.1650577,-0.7493517,0.1914431,-0.07469741,0.6115104,1.557832,0.2495627,0.2468107,1.236058,0.3803621,285.4529,226.4029,22.81854,True
0,2.266668,0.2212842,-0.08518273,0.0343111,-1.319668,-4.580355,-2.962084,0.5389807,1.296016,0.4997251,-1.597681,0.59791,5.5,44.9,0.02365945,0.1722444,-0.04460259,-0.4556839,-4.086567,-0.2532924,0.5366735,1.519211,0.4120562,-0.02308662,0.07458741,0.1521654,-0.7481655,0.1917612,-0.07544709,0.6106839,1.557965,0.2497454,0.2465344,1.233181,0.3806486,285.821,227.2696,21.89097,True
0,2.277779,0.2062709,-0.04265483,0.02658327,-1.319863,-4.581217,-2.963774,0.5387475,1.296128,0.4996877,-1.59119,0.5841672,5.5,44.9,0.03476991,0.1738822,-0.00101414,-0.4546043,-4.081145,-0.2587346,0.5360566,1.519318,0.4120216,-0.01152341,0.06813166,0.1286573,-0.7475866,0.1923083,-0.07614803,0.6098708,1.557872,0.2498813,0.2463414,1.230204,0.3806342,286.2161,228.1423,20.84646,True
0,2.28889,0.1987553,-0.01819389,0.02322913,-1.320059,-4.581751,-2.965601,0.5385443,1.296132,0.4996679,-1.584983,0.5581753,5.5,44.9,0.05000636,0.1382456,0.04000167,-0.4528386,-4.079435,-0.2613794,0.5354512,1.519395,0.4120057,-0.01588078,0.06384298,0.1148469,-0.7468563,0.1932209,-0.0764953,0.609088,1.557886,0.2499998,0.2461746,1.227169,0.3804612,286.6585,229.066,19.69753,True
0,2.300001,0.1987553,-0.01819389,0.02322913,-1.320059,-4.581751,-2.965601,0.5385443,1.296132,0.4996679,-1.578053,0.6245543,5.5,44.9,0.05000636,0.1382456,0.04000167,-0.4528386,-4.079435,-0.2613794,0.5354512,1.519395,0.4120057,-0.01588078,0.06384298,0.1148469,-0.7468563,0.1932209,-0.0764953,0.609088,1.557886,0.2499998,0.2460114,1.224155,0.380336,287.1603,230.023,18.49646,True
0,2.311112,0.1869919,0.003042504,0.01669995,-1.320324,-4.582376,-2.969398,0.5380465,1.29592,0.4998527,-1.569613,0.7619771,5.5,44.9,0.06947849,-0.03206532,0.01883165,-0.4514532,-4.092476,-0.2517119,0.534441,1.51919,0.41224,0.008407824,0.04350877,0.08276694,-0.7458598,0.1934111,-0.07764713,0.6074911,1.557982,0.25019,0.2458662,1.221249,0.3804343,287.6884,230.9198,17.42279,True
0,2.322223,0.1722216,-0.05661668,0.02241247,-1.320493,-4.579069,-2.973572,0.5374556,1.295655,0.4999933,-1.566676,0.2576706,5.2,39.7,0.04625401,-0.07602974,-0.04850606,-0.4538346,-4.101485,-0.2438931,0.533316,1.518935,0.4125676,0.009584099,0.02649549,0.09877213,-0.7431423,0.1938317,-0.07819095,0.6059805,1.558042,0.2503152,0.2456736,1.218556,0.3807939,288.2021,231.7847,16.48684,True
0,2.333334,0.1734263,-0.1151978,0.02278602,-1.32014,-4.575578,-2.976437,0.5371099,1.295719,0.5000556,-1.560305,0.5760038,5.2,39.7,0.006529361,-0.08843431,-0.07271047,-0.455065,-4.105188,-0.238889,0.5327682,1.518964,0.4125438,0.01923295,0.0179799,0.1072475,-0.7415311,0.1936022,-0.0786759,0.6053692,1.558005,0.250319,0.2453359,1.215996,0.3814815,288.5049,232.3954,15.88795,True
0,2.344445,0.1703295,-0.1535531,0.02303527,-1.319956,-4.572453,-2.979108,0.5367355,1.295667,0.5001662,-1.551362,0.8078101,5.2,39.7,-0.01038517,-0.06606665,-0.06696979,-0.4556125,-4.105033,-0.238199,0.5321426,1.51888,0.4125996,0.004348427,0.03076985,0.1105167,-0.7403353,0.1950666,-0.07930361,0.6047117,1.558056,0.2503736,0.2450506,1.213335,0.3824381,288.6864,233.1151,15.35495,True
0,2.355556,0.1661635,-0.1929441,0.02861528,-1.319884,-4.568532,-2.981777,0.5363897,1.29555,0.500355,-1.544621,0.6048322,5.2,39.7,0.03161369,0.02952124,-0.05256329,-0.4565302,-4.095605,-0.2487004,0.5315375,1.518694,0.4125252,0.0001825243,0.02970984,0.1233371,-0.7384456,0.1953791,-0.07944742,0.603991,1.558189,0.2503488,0.2449101,1.210485,0.3834276,289.0084,234.0549,14.7404,True
0,2.366668,0.1683531,-0.2184645,0.03410179,-1.319904,-4.565163,-2.984549,0.5361727,1.295539,0.5004694,-1.537919,0.6034884,6.3,41,0.06052601,0.0741585,-0.05132274,-0.4574746,-4.090652,-0.2548997,0.530975,1.518696,0.4125178,-0.002975956,0.03185234,0.1276124,-0.7369584,0.1962558,-0.08005489,0.603376,1.558272,0.2503932,0.2449403,1.207472,0.3842102,289.4998,234.9609,14.12358,True
0,2.377779,0.1715189,-0.2056462,0.03828035,-1.320215,-4.563196,-2.987061,0.5359725,1.295404,0.5004861,-1.531182,0.6065684,6.3,41,0.03808513,0.1010162,-0.06571931,-0.4592952,-4.08659,-0.2580869,0.530275,1.518601,0.4125533,-0.009468511,0.01689311,0.112772,-0.7362538,0.1954291,-0.07912518,0.6029707,1.558306,0.2503643,0.2451006,1.204337,0.3846731,290.0518,235.7588,13.45516,True
0,2.38889,0.1830975,-0.1490806,0.04856597,-1.321184,-4.56372,-2.989283,0.5358794,1.295199,0.5004444,-1.524958,0.5596669,6.3,41,-0.01204555,0.1397054,-0.08289416,-0.4615785,-4.081218,-0.260659,0.5296293,1.518444,0.4126046,-0.0009855255,0.01579633,0.1052675,-0.7352561,0.1954466,-0.07966234,0.602443,1.558339,0.2504947,0.2450793,1.201944,0.3847453,290.0535,235.9941,13.29764,True
0,2.400001,0.1925814,-0.1053404,0.05467546,-1.32211,-4.56414,-2.991691,0.5357961,1.294975,0.5003455,-1.518688,0.5643316,6.3,41,-0.02794954,0.1834972,-0.08865882,-0.4637389,-4.07372,-0.2663736,0.529036,1.518333,0.4126294,-0.002102785,0.01791256,0.09781389,-0.7345243,0.1959362,-0.07995342,0.6019551,1.558356,0.2505338,0.2453978,1.201124,0.384756,289.8403,235.5257,13.75851,True
0,2.411112,0.2009647,-0.04564434,0.05641825,-1.323039,-4.565938,-2.993822,0.5357199,1.294691,0.5002034,-1.51267,0.5412058,6.3,41,-0.004527345,0.18771,-0.09206671,-0.4653997,-4.070022,-0.270766,0.528516,1.518004,0.4127052,-0.01283709,0.01680681,0.08510971,-0.7340156,0.1958795,-0.07940561,0.6014608,1.55829,0.2505555,0.2457813,1.200659,0.3847843,289.5598,234.9381,14.28043,True
0,2.422223,0.2051697,-0.02219814,0.05626691,-1.323772,-4.566601,-2.996109,0.5356559,1.294426,0.5001087,-1.506527,0.5528504,4,36.7,0.01987685,0.1684924,-0.09572235,-0.4668596,-4.068377,-0.2734329,0.5279876,1.517799,0.4127474,-0.01081789,0.0284943,0.0690933,-0.7339571,0.1970571,-0.08023918,0.6009547,1.558289,0.2506335,0.2461203,1.200256,0.3850193,289.2065,234.8396,14.30778,True
0,2.433334,0.2019843,-0.02646916,0.05629151,-1.324253,-4.565852,-2.99837,0.535677,1.29408,0.4999619,-1.500286,0.5617334,4,36.7,0.03244361,0.1302065,-0.1058449,-0.4682924,-4.069667,-0.2732771,0.5273534,1.51747,0.4127913,-0.01288408,0.04020507,0.07760968,-0.7327773,0.198126,-0.08089592,0.6004492,1.55827,0.2507737,0.2463928,1.199816,0.3854784,288.7673,235.4238,13.68775,True
0,2.444445,0.1881709,-0.04142314,0.0553254,-1.324662,-4.564659,-3.000179,0.5356773,1.293651,0.4999094,-1.493882,0.5766056,4,36.7,0.00626827,0.07423632,-0.1455753,-0.4709566,-4.074537,-0.2677667,0.5267026,1.517016,0.4129863,-0.006437935,0.04978354,0.085013,-0.7314164,0.1991705,-0.081893,0.6000125,1.558221,0.2508733,0.2466118,1.199325,0.3861135,288.2694,236.5783,12.51243,True
0,2.455556,0.1881709,-0.04142314,0.0553254,-1.324662,-4.564659,-3.000179,0.5356773,1.293651,0.4999094,-1.487267,0.5957956,4,36.7,0.00626827,0.07423632,-0.1455753,-0.4709566,-4.074537,-0.2677667,0.5267026,1.517016,0.4129863,-0.006437935,0.04978354,0.085013,-0.7314164,0.1991705,-0.081893,0.6000125,1.558221,0.2508733,0.2468748,1.198799,0.3867751,287.7261,237.8957,11.23005,True
0,2.466667,0.1647642,-0.05414766,0.07138364,-1.326426,-4.562734,-3.003461,0.5355771,1.292459,0.4999707,-1.479042,0.7429132,10.9,39.7,-0.01367415,0.1252715,-0.2321826,-0.479443,-4.070643,-0.2698081,0.5256418,1.516059,0.4134421,-0.005326092,0.07110098,0.09028989,-0.7294697,0.2029101,-0.08468666,0.5991633,1.558153,0.2510543,0.2472167,1.198285,0.3873056,287.1985,238.8577,10.32087,True
0,2.477778,0.1604393,-0.02633043,0.09144607,-1.328287,-4.563275,-3.004937,0.5356874,1.292015,0.4999385,-1.475798,0.2862903,10.9,39.7,0.02890809,0.1828726,-0.2522714,-0.4840402,-4.06384,-0.2778513,0.5252124,1.515799,0.4135532,2.928078E-05,0.07322778,0.09345154,-0.7283032,0.2041896,-0.08594926,0.5987593,1.558107,0.2511246,0.2474581,1.19783,0.3876083,286.713,239.7798,9.434752,True
0,2.488889,0.1678587,-0.007072523,0.1009089,-1.32982,-4.563799,-3.007064,0.5356649,1.29165,0.4998858,-1.468369,0.6730057,10.9,39.7,0.07415508,0.2484873,-0.2243604,-0.4867007,-4.053771,-0.2893881,0.5248486,1.515701,0.4135752,0.008494049,0.06680696,0.08595993,-0.7275341,0.204669,-0.08668377,0.5983936,1.558138,0.2511871,0.2479671,1.197202,0.3878077,286.2064,239.6535,9.573639,True
0,2.5,0.1773855,0.01853717,0.1039387,-1.331248,-4.564864,-3.009139,0.5358633,1.291572,0.499635,-1.462395,0.5361863,10.9,39.7,0.0792263,0.214543,-0.1374103,-0.4852333,-4.050488,-0.2932265,0.5248117,1.515745,0.4135466,0.01788785,0.04651432,0.05823383,-0.7280347,0.2040806,-0.08687498,0.5981612,1.558231,0.2512608,0.2484292,1.196617,0.3880418,285.7296,239.638,9.589883,True
0,2.511111,0.1858485,0.04409038,0.09844518,-1.332263,-4.566215,-3.01123,0.5360165,1.291433,0.499398,-1.45702,0.482922,10.9,39.7,0.07959674,0.1340335,-0.07966161,-0.4834026,-4.053473,-0.2915735,0.5248052,1.515709,0.4135776,0.004970949,0.03475408,0.03918149,-0.7282414,0.2037718,-0.08613063,0.5979437,1.558334,0.2512665,0.2487736,1.196119,0.3883952,285.2895,240.1846,9.058924,True
0,2.522222,0.187939,0.06004104,0.09301315,-1.333195,-4.567424,-3.013059,0.5362293,1.291189,0.4991248,-1.451082,0.5347668,5.9,36,0.07425217,0.001554511,-0.04157901,-0.4810031,-4.063792,-0.2829361,0.5248369,1.515716,0.4136586,-0.00139096,0.03156628,0.04349314,-0.7276054,0.204184,-0.08614953,0.5976265,1.55836,0.251266,0.2490294,1.195658,0.388841,284.8725,241.2481,8.030499,True
0,2.533333,0.1932246,0.07605364,0.09503639,-1.334489,-4.568874,-3.014981,0.5366225,1.29095,0.4989929,-1.44518,0.5310666,5.9,36,0.07062591,-0.08990575,-0.05528358,-0.4809451,-4.073748,-0.274778,0.5248054,1.515527,0.4139202,0.007231064,0.02093274,0.05837627,-0.7261125,0.2039232,-0.08638149,0.5974779,1.558358,0.2512145,0.2492606,1.195233,0.3893133,284.4695,242.5327,6.800836,True
0,2.544444,0.1964019,0.08463011,0.1024358,-1.33601,-4.569941,-3.017019,0.5368929,1.290756,0.4988933,-1.439032,0.553847,5.9,36,0.07243948,-0.1216571,-0.07587595,-0.4819086,-4.079751,-0.2703468,0.5246732,1.515385,0.4140091,0.009368736,0.01667321,0.05836495,-0.725574,0.2040961,-0.08681239,0.5971766,1.558427,0.251256,0.2494005,1.194775,0.3896574,283.9259,244.6599,4.724778,True
0,2.555555,0.1921329,0.08996322,0.1045329,-1.3374,-4.571019,-3.018761,0.537087,1.290527,0.4987502,-1.433416,0.50506,5.9,36,0.09255484,-0.09809013,-0.0950167,-0.4835784,-4.081244,-0.2708746,0.524429,1.515252,0.4140534,0.006198421,0.01667154,0.0626616,-0.7245417,0.2042787,-0.08681479,0.5968821,1.558292,0.251267,0.2497019,1.19429,0.3900703,283.5105,245.6817,3.6868,True
0,2.566666,0.1814912,0.08569565,0.1077597,-1.338829,-4.57163,-3.020211,0.5373898,1.290346,0.498729,-1.427834,0.5024738,5.9,36,0.1043259,-0.04047109,-0.1073281,-0.4857068,-4.078397,-0.2750055,0.5241838,1.515097,0.4141107,0.009454653,0.02308242,0.07115108,-0.7234248,0.2053108,-0.08783878,0.5965686,1.558272,0.2513363,0.2500683,1.193812,0.3905065,283.048,246.7684,2.617929,True
0,2.577777,0.1623506,0.07177071,0.1035918,-1.339805,-4.571675,-3.021259,0.5377626,1.290274,0.4986145,-1.42201,0.5245562,4.1,32.9,0.09958114,0.07224809,-0.08585268,-0.4873089,-4.067476,-0.2856027,0.5240151,1.515031,0.4139884,0.006214261,0.03050577,0.06372281,-0.7227441,0.2059996,-0.0883786,0.5962799,1.558114,0.2513719,0.2504078,1.193338,0.390954,282.6029,248.0857,1.336139,True
0,2.588888,0.1464027,0.05885028,0.08875962,-1.340135,-4.571748,-3.022304,0.5380838,1.290132,0.498457,-1.416148,0.5279243,4.1,32.9,0.09161673,0.1262227,-0.04898589,-0.4873952,-4.059993,-0.2928247,0.5238757,1.514962,0.4139009,0.01033156,0.02300045,0.04348206,-0.7228703,0.2056323,-0.08836661,0.5961026,1.558145,0.2514002,0.2507077,1.192869,0.3913876,282.1975,249.5254,359.9306,True
0,2.599999,0.130427,0.05661271,0.078123,-1.340621,-4.57221,-3.023003,0.538439,1.290007,0.4983854,-1.410261,0.5303092,4.1,32.9,0.07932559,0.138599,-0.006109681,-0.4862932,-4.054515,-0.2980168,0.5238658,1.514953,0.4138324,0.01229121,0.01123768,0.01898728,-0.7236544,0.2049934,-0.08808885,0.5959886,1.558166,0.2513676,0.2508819,1.192426,0.3916161,281.6826,252.1628,357.3513,True
0,2.61111,0.1186948,0.06406055,0.08127639,-1.341859,-4.573129,-3.023756,0.5386708,1.289861,0.498296,-1.404996,0.4734954,4.1,32.9,0.07495759,0.1055845,-0.006412856,-0.4863875,-4.055712,-0.2976346,0.5240045,1.514952,0.4138889,0.01336078,0.002706453,0.02006108,-0.723273,0.2043426,-0.08773651,0.5958364,1.558135,0.2514262,0.2511918,1.192035,0.3918557,281.3424,252.9134,356.6053,True
0,2.622221,0.1058456,0.09176816,0.08749141,-1.343337,-4.575186,-3.023908,0.5389876,1.289762,0.498234,-1.399598,0.4861885,2.2,30.7,0.07037778,0.05675407,-0.02179718,-0.4869276,-4.058916,-0.2953637,0.5240847,1.514998,0.4141045,0.01660845,-0.00580249,0.02751112,-0.7226093,0.203745,-0.08763158,0.5957318,1.558182,0.2513928,0.2515193,1.191663,0.3920372,281.0079,253.4059,356.1303,True
0,2.633332,0.1004739,0.1120375,0.09375628,-1.344908,-4.577119,-3.024467,0.5391978,1.289703,0.4981873,-1.394625,0.4471368,2.2,30.7,0.076515,0.0142449,-0.03402564,-0.4872892,-4.062731,-0.2932146,0.5241731,1.515005,0.4141855,0.01677037,-0.01322696,0.0499023,-0.720946,0.2031575,-0.08746514,0.5957629,1.558313,0.2514391,0.2518089,1.191305,0.39226,280.6972,254.114,355.4211,True
0,2.644443,0.09621301,0.112041,0.09588747,-1.346203,-4.578263,-3.025095,0.5394647,1.289678,0.4980998,-1.389224,0.4866568,2.2,30.7,0.09015343,-0.02192648,-0.04307535,-0.487653,-4.066741,-0.2912321,0.5243367,1.515071,0.4143102,0.005179618,-0.01958679,0.0681036,-0.7194455,0.202629,-0.08666166,0.5957277,1.558331,0.2514427,0.2520252,1.190945,0.392577,280.4258,255.4639,354.0734,True
0,2.655554,0.08345188,0.1023688,0.08742779,-1.346841,-4.578887,-3.02537,0.5397121,1.289788,0.4980159,-1.384504,0.4240943,2.2,30.7,0.09341982,-0.02627903,-0.03569996,-0.4876637,-4.067699,-0.2916864,0.5245005,1.515207,0.4142137,0.009452127,-0.0345127,0.07024392,-0.7183121,0.2009788,-0.08565392,0.5957561,1.558324,0.2514617,0.2521614,1.190597,0.3930057,280.2073,257.5503,351.9875,True
0,2.666665,0.07075008,0.06703379,0.06421768,-1.346421,-4.578188,-3.025763,0.5398837,1.289901,0.4979134,-1.379381,0.4614323,2.2,30.7,0.06597366,-0.03070982,-0.01095719,-0.4868184,-4.068195,-0.2909429,0.5245796,1.515299,0.4141376,0.007153239,-0.04521184,0.04577383,-0.718833,0.1994164,-0.08452713,0.5957743,1.558344,0.2514753,0.2522807,1.190247,0.3934838,280.0103,260.0164,349.5264,True
0,2.677776,0.05375919,0.04343031,0.04413128,-1.346031,-4.577769,-3.025796,0.5402002,1.289937,0.4978001,-1.373858,0.4976826,2.2,22.7,0.02578801,-0.03407918,0.01819793,-0.4853275,-4.068426,-0.2893764,0.5247171,1.515324,0.4141123,0.01748528,-0.02827371,-0.0001192151,-0.7204714,0.199222,-0.0849868,0.5958866,1.55828,0.2514536,0.2522792,1.189884,0.3936982,279.7312,264.1816,345.3905,True
0,2.688887,0.03885719,0.0358475,0.03033306,-1.345924,-4.577963,-3.025579,0.5405162,1.28985,0.4977665,-1.368634,0.4700938,2.2,22.7,0.01515039,-0.01696043,0.01422504,-0.4855646,-4.06765,-0.2899565,0.5248799,1.515276,0.4141345,0.01215977,-0.02612993,-9.139907E-05,-0.7204553,0.199223,-0.08490077,0.5960707,1.558481,0.2514329,0.2524633,1.189576,0.3939202,279.5359,265.2443,344.2587,True
0,2.699998,0.02711735,0.04647006,0.03026867,-1.346394,-4.578835,-3.02529,0.5407951,1.289759,0.4977791,-1.363363,0.4747197,2.2,22.7,0.02798631,0.009663582,0.01117211,-0.4858937,-4.065238,-0.2929099,0.5250111,1.515241,0.4141724,0.01642826,-0.0261281,0.0009442638,-0.7203696,0.1988064,-0.08493433,0.5961677,1.558514,0.2513692,0.2527089,1.189288,0.3940264,279.3027,265.7979,343.6967,True
0,2.711109,0.02069081,0.06138732,0.03230152,-1.347003,-4.580186,-3.02502,0.541115,1.28975,0.4977801,-1.358294,0.4561019,2.2,22.7,0.0533786,0.0118916,-0.006121354,-0.486723,-4.065337,-0.2945049,0.5252302,1.515159,0.4141717,0.03238441,-0.02082384,-0.002357614,-0.7202679,0.1983817,-0.08562196,0.5962408,1.558466,0.2513723,0.2529896,1.188998,0.3941175,279.0414,266.2427,343.2435,True
0,2.72222,0.006793753,0.08163568,0.03856561,-1.347909,-4.58186,-3.024169,0.5414122,1.289721,0.4977922,-1.353447,0.4360461,1.8,30.3,0.07135893,-0.002998605,-0.01392685,-0.4870128,-4.066965,-0.2945235,0.5254236,1.515234,0.4142661,0.02601999,-0.01122542,0.0008641328,-0.7201683,0.1988628,-0.08606644,0.5963572,1.5585,0.251303,0.2532412,1.188684,0.3942925,278.8008,267.2149,342.253,True
0,2.733331,-0.005978731,0.07625881,0.03540517,-1.348243,-4.582454,-3.023513,0.5417059,1.289826,0.497726,-1.348658,0.4308875,1.8,30.3,0.07760941,-0.01676673,-0.02372529,-0.4874032,-4.068815,-0.294087,0.5256872,1.515271,0.4142213,0.02498016,-0.006970715,0.005133959,-0.7197949,0.1987625,-0.08617111,0.5965387,1.558468,0.2512171,0.253429,1.188365,0.3945931,278.6183,269.0586,340.3945,True
0,2.744442,-0.01019962,0.05915526,0.02806078,-1.348313,-4.582439,-3.023267,0.5419347,1.290014,0.4976764,-1.343233,0.4890824,1.8,30.3,0.04576087,-0.01891957,-0.01169612,-0.4870639,-4.069183,-0.2928891,0.5260324,1.515523,0.4141333,0.02386697,-0.01656509,-0.001225699,-0.7199217,0.1979054,-0.08570825,0.5966616,1.558387,0.2511835,0.2535675,1.188053,0.3949912,278.4927,271.5782,337.8582,True
0,2.755553,-0.01758169,0.02917889,0.008016044,-1.34756,-4.581671,-3.023067,0.5419863,1.290218,0.4975781,-1.33822,0.4508577,1.8,30.3,0.0164949,-0.01296978,0.03981503,-0.4848066,-4.067513,-0.2934122,0.5264636,1.515751,0.4140065,0.02488043,-0.03788415,-0.008652444,-0.7201939,0.1960366,-0.08460889,0.5968521,1.55838,0.2510207,0.2536785,1.187823,0.3954114,278.4089,274.3314,335.0869,True
0,2.766664,-0.01758169,0.02917889,0.008016044,-1.34756,-4.581671,-3.023067,0.5419863,1.290218,0.4975781,-1.333707,0.4057738,1.8,30.3,0.0164949,-0.01296978,0.03981503,-0.4848066,-4.067513,-0.2934122,0.5264636,1.515751,0.4140065,0.02488043,-0.03788415,-0.008652444,-0.7201939,0.1960366,-0.08460889,0.5968521,1.55838,0.2510207,0.2536393,1.187729,0.3954255,278.3007,278.4532,330.9011,True
0,2.777775,-0.02283935,-0.0007856446,-0.01096649,-1.346626,-4.580635,-3.022873,0.5420774,1.290438,0.497438,-1.329295,0.3968798,3.4,26.1,0.02866366,-0.02307166,0.08539452,-0.4821664,-4.067127,-0.2945733,0.5268637,1.51604,0.4138157,0.02698368,-0.06134003,-0.01287608,-0.7201667,0.1935126,-0.08313217,0.5969886,1.558293,0.2509239,0.2537735,1.187596,0.3954303,278.1444,278.206,330.9762,True
0,2.788886,-0.02813919,-0.012592,-0.02260818,-1.345878,-4.580127,-3.022458,0.5422321,1.290603,0.4974113,-1.324342,0.4465016,3.4,26.1,0.04263861,-0.0360654,0.1010922,-0.4802537,-4.067908,-0.294883,0.5273,1.516217,0.413722,0.03119301,-0.07307146,-0.02034192,-0.720564,0.1915673,-0.08216944,0.5971754,1.558255,0.2507534,0.2540345,1.187542,0.3963659,278.2068,286.1154,323.5141,True
0,2.799997,-0.04203392,0.004386983,-0.02697288,-1.345291,-4.580712,-3.020917,0.5427177,1.290903,0.4974446,-1.319221,0.4614137,3.4,26.1,0.04644619,-0.118994,0.08314262,-0.4774776,-4.078276,-0.2868829,0.5282022,1.51644,0.4135821,0.03108031,-0.06776886,-0.03845782,-0.7218146,0.1895301,-0.08151723,0.5978029,1.558348,0.250536,0.254068,1.187377,0.3961468,277.9999,283.2656,325.8754,True
0,2.811108,-0.05272323,0.0182076,-0.02706055,-1.345074,-4.581442,-3.019727,0.5430082,1.291037,0.497468,-1.314968,0.382162,3.4,26.1,0.03876267,-0.140119,0.06808677,-0.4766014,-4.083125,-0.2827087,0.5286096,1.516536,0.4135427,0.02468367,-0.05179531,-0.03844234,-0.7222354,0.1893914,-0.08136223,0.5981253,1.558329,0.250443,0.2542274,1.187238,0.395683,277.7338,280.0838,328.9232,True
0,2.822219,-0.06021621,0.03098733,-0.02501429,-1.344999,-4.582227,-3.018565,0.5433637,1.291205,0.4974771,-1.310789,0.376023,2.4,22.9,0.03221352,-0.1335304,0.05118057,-0.4762808,-4.085649,-0.2806072,0.5290027,1.516635,0.4134748,0.02041785,-0.04646679,-0.04055721,-0.7227814,0.188959,-0.08126742,0.5984106,1.558328,0.2503827,0.2544068,1.187117,0.3954515,277.5254,278.5667,330.3991,True
0,2.83333,-0.07197592,0.04797748,-0.02938193,-1.344622,-4.583503,-3.017016,0.5437624,1.291384,0.4974751,-1.306162,0.4170889,2.4,22.9,0.01959299,-0.07059827,0.04771263,-0.4763303,-4.082273,-0.2833808,0.5294203,1.516877,0.4133196,0.02036729,-0.04648414,-0.04695325,-0.7235468,0.1878927,-0.08059417,0.598859,1.558341,0.2502451,0.2545663,1.187001,0.3955029,277.3854,279.1306,329.8261,True
0,2.844441,-0.07304605,0.05011144,-0.02832979,-1.344425,-4.584149,-3.016041,0.5440946,1.291547,0.4974506,-1.301949,0.3788575,2.4,22.9,0.01026449,-0.0334214,0.06098952,-0.4753556,-4.079597,-0.2855846,0.5298475,1.516953,0.4132628,0.02032454,-0.05289213,-0.05334618,-0.7244602,0.1864042,-0.0797164,0.5991692,1.558332,0.2502007,0.2547093,1.186914,0.3957132,277.2867,280.6885,328.2426,True
0,2.855552,-0.08478384,0.05961353,-0.03690825,-1.343855,-4.585228,-3.0145,0.5444369,1.291653,0.4974389,-1.297521,0.3989348,2.4,22.9,0.008500068,-0.01454163,0.08997202,-0.4735218,-4.077044,-0.2878568,0.530332,1.517103,0.4131014,0.02351294,-0.05928583,-0.05442236,-0.7250499,0.1849544,-0.07901359,0.5994941,1.558302,0.2500367,0.2548439,1.186844,0.3959543,277.2048,282.4257,326.4643,True
0,2.866663,-0.08692814,0.06388215,-0.03480643,-1.34365,-4.586085,-3.013242,0.5447835,1.291885,0.4974411,-1.293793,0.3346855,2.4,22.9,0.02139021,-0.03073132,0.105649,-0.4715068,-4.078363,-0.2872906,0.5308997,1.517289,0.4130535,0.02458754,-0.05821028,-0.05232089,-0.7257679,0.1841119,-0.07860187,0.599978,1.55838,0.2499239,0.2549507,1.186785,0.3961821,277.1462,283.994,324.8361,True
0,2.877774,-0.08907381,0.07028241,-0.03271677,-1.343499,-4.587153,-3.011934,0.5451255,1.291992,0.4974358,-1.289264,0.4085726,1.2,22.2,0.03288328,-0.0615389,0.09348324,-0.470515,-4.081908,-0.2848863,0.5314428,1.5174,0.412962,0.02678432,-0.05180181,-0.04275932,-0.725836,0.1836653,-0.0786285,0.6003723,1.558348,0.2497475,0.2550972,1.186721,0.3964593,277.0847,286.2089,322.61,True
0,2.888885,-0.09228273,0.07563657,-0.02742408,-1.343524,-4.588239,-3.010562,0.5454385,1.292197,0.4973524,-1.285355,0.3511513,1.2,22.2,0.03273361,-0.06993949,0.08167458,-0.4697976,-4.083941,-0.2834485,0.5320077,1.517513,0.4128661,0.02567891,-0.0528861,-0.04914146,-0.7265519,0.1824408,-0.07802396,0.6007654,1.558184,0.2496452,0.255298,1.186706,0.3972199,277.2079,292.5454,316.4497,True
0,2.899997,-0.09440698,0.07350649,-0.02634836,-1.343311,-4.589029,-3.009261,0.5457823,1.292483,0.4972949,-1.281305,0.3646016,1.2,22.2,0.02220122,-0.04971782,0.08732437,-0.4687339,-4.082534,-0.284493,0.5327034,1.517775,0.4127579,0.02768183,-0.05931619,-0.06726612,-0.7280523,0.1807238,-0.0770788,0.6013811,1.558165,0.2494807,0.2553048,1.186657,0.3975474,277.3776,299.0977,309.7709,True
0,2.911108,-0.09545963,0.06710142,-0.0284366,-1.343011,-4.589613,-3.008011,0.5461847,1.292811,0.4971814,-1.277179,0.3715116,1.2,22.2,0.02595608,-0.04279436,0.137428,-0.465642,-4.080673,-0.28659,0.5336794,1.518199,0.4124358,0.03079676,-0.07318547,-0.07898202,-0.7292625,0.1785859,-0.0759411,0.6018275,1.558126,0.2493043,0.2552304,1.186653,0.3976449,277.5043,303.6132,305.2803,True
0,2.922219,-0.09545963,0.06710142,-0.0284366,-1.343011,-4.589613,-3.008011,0.5461847,1.292811,0.4971814,-1.273119,0.3653232,1.2,22.2,0.02595608,-0.04279436,0.137428,-0.465642,-4.080673,-0.28659,0.5336794,1.518199,0.4124358,0.03079676,-0.07318547,-0.07898202,-0.7292625,0.1785859,-0.0759411,0.6018275,1.558126,0.2493043,0.2552376,1.186637,0.3977206,277.578,304.3719,304.4745,True
0,2.93333,-0.09961016,0.01675985,-0.06859472,-1.340126,-4.588853,-3.005747,0.5468465,1.293216,0.496984,-1.270162,0.2645609,1.5,19.9,0.05747898,-0.1952858,0.141889,-0.4599636,-4.097054,-0.2741503,0.5352379,1.518551,0.4120853,0.01908322,-0.09235609,-0.07780837,-0.7309754,0.174311,-0.07277727,0.6029189,1.558108,0.2489672,0.2552817,1.186586,0.397752,277.5702,304.897,303.9167,True
0,2.944441,-0.10067,0.01561222,-0.08030525,-1.338916,-4.58917,-3.004581,0.5471681,1.293427,0.4969153,-1.263834,0.5736375,1.5,19.9,0.04732379,-0.2491935,0.1052085,-0.4590161,-4.106887,-0.2653265,0.5359153,1.518635,0.4119966,0.01917631,-0.08593991,-0.06397692,-0.7312337,0.1732444,-0.07218391,0.6034326,1.558096,0.2488356,0.2554041,1.186504,0.3977774,277.4687,305.712,303.0753,True
0,2.955552,-0.09962019,0.02199954,-0.08141188,-1.338037,-4.589756,-3.003366,0.5476211,1.293626,0.4969032,-1.26079,0.2706756,1.5,19.9,0.003071457,-0.2602383,0.05442011,-0.45944,-4.115182,-0.2562765,0.5365458,1.518717,0.411947,0.01495209,-0.06568997,-0.05865636,-0.7316854,0.1732137,-0.07217672,0.6039021,1.558038,0.2486448,0.2555273,1.186467,0.3977926,277.3501,306.3295,302.4436,True
0,2.966663,-0.09965619,0.03802481,-0.07512359,-1.337617,-4.590929,-3.002006,0.5480466,1.293826,0.4968574,-1.257026,0.3393987,1.5,19.9,-0.01606134,-0.2024903,0.04030724,-0.4595082,-4.11475,-0.2559191,0.5370167,1.518823,0.4117692,0.01916823,-0.04971553,-0.06511084,-0.7327885,0.1732332,-0.0725509,0.6044724,1.55797,0.2485802,0.2556865,1.186383,0.3978107,277.2112,307.2737,301.4602,True
0,2.977774,-0.1018225,0.05294039,-0.07415419,-1.33699,-4.592196,-3.000488,0.5485768,1.294065,0.4968436,-1.253031,0.3595821,0.7,21.2,0.005774744,-0.1154497,0.06442612,-0.4583609,-4.109823,-0.261247,0.5376146,1.519062,0.4114993,0.01698633,-0.05292428,-0.07254753,-0.7338293,0.1720556,-0.07177965,0.6049805,1.557918,0.2483892,0.2557187,1.186314,0.3981232,277.3973,310.0382,298.7422,True
0,2.988885,-0.1061402,0.07638411,-0.07003985,-1.336642,-4.593856,-2.998756,0.5491298,1.294333,0.4968455,-1.249118,0.3522024,0.7,21.2,0.04797208,-0.03287151,0.101069,-0.4566528,-4.102685,-0.26973,0.538186,1.519243,0.4111717,0.01265793,-0.05718413,-0.08104403,-0.7351374,0.1710148,-0.07085766,0.605509,1.558011,0.2481456,0.2558247,1.186251,0.3983017,277.4716,311.8311,296.8699,True
0,2.999996,-0.1093894,0.09876055,-0.06805266,-1.336231,-4.595902,-2.996927,0.5497301,1.294614,0.4968283,-1.245203,0.3525333,0.7,21.2,0.05572245,0.003150344,0.118407,-0.455195,-4.098743,-0.2740779,0.5388056,1.519474,0.4109273,0.01577149,-0.06039516,-0.09171888,-0.7365339,0.1697613,-0.07010905,0.6061122,1.557911,0.2479701,0.255989,1.186192,0.3982486,277.3171,312.1857,296.3985,True
0,3.011107,-0.1051654,0.1126132,-0.06920726,-1.335665,-4.59781,-2.995402,0.5502753,1.294903,0.4967706,-1.24141,0.3414856,0.7,21.2,0.02922582,-0.0033108,0.1335386,-0.4530836,-4.097934,-0.2740918,0.5396004,1.519675,0.410733,0.01679263,-0.0699939,-0.09810124,-0.7377878,0.1679172,-0.06897853,0.6066796,1.55787,0.2477043,0.2561423,1.186149,0.3981498,277.11,312.187,296.3318,True
0,3.022218,-0.09665965,0.1168433,-0.0735172,-1.334997,-4.599324,-2.994156,0.5507566,1.295092,0.4966767,-1.237843,0.3209052,0.2,22.2,0.02273279,-0.0276972,0.1248146,-0.4516881,-4.098719,-0.2733719,0.5402929,1.519846,0.4105041,0.01897451,-0.07636153,-0.09066322,-0.7386608,0.1664892,-0.06823445,0.6072186,1.557798,0.2474978,0.2562668,1.186123,0.3980875,276.9505,312.2904,296.1828,True
0,3.033329,-0.09665255,0.1178824,-0.08096007,-1.333954,-4.600907,-2.992897,0.551251,1.295428,0.4965482,-1.234644,0.2875412,0.2,22.2,0.04169955,-0.03938884,0.1159863,-0.4505781,-4.101504,-0.271881,0.5413606,1.520044,0.4103658,0.03080982,-0.08165885,-0.07369039,-0.7387875,0.1648384,-0.06775322,0.6077377,1.557741,0.2472184,0.256369,1.186108,0.3980671,276.8474,312.5859,295.8444,True
0,3.04444,-0.08917346,0.1103841,-0.09049834,-1.332811,-4.602108,-2.991919,0.5518355,1.295756,0.4964669,-1.231438,0.2884911,0.2,22.2,0.07070186,-0.04078867,0.1391147,-0.4480513,-4.100778,-0.2743599,0.5424372,1.520393,0.4100459,0.04142766,-0.1061681,-0.07799292,-0.7398421,0.1617411,-0.06620778,0.6083208,1.557773,0.2469161,0.2564676,1.186082,0.3980635,276.7656,313.0397,295.3437,True
0,3.055551,-0.09231262,0.08576062,-0.1084513,-1.33095,-4.602492,-2.990686,0.5523667,1.2962,0.4963508,-1.228072,0.3030303,0.2,22.2,0.08259314,-0.09122613,0.1704236,-0.4443165,-4.105263,-0.271684,0.5435445,1.520728,0.4097326,0.04140533,-0.1253489,-0.0811556,-0.7407348,0.1585458,-0.06431135,0.6089,1.557741,0.2465997,0.2564722,1.186051,0.3979234,276.7514,314.7639,293.5002,True
0,3.066662,-0.08482078,0.06651855,-0.1211134,-1.329147,-4.602795,-2.98979,0.5529882,1.296524,0.4962969,-1.224911,0.2842021,0.3,19.5,0.1028876,-0.2067643,0.2105477,-0.4388916,-4.117788,-0.2621179,0.5447036,1.521015,0.4094589,0.04236591,-0.1243085,-0.09608373,-0.7422922,0.1564655,-0.06320294,0.6095376,1.55763,0.2463241,0.256594,1.18602,0.3978673,276.6193,314.9978,293.1908,True
0,3.077773,-0.08482078,0.06651855,-0.1211134,-1.329147,-4.602795,-2.98979,0.5529882,1.296524,0.4962969,-1.221182,0.3363616,0.3,19.5,0.1028876,-0.2067643,0.2105477,-0.4388916,-4.117788,-0.2621179,0.5447036,1.521015,0.4094589,0.04236591,-0.1243085,-0.09608373,-0.7422922,0.1564655,-0.06320294,0.6095376,1.55763,0.2463241,0.2567576,1.185986,0.397835,276.4505,315.6567,292.4853,True
0,3.088884,-0.08798084,0.05264244,-0.124222,-1.326367,-4.604044,-2.987416,0.5541339,1.297195,0.4962633,-1.218997,0.1948219,0.3,19.5,0.1063416,-0.344889,0.174973,-0.4331871,-4.14314,-0.2417724,0.5466382,1.521544,0.4090202,0.04852122,-0.1360682,-0.1291375,-0.7461139,0.1514854,-0.06070889,0.6108195,1.557636,0.2456064,0.2568467,1.185945,0.3979081,276.4341,316.835,291.2979,True
