loc,t,aDotUA,bDotUA,gDotUA,aUA,bUA,gUA,xUA,yUA,zUA,qE,qDotE,emgA,emgB,aDotSH,bDotSH,gDotSH,aSH,bSH,gSH,xSH,ySH,zSH,aDotUB,bDotUB,gDotUB,aUB,bUB,gUB,xUB,yUB,zUB,xHand,yHand,zHand,aHand,bHand,gHand,enable
1,0,0.0491067,-0.5837693,0.1265731,-1.368657,-3.933689,2.887155,0.5371743,1.291423,0.511106,-1.459346,-0.03127432,11.6,0,-0.2968958,0.4142925,-0.1161052,-0.521269,-3.890993,-0.3121672,0.526858,1.507827,0.410188,-0.2596142,0.3349879,0.1892019,-0.6282861,0.3233107,-0.1308994,0.6245295,1.559824,0.2562542,0.4033809,1.069836,0.3078304,315.8057,221.059,355.0806,True
1,0.01111111,0.0491067,-0.5837693,0.1265731,-1.368657,-3.933689,2.887155,0.5371743,1.291423,0.511106,-1.459545,-0.01803232,11.6,0,-0.2968958,0.4142925,-0.1161052,-0.521269,-3.890993,-0.3121672,0.526858,1.507827,0.410188,-0.2596142,0.3349879,0.1892019,-0.6282861,0.3233107,-0.1308994,0.6245295,1.559824,0.2562542,0.4030403,1.069156,0.3073727,315.9315,220.9855,355.102,True
1,0.02222222,0.07356323,-0.5785474,0.1062545,-1.373564,-3.921233,2.882431,0.5348036,1.290725,0.5104337,-1.458491,0.09643528,11.5,0,-0.3025945,0.3240874,-0.003723329,-0.5195583,-3.880075,-0.3147955,0.5244884,1.507522,0.4098599,-0.2433312,0.2742181,0.1038607,-0.6295521,0.3316946,-0.1323058,0.6240169,1.559952,0.2567086,0.402806,1.068615,0.3070445,316.0119,220.9577,355.1549,True
1,0.03333334,0.0594997,-0.5019458,0.1003272,-1.377946,-3.91258,2.879904,0.5329956,1.289983,0.5101876,-1.460928,-0.223813,11.5,0,-0.3171229,0.207424,0.0883154,-0.5153691,-3.874206,-0.312327,0.5224491,1.506921,0.4094105,-0.2323619,0.2274316,0.1336373,-0.6264378,0.3394846,-0.1335288,0.6232712,1.559983,0.2572007,0.4027058,1.068238,0.3068082,316.1082,220.9742,355.2368,True
1,0.04444445,0.07000485,-0.4486794,0.09669738,-1.37967,-3.909793,2.878241,0.5321322,1.289603,0.5101233,-1.459574,0.1255995,11.5,0,-0.3419757,0.1596979,0.07118341,-0.5151986,-3.874142,-0.3076921,0.5213135,1.506586,0.4092901,-0.228151,0.2274287,0.1282709,-0.6255078,0.3439255,-0.1347618,0.6229537,1.559976,0.2575018,0.402708,1.067539,0.3059259,316.1267,220.8371,355.4008,True
1,0.05555556,0.08163634,-0.4155712,0.1038779,-1.381985,-3.906514,2.876312,0.531186,1.289163,0.5100327,-1.458044,0.1384553,11.5,0,-0.3859612,0.1419411,0.04696762,-0.5159938,-3.872006,-0.3033958,0.5202208,1.506169,0.4092028,-0.2282938,0.2401842,0.1133608,-0.625069,0.3494576,-0.1368047,0.6220908,1.559725,0.2579172,0.4032068,1.066546,0.3044969,316.1397,220.6046,355.2688,True
1,0.06666667,0.09959923,-0.3568138,0.1183088,-1.384252,-3.90525,2.874309,0.5304135,1.288768,0.5099792,-1.458766,-0.06715951,7.4,0,-0.3522513,0.1666475,-0.00431966,-0.5186741,-3.867873,-0.3042478,0.5191201,1.505759,0.4091692,-0.2241908,0.2646708,0.09943756,-0.6250364,0.3561083,-0.1398367,0.6217378,1.559698,0.2583063,0.404263,1.065595,0.3030471,316.2478,220.4215,354.7627,True
1,0.07777778,0.1101408,-0.3130544,0.1264727,-1.386463,-3.903626,2.872442,0.5294933,1.28832,0.5098751,-1.458965,-0.01758677,7.4,0,-0.2950832,0.1998105,-0.05789782,-0.5222597,-3.862528,-0.307973,0.5180035,1.505423,0.4090779,-0.2210081,0.2710937,0.1004374,-0.6245714,0.3622859,-0.1422759,0.6214299,1.559595,0.2585697,0.4055024,1.064714,0.3017772,316.3998,220.2273,354.1616,True
1,0.08888889,0.1184907,-0.2490987,0.1280864,-1.387976,-3.90385,2.870841,0.5288318,1.288147,0.5097325,-1.459311,-0.03162391,7.4,0,-0.2302236,0.2583966,-0.09646496,-0.5264393,-3.854286,-0.3151678,0.5170579,1.505297,0.409014,-0.2156419,0.2902848,0.1067519,-0.6236942,0.3693586,-0.1458094,0.6210396,1.559638,0.2589872,0.4066495,1.06387,0.3007551,316.5701,220.0794,353.6145,True
1,0.1,0.1163045,-0.2321655,0.1151723,-1.389311,-3.901917,2.869311,0.5282268,1.288147,0.5094244,-1.459006,0.02803375,7.4,0,-0.2235079,0.2421174,-0.05402274,-0.5259455,-3.849565,-0.3166935,0.516309,1.505364,0.408946,-0.204053,0.2807,0.09173121,-0.6237736,0.3742893,-0.147953,0.6207646,1.559674,0.2593086,0.4074857,1.063038,0.3000354,316.7275,220.0414,353.1503,True
1,0.1111111,0.1099431,-0.2483565,0.09186782,-1.390431,-3.898442,2.867614,0.5275428,1.288128,0.5092149,-1.458912,0.008250024,4.4,0,-0.2485494,0.1595827,0.03727851,-0.5218959,-3.849754,-0.312776,0.5157195,1.505332,0.4088476,-0.2033871,0.2593297,0.04700815,-0.6252889,0.3774384,-0.1482097,0.6204824,1.559666,0.2596283,0.4078779,1.062195,0.2996042,316.9037,220.0763,352.8233,True
1,0.1222222,0.1099431,-0.2483565,0.09186782,-1.390431,-3.898442,2.867614,0.5275428,1.288128,0.5092149,-1.458343,0.05184542,4.4,0,-0.2485494,0.1595827,0.03727851,-0.5218959,-3.849754,-0.312776,0.5157195,1.505332,0.4088476,-0.2033871,0.2593297,0.04700815,-0.6252889,0.3774384,-0.1482097,0.6204824,1.559666,0.2596283,0.4078612,1.061461,0.2995175,317.1136,220.1815,352.6784,True
1,0.1333333,0.0928867,-0.2484983,0.08122738,-1.391736,-3.895668,2.866739,0.5269555,1.287933,0.5091445,-1.45708,0.1150532,4.4,0,-0.2438421,0.08660126,0.1166507,-0.5174288,-3.850173,-0.3097768,0.5151118,1.505444,0.4087112,-0.1972097,0.2369371,0.02139543,-0.6264788,0.380552,-0.1487024,0.6202819,1.559816,0.2597077,0.4076444,1.060947,0.2997362,317.2911,220.2432,352.7875,True
1,0.1444445,0.06491872,-0.1429884,0.09745409,-1.394429,-3.896095,2.866157,0.5260005,1.287362,0.5091782,-1.458425,-0.1238888,4.4,0,-0.1726749,0.03625652,0.1156458,-0.5147715,-3.84994,-0.3083171,0.5138086,1.505075,0.4086463,-0.1852049,0.2135969,0.05110394,-0.6254711,0.3889312,-0.1513791,0.619809,1.559825,0.2600534,0.4072985,1.060658,0.3001213,317.4128,220.2899,353.0027,True
1,0.1555556,0.05947689,-0.09502336,0.1034698,-1.395667,-3.89688,2.865641,0.5254986,1.287117,0.5090787,-1.457474,0.08814304,4.4,0,-0.1591371,0.05138895,0.07618836,-0.5159459,-3.847826,-0.3086702,0.513068,1.504936,0.4086094,-0.1808413,0.2061652,0.06066093,-0.6248127,0.3928426,-0.15272,0.6193019,1.55974,0.2603643,0.4069151,1.060407,0.3002979,317.431,220.2748,353.2156,True
1,0.1666667,0.04866467,-0.03644637,0.1051428,-1.396365,-3.899031,2.865873,0.5250974,1.28694,0.5090115,-1.457417,0.004259359,7.8,1.6,-0.1391839,0.1081365,0.02098199,-0.5187529,-3.842588,-0.3124341,0.5125026,1.504827,0.4085913,-0.1744699,0.2061688,0.05847042,-0.6245959,0.3969327,-0.1543379,0.6190485,1.559744,0.2606146,0.4065504,1.060177,0.300299,317.4015,220.3738,353.1603,True
1,0.1777778,0.02934326,0.01131159,0.09093271,-1.39647,-3.900613,2.866544,0.5248156,1.286905,0.5088902,-1.457789,-0.03398121,7.8,1.6,-0.1168969,0.1412211,-0.001381789,-0.5203433,-3.837754,-0.3159481,0.5120794,1.50496,0.4086773,-0.1649858,0.1997762,0.04772856,-0.6248916,0.4004992,-0.1555869,0.6188071,1.559683,0.2609127,0.4061,1.059967,0.3001674,317.3823,220.556,352.9688,True
1,0.1888889,0.00800069,0.02292847,0.08553128,-1.396995,-3.901526,2.867438,0.5243906,1.286875,0.5087321,-1.457374,0.03836248,7.8,1.6,-0.09850267,0.1078307,0.0429661,-0.5183635,-3.836494,-0.3166357,0.5117331,1.50507,0.4086463,-0.1501853,0.192316,0.03481802,-0.6252517,0.4036628,-0.1569883,0.6186194,1.559677,0.2611246,0.4055809,1.059791,0.2999721,317.3625,220.6942,352.8182,True
1,0.2,-0.03139272,0.005545667,0.0580044,-1.39689,-3.900609,2.869076,0.5238962,1.287023,0.5085878,-1.456863,0.04638796,7.8,1.6,-0.09299323,0.03930061,0.0925328,-0.515041,-3.838494,-0.3139787,0.5115511,1.50525,0.4085546,-0.1418634,0.1752543,0.01132567,-0.626221,0.4059767,-0.1575715,0.6184692,1.559602,0.2611537,0.4049879,1.059689,0.2998017,317.3547,220.8037,352.7119,True
1,0.2111111,-0.05053261,-0.01171218,0.04005407,-1.397086,-3.899625,2.870056,0.5232791,1.286989,0.5084584,-1.456605,0.02329446,7.8,1.6,-0.1047164,-0.006591342,0.1125727,-0.5129046,-3.840381,-0.3105842,0.5112753,1.505323,0.4085014,-0.1355446,0.1603071,0.0006412975,-0.6266413,0.4074872,-0.1576578,0.6181421,1.559364,0.2612205,0.4043419,1.059714,0.2996834,317.3617,220.8755,352.6952,True
1,0.2222222,-0.0781893,-0.03326335,0.01894235,-1.396838,-3.898294,2.871733,0.5226299,1.287087,0.5083163,-1.455715,0.08144427,8.3,3.8,-0.1163823,-0.03542737,0.1306003,-0.5104156,-3.842011,-0.307394,0.5111607,1.505487,0.4084582,-0.1184922,0.1347554,-0.001610042,-0.6268528,0.4083927,-0.1576993,0.6180101,1.559338,0.2612686,0.4036595,1.059878,0.2995528,317.3627,220.9239,352.7487,True
1,0.2333333,-0.111131,-0.0718538,0.001162432,-1.396814,-3.895932,2.873809,0.5220518,1.287209,0.5081849,-1.456492,-0.07165018,8.3,3.8,-0.09824046,-0.0568891,0.14414,-0.50808,-3.842924,-0.3060579,0.5109816,1.505606,0.4084277,-0.1099531,0.1219551,-0.001667755,-0.6269012,0.4094543,-0.1576586,0.6177609,1.559259,0.2614579,0.4029832,1.060198,0.2993113,317.3565,220.871,352.8721,True
1,0.2444444,-0.1462058,-0.1072652,-0.01876743,-1.396578,-3.893234,2.876262,0.5213835,1.287439,0.5080664,-1.456061,0.04032379,8.3,3.8,-0.08022871,-0.05155,0.1312236,-0.5069977,-3.843162,-0.3056073,0.5108501,1.505779,0.4083538,-0.104598,0.1230313,0.001476317,-0.6270066,0.4118232,-0.1586315,0.6175949,1.559177,0.2615488,0.4023112,1.060636,0.2989025,317.2627,220.7791,352.9564,True
1,0.2555556,-0.1887704,-0.1321042,-0.04516387,-1.395904,-3.890627,2.879239,0.5208306,1.287756,0.5080564,-1.455664,0.03609744,8.3,3.8,-0.06194688,-0.00366817,0.1292416,-0.5062877,-3.838748,-0.3093773,0.5108239,1.505946,0.4082656,-0.1056146,0.1294344,0.007845476,-0.6272416,0.4147651,-0.1596909,0.6176853,1.55943,0.2615039,0.4016806,1.061187,0.2983384,317.1349,220.6658,353.0161,True
1,0.2666667,-0.2185893,-0.1408443,-0.06211464,-1.395121,-3.888461,2.882339,0.5201966,1.288033,0.5079544,-1.455473,0.0172797,7.8,10.7,-0.02004086,0.05573502,0.1420322,-0.5052608,-3.831688,-0.3169425,0.510824,1.50627,0.4081881,-0.09810113,0.1145351,0.01205948,-0.6270258,0.4160239,-0.1599447,0.6176959,1.559422,0.2615566,0.4011656,1.06187,0.2976199,316.9958,220.5089,353.0842,True
1,0.2777778,-0.2185893,-0.1408443,-0.06211464,-1.395121,-3.888461,2.882339,0.5201966,1.288033,0.5079544,-1.455261,0.0195786,7.8,10.7,-0.02004086,0.05573502,0.1420322,-0.5052608,-3.831688,-0.3169425,0.510824,1.50627,0.4081881,-0.09810113,0.1145351,0.01205948,-0.6270258,0.4160239,-0.1599447,0.6176959,1.559422,0.2615566,0.4007775,1.062705,0.2967533,316.8574,220.2833,353.1307,True
1,0.2888889,-0.3262581,-0.1275645,-0.09516238,-1.392777,-3.885147,2.892212,0.5188975,1.288635,0.5077431,-1.458886,-0.3313835,7.8,10.7,0.01023631,0.07346298,0.1823517,-0.5010173,-3.823858,-0.3249882,0.5111032,1.507119,0.4080834,-0.07513875,0.04096787,-0.04771144,-0.6298653,0.4130316,-0.1566309,0.6179545,1.559434,0.2614551,0.4004953,1.063719,0.2958068,316.6731,220.0488,353.1239,True
1,0.3,-0.3817237,-0.1054335,-0.1059462,-1.391404,-3.88434,2.898155,0.5182365,1.288964,0.507566,-1.451069,0.7177745,7.8,10.7,0.02760447,0.03791333,0.2320243,-0.4965666,-3.822654,-0.326866,0.5116329,1.507773,0.4080119,-0.06881132,0.01966077,-0.05626222,-0.6307047,0.4119882,-0.1551411,0.6179886,1.559438,0.2614105,0.4003216,1.064791,0.2949559,316.328,219.8608,353.0614,True
1,0.3111111,-0.4233475,-0.07899637,-0.1157099,-1.389868,-3.883949,2.904032,0.517446,1.289172,0.5072944,-1.453708,-0.2474654,7.8,10.7,0.05777389,0.03114112,0.2711141,-0.492557,-3.819422,-0.3314615,0.5120531,1.508289,0.4080143,-0.06455931,0.01327217,-0.05735932,-0.6313471,0.4117741,-0.1543382,0.6180779,1.559431,0.2614002,0.3997352,1.065768,0.2937694,316.3511,219.5056,353.0533,True
1,0.3222222,-0.5033526,-0.04963572,-0.1467719,-1.387047,-3.883853,2.912439,0.5164094,1.289563,0.506834,-1.454069,-0.02979669,5.8,9.7,0.1221105,-0.003607586,0.3310028,-0.486723,-3.817858,-0.3365407,0.5126035,1.508875,0.4080009,-0.05901713,0.01438124,-0.03397703,-0.6309109,0.4124287,-0.1543581,0.6182132,1.559394,0.2613049,0.3987557,1.066962,0.2924062,316.2691,219.1571,353.0845,True
1,0.3333333,-0.5267863,-0.05189098,-0.1541865,-1.385429,-3.882666,2.918638,0.515528,1.289954,0.5066071,-1.454689,-0.05634278,5.8,9.7,0.1273931,-0.06128345,0.3508073,-0.4815565,-3.820379,-0.3359466,0.5131179,1.509547,0.4079618,-0.04506221,-0.01222375,-0.02660306,-0.630653,0.4105376,-0.1529848,0.6182243,1.559461,0.2612898,0.3973991,1.068475,0.2909807,316.0239,218.9327,353.1326,True
1,0.3444445,-0.5991883,-0.07469033,-0.1827086,-1.382761,-3.88026,2.927649,0.5143456,1.290416,0.5060279,-1.452776,0.17577,5.8,9.7,0.06343263,-0.1518088,0.3859572,-0.474669,-3.827265,-0.3279132,0.5138233,1.510238,0.4079273,-0.03259908,-0.04744498,-0.06607276,-0.6324688,0.4062672,-0.1498603,0.6181771,1.559091,0.2612386,0.3956389,1.070256,0.2895086,315.6206,218.7107,353.2676,True
1,0.3555556,-0.6726208,-0.1124701,-0.2185603,-1.379794,-3.876822,2.937037,0.5131214,1.290936,0.5054288,-1.455072,-0.2111361,5.8,9.7,-0.003953874,-0.2207901,0.387186,-0.4691553,-3.834443,-0.3189367,0.5146475,1.510972,0.4079132,-0.0285952,-0.07092238,-0.09484587,-0.6345721,0.40288,-0.1467348,0.6185092,1.558981,0.261116,0.3934313,1.072316,0.2879604,315.2143,218.4425,353.5084,True
1,0.3666667,-0.7482315,-0.1364966,-0.2662456,-1.375703,-3.873418,2.94751,0.51173,1.291335,0.5046246,-1.452825,0.2078007,5.8,9.7,-0.01891994,-0.2409915,0.3903868,-0.4639024,-3.838746,-0.3142642,0.515413,1.511658,0.4078364,-0.02008468,-0.1135619,-0.1022999,-0.6352694,0.3971089,-0.1423526,0.6187462,1.558966,0.260921,0.3911025,1.074739,0.2864969,314.6501,218.1661,353.8744,True
1,0.3777778,-0.7982894,-0.152799,-0.2895125,-1.372219,-3.870425,2.957616,0.510517,1.291726,0.5040305,-1.452543,0.02422354,6.8,20.5,-0.004067838,-0.2228454,0.376517,-0.4600094,-3.839495,-0.3142336,0.5163002,1.512217,0.4076908,-0.01789944,-0.1210568,-0.09908708,-0.6354271,0.3933807,-0.1394519,0.6189526,1.558817,0.2607086,0.3886366,1.077356,0.2848512,314.1112,217.8235,354.3613,True
1,0.3888889,-0.8921149,-0.1385416,-0.3385525,-1.366935,-3.868387,2.970572,0.509034,1.291914,0.5029089,-1.452132,0.0380129,6.8,20.5,0.01138295,-0.1744543,0.298924,-0.4597303,-3.839278,-0.3152096,0.5170976,1.512703,0.4074719,-0.008382887,-0.1466297,-0.10979,-0.6366659,0.3885958,-0.1358809,0.6193662,1.558818,0.2605097,0.3861254,1.080148,0.282883,313.5582,217.3292,354.9306,True
1,0.4,-0.9326949,-0.1122649,-0.3685521,-1.362022,-3.867221,2.981911,0.5077888,1.29232,0.5020666,-1.453204,-0.0977533,6.8,20.5,-0.0342789,-0.1810888,0.2034237,-0.460337,-3.84507,-0.3079056,0.517885,1.513149,0.4072022,0.004226893,-0.1584196,-0.132236,-0.6381717,0.3833093,-0.1324987,0.6197366,1.558726,0.2601733,0.3835748,1.083087,0.2805172,312.9617,216.7204,355.4707,True
1,0.4111111,-0.9819059,-0.04558212,-0.4041898,-1.356053,-3.86826,2.994604,0.5065674,1.292436,0.5009203,-1.451348,0.1709966,6.8,20.5,-0.09204488,-0.1892307,0.1815341,-0.4585441,-3.849581,-0.3005729,0.5185061,1.513568,0.4070103,0.0008174628,-0.1552697,-0.1545928,-0.6405904,0.3799493,-0.1296323,0.6203229,1.55875,0.2599678,0.3810809,1.086185,0.2778701,312.2487,216.0902,355.9309,True
1,0.4222222,-1.030218,0.08088444,-0.4253948,-1.349849,-3.872974,3.008713,0.5053262,1.29268,0.499908,-1.453605,-0.2073334,8.3,14.6,-0.1718936,-0.1462042,0.1687168,-0.4569367,-3.848495,-0.2965928,0.5191161,1.513859,0.4067709,-0.008663163,-0.1435428,-0.1417375,-0.6415704,0.3777675,-0.1274224,0.6207031,1.55872,0.2598124,0.3783922,1.089334,0.274817,311.5745,215.3858,356.3792,True
1,0.4333333,-1.030218,0.08088444,-0.4253948,-1.349849,-3.872974,3.008713,0.5053262,1.29268,0.499908,-1.453607,0.002170567,8.3,14.6,-0.1718936,-0.1462042,0.1687168,-0.4569367,-3.848495,-0.2965928,0.5191161,1.513859,0.4067709,-0.008663163,-0.1435428,-0.1417375,-0.6415704,0.3777675,-0.1274224,0.6207031,1.55872,0.2598124,0.3756511,1.092689,0.2717107,310.8181,214.633,356.8346,True
1,0.4444444,-1.125792,0.3555222,-0.4190014,-1.338576,-3.888201,3.039981,0.5027044,1.293174,0.4977067,-1.466193,-1.150762,8.3,14.6,-0.1792298,-0.1323806,0.1763364,-0.4522868,-3.851434,-0.2897972,0.5204265,1.514736,0.4064157,-0.01731712,-0.1191065,-0.1544568,-0.6445217,0.3731391,-0.1234615,0.6214007,1.558592,0.2595558,0.3729254,1.096274,0.2688283,309.9688,214.0477,357.2604,True
1,0.4555556,-1.145134,0.4152106,-0.4077227,-1.333979,-3.894092,3.054607,0.501281,1.293419,0.4967823,-1.44105,2.308757,8.3,14.6,-0.1810905,-0.1368435,0.2072177,-0.4484721,-3.853036,-0.286309,0.5211928,1.515242,0.4062483,-0.0248393,-0.1106552,-0.1628856,-0.6459263,0.3700988,-0.1208428,0.6217059,1.558455,0.2593334,0.3707306,1.099766,0.2668514,308.6959,213.5275,357.5965,True
1,0.4666667,-1.191095,0.472675,-0.399619,-1.329224,-3.901411,3.071304,0.4996316,1.293619,0.4956062,-1.451606,-0.9856289,8.3,14.6,-0.2046959,-0.1686788,0.2029634,-0.4455575,-3.858337,-0.2784159,0.5218397,1.515545,0.4060655,-0.02918085,-0.1106736,-0.1713673,-0.6479695,0.367647,-0.1183954,0.622117,1.558359,0.2592599,0.3662093,1.102521,0.2639268,308.6448,212.9871,357.7284,True
1,0.4777778,-1.231642,0.4949424,-0.4008373,-1.324201,-3.907432,3.088022,0.4978143,1.29395,0.4944248,-1.45506,-0.3041319,7.7,11.2,-0.2326488,-0.1940283,0.1870724,-0.4433721,-3.864489,-0.2691774,0.5225012,1.51598,0.4058731,-0.03032799,-0.1032787,-0.1819881,-0.6496856,0.3647886,-0.1161844,0.6224467,1.55832,0.2591398,0.3604866,1.105936,0.2613008,308.3699,212.4919,358.3347,True
1,0.4888889,-1.275278,0.4755586,-0.4113005,-1.319054,-3.91185,3.104853,0.4959526,1.294117,0.4932067,-1.454091,0.09057733,7.7,11.2,-0.2785041,-0.1991495,0.1842661,-0.4409209,-3.868607,-0.260662,0.5231948,1.516252,0.4058065,-0.02175556,-0.1064578,-0.1777993,-0.6512862,0.3623362,-0.1143732,0.6228265,1.558254,0.2590115,0.3544306,1.110202,0.25938,307.5872,212.272,359.2724,True
1,0.5,-1.311446,0.4507962,-0.4313145,-1.313485,-3.915984,3.121804,0.4939294,1.294365,0.4918637,-1.454108,-0.002346682,7.7,11.2,-0.2966512,-0.2321732,0.1948684,-0.4374844,-3.875391,-0.2506351,0.5238334,1.516603,0.4056444,-0.0239,-0.1139504,-0.1819991,-0.6527722,0.3588918,-0.1115489,0.6232096,1.558193,0.2588625,0.3482271,1.115095,0.2578513,306.5396,212.1138,0.4101266,True
1,0.5111111,-1.311446,0.4507962,-0.4313145,-1.313485,-3.915984,3.121804,0.4939294,1.294365,0.4918637,-1.454129,-0.001463388,7.7,11.2,-0.2966512,-0.2321732,0.1948684,-0.4374844,-3.875391,-0.2506351,0.5238334,1.516603,0.4056444,-0.0239,-0.1139504,-0.1819991,-0.6527722,0.3588918,-0.1115489,0.6232096,1.558193,0.2588625,0.3421189,1.120414,0.2564339,305.3795,211.7734,1.739906,True
1,0.5222223,-1.326322,0.4346841,-0.4396976,-1.308232,-3.92027,3.138207,0.4920629,1.294535,0.490586,-1.469848,-1.437156,7.7,11.2,-0.2924694,-0.2684603,0.2020458,-0.4339679,-3.88385,-0.2398491,0.5244268,1.51692,0.4055164,-0.02603452,-0.1065243,-0.184105,-0.6545203,0.3564553,-0.1095529,0.6236876,1.5581,0.258811,0.3367536,1.12606,0.2551316,304.1335,211.4146,3.116724,True
1,0.5333334,-1.344418,0.428198,-0.4449658,-1.303103,-3.924955,-3.128324,0.4900206,1.294853,0.4891508,-1.455228,1.348649,7.2,4.6,-0.2882229,-0.2823579,0.2061784,-0.4307114,-3.891056,-0.2303509,0.5248827,1.517085,0.4054441,-0.03987908,-0.08523044,-0.180811,-0.6563722,0.3558878,-0.1081531,0.6240029,1.558005,0.2587373,0.3335105,1.131444,0.2546272,302.3313,210.8797,4.480907,True
1,0.5444446,-1.348715,0.4420344,-0.4450713,-1.298268,-3.930734,-3.111768,0.4878287,1.295088,0.4878306,-1.453904,0.1080896,7.2,4.6,-0.2699318,-0.2366155,0.2052451,-0.4283806,-3.891929,-0.2272568,0.5252386,1.517259,0.405324,-0.04512002,-0.05751789,-0.1701496,-0.6578919,0.3562652,-0.108021,0.6242934,1.557971,0.2587316,0.3303588,1.135495,0.2531199,301.3756,210.1363,5.41061,True
1,0.5555557,-1.345537,0.4495239,-0.4430141,-1.293493,-3.936497,-3.095322,0.4855464,1.295414,0.4864099,-1.454276,-0.03334191,7.2,4.6,-0.2488244,-0.2002347,0.168005,-0.4275982,-3.893774,-0.2235692,0.5255264,1.517528,0.4051218,-0.05136091,-0.04900108,-0.1541175,-0.6588922,0.3551581,-0.1065046,0.6246625,1.557924,0.2586844,0.3269285,1.138631,0.250581,301.0699,209.2531,6.04706,True
1,0.5666668,-1.342336,0.4441653,-0.4451227,-1.288597,-3.941457,-3.079076,0.4833621,1.295502,0.4848225,-1.455176,-0.08162692,7.2,4.6,-0.2638113,-0.1670022,0.1459864,-0.4266608,-3.895523,-0.2185089,0.5257161,1.517697,0.4050176,-0.04925622,-0.04903283,-0.1583872,-0.6605497,0.3532369,-0.1047309,0.6251975,1.557837,0.2585838,0.3231628,1.141429,0.2473554,301.0273,208.4559,6.441183,True
1,0.577778,-1.337053,0.4580098,-0.4484369,-1.283846,-3.947617,-3.062642,0.4810442,1.295756,0.483273,-1.455767,-0.05304983,7.2,4.6,-0.3031643,-0.1433831,0.1422428,-0.4251034,-3.896875,-0.2126854,0.5257795,1.517787,0.4047809,-0.05462827,-0.03519557,-0.1615495,-0.6624048,0.3530213,-0.1038161,0.6255345,1.557746,0.2584245,0.3191512,1.144402,0.2439475,300.8965,207.6835,6.824347,True
1,0.5888891,-1.333939,0.4868119,-0.4444169,-1.279487,-3.954733,-3.045751,0.4788256,1.296129,0.4818294,-1.456113,-0.03107681,3.9,3.3,-0.324308,-0.1177837,0.1490078,-0.422992,-3.897403,-0.2078475,0.5259039,1.517946,0.4045238,-0.06419678,-0.02138091,-0.1593282,-0.6637801,0.352637,-0.10268,0.6258034,1.557696,0.2583015,0.3149834,1.147863,0.2407021,300.5304,206.8521,7.455182,True
1,0.6000003,-1.333939,0.4868119,-0.4444169,-1.279487,-3.954733,-3.045751,0.4788256,1.296129,0.4818294,-1.456548,-0.03948139,3.9,3.3,-0.324308,-0.1177837,0.1490078,-0.422992,-3.897403,-0.2078475,0.5259039,1.517946,0.4045238,-0.06419678,-0.02138091,-0.1593282,-0.6637801,0.352637,-0.10268,0.6258034,1.557696,0.2583015,0.31072,1.151893,0.2377412,299.9219,205.8999,8.4044,True
1,0.6111114,-1.307586,0.5903547,-0.4218377,-1.272436,-3.972283,-3.012486,0.4740502,1.296651,0.4788167,-1.471029,-1.32375,3.9,3.3,-0.3687835,-0.0109587,0.1320245,-0.4211182,-3.889917,-0.2053247,0.5252864,1.518122,0.4038246,-0.09572508,0.01059148,-0.1100753,-0.6649849,0.3538852,-0.1007234,0.6262522,1.557607,0.258075,0.306846,1.156598,0.2354738,299.1044,205.0958,9.477626,True
1,0.6222225,-1.290537,0.5926255,-0.4048391,-1.265908,-3.986812,-2.980221,0.4690871,1.2972,0.4758422,-1.443209,2.554643,3.9,3.3,-0.4188502,0.0148803,0.1220123,-0.4188886,-3.88639,-0.1977807,0.5247707,1.518139,0.4031906,-0.1096324,0.02548679,-0.1142323,-0.6678292,0.3551171,-0.09891939,0.6267863,1.557639,0.2578998,0.3040713,1.161285,0.2343697,297.7017,203.8323,10.95273,True
1,0.6333337,-1.277631,0.5544062,-0.3928201,-1.26297,-3.992177,-2.9651,0.4663537,1.297634,0.4742293,-1.442168,0.07231728,3,0.7,-0.4625813,0.03967035,0.1055344,-0.4187192,-3.882932,-0.1941713,0.5243738,1.518056,0.4027421,-0.1298917,0.04144002,-0.1140648,-0.669206,0.3566161,-0.09789647,0.6269288,1.55755,0.257786,0.2977918,1.16563,0.2311943,297.5289,202.8984,11.52994,True
1,0.6444448,-1.261522,0.5130078,-0.380795,-1.259934,-3.99718,-2.950105,0.4637271,1.298119,0.4726689,-1.457832,-1.429201,3,0.7,-0.4816888,0.06640443,0.1016313,-0.4180518,-3.878383,-0.1922776,0.5238821,1.518176,0.402349,-0.1436409,0.05952191,-0.1022353,-0.6698212,0.3580742,-0.09707116,0.6269256,1.557402,0.2576826,0.2887028,1.171198,0.2270204,297.6038,202.1129,12.35422,True
1,0.655556,-1.247605,0.4886021,-0.3699859,-1.257013,-4.002489,-2.934911,0.4613009,1.298294,0.4710383,-1.460413,-0.2232332,3,0.7,-0.4848554,0.07387701,0.1017118,-0.4170888,-3.875234,-0.1896562,0.5234078,1.518163,0.4019957,-0.1553061,0.06590827,-0.09574088,-0.6706926,0.359522,-0.09602187,0.6270131,1.557336,0.2575741,0.2804238,1.178341,0.2242739,296.5899,201.1099,14.35964,True
1,0.6666671,-1.227319,0.4835307,-0.3465385,-1.255071,-4.008523,-2.920319,0.4586671,1.298744,0.4695065,-1.460334,0.007615914,3,0.7,-0.4868055,0.096192,0.1114673,-0.4158601,-3.869807,-0.1891316,0.5225472,1.518177,0.4015896,-0.1806989,0.08718598,-0.07528204,-0.6706676,0.3618388,-0.09503144,0.6269333,1.55722,0.2575078,0.2739137,1.186236,0.222907,294.8779,199.755,17.07546,True
1,0.6777782,-1.216694,0.4986123,-0.328575,-1.253425,-4.015501,-2.905062,0.4561846,1.299077,0.4678674,-1.459943,0.03537636,3,0.7,-0.4847979,0.09520662,0.0986554,-0.4155027,-3.867149,-0.1863123,0.5218506,1.518137,0.4011533,-0.1881155,0.1010187,-0.06989908,-0.6713073,0.3640538,-0.09457897,0.6268913,1.557134,0.2574296,0.2689939,1.194032,0.2221425,293.0604,197.7729,20.19728,True
1,0.6888894,-1.198664,0.5362194,-0.2947979,-1.253279,-4.023708,-2.889786,0.4537121,1.299462,0.4662523,-1.460469,-0.04864073,1.4,0,-0.4913922,0.1039252,0.07320616,-0.4159879,-3.863653,-0.1837267,0.5209401,1.518178,0.4007006,-0.2052181,0.1148384,-0.07402069,-0.6724641,0.3668138,-0.09377789,0.6267669,1.557085,0.2573471,0.2650598,1.201093,0.2211899,291.5348,195.464,23.16685,True
1,0.7000005,-1.182736,0.5587839,-0.2705228,-1.25279,-4.031278,-2.874703,0.4513341,1.29975,0.4646082,-1.459905,0.05193876,1.4,0,-0.4912543,0.1230616,0.07972588,-0.4151772,-3.857724,-0.1836276,0.5199243,1.518215,0.4001794,-0.2158753,0.1361418,-0.07182981,-0.6735257,0.3706293,-0.09398934,0.6268256,1.557155,0.2573187,0.2615172,1.207127,0.2196312,290.445,193.3168,25.50575,True
1,0.7111117,-1.145525,0.5964744,-0.2346249,-1.253831,-4.039896,-2.860803,0.4489068,1.300122,0.4629056,-1.459945,-0.00430507,1.4,0,-0.4688821,0.1454062,0.07007878,-0.4152497,-3.85132,-0.1852143,0.5189457,1.518224,0.3996465,-0.2296806,0.1393282,-0.06637855,-0.6742128,0.3732608,-0.09285111,0.6265321,1.557191,0.2571533,0.2580102,1.212112,0.2174269,289.7575,191.5989,27.14468,True
1,0.7222228,-1.122108,0.6137807,-0.2124215,-1.254341,-4.047922,-2.846901,0.4465084,1.30052,0.4614336,-1.459723,0.02023267,1.4,0,-0.4487715,0.1678665,0.04553828,-0.4163235,-3.844918,-0.1870724,0.5178564,1.518305,0.3989534,-0.2350507,0.1371598,-0.07163742,-0.6751076,0.3749069,-0.09145162,0.6263185,1.556985,0.2569671,0.2544386,1.216251,0.2148443,289.3353,190.3952,28.17182,True
1,0.7333339,-1.088093,0.6449342,-0.1924587,-1.255459,-4.056909,-2.833195,0.4441888,1.300726,0.4596214,-1.46094,-0.1117028,0.4,1.3,-0.4585148,0.1562652,0.03383146,-0.4166175,-3.841793,-0.1843802,0.5168863,1.518294,0.3982708,-0.2306634,0.1329244,-0.0588879,-0.6754022,0.3770426,-0.09070327,0.6260264,1.556979,0.2566793,0.2508457,1.219801,0.2121836,289.0952,189.5363,28.86559,True
1,0.7444451,-1.04875,0.6792901,-0.1746702,-1.256778,-4.066287,-2.820205,0.4418815,1.300956,0.457886,-1.460578,0.03393209,0.4,1.3,-0.5021081,0.1424907,0.04905832,-0.4156289,-3.8389,-0.1796877,0.5158251,1.518244,0.39763,-0.2251976,0.1233455,-0.04613189,-0.675318,0.3782803,-0.08950458,0.6257573,1.556813,0.2564945,0.2472367,1.223049,0.2097372,288.902,188.932,29.33217,True
1,0.7555562,-1.04875,0.6792901,-0.1746702,-1.256778,-4.066287,-2.820205,0.4418815,1.300956,0.457886,-1.460671,-0.009280679,0.4,1.3,-0.5021081,0.1424907,0.04905832,-0.4156289,-3.8389,-0.1796877,0.5158251,1.518244,0.39763,-0.2251976,0.1233455,-0.04613189,-0.675318,0.3782803,-0.08950458,0.6257573,1.556813,0.2564945,0.2435747,1.226224,0.2076762,288.7086,188.3685,29.86425,True
1,0.7666674,-1.010414,0.7054273,-0.1195195,-1.261162,-4.083108,-2.794039,0.4375433,1.30105,0.4546378,-1.470943,-0.9393966,0.4,1.3,-0.5190718,0.104036,0.074529,-0.4132331,-3.835304,-0.1708295,0.5136496,1.517824,0.396369,-0.2419517,0.157461,-0.01087136,-0.674803,0.3856838,-0.08949739,0.6248872,1.556727,0.2560894,0.2403434,1.229468,0.2063686,288.398,187.8985,30.64616,True
1,0.7777785,-1.009366,0.7194282,-0.100481,-1.263485,-4.091562,-2.780424,0.4355958,1.301037,0.4530816,-1.451278,1.805469,0.4,1.3,-0.5052654,0.117893,0.06383435,-0.413353,-3.830699,-0.1701065,0.5124264,1.517359,0.3957214,-0.2419444,0.1755643,-0.00770209,-0.6749808,0.3895507,-0.08991391,0.624458,1.556512,0.2558522,0.2381055,1.232292,0.2060356,287.8076,186.3066,32.49609,True
1,0.7888896,-1.00726,0.7367411,-0.06759518,-1.267191,-4.099995,-2.766922,0.4337088,1.300791,0.4516103,-1.458178,-0.6473018,0.1,0.3,-0.4905447,0.1436129,0.03190833,-0.4147128,-3.824843,-0.1706564,0.5111192,1.516928,0.3951271,-0.2407989,0.2043493,0.005024031,-0.6747614,0.3950298,-0.09157412,0.6239407,1.556431,0.2556996,0.233075,1.235477,0.2041703,287.6282,186.6435,32.23504,True
1,0.8000008,-1.000883,0.7541114,-0.03047836,-1.271281,-4.108362,-2.753714,0.4319135,1.300326,0.4502244,-1.459239,-0.08951961,0.1,0.3,-0.4607854,0.1905636,0.003178658,-0.4164401,-3.815747,-0.1751084,0.5097635,1.516405,0.3946962,-0.2332739,0.2203554,0.01451865,-0.6744897,0.3999312,-0.0931121,0.6236045,1.556406,0.255553,0.2277775,1.239287,0.2026201,287.3084,186.5664,32.79624,True
1,0.8111119,-0.9988211,0.7895799,0.007594526,-1.276561,-4.117567,-2.740011,0.4302271,1.299644,0.4487772,-1.459213,0.002436049,0.1,0.3,-0.433169,0.2268347,-0.02133944,-0.4183485,-3.806701,-0.1796616,0.5084655,1.515886,0.3941977,-0.2269141,0.2214242,0.01126073,-0.6747273,0.4038934,-0.0939526,0.6231995,1.556294,0.2553661,0.2230038,1.243589,0.2016766,286.7473,185.9135,34.17161,True
1,0.8222231,-1.002115,0.832374,0.03067207,-1.281814,-4.1276,-2.725859,0.4285361,1.299085,0.4473,-1.459296,-0.007852684,0.1,0.3,-0.3867117,0.2408424,-0.07387438,-0.4216929,-3.800425,-0.1831187,0.5071239,1.515279,0.3937736,-0.2183997,0.2161061,0.01012397,-0.6749004,0.4072913,-0.09443835,0.6229062,1.55627,0.255172,0.2189609,1.248212,0.2012224,285.9277,184.6665,36.15244,True
1,0.8333342,-0.9884852,0.9189539,0.06193537,-1.289113,-4.13986,-2.711964,0.4270185,1.298177,0.4457393,-1.458874,0.03858082,0.3,1.1,-0.3711905,0.2261487,-0.1167316,-0.4250767,-3.797278,-0.1825131,0.505785,1.514668,0.3933108,-0.2055328,0.2012216,0.017486,-0.6745185,0.4099982,-0.09467804,0.6225958,1.556114,0.2548795,0.2155334,1.252947,0.2009877,284.9634,182.7862,38.66022,True
1,0.8444453,-0.9706576,1.027935,0.0940451,-1.297375,-4.153582,-2.698223,0.4257609,1.297277,0.4442749,-1.458459,0.03751843,0.3,1.1,-0.3705982,0.1794845,-0.1490141,-0.4279774,-3.798836,-0.1771346,0.5043367,1.514016,0.3928311,-0.2054871,0.2001601,0.02175021,-0.6743054,0.4134527,-0.09518085,0.6222379,1.556078,0.2544501,0.2123954,1.257645,0.2006723,284.0017,180.5735,41.36097,True
1,0.8555565,-0.9411494,1.147573,0.1239524,-1.30687,-4.168563,-2.684749,0.4245172,1.296232,0.4427788,-1.459145,-0.06310589,0.3,1.1,-0.3397882,0.1760485,-0.1547839,-0.4300068,-3.795211,-0.1770832,0.503082,1.513297,0.39241,-0.2064213,0.1852658,0.03457107,-0.6735417,0.4160694,-0.0947361,0.6217468,1.556093,0.2540514,0.209245,1.26225,0.2001371,283.1565,178.1981,44.0774,True
1,0.8666676,-0.9008994,1.238514,0.158356,-1.317328,-4.183335,-2.672324,0.4232186,1.2951,0.441143,-1.45956,-0.03739584,0.3,1.1,-0.2683195,0.1534371,-0.140541,-0.4311892,-3.793424,-0.1794651,0.5018483,1.512414,0.3919466,-0.1914889,0.1703786,0.03444836,-0.6733664,0.4183722,-0.09494276,0.6214311,1.556077,0.2536623,0.2059584,1.266711,0.1995497,282.332,175.7948,46.73627,True
1,0.8777788,-0.8668932,1.272885,0.1763064,-1.327298,-4.196362,-2.660347,0.4216998,1.294477,0.4401226,-1.45989,-0.03010589,0.3,1.1,-0.2225734,0.1244561,-0.1347629,-0.4324302,-3.792954,-0.1790283,0.5005556,1.511723,0.3912439,-0.1755044,0.1416401,0.03008224,-0.6733169,0.4192866,-0.09443329,0.6209135,1.556114,0.2533922,0.2025142,1.270979,0.1991924,281.5317,173.4715,49.32594,True
1,0.8888899,-0.8104823,1.298846,0.2058875,-1.337485,-4.20876,-2.650767,0.4203652,1.293334,0.4384897,-1.460529,-0.05836821,0.2,0.4,-0.1813785,0.08500919,-0.155652,-0.4348266,-3.795661,-0.1762736,0.4993019,1.511021,0.3906991,-0.1786325,0.1512371,0.03861932,-0.6727411,0.4227059,-0.09502105,0.6203926,1.556036,0.2530146,0.1987981,1.275038,0.1992298,280.7242,171.2257,51.95318,True
1,0.900001,-0.7710735,1.311975,0.2324744,-1.348361,-4.220943,-2.640624,0.418959,1.292484,0.4370687,-1.46019,0.0313562,0.2,0.4,-0.1405935,0.06401789,-0.2275487,-0.4403185,-3.798,-0.1739811,0.4979352,1.510634,0.3901212,-0.2019678,0.1842584,0.05476901,-0.6717813,0.4285735,-0.09623679,0.6196617,1.555852,0.2529371,0.1948246,1.278853,0.1997558,279.921,169.2493,54.45818,True
1,0.9111122,-0.7710735,1.311975,0.2324744,-1.348361,-4.220943,-2.640624,0.418959,1.292484,0.4370687,-1.461926,-0.1592732,0.2,0.4,-0.1405935,0.06401789,-0.2275487,-0.4403185,-3.798,-0.1739811,0.4979352,1.510634,0.3901212,-0.2019678,0.1842584,0.05476901,-0.6717813,0.4285735,-0.09623679,0.6196617,1.555852,0.2529371,0.1907075,1.282438,0.2007782,279.166,167.6798,56.72257,True
1,0.9222233,-0.62568,1.133624,0.257245,-1.364158,-4.235582,-2.628271,0.4163909,1.291942,0.4336069,-1.468146,-0.5677197,0.2,0.4,-0.2030184,0.07251292,-0.1842906,-0.4437684,-3.793863,-0.171167,0.4957114,1.510427,0.3887432,-0.1839103,0.2482142,0.05875284,-0.6710228,0.4417666,-0.1030215,0.6182307,1.555918,0.2527115,0.1871399,1.285559,0.2023253,278.4278,165.9182,59.57606,True
1,0.9333345,-0.5687345,0.952525,0.238393,-1.367554,-4.237639,-2.623736,0.4152552,1.291991,0.4318907,-1.455731,1.139192,0,1.1,-0.2883635,0.03159466,-0.06551768,-0.4396101,-3.795167,-0.1633905,0.4948299,1.510345,0.3879328,-0.1928903,0.2587809,0.01194572,-0.6732966,0.446845,-0.1044327,0.6175548,1.555921,0.2525904,0.184634,1.287778,0.2040575,277.9411,162.8452,63.49506,True
1,0.9444456,-0.5428933,0.8491426,0.2221711,-1.372146,-4.241739,-2.617643,0.4138654,1.291578,0.4303467,-1.462172,-0.5996044,0,1.1,-0.3549719,-0.0005430281,0.0030782,-0.4368053,-3.79681,-0.1553632,0.4936716,1.510109,0.3872068,-0.213325,0.2491369,-0.009155668,-0.6745436,0.4504389,-0.1038151,0.6169585,1.555873,0.2523563,0.1801701,1.290271,0.2045774,276.9878,164.3647,62.60768,True
1,0.9555568,-0.5245593,0.7670754,0.2100273,-1.376363,-4.245386,-2.611858,0.412711,1.291107,0.4288356,-1.462806,-0.0517395,0,1.1,-0.3845208,-0.01451087,0.03948683,-0.4349634,-3.797686,-0.1491541,0.4925486,1.509951,0.3864224,-0.2228184,0.2427475,0.0005356148,-0.6743017,0.4543914,-0.1039797,0.6162758,1.555809,0.2519734,0.176185,1.292588,0.2047413,276.3557,164.91,63.08803,True
1,0.9666679,-0.4818853,0.74379,0.2134064,-1.382699,-4.250856,-2.606912,0.4113643,1.290539,0.4273489,-1.461102,0.1553717,0,1.1,-0.3777305,0.04607221,0.05687213,-0.4341922,-3.790419,-0.1517072,0.4912088,1.509707,0.3856215,-0.2162232,0.2257489,0.01967661,-0.6734804,0.4576431,-0.1044114,0.6156021,1.55594,0.2515483,0.1734287,1.294453,0.2043904,276.1016,163.5764,65.20754,True
1,0.977779,-0.45421,0.7534787,0.2154269,-1.389347,-4.257514,-2.601593,0.4102364,1.289798,0.4258683,-1.460682,0.03670947,0,1.1,-0.3489147,0.08650535,0.04622451,-0.4345496,-3.784479,-0.1542007,0.4898989,1.509426,0.3849139,-0.2129397,0.2161855,0.02710883,-0.6732951,0.4611646,-0.1049336,0.6149027,1.555959,0.2511861,0.1716533,1.295934,0.2034304,275.9039,161.3372,67.62402,True
1,0.9888902,-0.3956264,0.7579426,0.2206689,-1.396113,-4.263718,-2.598436,0.4088443,1.289484,0.4245141,-1.46145,-0.07073117,0,0.2,-0.2965136,0.1459783,0.0418711,-0.4349198,-3.774964,-0.1616131,0.4884833,1.509262,0.3841114,-0.2086399,0.2098044,0.03027437,-0.6730373,0.4645809,-0.1054537,0.6141198,1.555921,0.2507856,0.1705054,1.29717,0.2019584,275.714,159.0615,69.63674,True
1,1.000001,-0.3283933,0.7197281,0.2123918,-1.401194,-4.268459,-2.596603,0.4074586,1.289208,0.423075,-1.460963,0.04487827,0,0.2,-0.2624463,0.177908,0.02578783,-0.4357667,-3.767806,-0.1664167,0.4872368,1.509098,0.3833797,-0.2117442,0.2098217,0.03989269,-0.672494,0.4686202,-0.1061283,0.6134303,1.555846,0.2503424,0.169434,1.298314,0.2002044,275.5034,156.5742,71.62404,True
1,1.011112,-0.2610782,0.6365932,0.1842271,-1.404038,-4.271374,-2.595768,0.4059328,1.289109,0.4216266,-1.462499,-0.1412381,0,0.2,-0.2253113,0.1853427,0.006314304,-0.4369896,-3.762466,-0.1703408,0.4858536,1.508972,0.3825452,-0.2192269,0.2066108,0.03677262,-0.6723997,0.4721958,-0.1061946,0.6126535,1.555843,0.2498479,0.1681064,1.29946,0.1985112,275.2986,154.5222,73.19693,True
1,1.022224,-0.209709,0.5352229,0.1455532,-1.40517,-4.273162,-2.594853,0.4044775,1.289064,0.4201989,-1.463189,-0.06210027,0,0.2,-0.2223602,0.167326,-0.01087155,-0.4377523,-3.760607,-0.1694423,0.4846548,1.508936,0.3815753,-0.2308746,0.1895624,0.04223448,-0.6719379,0.4747351,-0.1051392,0.6118885,1.555748,0.249357,0.1663598,1.300645,0.1971621,275.0917,152.5629,74.87782,True
1,1.033335,-0.1860964,0.464758,0.117332,-1.406692,-4.275211,-2.59339,0.4029938,1.288986,0.4188657,-1.463295,-0.009747734,4.2,0.6,-0.2469054,0.1514212,-0.007541325,-0.4377321,-3.757986,-0.1679685,0.4834577,1.508986,0.3806903,-0.2329346,0.1799819,0.04866023,-0.6713275,0.4774752,-0.1045845,0.6111161,1.555715,0.2488379,0.1643034,1.301718,0.196281,274.9007,149.9878,77.51305,True
1,1.044446,-0.155937,0.3292465,0.07792135,-1.40586,-4.274499,-2.592748,0.4015384,1.288839,0.4181089,-1.462402,0.08120582,4.2,0.6,-0.2688991,0.1459003,0.03524198,-0.4359893,-3.753937,-0.1677538,0.4821968,1.508958,0.3796656,-0.2339967,0.1693222,0.04761307,-0.6711118,0.4798216,-0.1038058,0.6103086,1.555715,0.2483299,0.1620915,1.302506,0.1957799,274.7663,147.275,80.55246,True
1,1.055557,-0.1386882,0.248148,0.05404639,-1.405772,-4.274706,-2.591756,0.4000407,1.288792,0.4170473,-1.461252,0.1039863,4.2,0.6,-0.2688431,0.1426491,0.04374363,-0.4354876,-3.750027,-0.16827,0.4808092,1.508848,0.3785996,-0.2424721,0.1746593,0.05407176,-0.6706063,0.4836733,-0.1037189,0.6093805,1.555693,0.2477944,0.1598616,1.302916,0.195485,274.6701,145.6909,82.5511,True
1,1.066668,-0.1386882,0.248148,0.05404639,-1.405772,-4.274706,-2.591756,0.4000407,1.288792,0.4170473,-1.461067,0.01585075,4.2,0.6,-0.2688431,0.1426491,0.04374363,-0.4354876,-3.750027,-0.16827,0.4808092,1.508848,0.3785996,-0.2424721,0.1746593,0.05407176,-0.6706063,0.4836733,-0.1037189,0.6093805,1.555693,0.2477944,0.1577084,1.302975,0.1952693,274.5685,145.6874,82.92585,True
1,1.077779,-0.1108898,0.2012018,0.03098464,-1.408063,-4.277949,-2.589403,0.3973482,1.288777,0.4153309,-1.461418,-0.03243605,4.2,0.6,-0.2654882,0.1553344,0.05658346,-0.4343286,-3.740373,-0.1709906,0.4779831,1.50863,0.3765309,-0.2487262,0.1959904,0.07220434,-0.6691219,0.4921487,-0.1044923,0.6076528,1.555687,0.2466953,0.156185,1.3026,0.1952177,274.5214,147.613,81.2652,True
1,1.08889,-0.09380819,0.185192,0.02256851,-1.408806,-4.279217,-2.588718,0.3958461,1.28872,0.4139915,-1.458945,0.2261314,5.4,3.4,-0.2473358,0.1958251,0.04389932,-0.4349278,-3.731983,-0.1764349,0.4764995,1.508579,0.3755543,-0.2402184,0.1906721,0.07000732,-0.6684992,0.4954622,-0.1047011,0.6067867,1.555634,0.2460873,0.1551523,1.301983,0.1951829,274.502,150.1624,78.84763,True
1,1.100002,-0.05747513,0.1383004,0.007991105,-1.408388,-4.279316,-2.589359,0.3944218,1.288889,0.4131095,-1.460006,-0.09910772,5.4,3.4,-0.2258802,0.2351614,0.04289608,-0.4352665,-3.722425,-0.1833895,0.4752056,1.508611,0.3745158,-0.2436237,0.179983,0.04661861,-0.6690276,0.4980407,-0.1038396,0.6059865,1.555691,0.2455602,0.1530093,1.301727,0.1943198,274.4338,152.2929,76.77219,True
1,1.111113,-0.01252982,0.06152619,-0.0159537,-1.40639,-4.278172,-2.591141,0.392807,1.289043,0.4121459,-1.460062,-0.004207826,5.4,3.4,-0.2021493,0.2466098,0.06938057,-0.4341837,-3.714738,-0.1889009,0.4740261,1.508534,0.3735027,-0.2289948,0.1810208,0.01664949,-0.6700923,0.5011608,-0.1042646,0.6052193,1.55567,0.2449615,0.1507599,1.301671,0.1932359,274.3914,154.4672,74.65433,True
1,1.122224,0.02281036,-0.01635366,-0.04200369,-1.40372,-4.276438,-2.592916,0.391417,1.289152,0.4112349,-1.460908,-0.07760988,5.4,3.4,-0.1937193,0.2338209,0.06495495,-0.4340329,-3.70948,-0.1918296,0.4728275,1.508533,0.3724966,-0.2140661,0.1746539,0.01758707,-0.6699773,0.5041088,-0.1046726,0.6043072,1.555684,0.2441921,0.1486946,1.301748,0.1920667,274.3782,155.6745,73.52249,True
1,1.133335,0.03994774,-0.0547519,-0.05343837,-1.40198,-4.275439,-2.593971,0.3900577,1.28912,0.4105303,-1.461586,-0.06166653,4,5.8,-0.2054765,0.1868874,0.08179463,-0.4327141,-3.707924,-0.1903678,0.4717332,1.508537,0.3715942,-0.2086458,0.1618914,0.02607398,-0.6695262,0.5063683,-0.1042316,0.6033763,1.555619,0.2435915,0.1471108,1.301822,0.1909597,274.4386,155.4468,73.76681,True
1,1.144446,0.05174055,-0.08568873,-0.06279245,-1.399985,-4.274154,-2.595176,0.388822,1.289026,0.4096944,-1.461137,0.04122186,4,5.8,-0.2036997,0.1369181,0.06546383,-0.4324707,-3.708511,-0.1876128,0.4705968,1.50843,0.3706279,-0.190344,0.1502282,0.04510031,-0.6684374,0.5086083,-0.1044566,0.6024104,1.555658,0.2428093,0.145966,1.301747,0.1898487,274.5644,153.6455,75.53908,True
1,1.155557,0.05174055,-0.08568873,-0.06279245,-1.399985,-4.274154,-2.595176,0.388822,1.289026,0.4096944,-1.460107,0.09355962,4,5.8,-0.2036997,0.1369181,0.06546383,-0.4324707,-3.708511,-0.1876128,0.4705968,1.50843,0.3706279,-0.190344,0.1502282,0.04510031,-0.6684374,0.5086083,-0.1044566,0.6024104,1.555658,0.2428093,0.1451752,1.301406,0.188694,274.7238,151.9718,77.08524,True
1,1.166668,0.05708604,-0.08885918,-0.06170782,-1.398942,-4.273713,-2.596156,0.3876511,1.288877,0.4087429,-1.458853,0.1136472,4,5.8,-0.1859422,0.1039783,0.04270988,-0.4328212,-3.708074,-0.1864908,0.4691591,1.508407,0.3696227,-0.189218,0.1523777,0.05147398,-0.667941,0.5117609,-0.1048673,0.6015026,1.555657,0.2420855,0.1447194,1.300776,0.1876485,274.8388,152.4095,76.37952,True
1,1.17778,0.06018771,-0.04830937,-0.05457431,-1.399041,-4.274689,-2.596841,0.3865045,1.288654,0.4078779,-1.459543,-0.06405693,4,5.8,-0.1776884,0.09452032,0.01806613,-0.4336175,-3.706743,-0.1860162,0.4678392,1.50827,0.3686213,-0.1912104,0.1545292,0.06640422,-0.6668444,0.5148392,-0.105119,0.6005557,1.555669,0.2414172,0.1446503,1.299983,0.1869071,274.902,154.799,73.77112,True
1,1.188891,0.06216439,0.01576319,-0.03590576,-1.400427,-4.276563,-2.597273,0.3854329,1.288316,0.4069076,-1.459387,0.01483755,4,5.8,-0.1628943,0.1298036,-0.009534096,-0.4350758,-3.700809,-0.1899361,0.466307,1.507971,0.3674932,-0.2007226,0.1758425,0.07711688,-0.6658925,0.5194231,-0.1062005,0.5995106,1.555632,0.2408309,0.1441543,1.299264,0.1859879,275.0193,155.7165,72.77417,True
1,1.200002,0.06421015,0.05421828,-0.02343005,-1.401381,-4.278038,-2.597883,0.3843138,1.288214,0.4059868,-1.459136,0.02256972,6.9,2.6,-0.143776,0.1767729,-0.03496087,-0.4368149,-3.693009,-0.1959208,0.4649886,1.507835,0.3664732,-0.2028533,0.1779705,0.07713605,-0.665248,0.5228718,-0.1066364,0.5985321,1.555626,0.2401757,0.1431601,1.298628,0.1848945,275.1055,156.1962,72.21483,True
1,1.211113,0.07894199,0.1289776,-0.004856955,-1.403975,-4.281212,-2.598721,0.3833564,1.287988,0.4049582,-1.458869,0.02413877,6.9,2.6,-0.1212204,0.2588151,-0.05060451,-0.4390743,-3.680391,-0.2067966,0.4636375,1.507747,0.3654244,-0.1943429,0.168393,0.07493283,-0.6647543,0.5254726,-0.10678,0.5976435,1.555652,0.239634,0.1417588,1.298056,0.1838274,275.1178,156.9679,71.33649,True
1,1.222224,0.09062723,0.1460924,0.0003169756,-1.404939,-4.282877,-2.599895,0.3822477,1.287924,0.4041982,-1.458834,0.00293818,6.9,2.6,-0.1232865,0.2651803,-0.04521467,-0.4398514,-3.673862,-0.2110233,0.4624994,1.507658,0.3644848,-0.1901071,0.1449536,0.06960479,-0.6642472,0.5268713,-0.1058657,0.5968639,1.555711,0.2390385,0.1400921,1.297549,0.1829695,275.0526,158.4014,69.88249,True
1,1.233335,0.1108534,0.1525629,0.003444823,-1.406043,-4.284468,-2.60152,0.3812777,1.287757,0.4032142,-1.459226,-0.03590616,6.9,2.6,-0.1326151,0.2404616,-0.006939359,-0.4389997,-3.669026,-0.2136252,0.4613858,1.507636,0.3635073,-0.1986809,0.1310815,0.0622505,-0.6639223,0.5284969,-0.1046913,0.5959681,1.555703,0.2383561,0.1383107,1.297129,0.1823996,274.9828,160.4049,67.97152,True
1,1.244446,0.1183556,0.1408804,0.005654152,-1.406597,-4.285424,-2.603,0.3801071,1.287611,0.4023128,-1.459211,0.00152354,10.8,1.8,-0.1466352,0.1872078,-0.0007683188,-0.438866,-3.668116,-0.2122294,0.4600434,1.507546,0.3625515,-0.1975005,0.1258134,0.07181934,-0.6631553,0.5306008,-0.1040944,0.5950032,1.555694,0.2376199,0.1365038,1.296803,0.1821772,274.8716,162.1305,66.43475,True
1,1.255558,0.1194632,0.1249043,0.005779576,-1.407072,-4.286132,-2.604242,0.3790279,1.287385,0.4013593,-1.459483,-0.02492872,10.8,1.8,-0.1638833,0.1543027,-0.008284282,-0.4393182,-3.666843,-0.2109945,0.4588414,1.507437,0.3615718,-0.1878744,0.1247271,0.07813588,-0.6620363,0.533061,-0.1043323,0.5940728,1.555724,0.2369139,0.1347656,1.296525,0.1822298,274.7699,163.1367,65.71904,True
1,1.266669,0.1174042,0.1047393,0.01552426,-1.407697,-4.286391,-2.605504,0.3779793,1.287092,0.4003298,-1.459101,0.03499812,10.8,1.8,-0.1726482,0.1277931,-0.02116454,-0.4401513,-3.665651,-0.2096566,0.4576086,1.507375,0.360476,-0.1792073,0.1247621,0.09404036,-0.6605406,0.5356113,-0.1045866,0.5931234,1.555756,0.2360551,0.133113,1.296237,0.1823764,274.6471,163.32,65.89745,True
1,1.27778,0.1121223,0.09417591,0.02840476,-1.408791,-4.286629,-2.606615,0.3769048,1.286721,0.3994057,-1.458639,0.04174088,10.8,1.8,-0.1642302,0.1267648,-0.03190376,-0.4411473,-3.662911,-0.2106044,0.4563587,1.507287,0.3594851,-0.1791901,0.1268961,0.0961675,-0.6595489,0.5382025,-0.104654,0.5921633,1.555763,0.235322,0.1315028,1.295886,0.1824172,274.5308,163.2632,66.29395,True
1,1.288891,0.1014687,0.09850992,0.04116332,-1.410159,-4.287236,-2.607305,0.3759873,1.286488,0.3984149,-1.458452,0.01678086,10.8,1.8,-0.146121,0.1544591,-0.04253938,-0.4425428,-3.657175,-0.2146526,0.4550425,1.507175,0.3584583,-0.1770323,0.1311642,0.09933016,-0.6586317,0.5409552,-0.1049704,0.5913076,1.555701,0.2346237,0.1299857,1.295427,0.1822242,274.4264,163.5648,66.2824,True
1,1.300002,0.0993017,0.1145366,0.04743344,-1.411744,-4.288498,-2.60817,0.3750957,1.28619,0.3975627,-1.458225,0.02062384,37.9,5.2,-0.140542,0.1831054,-0.02748951,-0.4430232,-3.650251,-0.2194269,0.4537807,1.507052,0.3575382,-0.1696469,0.1439594,0.09391224,-0.6579968,0.5446081,-0.1062125,0.590279,1.555711,0.2340734,0.1286163,1.29484,0.1817173,274.34,164.3914,65.64574,True
1,1.311113,0.09813415,0.1539652,0.0492535,-1.413832,-4.290798,-2.608864,0.3743132,1.285976,0.3965542,-1.457816,0.03709601,37.9,5.2,-0.1338568,0.2159892,-0.01028664,-0.4433796,-3.64203,-0.2256289,0.4525721,1.506976,0.3565402,-0.1613435,0.1567203,0.0725065,-0.6581885,0.5481268,-0.1074748,0.5893352,1.555739,0.2334452,0.1274173,1.294143,0.1809061,274.2772,166.063,64.02286,True
1,1.322224,0.09917667,0.1667877,0.05341624,-1.415616,-4.292353,-2.609885,0.3733629,1.285736,0.3955617,-1.458054,-0.02198037,37.9,5.2,-0.1371167,0.2117777,-0.01454026,-0.4441476,-3.637173,-0.2282806,0.4513002,1.506787,0.355499,-0.1539251,0.1535248,0.06817379,-0.6577821,0.5506839,-0.1079981,0.5883179,1.555703,0.2327499,0.126377,1.293421,0.1798619,274.2698,168.6043,61.40902,True
1,1.333336,0.098056,0.1880985,0.05431413,-1.417589,-4.29448,-2.610619,0.3724291,1.285432,0.3944938,-1.458075,-0.001775574,37.9,5.2,-0.1607964,0.1960207,-0.03360062,-0.4454819,-3.633855,-0.2287171,0.4501032,1.506666,0.3545361,-0.144184,0.136515,0.08195844,-0.6565427,0.5524886,-0.1081699,0.5873177,1.555762,0.2320032,0.1254379,1.29275,0.1787437,274.2998,170.955,58.88564,True
1,1.344447,0.09803498,0.1955249,0.0510653,-1.419201,-4.296206,-2.611485,0.3714372,1.285121,0.3935318,-1.458266,-0.01743187,23.4,3.7,-0.1674085,0.1673545,-0.04438901,-0.4465573,-3.632323,-0.2279735,0.4488995,1.506434,0.3535595,-0.1409039,0.1280159,0.09046292,-0.6554157,0.5547448,-0.1083584,0.5863522,1.555767,0.2313879,0.1244554,1.292219,0.1776749,274.3109,172.8841,56.79428,True
1,1.355558,0.09375249,0.2018633,0.04569212,-1.420723,-4.298228,-2.612082,0.3704014,1.284765,0.3925126,-1.458065,0.01852713,23.4,3.7,-0.1633226,0.1193863,-0.04261661,-0.446904,-3.63335,-0.2253364,0.4476379,1.50621,0.3525944,-0.1355101,0.1301656,0.09786593,-0.6542529,0.5574656,-0.1092109,0.5852966,1.555771,0.2306511,0.1233502,1.291832,0.176723,274.2755,173.7902,55.80109,True
1,1.366669,0.08313165,0.1889978,0.04048624,-1.421885,-4.299272,-2.612617,0.3693177,1.284432,0.3916483,-1.458092,-0.002714561,23.4,3.7,-0.1537495,0.1172129,-0.04272793,-0.447671,-3.630705,-0.2263037,0.4461263,1.506068,0.3516178,-0.1321058,0.1397943,0.1212569,-0.6523946,0.5609633,-0.1106181,0.5843483,1.555724,0.2299039,0.1220925,1.291557,0.1759401,274.1958,174.0488,55.54051,True
1,1.37778,0.08208656,0.1804476,0.03735866,-1.423025,-4.300624,-2.613301,0.3682753,1.284131,0.3906677,-1.457868,0.02061047,23.4,3.7,-0.1453167,0.124721,-0.05554109,-0.4490888,-3.627548,-0.2278103,0.4447775,1.50591,0.3505936,-0.142578,0.1451371,0.1405255,-0.6503589,0.5643017,-0.1114251,0.5833346,1.555725,0.2291751,0.1207129,1.291331,0.1753566,274.0965,173.8655,55.79552,True
1,1.388891,0.06833809,0.147502,0.05362862,-1.424493,-4.300186,-2.613709,0.3671736,1.283999,0.3898702,-1.457648,0.01988692,23.4,3.7,-0.1229058,0.1758764,-0.07245649,-0.4513371,-3.620133,-0.2337121,0.443453,1.505875,0.3495193,-0.1489608,0.1462014,0.1416532,-0.6489511,0.567491,-0.1120546,0.5823007,1.555724,0.2285793,0.1192184,1.291104,0.1749517,273.9897,173.7311,56.06836,True
1,1.400002,0.06091295,0.134683,0.05160494,-1.425477,-4.300872,-2.614033,0.366143,1.28385,0.38889,-1.457848,-0.01844172,26.8,3.7,-0.1238527,0.1928963,-0.06700994,-0.4525552,-3.614128,-0.2376594,0.4421571,1.505733,0.3484695,-0.1437469,0.1248796,0.1267246,-0.6481351,0.5687379,-0.1116048,0.5812645,1.555824,0.227803,0.1176895,1.290841,0.174673,273.8854,174.1511,55.84509,True
1,1.411114,0.05669061,0.117589,0.04856253,-1.426351,-4.301066,-2.614524,0.3650919,1.283721,0.387907,-1.457374,0.04354619,26.8,3.7,-0.1052781,0.2362813,-0.03493693,-0.4528796,-3.604591,-0.2455688,0.4409092,1.5058,0.3472717,-0.1396214,0.1056799,0.1096657,-0.6476312,0.5695654,-0.1108831,0.5801782,1.555797,0.2270112,0.1161799,1.290537,0.1744318,273.7849,175.4309,54.79698,True
1,1.422225,0.05248734,0.09193584,0.03918144,-1.426565,-4.301156,-2.614931,0.3640869,1.283769,0.3869777,-1.457459,-0.00796923,26.8,3.7,-0.09986186,0.2404732,-0.02644292,-0.4536993,-3.598522,-0.2499608,0.4395882,1.505734,0.3461745,-0.1312395,0.08968136,0.09256375,-0.6472717,0.5703235,-0.1103377,0.579136,1.555827,0.2261884,0.1147674,1.290237,0.174097,273.6895,177.8631,52.60035,True
1,1.433336,0.04941577,0.04504745,0.03848705,-1.426386,-4.300045,-2.615505,0.3630405,1.283802,0.3860459,-1.457632,-0.01578645,26.8,3.7,-0.1038684,0.2392403,0.001285799,-0.4533371,-3.592096,-0.2544451,0.4385363,1.505787,0.3451252,-0.1235556,0.08546768,0.1159355,-0.6452919,0.5720147,-0.1105633,0.5780951,1.555899,0.2253423,0.1134416,1.289983,0.1735666,273.6439,179.7603,50.89491,True
1,1.444447,0.05378563,0.0003092536,0.03671649,-1.426303,-4.298684,-2.616355,0.3620576,1.283709,0.3848047,-1.457605,0.002720542,26.8,3.7,-0.1091897,0.2285699,0.007657051,-0.4537259,-3.587015,-0.2574475,0.4374846,1.505748,0.3442063,-0.1149585,0.07590312,0.1222559,-0.6438496,0.5732076,-0.1105183,0.5771966,1.555905,0.2245455,0.1122455,1.289785,0.1728204,273.6278,181.0222,49.73525,True
1,1.455558,0.06130351,-0.02203287,0.03795072,-1.426208,-4.297558,-2.617462,0.3610409,1.283742,0.3837962,-1.458011,-0.03661888,26.7,1.2,-0.1103579,0.2179642,0.001205109,-0.4544546,-3.582489,-0.2602398,0.4364732,1.505745,0.3432429,-0.09786986,0.05036062,0.1232007,-0.642397,0.5729254,-0.1097907,0.5762018,1.555954,0.2236755,0.1112221,1.289664,0.1718694,273.656,181.9286,48.84692,True
1,1.466669,0.07409615,-0.02946631,0.03588454,-1.426571,-4.296928,-2.618687,0.3601027,1.283552,0.3826981,-1.459153,-0.1031136,26.7,1.2,-0.1095172,0.1732501,-0.003367975,-0.4549297,-3.581655,-0.2597804,0.435526,1.505821,0.3423824,-0.08405061,0.03119782,0.1177733,-0.6412956,0.5727133,-0.1090556,0.5753071,1.555978,0.2228508,0.1104052,1.28964,0.1706833,273.6722,182.2512,48.51796,True
1,1.47778,0.07398466,0.01098279,0.03130772,-1.427545,-4.298197,-2.619337,0.359158,1.283544,0.3816335,-1.460784,-0.1470483,26.7,1.2,-0.1151302,0.09655373,-0.0006315913,-0.4544386,-3.584738,-0.2554379,0.4345876,1.505877,0.3415349,-0.08085412,0.01735324,0.1156398,-0.639981,0.5725754,-0.1081667,0.574309,1.556023,0.2219439,0.1097922,1.289714,0.1692169,273.6667,181.9061,48.80949,True
1,1.488891,0.06959099,0.05578844,0.03951228,-1.42968,-4.299616,-2.619493,0.358371,1.283336,0.3807449,-1.462664,-0.1693237,26.7,1.2,-0.116228,0.0613268,0.01086557,-0.4538112,-3.585517,-0.2534466,0.4335407,1.505928,0.3406618,-0.07981338,0.01095557,0.1124349,-0.6389579,0.5725464,-0.1072412,0.5733491,1.556038,0.2210972,0.1093659,1.289879,0.1675594,273.6773,180.7997,49.72274,True
1,1.500003,0.05887254,0.08351289,0.04569888,-1.43129,-4.30092,-2.619638,0.3575758,1.283229,0.3797965,-1.464353,-0.1514557,18,1.3,-0.100264,0.02922625,0.0232889,-0.4529185,-3.58657,-0.2518978,0.4325092,1.505936,0.3397651,-0.07675492,0.01413503,0.09855667,-0.6383251,0.5731404,-0.106964,0.5722822,1.5561,0.2202485,0.1090103,1.290123,0.1658348,273.6802,179.1671,51.05227,True
1,1.511114,0.03741905,0.1282323,0.04859504,-1.43374,-4.303097,-2.618591,0.3570145,1.282951,0.3790798,-1.466125,-0.1589865,18,1.3,-0.08523694,0.04511072,0.02858007,-0.4527693,-3.583777,-0.2540206,0.4312832,1.505857,0.3387327,-0.07991821,0.01733205,0.1028401,-0.6371639,0.5739015,-0.1065392,0.5713702,1.556068,0.2194502,0.1085368,1.290509,0.1642469,273.6878,177.9806,51.87388,True
1,1.522225,0.0299278,0.1431699,0.05381171,-1.435435,-4.304512,-2.6185,0.3563336,1.28289,0.3781674,-1.468611,-0.2240517,18,1.3,-0.07771179,0.08348691,0.02023784,-0.4534937,-3.57878,-0.2577581,0.4302536,1.505903,0.3377416,-0.07547049,0.02056897,0.1230308,-0.635215,0.5748521,-0.1066375,0.5704737,1.556172,0.2186382,0.1079425,1.291066,0.1630147,273.6234,177.2927,52.30349,True
1,1.533336,0.02990809,0.1560862,0.07075612,-1.437726,-4.305774,-2.618667,0.3556388,1.282825,0.3773875,-1.470366,-0.1564185,18,1.3,-0.05826275,0.1857753,0.005822349,-0.4554623,-3.566266,-0.2690789,0.4292054,1.505834,0.3367696,-0.07542312,0.02270812,0.1283537,-0.6336624,0.5756653,-0.1064644,0.5695262,1.556205,0.2178259,0.1072412,1.291812,0.1622069,273.5215,176.1723,53.34217,True
1,1.544447,0.03533712,0.1209593,0.07209414,-1.43854,-4.305482,-2.619416,0.3546593,1.282879,0.3765361,-1.474143,-0.3418438,18,1.3,-0.03678636,0.2485916,-0.001419485,-0.4570757,-3.555733,-0.2787201,0.4281844,1.505701,0.3358104,-0.06904776,0.02378583,0.1261588,-0.6324922,0.5765763,-0.1067201,0.5686119,1.556134,0.2168944,0.1064643,1.292789,0.1618547,273.3647,175.0992,54.49815,True
1,1.555558,0.03437156,0.08257363,0.06813347,-1.438881,-4.30483,-2.61985,0.3538229,1.282846,0.3756881,-1.477646,-0.3151465,12.6,3.8,-0.03139021,0.2559999,0.002840959,-0.457702,-3.549123,-0.2844972,0.4272203,1.505734,0.3348596,-0.05852308,0.02484568,0.1132772,-0.6316816,0.5773085,-0.1069387,0.5678609,1.556105,0.216104,0.1055964,1.294023,0.1618061,273.1658,172.9847,56.85541,True
1,1.566669,0.03023181,0.03345605,0.05467195,-1.43833,-4.30362,-2.620224,0.3529867,1.282842,0.3749163,-1.481284,-0.3277156,12.6,3.8,-0.04315822,0.2026666,0.02070604,-0.456935,-3.548013,-0.2844943,0.4265002,1.505834,0.3340983,-0.05969785,0.02163064,0.1015747,-0.6309609,0.5777044,-0.1064921,0.5671281,1.556113,0.2153776,0.1046853,1.295458,0.1619108,272.9139,169.1948,60.96685,True
1,1.577781,0.02497336,0.006776955,0.05062356,-1.43827,-4.302634,-2.62045,0.3521906,1.282824,0.3741367,-1.484276,-0.2684325,12.6,3.8,-0.04652499,0.1568673,0.02256664,-0.4566852,-3.547113,-0.2845843,0.4257412,1.505803,0.3332651,-0.05644242,0.01844901,0.1068877,-0.6294381,0.5782357,-0.1064545,0.5663551,1.556126,0.2145643,0.1037897,1.296968,0.1619247,272.6967,162.6166,67.9032,True
1,1.588892,0.01543178,-0.0113386,0.05183201,-1.438474,-4.301965,-2.620293,0.3516173,1.282885,0.3733349,-1.487393,-0.2805727,12.6,3.8,-0.0510235,0.1100331,0.0180348,-0.4565441,-3.548164,-0.2828096,0.4250599,1.505937,0.3325224,-0.04254191,0.007819697,0.1110377,-0.6279712,0.5779709,-0.1062173,0.5655543,1.556255,0.2138796,0.1030822,1.298392,0.1617048,272.5772,154.5261,76.28506,True
1,1.600003,0.01643928,0.007866204,0.05487645,-1.439544,-4.30237,-2.620345,0.3509134,1.282816,0.3725407,-1.490166,-0.2495475,7.4,18.3,-0.03635193,0.08878488,0.001779716,-0.4571598,-3.547471,-0.2834339,0.4243917,1.505993,0.3318028,-0.03405014,0.00249926,0.1067111,-0.6267931,0.5779654,-0.1061379,0.5647347,1.556379,0.2130764,0.1026248,1.299622,0.1611501,272.5772,146.9296,84.01112,True
1,1.611114,0.02591311,0.05160092,0.05878779,-1.441284,-4.303798,-2.620776,0.3503633,1.282832,0.3717084,-1.492344,-0.1955737,7.4,18.3,-0.01748455,0.05473513,-0.01568176,-0.4579614,-3.548995,-0.2823838,0.4235495,1.50602,0.3311286,-0.02776802,-0.01136817,0.09281583,-0.626302,0.5769221,-0.1052178,0.5640412,1.556367,0.212322,0.1023887,1.300616,0.1602498,272.6125,141.6078,89.29009,True
1,1.622225,0.03216303,0.1027458,0.05731551,-1.443253,-4.30613,-2.621001,0.3498436,1.282921,0.3708847,-1.494847,-0.2260625,7.4,18.3,-0.01755051,0.03447864,-0.01368686,-0.4579327,-3.549624,-0.2815031,0.4229008,1.506179,0.3303368,-0.02267191,-0.02524738,0.06721511,-0.6263771,0.5757464,-0.1040598,0.5633082,1.556397,0.2115407,0.1022997,1.301401,0.1590641,272.6575,138.7592,91.95512,True
1,1.633336,0.04381244,0.1283436,0.05710527,-1.444978,-4.307885,-2.621679,0.3493938,1.283031,0.3701355,-1.497258,-0.2174732,7.4,18.3,-0.02383282,0.01519872,0.006486107,-0.4571124,-3.549976,-0.2806322,0.4223126,1.50635,0.3295851,-0.02698791,-0.01780216,0.06298505,-0.625797,0.5759429,-0.103708,0.5626597,1.55644,0.210788,0.1021626,1.30203,0.1577274,272.6965,136.9691,93.44555,True
1,1.644447,0.04707383,0.1058783,0.04343791,-1.445301,-4.308139,-2.622509,0.3487788,1.283115,0.3694839,-1.498777,-0.1362409,7.4,18.3,-0.02049024,0.008672073,0.02558798,-0.4562176,-3.549433,-0.2809377,0.4215541,1.506422,0.3287349,-0.02915619,-0.0135488,0.05979687,-0.6252761,0.5760494,-0.1033722,0.5619489,1.556544,0.2098489,0.1018809,1.302537,0.1564593,272.7068,136.1268,93.97752,True
1,1.655559,0.04290282,0.06849108,0.0320152,-1.445004,-4.307695,-2.622883,0.3482358,1.283232,0.3687983,-1.50044,-0.1502766,6,39.9,-0.03216868,0.009761829,0.02996873,-0.4557856,-3.548571,-0.2809025,0.4209347,1.506522,0.3279157,-0.03341128,-0.01035524,0.06090661,-0.6244335,0.5762663,-0.1030398,0.5612984,1.556577,0.2090895,0.1013815,1.302963,0.1554523,272.6875,136.1918,93.69288,True
1,1.66667,0.05478616,0.004517977,0.02186321,-1.443898,-4.305661,-2.624205,0.3474601,1.283205,0.3681331,-1.501535,-0.0981857,6,39.9,-0.06407954,0.02267078,0.03034926,-0.4556908,-3.546926,-0.2804681,0.4201657,1.506572,0.3269782,-0.02701758,-0.01460788,0.06085336,-0.6237091,0.5758161,-0.1025432,0.5606279,1.556505,0.2083409,0.1007473,1.303292,0.1548126,272.6542,135.9583,93.88462,True
1,1.677781,0.06240894,-0.05835231,0.01702181,-1.442601,-4.303232,-2.62549,0.3468146,1.283307,0.3675425,-1.501926,-0.03441492,6,39.9,-0.06704811,0.06632692,0.03598806,-0.455857,-3.541795,-0.2842091,0.4195516,1.506534,0.3261411,-0.03130496,-0.01887941,0.05770667,-0.6230891,0.5752948,-0.1016044,0.5600219,1.556472,0.2075822,0.1000535,1.303482,0.1544579,272.6343,135.2397,94.7338,True
1,1.688892,0.0571586,-0.0860469,0.01937356,-1.441942,-4.30143,-2.626187,0.3462266,1.283321,0.3670373,-1.503424,-0.1362999,6,39.9,-0.03907591,0.1194249,0.04353318,-0.4560344,-3.534859,-0.2908548,0.418896,1.506571,0.3253276,-0.03668748,-0.02102816,0.05136169,-0.6227967,0.574805,-0.1006281,0.5594912,1.556526,0.2068954,0.09936124,1.303538,0.1542057,272.6114,134.7699,95.44211,True
1,1.700003,0.05824935,-0.09775026,0.02053457,-1.441686,-4.300183,-2.626902,0.3457011,1.283329,0.3664231,-1.504098,-0.05999975,3.8,69,-0.02401954,0.142769,0.04887481,-0.4560344,-3.529212,-0.2961622,0.4183545,1.506522,0.3245394,-0.03984801,-0.01995967,0.05565289,-0.6220005,0.5746762,-0.09993805,0.5588683,1.556551,0.2061567,0.09876081,1.303416,0.1538513,272.5992,134.1219,96.3255,True
1,1.711114,0.06787606,-0.1115563,0.02276474,-1.441144,-4.298545,-2.628195,0.3451615,1.283405,0.3660605,-1.504152,-0.004190736,3.8,69,-0.0111669,0.1725824,0.04362421,-0.4566304,-3.522901,-0.3021055,0.4178065,1.506551,0.3239548,-0.03546664,-0.02100098,0.06733006,-0.6208404,0.5743948,-0.09960249,0.5584269,1.556481,0.2055252,0.09834677,1.303109,0.1532757,272.5833,135.1041,95.45782,True
1,1.722225,0.07533602,-0.1158041,0.02172425,-1.440628,-4.297275,-2.629335,0.3446424,1.283421,0.3655875,-1.504701,-0.04996307,3.8,69,-0.003921255,0.1620218,0.02537294,-0.4574411,-3.520146,-0.3047767,0.4173303,1.5065,0.3232422,-0.0343482,-0.02312163,0.07264961,-0.6198305,0.5740099,-0.09894336,0.5578833,1.556463,0.2048271,0.09807146,1.302693,0.1524474,272.5605,137.7674,92.75099,True
1,1.733337,0.0838284,-0.1105623,0.007823072,-1.439772,-4.296546,-2.630573,0.3442754,1.283475,0.3649652,-1.505688,-0.08945823,3.8,69,-0.01609966,0.09510326,0.004797526,-0.4577979,-3.523213,-0.3013721,0.4169224,1.506497,0.322577,-0.03441504,-0.01886682,0.06625108,-0.6193389,0.5740858,-0.09860726,0.5573763,1.556448,0.2040858,0.09788921,1.30226,0.1514127,272.5583,141.3031,89.06046,True
1,1.744448,0.09326161,-0.0595538,-0.01175953,-1.439597,-4.297808,-2.63176,0.3439038,1.283381,0.3644199,-1.505996,-0.02722943,3.8,69,-0.01947038,0.05357218,0.004550774,-0.4575076,-3.524747,-0.2995622,0.4164115,1.506425,0.3219173,-0.04080115,-0.007146396,0.06948726,-0.6185495,0.5749712,-0.09854921,0.5568494,1.556433,0.2033644,0.09782276,1.301834,0.1502912,272.6091,144.3036,85.82552,True
1,1.755559,0.09096441,-0.003164445,-0.02178326,-1.44008,-4.299725,-2.632326,0.3435881,1.2832,0.3639543,-1.505939,0.004833757,3.1,86.6,-0.01115315,0.01843228,-0.002150557,-0.4574389,-3.526972,-0.2976817,0.4158916,1.506379,0.3212776,-0.04075567,0.009911194,0.0769195,-0.6174619,0.5762718,-0.0991343,0.556316,1.556448,0.2027037,0.0977829,1.30142,0.1491453,272.6805,145.9046,83.99852,True
1,1.76667,0.0844963,0.02340833,-0.02731181,-1.440215,-4.300974,-2.632873,0.3432469,1.283119,0.3635077,-1.505409,0.04751463,3.1,86.6,-0.003891519,0.002513325,-0.01617482,-0.4579497,-3.528368,-0.29662,0.4153252,1.506332,0.3205779,-0.04819975,0.01416474,0.07910678,-0.6166651,0.5768639,-0.0988371,0.5558861,1.556464,0.2020838,0.09769066,1.300977,0.1480572,272.7819,146.439,83.24897,True
1,1.777781,0.08444604,0.04145038,-0.03597096,-1.440138,-4.302078,-2.633731,0.3428342,1.283026,0.3628757,-1.50355,0.1681839,3.1,86.6,-0.008198842,0.02179322,-0.02878649,-0.4588627,-3.52686,-0.2976756,0.4147083,1.506293,0.3198195,-0.05248679,0.006698184,0.07596949,-0.6158166,0.5767576,-0.09795053,0.5555229,1.5564,0.2014067,0.09739724,1.300438,0.1472042,272.8767,146.1972,83.24711,True
1,1.788892,0.09615561,0.04685793,-0.02963141,-1.440358,-4.302742,-2.635083,0.3424516,1.282999,0.3624451,-1.501425,0.1910533,3.1,86.6,-0.01009024,0.06222198,-0.01997555,-0.4593511,-3.522439,-0.3013886,0.4140824,1.506447,0.3190551,-0.05677398,0.001355782,0.07281376,-0.6152307,0.5764191,-0.09687941,0.5551555,1.556353,0.2007413,0.0968114,1.299752,0.1467294,272.8908,146.7023,82.5983,True
1,1.800003,0.1089879,0.03094532,-0.02525657,-1.440129,-4.302537,-2.636818,0.3420565,1.283001,0.3619847,-1.499076,0.2110134,3.1,86.6,0.001828879,0.08874193,-0.009252895,-0.459619,-3.51801,-0.3057125,0.4134673,1.506494,0.3182487,-0.06754932,0.005585238,0.06119522,-0.6149201,0.5768437,-0.09601708,0.5547686,1.556344,0.2000921,0.09591814,1.298889,0.1466104,272.8476,148.5378,80.83987,True
1,1.811115,0.1303919,-0.0009257523,-0.0207968,-1.439139,-4.301696,-2.639208,0.3417144,1.282355,0.3595011,-1.496151,0.2627849,3.4,87,0.005379617,0.1183864,0.01647756,-0.4592978,-3.512434,-0.3108806,0.4128506,1.506648,0.3174396,-0.07506888,0.008764029,0.05486123,-0.6146219,0.5773382,-0.09536993,0.5543647,1.556435,0.1995075,0.09476895,1.297792,0.1467361,272.7778,151.6309,77.99947,True
1,1.822226,0.1358303,-0.04245433,-0.02047666,-1.438058,-4.300148,-2.641079,0.3413194,1.282477,0.3590384,-1.492254,0.35065,3.4,87,-0.008300833,0.1343471,0.02843636,-0.4591497,-3.507316,-0.3148043,0.412297,1.506693,0.3166196,-0.07398703,0.0130262,0.05697069,-0.6139699,0.5777922,-0.09499975,0.5539005,1.556526,0.1988733,0.09353649,1.296375,0.1470298,272.6829,156.3619,73.59351,True
1,1.833337,0.1338128,-0.09040586,-0.02223372,-1.436571,-4.298194,-2.642526,0.3410287,1.282552,0.3585393,-1.487904,0.3908578,3.4,87,-0.03797613,0.1546568,0.03631019,-0.4592201,-3.501582,-0.3183979,0.4118086,1.506686,0.3157578,-0.0760316,0.02049567,0.0665672,-0.6129516,0.5787589,-0.09494542,0.5534756,1.556552,0.1982284,0.09221475,1.294575,0.1471703,272.5364,160.8466,69.68999,True
1,1.844448,0.1242594,-0.1043367,-0.0295714,-1.435318,-4.297018,-2.64384,0.3407651,1.282454,0.3579981,-1.48167,0.5623271,3.7,85.6,-0.05600713,0.1803093,0.03452016,-0.4597548,-3.495445,-0.3226385,0.411447,1.506637,0.3150659,-0.07490447,0.02583648,0.07400525,-0.6119257,0.5797372,-0.09492411,0.5530005,1.556541,0.1976273,0.09086242,1.29223,0.1466546,272.4309,166.1252,65.06937,True
1,1.855559,0.1242594,-0.1043367,-0.0295714,-1.435318,-4.297018,-2.64384,0.3407651,1.282454,0.3579981,-1.474727,0.625176,3.7,85.6,-0.05600713,0.1803093,0.03452016,-0.4597548,-3.495445,-0.3226385,0.411447,1.506637,0.3150659,-0.07490447,0.02583648,0.07400525,-0.6119257,0.5797372,-0.09492411,0.5530005,1.556541,0.1976273,0.08994514,1.289281,0.1457116,272.6298,177.7433,53.53999,True
1,1.86667,0.08772117,0.01164343,-0.03470385,-1.436074,-4.300231,-2.644332,0.3403785,1.28213,0.3570232,-1.466531,0.7389152,3.7,85.6,-0.03244464,0.213241,0.03452112,-0.460859,-3.482463,-0.3340387,0.4105924,1.506486,0.3137984,-0.05252305,0.01734787,0.07487261,-0.6102532,0.5803327,-0.09463064,0.5522051,1.556481,0.1965058,0.08948442,1.285874,0.1445251,273.1405,189.6123,41.34906,True
1,1.877781,0.0833064,0.06811734,-0.03194159,-1.437088,-4.303311,-2.645713,0.3399424,1.281903,0.3562522,-1.460333,0.5549242,3.7,85.6,0.003298908,0.1343829,0.01662171,-0.4611658,-3.481436,-0.336121,0.4097865,1.506282,0.3126876,-0.03442325,0.02483173,0.07575394,-0.6086575,0.5820449,-0.09562133,0.5513878,1.55638,0.1953003,0.08916486,1.2823,0.143307,273.7802,198.5319,31.99984,True
1,1.888893,0.08225313,0.06604411,-0.0244668,-1.437395,-4.303803,-2.646539,0.3397492,1.281898,0.3559723,-1.452326,0.7214279,3.7,85.6,0.01971279,0.04289471,-0.0118384,-0.4613415,-3.488849,-0.3303025,0.4094424,1.506286,0.3123026,-0.03239308,0.02268656,0.06402698,-0.6082745,0.5824803,-0.09577819,0.5511317,1.556306,0.1947525,0.08844135,1.278721,0.1419684,274.345,203.3577,26.88232,True
1,1.900004,0.07806744,0.04260987,-0.02109086,-1.436886,-4.303298,-2.647472,0.3395381,1.281792,0.3552389,-1.442535,0.8825714,1.7,83.3,0.02456455,-0.02623511,-0.03258423,-0.4614885,-3.495706,-0.324442,0.4090265,1.506246,0.3118038,-0.02501284,0.02481536,0.05649329,-0.6080135,0.5831277,-0.09624051,0.5507516,1.556348,0.1942539,0.08728902,1.275137,0.1408949,274.8627,207.6595,22.29573,True
1,1.911115,0.07604997,-0.004332835,-0.03031042,-1.435399,-4.302092,-2.648309,0.3393727,1.281941,0.3549025,-1.433097,0.8486066,1.7,83.3,0.01893814,-0.05911582,-0.05086448,-0.4621309,-3.500645,-0.3200297,0.4087225,1.506287,0.311259,-0.03352841,0.01947883,0.0565858,-0.6073169,0.5833198,-0.09571134,0.5503554,1.556433,0.193717,0.08602402,1.271531,0.1404187,275.4232,212.38,17.44998,True
1,1.922226,0.08462055,-0.02034033,-0.03764762,-1.434449,-4.301677,-2.649821,0.3393569,1.281963,0.3545265,-1.423135,0.8967454,1.7,83.3,0.006302597,-0.0431407,-0.04211942,-0.4623658,-3.499958,-0.3202555,0.4083155,1.506445,0.3105607,-0.04418958,0.01733016,0.05561317,-0.6068844,0.5835264,-0.09492838,0.5500247,1.556472,0.1930737,0.08476802,1.267926,0.1404766,275.9858,216.5643,13.46117,True
1,1.933337,0.08347768,0.008430447,-0.03680639,-1.434774,-4.303074,-2.650509,0.3393385,1.281972,0.354178,-1.412565,0.9514999,1.7,83.3,-0.003799889,0.02274823,-0.0106923,-0.4622172,-3.492677,-0.3262711,0.408005,1.506545,0.3098803,-0.03993643,0.00987763,0.05346484,-0.6062164,0.5833991,-0.09456139,0.5497914,1.556496,0.1925328,0.08358191,1.264296,0.1407847,276.5288,219.811,10.64834,True
1,1.944448,0.08332869,0.06710324,-0.02661292,-1.436371,-4.305807,-2.651062,0.3393968,1.28194,0.3538485,-1.402564,0.8988416,1.7,83.3,0.003217317,0.09919576,0.02383981,-0.4620462,-3.482718,-0.3355404,0.4076736,1.506675,0.3091631,-0.03675473,0.003476895,0.05130921,-0.6057647,0.582857,-0.09384953,0.5495334,1.556498,0.1919017,0.08260456,1.26062,0.1411767,277.1198,222.1202,8.726033,True
1,1.955559,0.09282809,0.09911058,-0.02581008,-1.437392,-4.308317,-2.652067,0.3393661,1.281973,0.353611,-1.390974,1.044449,2,69.9,0.01108021,0.1587061,0.0422722,-0.462337,-3.473536,-0.3441672,0.4074619,1.506672,0.3086224,-0.04097444,-0.003979065,0.05456033,-0.6049365,0.5824569,-0.09291849,0.5491723,1.556588,0.1913762,0.08179811,1.256862,0.1415583,277.6944,224.0316,7.045857,True
1,1.966671,0.1003074,0.09381863,-0.02471202,-1.43757,-4.309237,-2.653464,0.3392391,1.281993,0.3533285,-1.379585,1.024678,2,69.9,0.01321784,0.1629657,0.04121519,-0.4626246,-3.468987,-0.3484666,0.4071866,1.506725,0.3080621,-0.04208405,-0.008249864,0.04924278,-0.6046861,0.5820384,-0.09203618,0.5489438,1.556644,0.1909401,0.0809368,1.253053,0.1419193,278.3007,226.2039,4.959409,True
1,1.977782,0.09934834,0.05545432,-0.02654247,-1.43676,-4.308604,-2.654702,0.3389943,1.282136,0.353075,-1.368412,1.004956,2,69.9,0.00774838,0.1417145,0.03580663,-0.4625692,-3.46771,-0.3493236,0.4070961,1.506791,0.3076742,-0.03780512,-0.01569798,0.05028111,-0.6040263,0.581358,-0.09120341,0.5487682,1.556647,0.1904893,0.07992541,1.249224,0.1423489,278.937,228.482,2.751167,True
1,1.988893,0.09413624,0.008459861,-0.04001837,-1.435156,-4.307586,-2.655696,0.338806,1.282264,0.3528304,-1.35681,1.044117,2,69.9,0.009720579,0.1204565,0.02819014,-0.4628041,-3.466481,-0.3505335,0.406987,1.50686,0.3073142,-0.02709084,-0.02526478,0.05445654,-0.6032305,0.5803595,-0.09059861,0.5486072,1.556612,0.1899896,0.07881247,1.245339,0.1429038,279.5731,230.3032,1.092918,True
1,2.000004,0.09413624,0.008459861,-0.04001837,-1.435156,-4.307586,-2.655696,0.338806,1.282264,0.3528304,-1.344454,1.11277,2,69.9,0.009720579,0.1204565,0.02819014,-0.4628041,-3.466481,-0.3505335,0.406987,1.50686,0.3073142,-0.02709084,-0.02526478,0.05445654,-0.6032305,0.5803595,-0.09059861,0.5486072,1.556612,0.1899896,0.07773136,1.241321,0.1435148,280.2061,231.6914,359.9883,True
1,2.011115,0.08257803,-0.05886216,-0.06398332,-1.431806,-4.30587,-2.657374,0.338404,1.282496,0.3525076,-1.331153,1.198462,1.4,56.4,0.02866234,0.02119781,0.04545892,-0.4604877,-3.470671,-0.3481335,0.4066726,1.506944,0.3065631,-0.02080724,-0.03699407,0.04270057,-0.602521,0.5782789,-0.08846595,0.5481744,1.55653,0.1890495,0.07683554,1.237126,0.1440777,280.895,232.7382,359.2146,True
1,2.022226,0.07839762,-0.09088156,-0.07012028,-1.429869,-4.304354,-2.658281,0.3382154,1.282629,0.3523817,-1.320443,0.9608622,1.4,56.4,0.01997546,-0.006430276,0.04002875,-0.4599535,-3.472785,-0.3460022,0.406452,1.506956,0.3060968,-0.01657949,-0.03486731,0.03945728,-0.6022409,0.5777416,-0.08799537,0.547989,1.556459,0.18854,0.07614664,1.232806,0.1445281,281.6673,233.6904,358.4841,True
1,2.033337,0.07736499,-0.1036843,-0.07214952,-1.428344,-4.303302,-2.659224,0.3380831,1.282726,0.352246,-1.307375,1.178412,1.4,56.4,0.0155912,-0.01166632,0.02938324,-0.4599194,-3.473458,-0.3453246,0.4063851,1.506948,0.3057146,-0.01658507,-0.0306043,0.03945874,-0.6016678,0.5775848,-0.08769497,0.5478844,1.55642,0.1881144,0.07559234,1.228355,0.1447231,282.4456,233.8399,358.4844,True
1,2.044448,0.0720538,-0.1090187,-0.07210737,-1.42706,-4.302591,-2.659949,0.3381429,1.282857,0.3521237,-1.294856,1.1262,1.4,56.4,0.02514926,0.008612841,0.01771013,-0.4605016,-3.471527,-0.3477082,0.4062498,1.507034,0.3052936,-0.01451411,-0.02208656,0.03409087,-0.6016166,0.5777403,-0.08776527,0.5477446,1.556484,0.1876853,0.07523976,1.223794,0.1447404,283.2792,233.9562,358.3555,True
1,2.055559,0.07202287,-0.0983894,-0.07645302,-1.42595,-4.302702,-2.660767,0.33813,1.282882,0.3520298,-1.282598,1.103046,1,58.1,0.03367104,0.02674415,0.01029385,-0.4610534,-3.469301,-0.3503942,0.4061187,1.50701,0.3048382,-0.01345523,-0.01888769,0.03408241,-0.6011452,0.5776978,-0.08758737,0.5476772,1.556477,0.187242,0.0750745,1.219185,0.1446439,284.1357,234.1925,358.0211,True
1,2.06667,0.07089445,-0.0739045,-0.0777185,-1.425087,-4.303298,-2.661486,0.3381887,1.282704,0.3516941,-1.270135,1.121901,1,58.1,0.0410555,0.03424193,-0.0003808774,-0.4616899,-3.468262,-0.3520382,0.4059606,1.506954,0.3043377,-0.01444812,-0.01141565,0.04366193,-0.6003745,0.5780985,-0.08760548,0.5475803,1.556386,0.1868672,0.07507149,1.214588,0.1445262,284.9953,234.4876,357.6003,True
1,2.077781,0.06757547,-0.02807816,-0.07380486,-1.425292,-4.304857,-2.66185,0.3380449,1.282502,0.351579,-1.258068,1.085672,1,58.1,0.03137322,0.03648447,-0.01093709,-0.4624537,-3.467643,-0.3524289,0.4057295,1.506819,0.3038464,-0.01228032,-0.009275422,0.04789945,-0.5996783,0.5781747,-0.08762599,0.5474188,1.556392,0.1864333,0.07519083,1.210065,0.144484,285.8435,234.7551,357.2029,True
1,2.088892,0.06108371,0.01137777,-0.06665143,-1.425694,-4.30663,-2.662009,0.3379045,1.282325,0.3513589,-1.245834,1.101169,1,58.1,0.01332252,0.047198,-0.008563353,-0.4627109,-3.465609,-0.3536071,0.4053687,1.506761,0.30338,-0.01217071,-0.007126918,0.05960642,-0.598635,0.5783038,-0.08763717,0.547245,1.556437,0.1861134,0.0752624,1.205638,0.1445816,286.6111,234.9985,356.8572,True
1,2.100003,0.06207957,0.04129431,-0.05623556,-1.42621,-4.308163,-2.662563,0.3377003,1.282225,0.3510771,-1.233543,1.106494,1,58.1,0.01973247,0.05677436,-0.01069027,-0.4632643,-3.463615,-0.355859,0.4050715,1.506702,0.3028989,-0.0184726,-0.008186359,0.06925368,-0.5974876,0.5782148,-0.08703876,0.5470257,1.556426,0.1856005,0.0751585,1.201287,0.1448558,287.3073,235.3548,356.4577,True
1,2.111114,0.05566689,0.05087747,-0.05416478,-1.426197,-4.309032,-2.662853,0.3374105,1.282135,0.3507791,-1.221442,1.089203,0.4,43.5,0.02939909,0.06415811,-0.005404498,-0.4634885,-3.461407,-0.3585856,0.4047385,1.506576,0.3023934,-0.02707873,-0.0135392,0.05975715,-0.5971761,0.5776215,-0.08588135,0.5470252,1.556344,0.1852412,0.07482716,1.199053,0.1454814,287.1469,237.4738,354.2822,True
1,2.122225,0.05248623,0.04771136,-0.04881645,-1.426003,-4.30953,-2.663274,0.3371706,1.281849,0.3497093,-1.210016,1.027778,0.4,43.5,0.01996231,0.1110878,-0.008195657,-0.4646902,-3.455002,-0.3641071,0.4044632,1.506405,0.3019247,-0.03147797,-0.01356474,0.04594811,-0.5972208,0.5773454,-0.08503234,0.5469357,1.556322,0.1848686,0.07452226,1.198014,0.146248,286.7986,240.2094,351.4551,True
1,2.133336,0.04396295,0.04986221,-0.04349336,-1.426149,-4.310205,-2.663315,0.3369247,1.281839,0.349371,-1.198162,1.067575,0.4,43.5,0.002046257,0.1569584,-0.006659038,-0.4660196,-3.447486,-0.3701197,0.4043112,1.506382,0.3015122,-0.0273466,-0.01038138,0.03312739,-0.5972501,0.577448,-0.08491968,0.5468193,1.556335,0.184607,0.07440189,1.197264,0.146911,286.4915,242.6066,348.9249,True
1,2.144447,0.03443897,0.02965305,-0.03587259,-1.425793,-4.30982,-2.663401,0.3366394,1.281889,0.3489003,-1.186885,1.014572,0.4,43.5,-0.002045915,0.1461771,0.01568773,-0.4654002,-3.444067,-0.3730356,0.4042891,1.50641,0.3011925,-0.01557673,0.001364458,0.04044898,-0.5966179,0.5784009,-0.08600679,0.5467106,1.556393,0.1842387,0.07438667,1.196581,0.1473067,286.1201,244.339,347.0974,True
1,2.155558,0.03443897,0.02965305,-0.03587259,-1.425793,-4.30982,-2.663401,0.3366394,1.281889,0.3489003,-1.175433,1.031243,1.1,52,-0.002045915,0.1461771,0.01568773,-0.4654002,-3.444067,-0.3730356,0.4042891,1.50641,0.3011925,-0.01557673,0.001364458,0.04044898,-0.5966179,0.5784009,-0.08600679,0.5467106,1.556393,0.1842387,0.07440921,1.195861,0.1473317,285.7617,246.6766,344.82,True
1,2.166669,0.02502786,-0.03211583,-0.03005417,-1.42406,-4.307495,-2.664032,0.3361934,1.282192,0.3482082,-1.164331,0.9991497,1.1,52,-0.01810185,0.06083262,0.04404261,-0.4629096,-3.445743,-0.3706279,0.4043786,1.506695,0.3007004,-0.02838651,0.01519546,0.03948477,-0.5957337,0.5802595,-0.08651758,0.546465,1.556511,0.1837227,0.07457604,1.195223,0.1475542,285.4091,247.3742,344.061,True
1,2.17778,0.01875012,-0.07255806,-0.02333759,-1.423012,-4.305399,-2.66426,0.336072,1.282479,0.3478849,-1.153758,0.9513135,1.1,52,-0.03205309,0.02357928,0.04924247,-0.4620105,-3.447487,-0.3680635,0.4042254,1.506685,0.3005207,-0.02536288,0.001316942,0.01923843,-0.5962445,0.5790598,-0.08532928,0.5466506,1.556474,0.1834669,0.07472799,1.194619,0.1478697,285.0747,248.5929,342.8055,True
1,2.188891,0.01348997,-0.09601006,-0.02314575,-1.421922,-4.303717,-2.664485,0.3359123,1.282774,0.3476131,-1.143499,0.9231753,1.1,52,-0.03437927,-0.02541454,0.04893884,-0.4606193,-3.452145,-0.3633958,0.4043493,1.506834,0.300401,-0.02334572,-0.01894461,0.004336878,-0.5967276,0.5771962,-0.08363045,0.546729,1.556495,0.1832042,0.07479778,1.194009,0.1480702,284.8641,250.0522,341.3573,True
1,2.200002,0.008164873,-0.09491742,-0.01782344,-1.421446,-4.302791,-2.664505,0.3359945,1.282871,0.3474164,-1.132985,0.9467967,1.1,52,-0.02192508,-0.0615477,0.02834365,-0.4603934,-3.456741,-0.3596895,0.4043948,1.507062,0.3002617,-0.01904825,-0.03279196,0.005392002,-0.5964021,0.5754891,-0.08232124,0.5465925,1.556574,0.1829255,0.0749691,1.193442,0.1482422,284.5875,251.0654,340.3595,True
1,2.211113,0.008053333,-0.05118552,-0.0117753,-1.422077,-4.303885,-2.66446,0.3362394,1.282871,0.3472235,-1.122972,0.9008468,1.9,44.5,-0.0283279,-0.05937789,0.02628701,-0.459978,-3.457824,-0.358144,0.4043627,1.507182,0.3000293,-0.02009054,-0.04237934,0.006482471,-0.5962104,0.5739807,-0.08081789,0.5465586,1.556588,0.1826389,0.07520316,1.192921,0.1483894,284.2758,251.8841,339.5732,True
1,2.222224,0.002546248,0.01919949,-0.0006030221,-1.423782,-4.306271,-2.663941,0.3365265,1.282883,0.3471656,-1.113012,0.896621,1.9,44.5,-0.0335732,-0.04125129,0.02752194,-0.459749,-3.456607,-0.3586162,0.4043659,1.507289,0.2997963,-0.02003104,-0.04557332,0.0118218,-0.5956586,0.5728956,-0.07974463,0.5465776,1.556558,0.1823473,0.07519425,1.192373,0.1480986,283.7976,255.0757,336.3738,True
1,2.233335,0.005638213,0.05975194,0.007603528,-1.425165,-4.307954,-2.663848,0.3366621,1.28292,0.347017,-1.103485,0.8570303,1.9,44.5,-0.01619743,0.01186005,0.04049715,-0.459636,-3.451034,-0.3641202,0.4043598,1.50737,0.2995348,-0.01798867,-0.04239286,0.002209285,-0.5959462,0.5722482,-0.07917072,0.5466486,1.556499,0.1821473,0.07539243,1.191826,0.1482565,283.4388,255.7104,335.6753,True
1,2.244446,0.0002395706,0.08963992,0.01696219,-1.42673,-4.309721,-2.663394,0.3369375,1.282953,0.3469763,-1.093704,0.8807661,1.9,44.5,0.007466285,0.05434129,0.04694514,-0.459823,-3.445423,-0.3701469,0.4043423,1.507421,0.299335,-0.01810494,-0.03815036,-0.00951519,-0.5965151,0.5717036,-0.07851665,0.5467185,1.556492,0.181941,0.07553233,1.191245,0.1486324,283.1689,257.611,333.7404,True
1,2.255557,-0.000796455,0.07682454,0.01386655,-1.42675,-4.309756,-2.663328,0.3370838,1.283082,0.346931,-1.08468,0.8115324,1.2,41.6,0.01276679,0.07249926,0.03637391,-0.4602081,-3.442465,-0.3731728,0.4046034,1.507507,0.2991068,-0.0149623,-0.03602399,-0.01487495,-0.5968607,0.5711048,-0.07798401,0.5467604,1.556498,0.1817255,0.0755479,1.190677,0.1491587,283.0228,260.3406,330.9388,True
1,2.266668,-0.009202803,0.0288157,0.007857194,-1.425916,-4.308506,-2.662951,0.337234,1.283148,0.3468759,-1.075242,0.8501526,1.2,41.6,0.002080325,0.07149714,0.03327077,-0.4602768,-3.440672,-0.3744085,0.404738,1.507483,0.2989979,-0.00855964,-0.03282513,-0.01387416,-0.5969087,0.570497,-0.07770491,0.5468997,1.556427,0.1815164,0.07551995,1.1901,0.1496938,282.9465,263.2456,327.9507,True
1,2.277779,-0.012268,-0.02349261,-0.004516399,-1.424412,-4.306776,-2.662973,0.33728,1.283195,0.3467703,-1.066382,0.7969918,1.2,41.6,0.006173741,0.05985082,0.02036953,-0.460599,-3.44057,-0.3746383,0.4048637,1.507525,0.2989178,0.004369525,-0.03384522,0.001976767,-0.596359,0.5698343,-0.0776362,0.5468858,1.556498,0.1816237,0.07560693,1.189725,0.1494604,282.4159,266.527,324.4346,True
1,2.28889,-0.01964791,-0.05555896,-0.01597397,-1.423166,-4.305521,-2.662683,0.3371781,1.283279,0.3467541,-1.057099,0.8362216,1.2,41.6,0.01127026,0.03542557,0.006313116,-0.460794,-3.441927,-0.373748,0.4050949,1.507515,0.298861,0.007623937,-0.01891286,0.0104516,-0.5958599,0.5705265,-0.07836059,0.5470346,1.556422,0.1815174,0.07598243,1.189407,0.1494428,281.9938,266.7573,324.1022,True
1,2.300001,-0.02605734,-0.05028408,-0.02027229,-1.422673,-4.305407,-2.662183,0.3373084,1.283303,0.3466933,-1.048702,0.7549217,0.7,38,0.008991176,0.0184449,-0.002301054,-0.4609708,-3.443232,-0.3725648,0.405302,1.507454,0.2985766,0.005420309,-0.004004688,0.005117966,-0.5961177,0.571558,-0.07914382,0.5472242,1.556467,0.1815004,0.07639979,1.189102,0.1494547,281.5757,267.2583,323.608,True
1,2.311112,-0.02605734,-0.05028408,-0.02027229,-1.422673,-4.305407,-2.662183,0.3373084,1.283303,0.3466933,-1.039928,0.7902308,0.7,38,0.008991176,0.0184449,-0.002301054,-0.4609708,-3.443232,-0.3725648,0.405302,1.507454,0.2985766,0.005420309,-0.004004688,0.005117966,-0.5961177,0.571558,-0.07914382,0.5472242,1.556467,0.1815004,0.07678389,1.188799,0.1495051,281.1812,267.952,322.9012,True
1,2.322223,-0.02500573,-0.043845,-0.01393135,-1.422252,-4.304775,-2.661693,0.3376046,1.283605,0.3466053,-1.031881,0.7234744,0.7,38,0.005873637,0.001309188,0.01359014,-0.4602033,-3.44366,-0.3721584,0.4056739,1.507714,0.2984569,-0.001282472,-0.001931529,-0.02678413,-0.5976746,0.5714193,-0.0788072,0.5478179,1.556487,0.1814671,0.07703831,1.18851,0.1496333,280.8843,268.9329,321.8373,True
1,2.333334,-0.01535911,-0.0662323,-0.01909226,-1.421131,-4.303525,-2.662098,0.3377058,1.283829,0.3465159,-1.022597,0.8372389,0.7,38,0.007091817,-0.01268533,0.03586124,-0.4588648,-3.443743,-0.3722053,0.4059075,1.507857,0.2984345,-0.003514495,-0.003019878,-0.03741746,-0.5984826,0.5710743,-0.07836485,0.5480548,1.556538,0.1814239,0.07724268,1.188233,0.149855,280.6365,270.3504,320.3201,True
1,2.344445,-0.006732501,-0.1067275,-0.02304186,-1.419595,-4.301279,-2.662631,0.3377292,1.284038,0.3465066,-1.015379,0.647637,0.7,38,0.0007613376,-0.03940981,0.05385238,-0.4573026,-3.445589,-0.3703173,0.4061953,1.508025,0.298321,-0.006733147,-0.01048395,-0.04057403,-0.5990466,0.5703365,-0.07752489,0.5483636,1.55655,0.1813207,0.07683432,1.188066,0.1496499,280.9622,278.1075,312.8066,True
1,2.355556,0.007206187,-0.1407944,-0.02491681,-1.41806,-4.298965,-2.663532,0.3378322,1.284268,0.3464372,-1.007797,0.682569,0.7,38.5,-0.005557328,-0.04157247,0.06242105,-0.4562064,-3.445876,-0.3697972,0.4064685,1.508186,0.2983336,-0.01305235,-0.02325916,-0.03516912,-0.5991687,0.5692578,-0.07634085,0.5487124,1.556496,0.1813233,0.07661416,1.187862,0.1494156,280.9809,282.2853,308.4586,True
1,2.366668,0.01360063,-0.1407491,-0.02173069,-1.417221,-4.29772,-2.664073,0.3380454,1.284423,0.3463874,-0.9999227,0.7089468,0.7,38.5,-0.01616612,-0.03515493,0.06469619,-0.4553814,-3.445451,-0.3695922,0.4068308,1.50829,0.2983363,-0.01298826,-0.03176792,-0.02875827,-0.5991388,0.5681871,-0.07521752,0.5490551,1.556475,0.1812866,0.07683734,1.18759,0.1494278,280.7576,283.1841,307.4409,True
1,2.377779,0.01360063,-0.1407491,-0.02173069,-1.417221,-4.29772,-2.664073,0.3380454,1.284423,0.3463874,-0.992484,0.6689553,0.7,38.5,-0.01616612,-0.03515493,0.06469619,-0.4553814,-3.445451,-0.3695922,0.4068308,1.50829,0.2983363,-0.01298826,-0.03176792,-0.02875827,-0.5991388,0.5681871,-0.07521752,0.5490551,1.556475,0.1812866,0.07678662,1.187352,0.1504274,280.9864,288.6718,302.1628,True
1,2.38889,0.01246965,-0.1151335,-0.01553496,-1.417118,-4.297312,-2.664207,0.3382546,1.284453,0.3463914,-0.9842852,0.7389131,0.7,38.5,-0.03009298,-0.03398253,0.05630757,-0.455025,-3.44614,-0.3680944,0.4071104,1.50842,0.2983434,-0.003395122,-0.034949,-0.02884992,-0.5995085,0.5672911,-0.07483589,0.5493399,1.55648,0.1812854,0.07686219,1.187065,0.1497395,280.6761,290.8231,299.7443,True
1,2.400001,0.0006248597,-0.06389887,0.001120597,-1.417585,-4.297188,-2.66382,0.338562,1.284501,0.3464708,-0.9770611,0.6492173,0.7,38.5,-0.02583589,-0.03186857,0.05521543,-0.4535624,-3.44673,-0.3670456,0.4076013,1.508499,0.2984433,-0.007579174,-0.03281382,-0.02029692,-0.5997364,0.566049,-0.07348993,0.5499196,1.5564,0.1812947,0.07728978,1.186753,0.1493785,280.129,290.0996,300.2957,True
1,2.411112,-0.006838695,-0.06177309,0.003241619,-1.417356,-4.296513,-2.663547,0.3386348,1.284473,0.3465171,-0.9690636,0.7208109,3,28.8,-0.006829675,-0.0222083,0.03273427,-0.4540088,-3.446822,-0.3676646,0.4078212,1.508543,0.298486,-0.0108191,-0.02323907,-0.02347685,-0.6001242,0.5661163,-0.07329765,0.5502359,1.556408,0.1812906,0.07770856,1.186461,0.1492935,279.611,290.5369,299.8278,True
1,2.422223,-0.01534247,-0.0670604,0.01075246,-1.417342,-4.295478,-2.663197,0.3388537,1.284532,0.346612,-0.9614672,0.6835138,3,28.8,0.009026373,-0.01257314,0.01560405,-0.4545047,-3.446819,-0.3683144,0.4080551,1.508571,0.2985184,-0.01193101,-0.0275098,-0.0287881,-0.600627,0.5652051,-0.07235942,0.5505959,1.556337,0.181462,0.07793562,1.186164,0.1493976,279.3826,292.0966,298.2571,True
1,2.433334,-0.01530242,-0.07879391,0.008722024,-1.416857,-4.294259,-2.663398,0.3390215,1.28473,0.3466563,-0.9541696,0.656841,3,28.8,0.01114166,-0.007222807,0.01136285,-0.4544993,-3.446434,-0.368871,0.4083751,1.508645,0.2985735,-0.01406376,-0.03603412,-0.02981146,-0.6008315,0.5639225,-0.07101478,0.5509973,1.556334,0.1814849,0.07805742,1.185893,0.1496394,279.3778,294.3436,295.9553,True
1,2.444445,-0.02173912,-0.06389742,0.008610747,-1.416853,-4.294096,-2.662888,0.3393615,1.284769,0.3467307,-0.9470345,0.6422884,3,28.8,0.007964384,0.0002517877,0.01037613,-0.4545089,-3.445806,-0.3693562,0.4086891,1.508699,0.298615,-0.01196508,-0.03816424,-0.03409903,-0.6014792,0.5630645,-0.07032236,0.5513489,1.556368,0.1815281,0.07822739,1.185631,0.1498682,279.3228,296.6359,293.6078,True
1,2.455556,-0.02183994,-0.02658751,0.01151635,-1.417561,-4.294877,-2.6625,0.3397271,1.284872,0.3467705,-0.9406908,0.5700861,3,15.7,0.0005950201,-0.007261036,0.0231805,-0.4536301,-3.44604,-0.3688073,0.4090256,1.508694,0.2986968,-0.01417048,-0.03391208,-0.04154126,-0.6022068,0.5627907,-0.06988614,0.5517889,1.556276,0.1816044,0.07841524,1.185399,0.1500444,279.2266,298.5581,291.6457,True
1,2.466667,-0.02183994,-0.02658751,0.01151635,-1.417561,-4.294877,-2.6625,0.3397271,1.284872,0.3467705,-0.9334614,0.651753,3,15.7,0.0005950201,-0.007261036,0.0231805,-0.4536301,-3.44604,-0.3688073,0.4090256,1.508694,0.2986968,-0.01417048,-0.03391208,-0.04154126,-0.6022068,0.5627907,-0.06988614,0.5517889,1.556276,0.1816044,0.07863748,1.185168,0.1501527,279.0704,300.1764,289.9814,True
1,2.477778,-0.0123357,0.006507611,0.01657482,-1.418446,-4.295838,-2.662578,0.3400943,1.285031,0.3468137,-0.9272946,0.5539144,3,15.7,-0.007805236,-0.02012817,0.04128617,-0.4523864,-3.446352,-0.3682126,0.4094152,1.508834,0.2988191,-0.01633835,-0.02859353,-0.04472526,-0.6028491,0.562537,-0.06940757,0.5521249,1.556285,0.1817091,0.07852181,1.184974,0.1496458,279.1198,304.7165,285.2928,True
1,2.488889,0.005727252,0.02367391,0.0249515,-1.419733,-4.296375,-2.663045,0.340647,1.285329,0.3469691,-0.9207496,0.589506,3,15.7,-0.007934958,-0.05422334,0.04212032,-0.4508071,-3.450387,-0.3643793,0.4101294,1.509156,0.2990298,-0.01005006,-0.0232648,-0.05437687,-0.6041983,0.5619823,-0.06889944,0.552835,1.55627,0.181978,0.07852934,1.184714,0.1502723,279.5426,308.4913,281.514,True
1,2.5,0.007875296,0.01625195,0.02821208,-1.420205,-4.296114,-2.663136,0.3409765,1.285472,0.347079,-0.9146398,0.5494633,3,15.7,-0.01541352,-0.06486675,0.04424855,-0.4498708,-3.452608,-0.3619127,0.4105122,1.509312,0.2991216,-0.01330709,-0.02966996,-0.06179887,-0.6051943,0.5609156,-0.06773803,0.5532344,1.556293,0.1821404,0.07833175,1.184538,0.1510154,280.2261,311.6303,278.46,True
1,2.511111,0.002569144,0.007685917,0.02402056,-1.420197,-4.295924,-2.663003,0.3412241,1.285571,0.3471794,-0.9085332,0.5496618,1.3,8,-0.008837789,-0.05326948,0.05918258,-0.4486489,-3.451678,-0.3628759,0.4108704,1.509456,0.2992485,-0.01116336,-0.04032207,-0.06286199,-0.6057818,0.5593188,-0.06653642,0.5535573,1.556249,0.1822362,0.07822809,1.18435,0.1514763,280.7201,313.615,276.4255,True
1,2.522222,-0.01230157,-0.009423763,0.02097262,-1.41997,-4.295186,-2.662406,0.341539,1.285704,0.3472784,-0.9022284,0.5678831,1.3,8,0.005129129,-0.04059567,0.06659164,-0.4476955,-3.450995,-0.3640453,0.4112293,1.509511,0.2994125,-0.01323393,-0.03391819,-0.05539469,-0.6061088,0.5590708,-0.06608767,0.5538863,1.556276,0.1823401,0.07817087,1.184182,0.1507444,280.7098,316.2824,273.5608,True
1,2.533333,-0.02078952,-0.02225194,0.01788594,-1.419733,-4.294535,-2.661987,0.3418558,1.28584,0.3473973,-0.8962213,0.5407351,1.3,8,0.005099289,-0.03736322,0.06128889,-0.4471517,-3.451232,-0.3639825,0.4115656,1.50964,0.2995372,-0.01529428,-0.02857586,-0.0468556,-0.6062377,0.5590211,-0.06575691,0.5541928,1.556424,0.1824553,0.07861974,1.18399,0.1502498,280.039,316.4235,273.2535,True
1,2.544444,-0.03352851,-0.04255439,0.01380663,-1.419296,-4.293401,-2.661192,0.342092,1.285876,0.3474381,-0.8901792,0.5444127,1.3,8,-0.003594942,-0.03507356,0.04220482,-0.4473621,-3.452238,-0.3626395,0.4118564,1.509721,0.2997379,-0.007794492,-0.02323095,-0.04160814,-0.6064593,0.5589008,-0.06584506,0.5545076,1.556437,0.1826019,0.07900533,1.183775,0.1499869,279.5029,317.2019,272.4538,True
1,2.555555,-0.03031437,-0.0499974,0.01280406,-1.419227,-4.292776,-2.661058,0.342437,1.285897,0.3475277,-0.885085,0.457809,0.3,4.6,0.001525395,-0.031743,0.01874009,-0.4479469,-3.453343,-0.3618275,0.4122405,1.509677,0.299957,-0.006734356,-0.01790389,-0.04162387,-0.6069185,0.5588103,-0.06577741,0.5549568,1.556407,0.1826925,0.07926587,1.183586,0.1499473,279.237,318.425,271.2436,True
1,2.566666,-0.02711808,-0.04892591,0.0117303,-1.419163,-4.292354,-2.661,0.3425171,1.285976,0.3477004,-0.8797635,0.4796799,0.3,4.6,0.01103724,-0.02851889,0.009085603,-0.4481173,-3.453879,-0.3618906,0.4125721,1.509738,0.300087,-0.007727735,-0.0189588,-0.03415539,-0.6069951,0.5583662,-0.06528686,0.5553012,1.556398,0.1828423,0.07945783,1.183411,0.1499933,279.121,319.7592,269.9048,True
1,2.577777,-0.02502839,-0.03612331,0.01270582,-1.419539,-4.292336,-2.660681,0.3427531,1.28599,0.3478079,-0.8761965,0.3196939,0.3,4.6,0.009936452,-0.02528727,0.003790251,-0.4481456,-3.454406,-0.3614876,0.4128381,1.509717,0.3002553,-0.005622515,-0.01363471,-0.03631486,-0.6074985,0.5583205,-0.06527301,0.5556024,1.556333,0.1830723,0.07960041,1.183253,0.1500359,279.0537,320.874,268.7831,True
1,2.588888,-0.03250021,-0.03081335,0.01266878,-1.419587,-4.292224,-2.660053,0.3430144,1.286077,0.3479698,-0.8726966,0.3153543,0.3,4.6,-0.004954446,-0.0476736,0.01549841,-0.447083,-3.456777,-0.3587525,0.4131501,1.509744,0.3004355,-0.001449849,0.003397377,-0.04384395,-0.6083981,0.5592421,-0.06625918,0.5559049,1.556309,0.1832924,0.07978024,1.183117,0.150022,278.9179,321.8786,267.7498,True
1,2.599999,-0.03250725,-0.03298767,0.006306895,-1.419434,-4.291893,-2.659621,0.3433363,1.286063,0.3480847,-0.8693101,0.3051532,0.3,4.6,-0.01355697,-0.07001939,0.01649641,-0.4462883,-3.460238,-0.3551506,0.4134671,1.509754,0.3005633,-0.01430646,0.0214834,-0.04908213,-0.6092865,0.5608078,-0.06690367,0.5563229,1.556243,0.1834908,0.07989883,1.182993,0.1500679,278.8792,322.827,266.7848,True
1,2.61111,-0.03677808,-0.03090514,0.002038535,-1.41924,-4.291631,-2.659109,0.3435512,1.286065,0.3482485,-0.8662294,0.2775978,0,4.3,-0.0220417,-0.07001327,0.02083991,-0.4456491,-3.461431,-0.3534744,0.4139162,1.509766,0.3006606,-0.009937898,0.01724148,-0.03845788,-0.6092002,0.5606943,-0.06689727,0.5567127,1.556216,0.1836367,0.07998535,1.182889,0.1502126,278.9417,323.9242,265.6851,True
1,2.622221,-0.03677808,-0.03090514,0.002038535,-1.41924,-4.291631,-2.659109,0.3435512,1.286065,0.3482485,-0.8640328,0.1972404,0,4.3,-0.0220417,-0.07001327,0.02083991,-0.4456491,-3.461431,-0.3534744,0.4139162,1.509766,0.3006606,-0.009937898,0.01724148,-0.03845788,-0.6092002,0.5606943,-0.06689727,0.5567127,1.556216,0.1836367,0.08005314,1.182822,0.1503366,279.0024,324.7897,264.814,True
1,2.633332,-0.03571697,-0.03630998,-0.00856167,-1.418494,-4.291001,-2.658336,0.3439558,1.286213,0.3485098,-0.8625302,0.1346239,0,4.3,-0.002810035,-0.03274592,0.01131868,-0.445909,-3.460581,-0.3547661,0.4146011,1.509742,0.300899,-0.003552195,0.007655822,-0.04063588,-0.6102181,0.5600238,-0.06659101,0.5575284,1.556189,0.1839166,0.07977836,1.182793,0.1497613,279.3146,327.4172,262.1171,True
1,2.644443,-0.03779554,-0.06084184,-0.01261081,-1.417729,-4.289653,-2.657886,0.3440976,1.286318,0.3487492,-0.8599331,0.235374,0,4.3,0.001453862,-0.02208548,0.007087775,-0.4460262,-3.460411,-0.3551102,0.414965,1.509767,0.3010268,-0.0066979,0.007661293,-0.03528121,-0.6104173,0.5602233,-0.06654707,0.5579525,1.556209,0.1841033,0.07984618,1.182717,0.1497379,279.3047,327.8478,261.6227,True
1,2.655554,-0.04732498,-0.08537654,-0.01452813,-1.4169,-4.288147,-2.657129,0.3442984,1.286593,0.3488765,-0.858805,0.1003178,0,4.3,0.005741199,-0.01891318,0.008127722,-0.445901,-3.460726,-0.3550529,0.4152816,1.509866,0.3011489,-0.01314689,0.006573472,-0.04161333,-0.6111283,0.5601107,-0.06609886,0.5583341,1.556235,0.1842279,0.07993304,1.182686,0.1497773,279.2733,328.4171,261.0499,True
1,2.666665,-0.04200402,-0.0885865,-0.01877244,-1.416077,-4.287452,-2.656837,0.3444848,1.286702,0.3490596,-0.8574558,0.1219197,0,2.6,0.005803857,-0.02323084,0.01662013,-0.4453205,-3.461272,-0.3546422,0.4155868,1.510153,0.301291,-0.01642692,0.001230949,-0.05115858,-0.6120083,0.559812,-0.06555557,0.558713,1.556237,0.1843495,0.08002866,1.182681,0.1498236,279.237,329.0141,260.4498,True
1,2.677776,-0.03029976,-0.08643679,-0.02092168,-1.415557,-4.286784,-2.656954,0.3447576,1.287079,0.3492181,-0.856055,0.1264199,0,2.6,-0.001490112,-0.03721227,0.04003096,-0.4437705,-3.462426,-0.3533157,0.4160278,1.510352,0.3014424,-0.01010256,-0.009426394,-0.05972581,-0.6129563,0.5588902,-0.06491588,0.5591235,1.556171,0.1844635,0.08012222,1.18269,0.1498284,279.1615,329.4773,259.9897,True
1,2.688887,-0.02394423,-0.07470184,-0.02102072,-1.415167,-4.286539,-2.656894,0.3450672,1.287315,0.3493752,-0.8557136,0.0297019,0,2.6,-0.008802712,-0.03941816,0.05606478,-0.4424736,-3.462546,-0.3529024,0.4163975,1.510505,0.3015962,-0.005866718,-0.01262594,-0.06295387,-0.6137036,0.5582734,-0.06451321,0.5595262,1.556212,0.1845782,0.08020936,1.182728,0.14977,279.0245,329.6844,259.7933,True
