loc,t,aDotUA,bDotUA,gDotUA,aUA,bUA,gUA,xUA,yUA,zUA,qE,qDotE,emgA,emgB,aDotSH,bDotSH,gDotSH,aSH,bSH,gSH,xSH,ySH,zSH,aDotUB,bDotUB,gDotUB,aUB,bUB,gUB,xUB,yUB,zUB,xHand,yHand,zHand,aHand,bHand,gHand,enable
2,0,-0.2710335,-1.012166,-0.07766762,-1.395751,-3.948529,2.883136,0.5323067,1.291495,0.4930074,-1.484156,-0.1506861,0,2.6,-0.457143,0.2089706,-0.0778341,-0.5233719,-3.818719,-0.3627132,0.5161804,1.51096,0.3935373,-0.1259585,0.2151833,0.1356259,-0.6247866,0.3263089,-0.08615486,0.6170986,1.561615,0.2422717,0.3953075,1.077097,0.2911242,314.7736,224.2197,354.6306,True
2,0.01111111,-0.2710335,-1.012166,-0.07766762,-1.395751,-3.948529,2.883136,0.5323067,1.291495,0.4930074,-1.484327,-0.01393114,0,2.6,-0.457143,0.2089706,-0.0778341,-0.5233719,-3.818719,-0.3627132,0.5161804,1.51096,0.3935373,-0.1259585,0.2151833,0.1356259,-0.6247866,0.3263089,-0.08615486,0.6170986,1.561615,0.2422717,0.3951513,1.076665,0.2884711,314.7717,223.8435,354.3491,True
2,0.02222222,-0.2604156,-0.9993705,-0.07775886,-1.397641,-3.937751,2.883836,0.5306963,1.291187,0.4922798,-1.487225,-0.265082,0,2.6,-0.4197308,0.2471986,-0.07681128,-0.525611,-3.81178,-0.3654302,0.5154841,1.510798,0.3931842,-0.1314476,0.1895794,0.1208341,-0.6240729,0.3283998,-0.0861988,0.6169712,1.561608,0.2422879,0.3956004,1.076422,0.2856722,314.7313,223.4498,353.8018,True
2,0.03333334,-0.255057,-1.015396,-0.08616859,-1.401391,-3.914658,2.885317,0.5273384,1.290503,0.4909027,-1.481959,0.4836093,0,2.6,-0.3477725,0.2870722,-0.0324586,-0.5278683,-3.797266,-0.3724479,0.5141792,1.510607,0.3925366,-0.1432485,0.1885181,0.1113412,-0.6222604,0.3361124,-0.08899619,0.6166397,1.56157,0.2425132,0.3965451,1.076486,0.2832995,314.5626,223.1202,353.329,True
2,0.04444445,-0.2646751,-1.003718,-0.0851707,-1.403375,-3.903695,2.886887,0.5259133,1.290357,0.490279,-1.484138,-0.203621,0,2.6,-0.321877,0.280295,0.00129628,-0.5278396,-3.791332,-0.3747954,0.5137082,1.510538,0.3922188,-0.1486744,0.1948894,0.09857233,-0.6219615,0.3405209,-0.09067771,0.6164937,1.5616,0.2427282,0.3974558,1.076201,0.2802179,314.6108,222.4246,353.3473,True
2,0.05555556,-0.2647361,-0.977101,-0.08748102,-1.404803,-3.893856,2.888155,0.5246453,1.290256,0.4896388,-1.484398,-0.02145958,0,2.1,-0.318729,0.25042,0.005255455,-0.5282503,-3.78813,-0.3742058,0.5132254,1.510434,0.3918707,-0.1497703,0.2033971,0.09322871,-0.6213858,0.3449847,-0.092637,0.616459,1.561528,0.2428093,0.3987319,1.076008,0.2768982,314.6238,221.6299,353.1931,True
2,0.06666667,-0.2551828,-0.9568009,-0.08016947,-1.406748,-3.883883,2.888924,0.5232929,1.290083,0.4890478,-1.483726,0.0613793,0,2.1,-0.3112915,0.2002265,0.01750836,-0.5278891,-3.787052,-0.3718835,0.5127677,1.510403,0.3916192,-0.1573947,0.2055001,0.07409396,-0.6216425,0.349393,-0.09402131,0.6165406,1.561454,0.2429101,0.4004111,1.076038,0.2736793,314.565,220.9739,352.8173,True
2,0.07777778,-0.2307586,-0.9215121,-0.0686945,-1.408674,-3.875089,2.889137,0.5221304,1.290033,0.4884436,-1.484154,-0.0396648,0,2.1,-0.2748884,0.1850072,0.03936927,-0.5273432,-3.783036,-0.3735896,0.512507,1.510421,0.3913345,-0.1597548,0.2086215,0.04638269,-0.6225656,0.353594,-0.09549589,0.6166497,1.561482,0.2429421,0.4022591,1.076269,0.2706405,314.5173,220.361,352.3788,True
2,0.08888889,-0.2117098,-0.8628332,-0.0595174,-1.41026,-3.867325,2.889542,0.5211523,1.290052,0.4879107,-1.484684,-0.04810048,0,2.1,-0.2461921,0.1337049,0.04819399,-0.5264739,-3.782895,-0.3719778,0.5122707,1.510527,0.3910387,-0.1599182,0.1936549,0.02938478,-0.6230268,0.3562698,-0.0958738,0.6167303,1.561476,0.2429137,0.4040229,1.076641,0.2678267,314.4415,219.7428,351.9956,True
2,0.1,-0.2012951,-0.7593866,-0.04742308,-1.411352,-3.862751,2.890717,0.5202556,1.290129,0.4874122,-1.485411,-0.06621761,0,1.8,-0.2611344,0.09853578,0.05548594,-0.5257623,-3.782446,-0.3688103,0.5121619,1.510563,0.3906772,-0.1569978,0.156286,0.003902584,-0.624025,0.3565813,-0.09437657,0.6168432,1.561389,0.2428055,0.4055527,1.077075,0.2652704,314.3259,219.1999,351.6674,True
2,0.1111111,-0.2058615,-0.6272662,-0.04084149,-1.411806,-3.860333,2.892889,0.519634,1.290094,0.4868879,-1.485327,0.008102821,0,1.8,-0.2299791,0.1120989,0.07659366,-0.5248925,-3.778046,-0.3711893,0.5119982,1.51062,0.3904047,-0.1549338,0.1520142,-0.002501976,-0.624539,0.3593892,-0.09493743,0.6169456,1.561272,0.2427542,0.4068276,1.077534,0.2630585,314.1882,218.7672,351.4059,True
2,0.1222222,-0.2058615,-0.6272662,-0.04084149,-1.411806,-3.860333,2.892889,0.519634,1.290094,0.4868879,-1.484906,0.03830572,0,1.8,-0.2299791,0.1120989,0.07659366,-0.5248925,-3.778046,-0.3711893,0.5119982,1.51062,0.3904047,-0.1549338,0.1520142,-0.002501976,-0.624539,0.3593892,-0.09493743,0.6169456,1.561272,0.2427542,0.407797,1.077968,0.261235,314.0807,218.4184,351.1869,True
2,0.1333333,-0.2447953,-0.3706822,-0.04788058,-1.410786,-3.859273,2.89927,0.5186281,1.289972,0.4863019,-1.486582,-0.1537191,0,1.8,-0.02514833,0.09092525,0.110505,-0.5219609,-3.772211,-0.382497,0.5117275,1.510811,0.3898385,-0.1519884,0.1604475,-0.03346243,-0.626686,0.366393,-0.0971119,0.6171942,1.561104,0.2424908,0.4083173,1.078378,0.2598799,314.0012,218.1873,350.9529,True
2,0.1444445,-0.267403,-0.26527,-0.04645803,-1.410206,-3.859755,2.90308,0.5180788,1.289934,0.4859488,-1.481465,0.4691721,0,1.8,-0.0635563,0.08575661,0.1065933,-0.5214096,-3.770049,-0.3818715,0.5116044,1.510911,0.3894796,-0.1414657,0.1327132,-0.04305271,-0.6275569,0.3671753,-0.09646582,0.6173601,1.560996,0.2422812,0.4083449,1.078731,0.2591719,313.8426,218.1125,350.8443,True
2,0.1555556,-0.3103353,-0.1280703,-0.06548408,-1.407816,-3.863318,2.908809,0.517571,1.290102,0.4856942,-1.482303,-0.08076642,0,1.2,-0.1830254,0.06916749,0.09702633,-0.520714,-3.769006,-0.3762266,0.5117389,1.511059,0.3891718,-0.1192181,0.07194681,-0.04624288,-0.6280426,0.3647043,-0.0938695,0.617624,1.560886,0.2420011,0.4075526,1.078818,0.2584573,313.9295,218.0353,350.9609,True
2,0.1666667,-0.3167562,-0.1154712,-0.08685644,-1.406715,-3.861441,2.912126,0.5168543,1.290244,0.4852014,-1.482844,-0.04812291,0,1.2,-0.2023937,0.05870965,0.08221978,-0.5204477,-3.768091,-0.3741257,0.5118229,1.511222,0.3888307,-0.1096862,0.06980434,-0.05165119,-0.6290035,0.3663458,-0.09415526,0.6179461,1.56088,0.2418807,0.4061122,1.079026,0.2579574,313.9966,218.002,351.1068,True
2,0.1777778,-0.3123879,-0.1668974,-0.1312525,-1.404497,-3.856941,2.914731,0.5158725,1.290587,0.4845798,-1.481666,0.1082036,0,1.2,-0.1855151,0.0235559,0.0764032,-0.5194597,-3.769397,-0.3716569,0.5121013,1.511396,0.3884287,-0.1011122,0.07407236,-0.04534681,-0.6293913,0.3680945,-0.09464794,0.6183187,1.560701,0.2417262,0.404175,1.079519,0.2576844,313.9724,218.06,351.321,True
2,0.1888889,-0.3142985,-0.2685074,-0.1880795,-1.402188,-3.848921,2.916975,0.5149547,1.291128,0.4841561,-1.483261,-0.1466849,0,1.2,-0.1630569,-0.02251542,0.09812161,-0.5170794,-3.771546,-0.3687842,0.5123369,1.511724,0.3881426,-0.1023552,0.08680426,-0.06883247,-0.6314381,0.3707233,-0.09544662,0.6187638,1.560543,0.241565,0.4017761,1.080396,0.2575574,313.8789,218.1423,351.6779,True
2,0.2,-0.337564,-0.3476989,-0.2301358,-1.399938,-3.84131,2.920432,0.5141751,1.291707,0.4837885,-1.483854,-0.05286478,0,1.2,-0.1288207,-0.0579919,0.1230188,-0.5143459,-3.773016,-0.3670954,0.5126451,1.511986,0.3876994,-0.1039946,0.08981246,-0.1370369,-0.6360279,0.372552,-0.09531534,0.6194006,1.560432,0.2413058,0.3993812,1.081674,0.2574016,313.6042,218.1225,352.3464,True
2,0.2111111,-0.364198,-0.3512025,-0.2663263,-1.396635,-3.83624,2.924614,0.5134065,1.292272,0.4834781,-1.48371,0.01349968,0,0.9,-0.07749626,-0.0743361,0.1457784,-0.511573,-3.773919,-0.3672065,0.5128701,1.512254,0.3872621,-0.1150958,0.08113809,-0.1901856,-0.6402602,0.3728471,-0.09388042,0.6198378,1.560184,0.2409418,0.3974564,1.083233,0.2570257,313.2093,217.8512,353.1771,True
2,0.2222222,-0.3841255,-0.2331378,-0.286027,-1.393312,-3.835338,2.929033,0.5127898,1.292673,0.4832628,-1.482592,0.1021196,0,0.9,-0.03372834,-0.02229704,0.1574753,-0.5100912,-3.771563,-0.3698108,0.5129669,1.512562,0.3868623,-0.1182117,0.08120199,-0.1774065,-0.6420887,0.3746431,-0.09350678,0.6201665,1.559988,0.2406077,0.3964333,1.084963,0.2563431,312.7766,217.3525,353.9185,True
2,0.2333333,-0.4342161,-0.02130458,-0.2930502,-1.387598,-3.843391,2.937393,0.5124128,1.29334,0.4832621,-1.482307,0.02533106,0,0.9,-0.0191816,0.04016329,0.1888174,-0.5083101,-3.761762,-0.3790525,0.5131112,1.512975,0.386411,-0.1093854,0.06959623,-0.1380241,-0.6422112,0.3752108,-0.09305324,0.6204057,1.559884,0.2402725,0.3962493,1.086679,0.2551721,312.4247,216.7489,354.3085,True
2,0.2444444,-0.4987752,0.2491419,-0.2927267,-1.382349,-3.854482,2.947326,0.5119734,1.293974,0.4834435,-1.482947,-0.0584402,0,0.9,0.02651681,0.07123385,0.2727851,-0.5035803,-3.753405,-0.3879717,0.5132678,1.513478,0.3860288,-0.1071379,0.03773008,-0.1155803,-0.6428295,0.3745294,-0.09115042,0.6206664,1.559759,0.2399375,0.3964806,1.088257,0.2535058,312.1582,216.0695,354.3021,True
2,0.2555556,-0.5545808,0.4246528,-0.313087,-1.376138,-3.864578,2.957308,0.5113369,1.294569,0.4833987,-1.480902,0.1877616,0,1,0.06313816,0.06222779,0.3138753,-0.499078,-3.74875,-0.3941351,0.5135636,1.513918,0.3855774,-0.09644943,0.003661603,-0.1038431,-0.6435513,0.3725917,-0.08874212,0.6210052,1.559656,0.2394655,0.3965322,1.089687,0.2516378,311.9371,215.4384,353.9076,True
2,0.2666667,-0.6135377,0.5765864,-0.3545921,-1.368881,-3.874859,2.968163,0.5103867,1.295287,0.4831595,-1.480041,0.07734856,0,1,0.0591177,0.04814112,0.3414897,-0.4947844,-3.745419,-0.3974611,0.5141517,1.51453,0.3851416,-0.07845022,-0.03789634,-0.1081347,-0.6450192,0.3699686,-0.08623928,0.6213974,1.559647,0.238929,0.3954912,1.09113,0.2500016,311.84,214.9807,353.299,True
2,0.2777778,-0.6135377,0.5765864,-0.3545921,-1.368881,-3.874859,2.968163,0.5103867,1.295287,0.4831595,-1.480254,-0.01953165,0,1,0.0591177,0.04814112,0.3414897,-0.4947844,-3.745419,-0.3974611,0.5141517,1.51453,0.3851416,-0.07845022,-0.03789634,-0.1081347,-0.6450192,0.3699686,-0.08623928,0.6213974,1.559647,0.238929,0.3927915,1.092867,0.2489767,311.708,214.7707,352.9756,True
2,0.2888889,-0.7200767,0.5659746,-0.467417,-1.353871,-3.885111,2.989495,0.5074216,1.296716,0.4819219,-1.488541,-0.7575146,0,1,-0.03921589,-0.1200333,0.3591018,-0.4840791,-3.753145,-0.386659,0.5157933,1.515761,0.3843136,-0.02993309,-0.1637433,-0.1411844,-0.6491178,0.3579423,-0.07720584,0.6223207,1.559595,0.237602,0.3886852,1.095147,0.2487895,311.326,214.8203,353.4455,True
2,0.3,-0.7572848,0.5239587,-0.523581,-1.345556,-3.888284,2.999992,0.5060491,1.2975,0.4813237,-1.472321,1.489497,0,1,-0.08488625,-0.2963866,0.3206913,-0.4786127,-3.770106,-0.3693589,0.5165161,1.516356,0.3839138,-0.01516947,-0.1894174,-0.1561098,-0.6507487,0.352173,-0.0730774,0.6223495,1.559232,0.2371321,0.3842515,1.097757,0.2495319,310.5085,214.8214,354.4469,True
2,0.3111111,-0.8115984,0.5051683,-0.6022788,-1.335438,-3.891946,3.011967,0.5046166,1.298521,0.4804518,-1.477872,-0.520354,0.3,2.3,-0.1312223,-0.4314389,0.3092974,-0.4723105,-3.787658,-0.3506803,0.5171354,1.516851,0.3835747,-0.01632085,-0.1660275,-0.1710906,-0.653177,0.3500235,-0.07120947,0.6226221,1.55904,0.2367437,0.3776439,1.10028,0.2499546,310.454,214.5863,355.3842,True
2,0.3222222,-0.8510878,0.5282423,-0.6407871,-1.326295,-3.897804,3.024116,0.5035787,1.299315,0.4798501,-1.480385,-0.2241876,0.3,2.3,-0.1473115,-0.4601301,0.3070738,-0.4672931,-3.796557,-0.3407043,0.5176864,1.517298,0.3832102,-0.01946162,-0.1404841,-0.1711185,-0.6545278,0.3483409,-0.0697647,0.6226749,1.558854,0.2364438,0.3701054,1.103497,0.25039,310.1516,214.2125,357.0321,True
2,0.3333333,-0.9067289,0.6312287,-0.6734385,-1.316449,-3.907951,3.038645,0.5020198,1.300067,0.4793754,-1.479813,0.0542581,0.3,2.3,-0.1443484,-0.4567323,0.2836352,-0.4635791,-3.805268,-0.3314645,0.5179649,1.517632,0.3828137,-0.02692391,-0.1095998,-0.1775494,-0.6567185,0.3479552,-0.06888266,0.622955,1.55873,0.2361777,0.3628385,1.10752,0.2509337,309.4109,213.9357,358.8912,True
2,0.3444445,-0.958225,0.7887022,-0.6830326,-1.307212,-3.922122,3.054522,0.5004777,1.300532,0.479116,-1.480589,-0.07107682,0.3,2.3,-0.1432104,-0.4076605,0.2766117,-0.4600685,-3.808269,-0.3272636,0.5182807,1.517985,0.3824177,-0.02151644,-0.09258251,-0.1744428,-0.6583031,0.3462782,-0.06795322,0.6232016,1.558654,0.2358315,0.3562648,1.112094,0.2512516,308.4723,213.5195,0.7002445,True
2,0.3555556,-0.9989446,0.8919046,-0.6890582,-1.29809,-3.936014,3.070933,0.4987946,1.301154,0.4787526,-1.479897,0.06446402,0,2,-0.1514841,-0.271129,0.2608839,-0.4586677,-3.801666,-0.3311185,0.5184203,1.518244,0.3819542,-0.01514906,-0.07982609,-0.1798628,-0.6604959,0.345437,-0.0673825,0.6234517,1.558614,0.2355638,0.3504705,1.116946,0.251213,307.4272,212.9308,2.147139,True
2,0.3666667,-1.075993,1.039706,-0.7028469,-1.288664,-3.952892,3.090225,0.4967979,1.301744,0.4783604,-1.480067,-0.0156884,0,2,-0.1714439,-0.1548758,0.2536228,-0.4570421,-3.794097,-0.3352827,0.5187043,1.51863,0.3814449,-0.01508217,-0.07557583,-0.1745367,-0.6619127,0.343294,-0.06573747,0.6238431,1.558699,0.2352912,0.3448496,1.121772,0.2506957,306.4396,212.1899,3.132237,True
2,0.3777778,-1.117625,1.072516,-0.7201132,-1.279438,-3.965849,3.107782,0.4948699,1.302332,0.4778836,-1.480111,-0.003406237,0,2,-0.1815406,-0.04209811,0.273917,-0.4547736,-3.783612,-0.3423283,0.5189452,1.518906,0.3810523,-0.01925869,-0.06488831,-0.1660147,-0.6634009,0.342631,-0.06480456,0.6241339,1.558564,0.2350321,0.3389565,1.126514,0.2499711,305.4969,211.4633,3.894979,True
2,0.3888889,-1.177316,1.080626,-0.7595667,-1.26922,-3.978252,3.126731,0.4925054,1.303045,0.4773316,-1.478693,0.1298787,0,2,-0.1652025,0.01628537,0.2913278,-0.4517515,-3.77576,-0.3481598,0.519388,1.519238,0.3806224,-0.02029173,-0.06702095,-0.1617325,-0.6648614,0.3407337,-0.063049,0.6245248,1.558537,0.2346826,0.3325712,1.131208,0.2493006,304.6596,210.7173,4.773883,True
2,0.4,-1.225241,1.070598,-0.8052865,-1.258668,-3.989966,-3.137806,0.4901524,1.303861,0.4765949,-1.479891,-0.1102383,0,2,-0.1858226,-0.03993955,0.271844,-0.448879,-3.779906,-0.34163,0.5198398,1.519666,0.3803272,-0.004471123,-0.09054214,-0.1777686,-0.6673732,0.3370688,-0.06081035,0.6249769,1.558473,0.2344215,0.3254929,1.135984,0.2488602,303.9295,210.0212,5.874626,True
2,0.4111111,-1.263693,1.109653,-0.8449615,-1.247944,-4.004578,-3.117712,0.487655,1.304567,0.4756885,-1.479171,0.06704773,0,3.1,-0.2702218,-0.1751254,0.2885428,-0.4430957,-3.791674,-0.3250907,0.520179,1.520051,0.3800995,0.006965011,-0.09280001,-0.2119457,-0.6709824,0.3348833,-0.05964202,0.6252016,1.558335,0.23419,0.3181199,1.140982,0.2488318,303.1804,209.2346,7.427667,True
2,0.4222222,-1.285143,1.172338,-0.8624256,-1.238317,-4.021148,-3.09761,0.4853643,1.305371,0.4749458,-1.479846,-0.06202538,0,3.1,-0.3204136,-0.2603216,0.3021405,-0.4375909,-3.801813,-0.3106119,0.5204551,1.52043,0.3798943,-0.001526043,-0.07681099,-0.2119301,-0.6732982,0.3342123,-0.05883429,0.6254699,1.558256,0.2339003,0.3105471,1.146211,0.2490513,302.4852,208.3404,9.244353,True
2,0.4333333,-1.303525,1.289468,-0.8642892,-1.229585,-4.041677,-3.075766,0.4827287,1.30601,0.4741056,-1.480042,-0.01694048,0,3.1,-0.3484849,-0.3592482,0.2951448,-0.4323999,-3.817187,-0.2917323,0.5205804,1.520772,0.379719,-0.01949313,-0.06288703,-0.1969133,-0.6748786,0.3338005,-0.05763853,0.625533,1.558185,0.2336681,0.3028916,1.151702,0.2493606,301.799,207.3403,11.19434,True
2,0.4444444,-1.318681,1.390785,-0.8415342,-1.222691,-4.062409,-3.053818,0.4801676,1.3067,0.4733219,-1.481287,-0.1131221,0,3.1,-0.3433398,-0.4028931,0.2904391,-0.4279327,-3.828113,-0.2784638,0.5205867,1.521115,0.3794284,-0.03004889,-0.06283619,-0.1851076,-0.6764035,0.3324212,-0.05587552,0.625628,1.558098,0.2333934,0.2950651,1.157482,0.2496617,301.0889,206.3239,13.08148,True
2,0.4555556,-1.329432,1.43566,-0.8184015,-1.216186,-4.08177,-3.032097,0.4772884,1.307319,0.4723737,-1.481508,-0.01884644,0,1.3,-0.3338363,-0.4156678,0.2859637,-0.4236706,-3.837967,-0.2661822,0.52031,1.521307,0.3791618,-0.03095728,-0.04467279,-0.1691729,-0.6776392,0.3325449,-0.05563423,0.6254681,1.558054,0.2332349,0.2871107,1.163614,0.2500827,300.294,205.316,14.88256,True
2,0.4666667,-1.338995,1.428324,-0.7980994,-1.209874,-4.099349,-3.010754,0.4742517,1.308039,0.4715569,-1.481941,-0.03913658,0,1.3,-0.3360153,-0.3963945,0.2765705,-0.4200993,-3.844751,-0.256043,0.5201252,1.521446,0.3788347,-0.0457606,-0.02970121,-0.1584487,-0.6790853,0.3327463,-0.05479214,0.6254696,1.558009,0.2330406,0.2787767,1.170088,0.2506544,299.4099,204.3642,16.63644,True
2,0.4777778,-1.345353,1.416655,-0.7894893,-1.203634,-4.116956,-2.989242,0.4712931,1.308647,0.4706109,-1.482138,-0.01748011,0,1.3,-0.3499402,-0.3386073,0.2527375,-0.4177813,-3.847467,-0.2490338,0.5196512,1.521503,0.3784425,-0.06363452,0.003421456,-0.1360373,-0.6798598,0.3346175,-0.05492663,0.6253029,1.557986,0.232873,0.2702222,1.1769,0.2514964,298.4339,203.4761,18.53333,True
2,0.4888889,-1.36667,1.403971,-0.7722661,-1.198672,-4.134981,-2.966314,0.4678637,1.309479,0.4699068,-1.482249,-0.01012551,0,1.3,-0.3594101,-0.2810024,0.248026,-0.4150217,-3.848405,-0.2436976,0.5189617,1.521581,0.3780382,-0.07730998,0.03545212,-0.1211178,-0.6808574,0.3370454,-0.05551599,0.6251024,1.55797,0.2327483,0.2616268,1.183921,0.2525105,297.4237,202.4368,20.76439,True
2,0.5,-1.371002,1.422141,-0.7585588,-1.193775,-4.154165,-2.943653,0.4648922,1.310114,0.4687233,-1.482419,-0.01533429,0,1.3,-0.3669824,-0.2125186,0.2167653,-0.4136363,-3.84799,-0.2397402,0.5182118,1.521775,0.3775885,-0.08040123,0.05146652,-0.1115582,-0.6818843,0.338743,-0.05588803,0.6249567,1.55793,0.2325835,0.2532896,1.191014,0.2536071,296.446,201.1714,23.25273,True
2,0.5111111,-1.36577,1.468216,-0.7215896,-1.190922,-4.174803,-2.920985,0.4614921,1.310762,0.4675462,-1.481497,0.08454649,0,2.9,-0.3840917,-0.1451155,0.1909168,-0.4126701,-3.845392,-0.2372181,0.5171933,1.521993,0.3770802,-0.09623542,0.07177048,-0.09765255,-0.6826555,0.3410055,-0.0560654,0.6246626,1.557974,0.2324221,0.2453007,1.198056,0.2546471,295.5493,199.7364,25.76137,True
2,0.5222223,-1.354192,1.533533,-0.6794367,-1.189317,-4.196542,-2.89856,0.4585709,1.311339,0.4661696,-1.482423,-0.08501025,0,2.9,-0.41908,-0.108844,0.1969323,-0.4102813,-3.844502,-0.2322346,0.5163279,1.52225,0.3765414,-0.1015261,0.07179323,-0.09335269,-0.6836643,0.3420849,-0.05563104,0.6244934,1.557945,0.2322483,0.2375086,1.205065,0.2554926,294.7603,198.3795,28.02563,True
2,0.5333334,-1.347879,1.571022,-0.6519974,-1.187978,-4.21802,-2.875831,0.4553634,1.31209,0.4649625,-1.48333,-0.08197674,0,2.9,-0.4454423,-0.09724763,0.2196837,-0.406963,-3.844276,-0.2265088,0.5153124,1.522469,0.3759737,-0.1184812,0.07930651,-0.0836504,-0.6843141,0.3438554,-0.0550787,0.6240618,1.557953,0.2320478,0.2299023,1.212072,0.2561247,294.012,196.9443,30.3061,True
2,0.5444446,-1.343764,1.636273,-0.6119988,-1.188053,-4.240661,-2.852646,0.4520694,1.312668,0.4635875,-1.484207,-0.07936138,0,2.9,-0.4725352,-0.07313123,0.2713215,-0.4021688,-3.841854,-0.2225447,0.5140805,1.522664,0.375385,-0.1546089,0.09324099,-0.07487483,-0.6848953,0.3462946,-0.05402355,0.6235445,1.557988,0.231885,0.2223624,1.219122,0.2566084,293.2351,195.5142,32.50015,True
2,0.5555557,-1.340591,1.649293,-0.5780019,-1.188437,-4.261629,-2.830021,0.4485897,1.313313,0.462307,-1.483938,0.02529007,0,4.7,-0.4966155,-0.03817263,0.3017166,-0.3980984,-3.837431,-0.2202951,0.5127165,1.522762,0.3747411,-0.1735207,0.1050838,-0.04492384,-0.6843919,0.3488111,-0.0534587,0.6228824,1.558014,0.2317524,0.2150413,1.226217,0.2571533,292.4307,193.9996,34.78427,True
2,0.5666668,-1.338418,1.644172,-0.5513524,-1.189051,-4.281381,-2.808383,0.4452606,1.313785,0.4610384,-1.48388,0.004859774,0,4.7,-0.5156261,0.002331644,0.305483,-0.3950326,-3.832123,-0.2190375,0.5112756,1.522776,0.3740845,-0.1797109,0.1222108,-0.02362566,-0.6840659,0.3519174,-0.05382089,0.6223399,1.557937,0.2316477,0.2078085,1.233365,0.2578222,291.6774,192.3046,37.20001,True
2,0.577778,-1.326598,1.610393,-0.510661,-1.190504,-4.299599,-2.787564,0.4416769,1.314276,0.4597781,-1.48383,0.00463259,0,4.7,-0.5402201,0.03559908,0.2868601,-0.3930016,-3.827033,-0.2170114,0.5098544,1.522803,0.3734469,-0.1816017,0.1425409,0.001889809,-0.6833581,0.355628,-0.05467017,0.6216161,1.557882,0.2316155,0.2005157,1.240592,0.258661,290.9214,190.5159,39.74105,True
2,0.5888891,-1.326598,1.610393,-0.510661,-1.190504,-4.299599,-2.787564,0.4416769,1.314276,0.4597781,-1.484348,-0.04739212,0,4.7,-0.5402201,0.03559908,0.2868601,-0.3930016,-3.827033,-0.2170114,0.5098544,1.522803,0.3734469,-0.1816017,0.1425409,0.001889809,-0.6833581,0.355628,-0.05467017,0.6216161,1.557882,0.2316155,0.1932669,1.24787,0.2597209,290.1655,188.5827,42.53856,True
2,0.6000003,-1.298676,1.533174,-0.44406,-1.194772,-4.334214,-2.747312,0.4343653,1.315596,0.4573097,-1.498207,-1.267047,0,4.7,-0.6192119,0.09259206,0.2551646,-0.3894772,-3.814594,-0.2125192,0.5064654,1.522963,0.3722768,-0.1880044,0.1478703,-0.0002073363,-0.6837469,0.3610159,-0.05451091,0.6203085,1.557825,0.2314897,0.1873236,1.254949,0.2613145,289.2972,186.6652,45.76692,True
2,0.6111114,-1.273035,1.506916,-0.3980783,-1.198423,-4.350786,-2.728235,0.4304992,1.316215,0.4559343,-1.471621,2.440839,0,5.8,-0.6309803,0.04460448,0.2644406,-0.3860023,-3.81581,-0.2040887,0.504618,1.523097,0.3716426,-0.2250995,0.1629092,0.02029247,-0.6828675,0.3647852,-0.05369172,0.6194022,1.557882,0.2314134,0.1835038,1.260785,0.2631599,288.3505,183.0888,50.30003,True
2,0.6222225,-1.237881,1.509441,-0.3522992,-1.203065,-4.368477,-2.709284,0.4269465,1.316872,0.4546239,-1.482629,-1.02861,0,5.8,-0.649403,0.03959793,0.2358188,-0.3844976,-3.814335,-0.1977424,0.5026824,1.523289,0.3709979,-0.2409712,0.1725645,0.03210904,-0.6822774,0.368512,-0.05337055,0.6185073,1.557837,0.2313516,0.1756458,1.266833,0.2632034,288.159,182.2963,51.15599,True
2,0.6333337,-1.192165,1.551287,-0.3238389,-1.208537,-4.387764,-2.690715,0.4232583,1.317491,0.4530625,-1.485453,-0.246619,0,5.8,-0.6622542,0.04610527,0.2274877,-0.3824566,-3.811292,-0.1927745,0.5007964,1.523483,0.3703258,-0.2545803,0.1875847,0.05880532,-0.6808036,0.3727951,-0.05339265,0.6175448,1.557863,0.2312672,0.1674808,1.273391,0.2634134,287.9379,181.397,52.5008,True
2,0.6444448,-1.167693,1.568532,-0.3037283,-1.213998,-4.406296,-2.672105,0.4196683,1.3182,0.4516375,-1.485975,-0.04658004,0,5.8,-0.6664467,0.06316286,0.2287466,-0.3801753,-3.806101,-0.1901641,0.4987247,1.52368,0.3695369,-0.2726243,0.1855132,0.06748115,-0.6799465,0.3760611,-0.05233538,0.616502,1.558042,0.2311637,0.1600375,1.28023,0.2640907,287.4247,179.8633,54.86685,True
2,0.655556,-1.135777,1.598782,-0.2549304,-1.22164,-4.424798,-2.654207,0.4160182,1.318875,0.4501238,-1.486629,-0.05982918,0,5.8,-0.6694542,0.1057382,0.2344908,-0.3779867,-3.79761,-0.1904349,0.4966642,1.523915,0.3686895,-0.297196,0.1780685,0.06024629,-0.6796216,0.3788102,-0.05036996,0.6156103,1.558095,0.2310219,0.1535826,1.287187,0.2652508,286.7674,177.5629,58.08118,True
2,0.6666671,-1.06224,1.598359,-0.1878256,-1.230258,-4.441658,-2.63913,0.4120725,1.319753,0.4486291,-1.486007,0.05706163,0,4.2,-0.6689276,0.1426682,0.2742386,-0.3741672,-3.78762,-0.1923354,0.4945624,1.524162,0.3677619,-0.2940594,0.1673937,0.05492821,-0.6792856,0.3812552,-0.04907913,0.6145782,1.558111,0.2308941,0.1477075,1.294193,0.2667517,286.1155,174.5564,61.92838,True
2,0.6777782,-1.018474,1.573104,-0.1599524,-1.237539,-4.457847,-2.623684,0.4082324,1.320511,0.4471927,-1.486238,-0.02189016,0,4.2,-0.679198,0.1616006,0.3043416,-0.3704548,-3.779179,-0.1924443,0.4923432,1.524322,0.3669026,-0.2908044,0.1631553,0.06343979,-0.6783348,0.3840461,-0.04806953,0.6135592,1.558154,0.2307849,0.1420638,1.301208,0.2684818,285.5284,171.3708,65.89104,True
2,0.6888894,-0.9799315,1.491268,-0.1444885,-1.243418,-4.471005,-2.609773,0.4042915,1.321205,0.4456351,-1.488074,-0.1676113,0,4.2,-0.6842,0.2051285,0.3228985,-0.3670166,-3.766883,-0.196087,0.4902224,1.524493,0.3659909,-0.2991274,0.1674982,0.08693028,-0.6766389,0.3872585,-0.0469739,0.6122862,1.558058,0.2306662,0.1363187,1.308248,0.2703086,284.9083,168.2821,69.77403,True
2,0.7000005,-0.9158473,1.429896,-0.1078463,-1.250655,-4.483983,-2.597366,0.4003323,1.321937,0.4441798,-1.487147,0.08588882,0,4.2,-0.6725343,0.2339785,0.3070602,-0.3649543,-3.756121,-0.1993379,0.4881032,1.524696,0.365133,-0.3022835,0.1738961,0.09012675,-0.6757207,0.3905896,-0.04614619,0.6111555,1.558127,0.230577,0.1304483,1.315158,0.2721687,284.2973,164.8435,74.07757,True
2,0.7111117,-0.8805274,1.359807,-0.08713657,-1.257075,-4.495462,-2.585304,0.3965246,1.322702,0.4426153,-1.487043,0.008189548,0,3.6,-0.6758969,0.2266565,0.2931789,-0.3626735,-3.74834,-0.1990609,0.4860616,1.524889,0.3642411,-0.2980367,0.1760135,0.08795471,-0.6748914,0.3938862,-0.04557095,0.6099833,1.558136,0.2304988,0.124616,1.321695,0.2740033,283.8375,161.1513,78.71481,True
2,0.7222228,-0.8962108,1.230911,-0.0819934,-1.261143,-4.503973,-2.572191,0.3931874,1.323433,0.4412541,-1.487997,-0.08758631,0,3.6,-0.6992707,0.1807595,0.3090013,-0.3588812,-3.745407,-0.1938773,0.4839455,1.525198,0.3634207,-0.3068132,0.1642143,0.05823684,-0.6752876,0.3960907,-0.0437355,0.6087783,1.558229,0.2304196,0.1189811,1.327675,0.2756406,283.5105,157.6518,83.12666,True
2,0.7333339,-0.9163495,1.188345,-0.06891292,-1.267495,-4.514836,-2.557987,0.3898075,1.324053,0.4398084,-1.487457,0.04993708,0,3.6,-0.7141273,0.116668,0.3330809,-0.3541946,-3.745478,-0.1853512,0.4817387,1.525493,0.3625293,-0.3249716,0.178063,0.0498178,-0.6751273,0.4000328,-0.0425693,0.6074764,1.558276,0.2303479,0.1136228,1.333016,0.277015,283.2004,154.6142,86.92812,True
2,0.7444451,-0.9163495,1.188345,-0.06891292,-1.267495,-4.514836,-2.557987,0.3898075,1.324053,0.4398084,-1.484995,0.2242659,0,3.6,-0.7141273,0.116668,0.3330809,-0.3541946,-3.745478,-0.1853512,0.4817387,1.525493,0.3625293,-0.3249716,0.178063,0.0498178,-0.6751273,0.4000328,-0.0425693,0.6074764,1.558276,0.2303479,0.1087027,1.33766,0.2780528,282.9507,152.1962,90.04726,True
2,0.7555562,-0.9694842,1.136175,-0.04724503,-1.280407,-4.535482,-2.528872,0.3836848,1.325328,0.4372585,-1.494708,-0.8903406,0,3.6,-0.685766,0.139374,0.288265,-0.3493625,-3.732289,-0.1831829,0.4773084,1.525998,0.3601754,-0.3629648,0.2059499,0.08946355,-0.6721116,0.4093348,-0.04047712,0.6047055,1.558416,0.2301226,0.1052692,1.34141,0.2788167,282.7892,150.8599,92.08488,True
2,0.7666674,-0.8754336,1.01284,-0.04535413,-1.2843,-4.542081,-2.520434,0.3803573,1.325961,0.4360111,-1.472339,2.052641,0.5,9.3,-0.6057947,0.2074246,0.2752625,-0.3476895,-3.717758,-0.192481,0.4749394,1.526179,0.3592348,-0.338385,0.2006217,0.09993263,-0.6707858,0.412629,-0.04018204,0.6031896,1.558445,0.2299559,0.1035258,1.343932,0.2792295,282.8764,148.5755,94.54689,True
2,0.7777785,-0.7985391,0.9352941,-0.04055566,-1.288961,-4.549185,-2.512067,0.3768428,1.326738,0.4348588,-1.482487,-0.9461651,0.5,9.3,-0.583419,0.2126933,0.2740111,-0.345151,-3.708833,-0.1950552,0.4726474,1.526367,0.358295,-0.336155,0.1985351,0.1116437,-0.6692385,0.4164045,-0.03946672,0.6016352,1.558491,0.2298183,0.09832808,1.347886,0.2783701,282.5977,149.3927,93.44357,True
2,0.7888896,-0.7034894,0.8300956,-0.03240746,-1.292268,-4.554054,-2.506143,0.3735609,1.327382,0.4336824,-1.488477,-0.5373461,0.5,9.3,-0.5284969,0.2097266,0.2297285,-0.3444304,-3.701847,-0.1975498,0.4701649,1.526416,0.3572955,-0.3435076,0.1985872,0.1244875,-0.6674563,0.4201137,-0.03821929,0.6000202,1.558491,0.2296834,0.09304009,1.352763,0.2775852,282.5027,148.8178,94.01788,True
2,0.8000008,-0.646948,0.7950844,-0.03005514,-1.296837,-4.560989,-2.498472,0.3705304,1.327872,0.4324427,-1.48882,-0.02790543,0.5,9.3,-0.5309288,0.2281453,0.1968972,-0.3438556,-3.691947,-0.2003709,0.4678763,1.526561,0.3563926,-0.3370836,0.2017832,0.1276183,-0.6660747,0.4240366,-0.03773646,0.5984442,1.558524,0.2295349,0.0887536,1.357838,0.2771519,282.6313,145.7045,97.36933,True
2,0.8111119,-0.6139558,0.8101083,-0.02483994,-1.302505,-4.568993,-2.490593,0.3675103,1.328397,0.4312122,-1.489973,-0.1060603,1,14.3,-0.5139848,0.2388617,0.184033,-0.3429374,-3.682171,-0.2043867,0.46562,1.52674,0.3555267,-0.3148308,0.198509,0.1135979,-0.665336,0.427568,-0.03773832,0.5967609,1.558608,0.2293103,0.08537828,1.36273,0.2770697,282.8412,141.2707,102.0691,True
2,0.8222231,-0.5575387,0.8348317,-0.01222068,-1.309089,-4.577496,-2.483951,0.3648667,1.328859,0.4302886,-1.488254,0.1575476,1,14.3,-0.4639337,0.2419377,0.181416,-0.3414481,-3.672378,-0.2099926,0.4634358,1.526885,0.3546052,-0.2987909,0.1761507,0.1252598,-0.663607,0.4296511,-0.03652738,0.5950531,1.558684,0.2291179,0.08269133,1.367067,0.2772379,283.1344,136.6349,106.9869,True
2,0.8333342,-0.5575255,0.8285426,0.002734363,-1.315025,-4.584534,-2.475825,0.3621757,1.329215,0.4293182,-1.487529,0.06446407,1,14.3,-0.439142,0.2330664,0.2119796,-0.3385618,-3.663321,-0.2143706,0.4613718,1.526907,0.3537292,-0.2837854,0.1612584,0.1390366,-0.6616022,0.4319421,-0.03562004,0.5932815,1.558658,0.2288928,0.08005802,1.370847,0.2775674,283.3771,133.1013,110.7398,True
2,0.8444453,-0.6266831,0.7944347,0.02216914,-1.32064,-4.59019,-2.465058,0.3594924,1.329527,0.4285746,-1.488302,-0.07139698,1,14.3,-0.4530507,0.1861625,0.2202268,-0.3359258,-3.659674,-0.2121892,0.4591887,1.527008,0.3529096,-0.2677313,0.164457,0.1474215,-0.6597683,0.4353015,-0.03579635,0.5915126,1.558713,0.2286308,0.0770904,1.374215,0.2781057,283.4827,130.8316,113.1868,True
2,0.8555565,-0.639293,0.715566,0.02058852,-1.324312,-4.594466,-2.456339,0.3566077,1.329831,0.4278913,-1.486049,0.2063551,1,14.3,-0.4436212,0.1339368,0.2207232,-0.3335854,-3.658221,-0.2087295,0.4568218,1.527102,0.3520989,-0.2549711,0.1623055,0.1451959,-0.6582823,0.4383371,-0.03568662,0.5895,1.558767,0.2283845,0.07388785,1.377168,0.2790212,283.4753,129.1878,115.0807,True
2,0.8666676,-0.5410823,0.6229702,0.0009470284,-1.326351,-4.598142,-2.452563,0.3535731,1.330172,0.4269624,-1.482542,0.3186147,1.5,26.5,-0.4095592,0.1327876,0.2182279,-0.3315763,-3.652364,-0.2107945,0.4545313,1.527136,0.351316,-0.2590993,0.1698166,0.1601202,-0.6560724,0.4420144,-0.03557184,0.5875369,1.558826,0.2281203,0.07046226,1.379815,0.2802156,283.351,127.9568,116.7538,True
2,0.8777788,-0.4876904,0.5676228,-0.01040414,-1.329059,-4.602252,-2.447958,0.3506137,1.330544,0.4261644,-1.483881,-0.124947,1.5,26.5,-0.3472579,0.1191793,0.1695101,-0.3315795,-3.649068,-0.2120499,0.4520149,1.527169,0.3505669,-0.2599509,0.1667066,0.1867709,-0.6531653,0.4450511,-0.03502563,0.5855152,1.558772,0.2278416,0.0669217,1.382418,0.2814547,283.1331,127.1897,118.1012,True
2,0.8888899,-0.4395942,0.4952185,-0.02057895,-1.330485,-4.60498,-2.44409,0.3477034,1.330908,0.4252934,-1.488756,-0.4444181,1.5,26.5,-0.324404,0.1142718,0.1148931,-0.3323369,-3.64632,-0.2118236,0.4495258,1.527015,0.3497865,-0.2575509,0.1668089,0.2197765,-0.6497388,0.448293,-0.03482509,0.5834436,1.558736,0.2275779,0.06348604,1.385086,0.2824834,283.0496,126.3234,119.5959,True
2,0.900001,-0.4395942,0.4952185,-0.02057895,-1.330485,-4.60498,-2.44409,0.3477034,1.330908,0.4252934,-1.488144,0.05934169,1.5,26.5,-0.324404,0.1142718,0.1148931,-0.3323369,-3.64632,-0.2118236,0.4495258,1.527015,0.3497865,-0.2575509,0.1668089,0.2197765,-0.6497388,0.448293,-0.03482509,0.5834436,1.558736,0.2275779,0.06034753,1.387586,0.2831722,283.2276,124.8142,121.5913,True
2,0.9111122,-0.3543128,0.4751023,-0.03218806,-1.336374,-4.613953,-2.436353,0.3419945,1.331649,0.4236031,-1.491006,-0.2630337,20.3,38.2,-0.3235962,0.2127545,0.06251189,-0.3338842,-3.623646,-0.2257293,0.4446321,1.526793,0.3481991,-0.2275857,0.1817102,0.2322664,-0.64447,0.4557647,-0.03658651,0.5794182,1.558576,0.2270572,0.05804153,1.389545,0.2836382,283.3477,123.471,123.2258,True
2,0.9222233,-0.3265084,0.434894,-0.001025587,-1.339478,-4.615876,-2.433252,0.3391045,1.33202,0.422965,-1.484545,0.5926117,20.3,38.2,-0.2968244,0.2520667,0.06578495,-0.3338784,-3.610804,-0.2352565,0.4422149,1.526844,0.3474352,-0.2277578,0.1837668,0.2109505,-0.642943,0.4591822,-0.03678465,0.5773796,1.558603,0.2268164,0.05663599,1.390753,0.2838284,283.6029,122.243,124.5623,True
2,0.9333345,-0.3295997,0.3911616,-0.008180946,-1.341117,-4.618349,-2.429023,0.3363037,1.332324,0.4222713,-1.487031,-0.2328809,20.3,38.2,-0.2763624,0.2635614,0.08378169,-0.333212,-3.600133,-0.2429131,0.4398119,1.527012,0.3466437,-0.2343449,0.1741171,0.1886625,-0.6416636,0.4619709,-0.0361825,0.5752976,1.558612,0.2264974,0.05289504,1.392703,0.2832656,283.804,121.2499,125.4447,True
2,0.9444456,-0.4115402,0.3515573,-0.008957595,-1.342708,-4.620521,-2.421098,0.3335953,1.332664,0.4215524,-1.487056,8.964145E-05,20.3,38.2,-0.2804072,0.2206594,0.1175255,-0.3311609,-3.5952,-0.2442436,0.4372841,1.527142,0.3458197,-0.2301834,0.1485161,0.1812529,-0.6398553,0.4632885,-0.03482589,0.5730432,1.558689,0.2260833,0.0489306,1.394543,0.2826778,283.8693,120.6503,125.9418,True
2,0.9555568,-0.3815513,0.2802697,-0.006355494,-1.343309,-4.62123,-2.417677,0.3305558,1.333134,0.4207098,-1.485682,0.1252407,20.3,38.2,-0.2879532,0.1855105,0.1194196,-0.3299907,-3.591623,-0.24412,0.4348773,1.527191,0.3449886,-0.2236915,0.1208662,0.1983258,-0.637157,0.4641377,-0.03330709,0.5706712,1.558656,0.2256622,0.04535786,1.396016,0.2822175,283.8238,120.2139,126.391,True
2,0.9666679,-0.2194311,0.1877708,-0.03133883,-1.341813,-4.621073,-2.421,0.3277346,1.333346,0.4199221,-1.481635,0.3687597,12.4,43.5,-0.3019764,0.1493807,0.1139109,-0.3291236,-3.589633,-0.2420675,0.4322746,1.527216,0.3441846,-0.2138977,0.1081565,0.2259854,-0.633721,0.4656881,-0.03249776,0.568262,1.558643,0.2252567,0.04226874,1.397167,0.2818697,283.7988,120.1305,126.5724,True
2,0.977779,-0.1969267,0.1237948,-0.04688742,-1.340704,-4.621361,-2.419174,0.3251108,1.333537,0.4192653,-1.485405,-0.3476775,12.4,43.5,-0.2979515,0.1100501,0.1028664,-0.3283496,-3.588924,-0.2395931,0.4295929,1.527125,0.3432922,-0.2031123,0.09967265,0.2429786,-0.6304432,0.4673243,-0.03202638,0.5659095,1.558595,0.2248356,0.03941662,1.398439,0.2814939,283.689,120.429,126.4207,True
2,0.9888902,-0.1915393,0.09387039,-0.06266556,-1.339765,-4.622193,-2.417051,0.3223601,1.33356,0.4184461,-1.492158,-0.6142882,12.4,43.5,-0.3011948,0.0983516,0.1017293,-0.327433,-3.586129,-0.2387931,0.4268244,1.527036,0.3423748,-0.2029674,0.1018535,0.2610751,-0.6270573,0.4694226,-0.03141225,0.56344,1.558726,0.2245283,0.03681779,1.399909,0.2809618,283.7733,120.1622,126.8737,True
2,1.000001,-0.1883597,0.1012118,-0.08081871,-1.339811,-4.624368,-2.414568,0.3195646,1.333584,0.4176595,-1.487192,0.4585735,12.4,43.5,-0.3121285,0.1477693,0.06073945,-0.3290458,-3.575843,-0.2445804,0.4238116,1.526963,0.3413179,-0.2145594,0.1285303,0.2717405,-0.6237651,0.4735659,-0.03191026,0.5607927,1.558757,0.2240636,0.03472812,1.40095,0.2803117,284.2327,118.9606,128.1538,True
2,1.011112,-0.1681552,0.116083,-0.09370892,-1.339872,-4.626824,-2.412872,0.316691,1.333497,0.4168758,-1.485865,0.116493,12.4,43.5,-0.2939867,0.236341,0.03790957,-0.3308834,-3.559068,-0.2577807,0.4207359,1.526758,0.3402438,-0.2101555,0.1488087,0.2854891,-0.6202076,0.477843,-0.03320136,0.5581064,1.558712,0.2236269,0.03264337,1.401547,0.2794966,284.5873,118.0953,128.9458,True
2,1.022224,-0.1362206,0.1310829,-0.09062296,-1.340544,-4.62885,-2.412128,0.3137082,1.333415,0.4161866,-1.485096,0.06895638,11.6,50.1,-0.261067,0.2972054,0.01148,-0.3329894,-3.543541,-0.2705913,0.4176761,1.526471,0.3391633,-0.2101336,0.1562642,0.2865347,-0.6170778,0.4812251,-0.03368979,0.5553796,1.558647,0.2230585,0.03020648,1.401866,0.2785341,284.807,117.8581,129.036,True
2,1.033335,-0.09787357,0.1375859,-0.08641311,-1.341109,-4.630702,-2.412065,0.3105997,1.333336,0.4154465,-1.484838,0.02199247,11.6,50.1,-0.2225311,0.3749004,0.006452046,-0.3351418,-3.522839,-0.2891405,0.4145157,1.526207,0.338069,-0.2026151,0.1626652,0.2928449,-0.6136999,0.4849813,-0.03476544,0.5525486,1.558527,0.222595,0.02731126,1.402022,0.2775977,284.8994,118.1073,128.6097,True
2,1.044446,-0.07127829,0.1579872,-0.07164544,-1.342474,-4.632794,-2.411651,0.3075736,1.333248,0.4146945,-1.484202,0.05661026,11.6,50.1,-0.2162917,0.3974324,-0.01365155,-0.3372702,-3.509219,-0.2995026,0.4114392,1.525947,0.3371027,-0.2014398,0.1531202,0.3088446,-0.609726,0.487448,-0.03450072,0.5496868,1.558562,0.2221341,0.0240485,1.402001,0.2768738,284.9327,118.4673,128.1227,True
2,1.055557,-0.07127829,0.1579872,-0.07164544,-1.342474,-4.632794,-2.411651,0.3075736,1.333248,0.4146945,-1.482895,0.117337,11.6,50.1,-0.2162917,0.3974324,-0.01365155,-0.3372702,-3.509219,-0.2995026,0.4114392,1.525947,0.3371027,-0.2014398,0.1531202,0.3088446,-0.609726,0.487448,-0.03450072,0.5496868,1.558562,0.2221341,0.0205109,1.401752,0.2764705,284.8955,118.6773,127.8902,True
2,1.066668,-0.0437359,0.2701711,-0.03305077,-1.34801,-4.638938,-2.409945,0.3014835,1.33274,0.412858,-1.480207,0.2429167,5.6,70.6,-0.2166909,0.3666273,-0.03212529,-0.3401251,-3.490453,-0.3120948,0.4049456,1.52547,0.335063,-0.1881966,0.1692413,0.3619551,-0.6003457,0.4951897,-0.03704191,0.5436411,1.558453,0.221072,0.01735188,1.40099,0.2765079,284.6398,119.1796,127.505,True
2,1.077779,-0.04921684,0.3043156,-0.02364168,-1.351576,-4.642794,-2.408337,0.2983477,1.332387,0.4119804,-1.477568,0.2371901,5.6,70.6,-0.2005631,0.3751661,-0.03105924,-0.3421257,-3.477459,-0.3228617,0.4016566,1.5251,0.3339105,-0.1902635,0.1618143,0.3705183,-0.5960416,0.4981732,-0.03739131,0.5406971,1.558336,0.2205324,0.01473361,1.399824,0.276899,284.3653,119.9066,126.9941,True
2,1.08889,-0.06943685,0.2958001,-0.01612116,-1.353653,-4.645009,-2.406389,0.2951786,1.332067,0.4111526,-1.474258,0.2984305,5.6,70.6,-0.1739997,0.3783484,-0.03876396,-0.3441688,-3.466003,-0.3327013,0.3983984,1.524597,0.3328929,-0.1764483,0.1500695,0.3683123,-0.5921698,0.5004706,-0.0378121,0.5374938,1.55808,0.219923,0.009985028,1.399369,0.2771561,284.3033,119.2872,127.8435,True
2,1.100002,-0.08213769,0.2574114,-0.01798243,-1.354435,-4.646259,-2.404792,0.2919551,1.331965,0.4103401,-1.470577,0.3316133,5.6,70.6,-0.1750667,0.3804897,-0.03872801,-0.3459207,-3.454172,-0.3416559,0.3951581,1.524224,0.331785,-0.1625234,0.1500746,0.3788546,-0.587643,0.5037085,-0.03903928,0.5344244,1.558014,0.2192359,0.004929446,1.398807,0.2776554,284.0215,119.0436,128.3866,True
2,1.111113,-0.08188925,0.1412031,-0.031044,-1.352018,-4.644748,-2.404203,0.2885107,1.331854,0.4094698,-1.466316,0.3842167,5.6,70.6,-0.19221,0.3806275,-0.04813738,-0.3481748,-3.443245,-0.3492017,0.3919172,1.523787,0.3308187,-0.1432797,0.1436851,0.3883058,-0.5830368,0.5065534,-0.04050029,0.5313264,1.557935,0.2186482,5.237712E-05,1.398012,0.2784132,283.6268,119.3052,128.5119,True
2,1.122224,-0.07313813,0.03461551,-0.0420441,-1.349175,-4.642859,-2.404156,0.2851977,1.331877,0.4085896,-1.462587,0.3348945,7.2,66.6,-0.1924722,0.3584164,-0.0653732,-0.350407,-3.435557,-0.3540958,0.3885561,1.523368,0.3298392,-0.1348289,0.1457831,0.3797036,-0.5793494,0.5100059,-0.04208647,0.5282044,1.557886,0.2180769,-0.00443337,1.397018,0.2792387,283.2094,119.8667,128.4372,True
2,1.133335,-0.05915531,-0.0261264,-0.05015935,-1.347047,-4.641751,-2.404304,0.2819481,1.331763,0.4076436,-1.458806,0.3397351,7.2,66.6,-0.1895038,0.3180209,-0.07535771,-0.3522766,-3.430773,-0.3566098,0.3854738,1.52287,0.3288124,-0.1338159,0.1457611,0.3733034,-0.5756028,0.5131765,-0.04332137,0.5251476,1.557793,0.2175226,-0.008556314,1.395919,0.2798323,282.8912,120.4651,128.3732,True
2,1.144446,-0.05385081,-0.01652382,-0.04915449,-1.346981,-4.642246,-2.403774,0.2787479,1.331492,0.4067578,-1.454666,0.3722884,7.2,66.6,-0.2077574,0.3043137,-0.08488766,-0.3544955,-3.424207,-0.3598503,0.3821968,1.522395,0.3277471,-0.1359338,0.1447033,0.3754597,-0.5713966,0.5163142,-0.04433977,0.5220389,1.557688,0.2169383,-0.01237843,1.394665,0.2798246,282.7421,121.0418,128.259,True
2,1.155557,-0.04973124,0.05065475,-0.04215482,-1.348909,-4.644788,-2.402834,0.2755935,1.33111,0.4056973,-1.450043,0.4158956,7.2,66.6,-0.2493076,0.2937613,-0.08134853,-0.3561621,-3.416873,-0.3624661,0.3790001,1.521955,0.326658,-0.1251548,0.1489991,0.3913341,-0.566694,0.5200171,-0.04634885,0.5189489,1.557636,0.2163458,-0.01598568,1.393214,0.2790465,282.6777,121.7766,127.7016,True
2,1.166668,-0.05104302,0.1657899,-0.02908613,-1.352941,-4.649094,-2.40126,0.2724589,1.330634,0.4046214,-1.444281,0.5193094,7.2,66.6,-0.2673841,0.3065991,-0.08104802,-0.3583454,-3.407489,-0.3676414,0.375616,1.521526,0.3256593,-0.1240706,0.1500696,0.3934525,-0.5623835,0.5235378,-0.0480112,0.5158575,1.557528,0.2157605,-0.01952343,1.391545,0.2776087,282.6493,122.6291,126.6573,True
2,1.17778,-0.06190254,0.2660228,-0.01271626,-1.357504,-4.653583,-2.399316,0.2692731,1.330169,0.403677,-1.438449,0.5246313,6.3,55.3,-0.2352039,0.3266072,-0.06521739,-0.3600993,-3.396079,-0.3767681,0.3723216,1.521035,0.3245587,-0.1293398,0.1575628,0.3998613,-0.5579439,0.5278158,-0.04994892,0.5127238,1.557395,0.2151313,-0.02319322,1.38973,0.2758606,282.5664,123.5777,125.233,True
2,1.188891,-0.06627822,0.3226054,0.006070361,-1.361585,-4.657234,-2.397676,0.2659341,1.32971,0.4027622,-1.432067,0.5747043,6.3,55.3,-0.2149902,0.3383107,-0.07065378,-0.3625516,-3.38635,-0.3841636,0.3689591,1.520575,0.3233173,-0.1431479,0.1554697,0.4053073,-0.5533404,0.5313741,-0.05093322,0.5096249,1.557177,0.2145636,-0.02715641,1.387884,0.2742503,282.3955,124.5829,123.6839,True
2,1.200002,-0.06733941,0.323738,0.01564968,-1.364349,-4.659585,-2.396449,0.2625723,1.329416,0.4017849,-1.425201,0.618212,6.3,55.3,-0.2010132,0.3434948,-0.05904907,-0.3645239,-3.376368,-0.3915435,0.365439,1.520065,0.3222609,-0.1475351,0.1564942,0.3904312,-0.5495545,0.5351719,-0.05228265,0.5064921,1.556983,0.213969,-0.0314719,1.386105,0.2732188,282.1189,125.5254,122.3185,True
2,1.211113,-0.06733941,0.323738,0.01564968,-1.364349,-4.659585,-2.396449,0.2625723,1.329416,0.4017849,-1.41846,0.6063294,6.3,55.3,-0.2010132,0.3434948,-0.05904907,-0.3645239,-3.376368,-0.3915435,0.365439,1.520065,0.3222609,-0.1475351,0.1564942,0.3904312,-0.5495545,0.5351719,-0.05228265,0.5064921,1.556983,0.213969,-0.03609305,1.384438,0.2730199,281.7581,126.2933,121.4253,True
2,1.222224,-0.06706164,0.1957401,-0.00799191,-1.364039,-4.660642,-2.394914,0.2556526,1.328961,0.3996286,-1.412211,0.5612051,8.2,57.1,-0.2086626,0.2998818,-0.06362212,-0.3680393,-3.364104,-0.397934,0.3587806,1.519264,0.3199201,-0.1585034,0.1457474,0.3564619,-0.5427405,0.541506,-0.05377135,0.5001992,1.55652,0.2127388,-0.04021775,1.382606,0.2737316,281.2235,127.4229,120.557,True
2,1.233335,-0.0690956,0.1487552,-0.02365241,-1.3634,-4.661167,-2.393976,0.2522934,1.32867,0.39855,-1.40353,0.7838324,8.2,57.1,-0.2246166,0.2721378,-0.05305208,-0.3690033,-3.359173,-0.3994646,0.3554754,1.518813,0.3186874,-0.1787249,0.1585608,0.3565854,-0.5389327,0.5461989,-0.05506751,0.4971793,1.556298,0.2120841,-0.04354879,1.380545,0.2750379,280.8269,128.6399,119.948,True
2,1.244446,-0.08180088,0.1123831,-0.04151628,-1.362637,-4.661999,-2.392469,0.2488823,1.328358,0.3974288,-1.396431,0.6371092,8.2,57.1,-0.2256537,0.2742489,-0.04982908,-0.3707376,-3.351353,-0.4040556,0.3520536,1.518286,0.3175387,-0.193455,0.163994,0.3790541,-0.5340821,0.5509117,-0.05642732,0.4941764,1.55607,0.2113633,-0.04913694,1.379225,0.2760973,280.6202,127.6133,121.7675,True
2,1.255558,-0.09136254,0.09956703,-0.04355906,-1.362716,-4.662922,-2.390913,0.2456044,1.327972,0.3963213,-1.388575,0.707516,8.2,57.1,-0.2083522,0.3263156,-0.03995228,-0.3730727,-3.337564,-0.4151224,0.3488846,1.51765,0.3162577,-0.1922892,0.1512566,0.394004,-0.5292074,0.5539383,-0.05690563,0.4912767,1.555728,0.2106826,-0.05476225,1.377589,0.2768858,280.3552,127.6181,122.5051,True
2,1.266669,-0.09351204,0.1092022,-0.03616558,-1.363734,-4.664217,-2.389547,0.2422992,1.327591,0.3952312,-1.380098,0.7636467,8.2,57.1,-0.2060362,0.3720781,-0.03530966,-0.3757081,-3.323765,-0.4257268,0.3456479,1.51699,0.3150804,-0.187035,0.1384656,0.3897341,-0.5251881,0.5568345,-0.05734372,0.4882935,1.555554,0.2100153,-0.05990521,1.375413,0.2772646,280.0199,129.0605,121.5672,True
2,1.27778,-0.09997346,0.1465859,-0.02043843,-1.365959,-4.66622,-2.387911,0.2391348,1.327141,0.3940847,-1.371936,0.7342345,6.1,59.2,-0.2155877,0.3742149,-0.03199291,-0.3776602,-3.313515,-0.4324467,0.3425095,1.516406,0.3138628,-0.1765442,0.1288377,0.3736817,-0.5218651,0.5598933,-0.05818288,0.4853426,1.555425,0.209357,-0.06456392,1.372797,0.2771747,279.6416,131.4686,119.4075,True
2,1.288891,-0.1075507,0.2053136,0.001534119,-1.369364,-4.66885,-2.385954,0.2360977,1.326682,0.3929005,-1.364017,0.7123846,6.1,59.2,-0.2338468,0.3647756,-0.0436203,-0.3800065,-3.306374,-0.4358418,0.3394931,1.515743,0.3130319,-0.1808114,0.1597168,0.3672243,-0.5182576,0.5660678,-0.06140744,0.4825532,1.555132,0.2087743,-0.06887301,1.369942,0.2766588,279.2478,134.2853,116.6215,True
2,1.300002,-0.1118961,0.2501502,0.01614536,-1.372822,-4.671591,-2.38412,0.2330261,1.326256,0.3916962,-1.355612,0.7567714,6.1,59.2,-0.2508453,0.3445046,-0.03404511,-0.3814739,-3.29879,-0.4397156,0.3364189,1.515334,0.3118124,-0.1745267,0.1660526,0.3533133,-0.5147901,0.5706651,-0.06363676,0.4797677,1.554637,0.2085931,-0.07305917,1.36706,0.2758413,278.8691,137.1343,113.6529,True
2,1.311113,-0.1130841,0.306664,0.02427948,-1.376778,-4.67519,-2.382067,0.2301073,1.325737,0.3903551,-1.346996,0.7756601,6.1,59.2,-0.2646447,0.2889621,-0.01309282,-0.381484,-3.294911,-0.4399457,0.3336015,1.514809,0.3107471,-0.1812223,0.1584882,0.3171704,-0.5125914,0.5740318,-0.06432786,0.4771212,1.554306,0.2080896,-0.07722538,1.3643,0.2749231,278.4901,139.895,110.7098,True
2,1.322224,-0.1088892,0.3429266,0.02935441,-1.380402,-4.67846,-2.380544,0.227022,1.325242,0.3891971,-1.338635,0.7521199,6.3,47.8,-0.288136,0.2452828,-0.004715532,-0.3818717,-3.291188,-0.4394013,0.3306443,1.514383,0.3094094,-0.1771562,0.157341,0.293709,-0.5100731,0.5778572,-0.06580378,0.4744065,1.553983,0.2077084,-0.08141812,1.36178,0.2741113,278.106,142.4891,107.9652,True
2,1.333336,-0.1067716,0.3493444,0.03250615,-1.383568,-4.681141,-2.378936,0.2240134,1.324791,0.3879986,-1.330042,0.7735723,6.3,47.8,-0.2837846,0.2387829,0.005835127,-0.3825045,-3.284843,-0.4422951,0.32783,1.513792,0.3084021,-0.1665238,0.1594472,0.2904221,-0.5070392,0.5821564,-0.06807332,0.4716217,1.553704,0.2072215,-0.08563257,1.359532,0.2735544,277.7551,144.6992,105.7133,True
2,1.344447,-0.106701,0.3217115,0.04547714,-1.385763,-4.682085,-2.37777,0.2210536,1.324353,0.3870258,-1.321863,0.7353958,6.3,47.8,-0.2626349,0.2228396,-0.004111066,-0.3837945,-3.279899,-0.4447322,0.3249651,1.513064,0.3073022,-0.1419486,0.157313,0.2998283,-0.5033619,0.5862051,-0.07082357,0.4690365,1.553337,0.2067089,-0.08982535,1.357519,0.2733615,277.4326,146.363,104.1285,True
2,1.355558,-0.1226335,0.301479,0.05201121,-1.388207,-4.683487,-2.375669,0.2181744,1.323848,0.3858821,-1.313133,0.7862285,6.3,47.8,-0.2545343,0.2018119,-0.03741642,-0.3859363,-3.277571,-0.4440286,0.3223109,1.512341,0.3063424,-0.1195287,0.157297,0.303904,-0.5000255,0.5904466,-0.07402016,0.4663881,1.553054,0.2061007,-0.09400583,1.355656,0.2735583,277.128,147.4275,103.2636,True
2,1.366669,-0.1226335,0.301479,0.05201121,-1.388207,-4.683487,-2.375669,0.2181744,1.323848,0.3858821,-1.304715,0.7573949,6.3,47.8,-0.2545343,0.2018119,-0.03741642,-0.3859363,-3.277571,-0.4440286,0.3223109,1.512341,0.3063424,-0.1195287,0.157297,0.303904,-0.5000255,0.5904466,-0.07402016,0.4663881,1.553054,0.2061007,-0.09808931,1.353814,0.2740481,276.8044,148.3611,102.6759,True
2,1.37778,-0.1577691,0.2918184,0.05634497,-1.393428,-4.686859,-2.370536,0.212741,1.32288,0.383909,-1.29725,0.6705401,5.8,59.4,-0.2463752,0.1518996,-0.05712535,-0.3885195,-3.274529,-0.4413268,0.3170541,1.510883,0.3045051,-0.1014055,0.1530202,0.306983,-0.4930417,0.598806,-0.07950708,0.4613223,1.552405,0.2050426,-0.1013809,1.351712,0.2747182,276.4502,150.7398,100.6707,True
2,1.388891,-0.1705223,0.2779884,0.06389436,-1.395859,-4.688126,-2.368008,0.2101888,1.322356,0.3827605,-1.285001,1.108663,5.8,59.4,-0.218833,0.1412694,-0.06922479,-0.390061,-3.273052,-0.4412168,0.3147615,1.510217,0.3036802,-0.103602,0.1519364,0.2995553,-0.4900041,0.6029071,-0.08186664,0.4588872,1.552154,0.2045569,-0.1038363,1.349335,0.2754398,276.2149,153.2644,98.50112,True
2,1.400002,-0.1609063,0.2684375,0.06608723,-1.398317,-4.689504,-2.366426,0.207447,1.322056,0.3817832,-1.278067,0.6190379,5.8,59.4,-0.2103612,0.1412769,-0.0725042,-0.3915806,-3.269915,-0.4417675,0.3122335,1.509718,0.3027873,-0.1014366,0.1689795,0.3005419,-0.4869148,0.6086439,-0.08586723,0.4566136,1.551915,0.2039742,-0.1083673,1.347511,0.2757388,275.8162,153.7291,98.46577,True
2,1.411114,-0.1513009,0.2610347,0.07145163,-1.400773,-4.690775,-2.364863,0.2049766,1.321751,0.3807082,-1.270265,0.7031347,5.8,59.4,-0.1930433,0.1441926,-0.04708761,-0.3919885,-3.265425,-0.4443426,0.3099634,1.509295,0.3019133,-0.08871612,0.1582917,0.2951543,-0.4838096,0.6123871,-0.0885541,0.4544283,1.551678,0.2034492,-0.1128759,1.345661,0.275782,275.4455,156.1344,96.38696,True
2,1.422225,-0.141668,0.2397262,0.06732844,-1.402614,-4.691878,-2.363401,0.2026315,1.321486,0.3797929,-1.263128,0.6410584,5.4,54.6,-0.1876452,0.1462573,-0.04074167,-0.3931028,-3.261617,-0.4458757,0.3076269,1.508853,0.3010371,-0.08567429,0.1369283,0.2802914,-0.4811384,0.6145075,-0.08954,0.4522178,1.551382,0.2028723,-0.1169008,1.343689,0.2755629,275.1693,160.2826,92.43548,True
2,1.433336,-0.1351842,0.1970587,0.05696367,-1.403367,-4.692256,-2.362077,0.2005462,1.321284,0.3789239,-1.255062,0.7266299,5.4,54.6,-0.1905041,0.1555889,-0.009740546,-0.3933036,-3.255537,-0.4490689,0.3057104,1.508641,0.3002765,-0.08910982,0.1091573,0.2559088,-0.4790771,0.6155783,-0.08935171,0.4501699,1.551236,0.2023969,-0.1204527,1.341643,0.2751394,274.967,164.7812,87.98421,True
2,1.444447,-0.130849,0.1586036,0.04017686,-1.403619,-4.692733,-2.360626,0.1985535,1.321011,0.3781216,-1.246935,0.7313166,5.4,54.6,-0.1935909,0.1587083,-9.214133E-05,-0.3938304,-3.250735,-0.4512364,0.3037033,1.508211,0.2994649,-0.08922695,0.1059135,0.2420747,-0.4768544,0.618435,-0.09089688,0.4481522,1.550975,0.2020509,-0.1235612,1.339534,0.2745839,274.8029,169.0626,83.68722,True
2,1.455558,-0.1371891,0.1372548,0.03499552,-1.404445,-4.693283,-2.358888,0.1966785,1.320723,0.3773205,-1.238772,0.7347102,5.4,54.6,-0.1817782,0.1692756,0.006274872,-0.394591,-3.245001,-0.4548575,0.3019424,1.507721,0.2987392,-0.07882756,0.1164478,0.2100025,-0.4756688,0.6223372,-0.0936932,0.4463049,1.550657,0.2016308,-0.1263478,1.337378,0.2739659,274.708,173.1359,79.57195,True
2,1.466669,-0.1542581,0.1467902,0.03175274,-1.406267,-4.694488,-2.356404,0.1947664,1.32034,0.3766987,-1.230502,0.7444715,5.4,54.6,-0.1638729,0.1800752,-0.01619142,-0.3966288,-3.240526,-0.4576962,0.3001165,1.507247,0.2981057,-0.05436079,0.1174612,0.2055427,-0.4735718,0.6257623,-0.09689619,0.44434,1.550358,0.2009997,-0.1288798,1.335164,0.2733198,274.6949,177.0833,75.58833,True
2,1.47778,-0.1564112,0.1585182,0.03273616,-1.408155,-4.695876,-2.354361,0.1929202,1.320006,0.3759453,-1.222092,0.7572497,5,54.8,-0.1448385,0.1427433,-0.01778831,-0.3969037,-3.240156,-0.4568227,0.2982973,1.506787,0.2974966,-0.03726788,0.1238461,0.2107178,-0.4710552,0.6298941,-0.1006696,0.4424676,1.550046,0.200561,-0.1312982,1.332903,0.2726969,274.7251,181.0099,71.60954,True
2,1.488891,-0.1607414,0.1894357,0.03571787,-1.410774,-4.69792,-2.352031,0.191296,1.319781,0.3752904,-1.213357,0.7867323,5,54.8,-0.1261678,0.05767618,-0.04218207,-0.3970789,-3.247124,-0.4496654,0.2967134,1.506411,0.2969904,-0.03720695,0.1377137,0.2149384,-0.4686567,0.635074,-0.1048665,0.4405469,1.549971,0.2000122,-0.1337275,1.330642,0.2721685,274.7378,185.352,67.19209,True
2,1.500003,-0.1619004,0.2309459,0.03010628,-1.413715,-4.700675,-2.349716,0.1896837,1.319475,0.3746021,-1.205741,0.6843735,5,54.8,-0.1219694,0.01499307,-0.03515457,-0.3968962,-3.249444,-0.446064,0.2949836,1.506148,0.296412,-0.03619377,0.1195973,0.2117941,-0.4664644,0.6373522,-0.106486,0.4388341,1.549729,0.1995831,-0.1362894,1.328468,0.2718306,274.7228,190.3352,62.15241,True
2,1.511114,-0.1544886,0.2480281,0.02999908,-1.416585,-4.702914,-2.347794,0.1880232,1.3192,0.3741498,-1.197609,0.732536,5,54.8,-0.1048768,0.002083078,-0.02692352,-0.3967508,-3.250451,-0.4445423,0.2932891,1.505835,0.2957959,-0.04369223,0.1004274,0.2097873,-0.4642667,0.638896,-0.1071936,0.4371457,1.549598,0.1990771,-0.1388975,1.326406,0.2717344,274.7195,195.6089,56.90947,True
2,1.522225,-0.1544886,0.2480281,0.02999908,-1.416585,-4.702914,-2.347794,0.1880232,1.3192,0.3741498,-1.189701,0.7113715,5,54.8,-0.1048768,0.002083078,-0.02692352,-0.3967508,-3.250451,-0.4445423,0.2932891,1.505835,0.2957959,-0.04369223,0.1004274,0.2097873,-0.4642667,0.638896,-0.1071936,0.4371457,1.549598,0.1990771,-0.1414407,1.324482,0.2719359,274.7303,201.0645,51.54971,True
2,1.533336,-0.1469218,0.2022067,0.02285232,-1.419361,-4.705322,-2.344453,0.1845419,1.319253,0.3731828,-1.183525,0.5532852,5.3,54.4,-0.06788481,0.06004695,0.03181016,-0.395962,-3.240299,-0.4533752,0.2899969,1.505393,0.2944384,-0.05131401,0.08973403,0.1928443,-0.4603668,0.643875,-0.1101023,0.4341877,1.549174,0.1982815,-0.1435337,1.322629,0.2724705,274.778,206.3276,46.45828,True
2,1.544447,-0.1402907,0.08611231,0.02259154,-1.417731,-4.703097,-2.343384,0.1828677,1.319276,0.3727372,-1.172448,1.002632,5.3,54.4,-0.04695415,0.1555212,0.07186273,-0.3964227,-3.226035,-0.4665075,0.2886055,1.50522,0.2938485,-0.04830411,0.07794627,0.1726178,-0.4591513,0.6453217,-0.1109161,0.4327583,1.54891,0.1978793,-0.1451063,1.320747,0.2732531,274.8475,209.7224,43.27083,True
2,1.555558,-0.1442649,-0.04709516,0.01710704,-1.414288,-4.699685,-2.342233,0.1814014,1.319392,0.3723412,-1.165927,0.582273,5.3,54.4,-0.04685749,0.1917547,0.07112317,-0.397268,-3.217263,-0.4740067,0.2872951,1.504986,0.2932372,-0.04342562,0.05966505,0.1204493,-0.4593996,0.6455789,-0.1108496,0.4315463,1.548716,0.1975622,-0.1480991,1.319275,0.2741197,274.7669,214.3389,38.96075,True
2,1.566669,-0.1483389,-0.137776,0.0006806627,-1.410763,-4.696928,-2.340874,0.1800815,1.319496,0.3715689,-1.158078,0.7076035,5.3,54.4,-0.07278623,0.176115,0.04141763,-0.3984334,-3.215283,-0.4739998,0.2861582,1.504772,0.2927434,-0.04252305,0.03191414,0.1056116,-0.4586688,0.6443125,-0.1092604,0.4303091,1.548673,0.1972442,-0.1510382,1.317802,0.2749261,274.7701,217.9283,35.84367,True
2,1.577781,-0.1557591,-0.1549205,-0.0119858,-1.408856,-4.695882,-2.33912,0.1788552,1.319451,0.3710606,-1.149758,0.7491846,6.5,41.4,-0.08876906,0.1612069,0.04676481,-0.3984962,-3.211749,-0.4755226,0.2850912,1.5045,0.2924299,-0.02517196,0.05222828,0.1384327,-0.4561169,0.6476224,-0.1126014,0.4288558,1.548505,0.1968713,-0.1533978,1.316061,0.2753261,274.915,219.8866,34.38258,True
2,1.588892,-0.1558259,-0.1251141,-0.01538381,-1.408553,-4.695916,-2.337342,0.1777477,1.319377,0.3706396,-1.141582,0.7358818,6.5,41.4,-0.08168846,0.1401542,0.01667321,-0.3996435,-3.210217,-0.4762432,0.284041,1.504322,0.2920911,-0.01221427,0.04908377,0.1607103,-0.4536013,0.6493657,-0.114432,0.4275696,1.548356,0.1964893,-0.1551068,1.313971,0.2750509,275.2049,221.1854,33.40741,True
2,1.600003,-0.1517483,-0.03444588,-1.804903E-05,-1.410972,-4.697434,-2.335639,0.1765874,1.319209,0.3702075,-1.133438,0.7329811,6.5,41.4,-0.04473489,0.08051685,0.001901563,-0.3996979,-3.213075,-0.4742784,0.2829393,1.504184,0.2918303,-0.0003779829,0.03420378,0.1766526,-0.4510069,0.6497291,-0.1152613,0.4263075,1.548226,0.1961496,-0.1564288,1.311597,0.2740442,275.6071,222.516,32.0672,True
2,1.611114,-0.1392023,0.08078257,0.02156688,-1.414937,-4.699949,-2.334159,0.1755351,1.319135,0.3697879,-1.125583,0.7066223,6.5,41.4,-0.02989505,0.04636182,0.004636739,-0.399349,-3.214105,-0.4734464,0.2818918,1.504069,0.2915809,0.003672726,0.02772844,0.1521427,-0.4501142,0.6501947,-0.1158329,0.425242,1.548014,0.1958818,-0.1576641,1.309085,0.272577,276.0642,224.2444,29.92078,True
2,1.622225,-0.1318857,0.1480551,0.04241752,-1.418339,-4.701648,-2.332641,0.1743781,1.319303,0.3696184,-1.117911,0.6902025,6.5,41.4,-0.0127788,-0.009288309,0.02740209,-0.3975396,-3.216975,-0.4711529,0.2809785,1.504069,0.2913105,0.007727414,0.03082525,0.1265334,-0.4495991,0.6510783,-0.1168065,0.4241796,1.547939,0.1956906,-0.1590223,1.306596,0.2710456,276.5114,226.579,26.96653,True
2,1.633336,-0.1255044,0.1555856,0.05088669,-1.420223,-4.702324,-2.331404,0.1730392,1.319458,0.3692627,-1.11028,0.6864175,6.3,40.7,0.01072273,-0.04786696,0.04493139,-0.3957021,-3.219746,-0.4694493,0.2801417,1.503894,0.2910926,0.009759754,0.04355984,0.1115659,-0.4489056,0.6534616,-0.1191823,0.4230316,1.547816,0.1954985,-0.1606365,1.304277,0.2698502,276.8858,229.7427,23.22625,True
2,1.644447,-0.13711,0.1012798,0.05765764,-1.420334,-4.701142,-2.32963,0.1716421,1.319769,0.3691328,-1.10208,0.7384881,6.3,40.7,0.01721148,-0.07574451,0.06272263,-0.3939912,-3.222189,-0.46749,0.2791013,1.503847,0.290812,0.0150412,0.06269938,0.1029392,-0.4481823,0.6567885,-0.1224932,0.4220119,1.547586,0.1953301,-0.1624286,1.302202,0.2692839,277.21,233.2791,19.33299,True
2,1.655559,-0.1528639,-0.004243761,0.0541175,-1.418114,-4.698339,-2.327869,0.1700769,1.320204,0.3687742,-1.094109,0.7172233,6.3,40.7,0.001389951,-0.07476586,0.07781025,-0.3924248,-3.222409,-0.4667648,0.2781363,1.503755,0.2905004,0.007758111,0.06916787,0.1232234,-0.4461881,0.6597474,-0.1249795,0.4210765,1.547399,0.1951244,-0.1643362,1.300396,0.2694127,277.5015,236.3787,16.20466,True
2,1.66667,-0.1718284,-0.1076969,0.04310894,-1.414988,-4.695129,-2.325804,0.1687816,1.32061,0.3683405,-1.085387,0.7861928,6.3,40.7,-0.01530274,-0.01841797,0.09659605,-0.3917574,-3.216384,-0.4714139,0.2772173,1.503752,0.2901182,-0.002215683,0.04454011,0.08076192,-0.4466925,0.6585209,-0.1234567,0.4202613,1.547261,0.1948686,-0.1662761,1.298787,0.2700611,277.7255,238.5859,14.29416,True
2,1.677781,-0.1718284,-0.1076969,0.04310894,-1.414988,-4.695129,-2.325804,0.1687816,1.32061,0.3683405,-1.077327,0.72512,6.3,40.7,-0.01530274,-0.01841797,0.09659605,-0.3917574,-3.216384,-0.4714139,0.2772173,1.503752,0.2901182,-0.002215683,0.04454011,0.08076192,-0.4466925,0.6585209,-0.1234567,0.4202613,1.547261,0.1948686,-0.1681647,1.297306,0.2709064,277.9431,240.1657,13.21186,True
2,1.688892,-0.1994782,-0.1312376,0.03688457,-1.412694,-4.692105,-2.321135,0.1666229,1.321123,0.3674769,-1.071839,0.4907112,3.8,64.7,-0.005007274,0.09736079,0.1326768,-0.3908439,-3.198698,-0.4879276,0.2754662,1.503813,0.2893224,-0.01735383,-0.000246793,0.06185873,-0.4456177,0.6558941,-0.1202305,0.4185732,1.546959,0.1942763,-0.1696954,1.295856,0.2716077,278.1913,241.0234,12.82526,True
2,1.700003,-0.2081012,-0.08220826,0.04187386,-1.413949,-4.692521,-2.318554,0.1657536,1.321391,0.3670883,-1.059651,1.105284,3.8,64.7,-0.07125658,0.09452419,0.1152232,-0.3906974,-3.195999,-0.4874016,0.2748621,1.503816,0.2889185,-0.009852191,-0.04602336,0.07579111,-0.444064,0.6515645,-0.1164718,0.4176693,1.546873,0.1940846,-0.1706378,1.294272,0.2720861,278.3214,241.6709,12.53288,True
2,1.711114,-0.2156041,-0.05980983,0.04811535,-1.414541,-4.692035,-2.315979,0.16474,1.321677,0.3666782,-1.053924,0.5092514,3.8,64.7,-0.1300711,0.08207664,0.097608,-0.3904162,-3.194051,-0.4859164,0.2741819,1.503795,0.2886333,-0.01737167,-0.0460341,0.06840112,-0.4434179,0.6505352,-0.1150749,0.4167006,1.546866,0.1939416,-0.17232,1.29278,0.2718398,278.6891,242.2415,12.3081,True
2,1.722225,-0.2103044,-0.04375831,0.05652553,-1.41514,-4.691413,-2.314037,0.1635011,1.322033,0.3662796,-1.047247,0.6018239,3.8,64.7,-0.1279393,0.06710659,0.1027698,-0.3894607,-3.19195,-0.4865558,0.2733963,1.503756,0.2884171,-0.03112002,-0.01616081,0.07587184,-0.4425119,0.653012,-0.1164209,0.4158028,1.546887,0.1938629,-0.1738689,1.291405,0.2710239,279.0893,242.9489,11.52406,True
2,1.733337,-0.2145573,-0.04910802,0.05336254,-1.414869,-4.690634,-2.311624,0.1622482,1.322331,0.3659279,-1.039917,0.6599991,8.7,84.4,-0.08338765,0.01266897,0.09969229,-0.3878511,-3.194266,-0.4849829,0.2726569,1.503779,0.2882097,-0.03533758,0.02006321,0.07473099,-0.4418062,0.6568245,-0.1193064,0.4150858,1.546725,0.1938334,-0.1751868,1.290193,0.2699404,279.4021,243.9404,10.18584,True
2,1.744448,-0.2220011,-0.05552256,0.05234282,-1.414613,-4.689653,-2.30908,0.1609547,1.322664,0.3655109,-1.033281,0.5963861,8.7,84.4,-0.07405803,-0.06404193,0.09677354,-0.3856491,-3.200683,-0.4785751,0.2718895,1.503965,0.2880564,-0.03544891,0.05088945,0.05545067,-0.4421338,0.6600292,-0.1218479,0.41441,1.54666,0.193733,-0.1764237,1.289147,0.2687711,279.6328,244.4802,9.2888,True
2,1.755559,-0.2284151,-0.04599421,0.04588575,-1.414641,-4.68932,-2.306386,0.1597905,1.323045,0.3650544,-1.025628,0.6898404,8.7,84.4,-0.08897388,-0.08962661,0.1041544,-0.3836182,-3.203175,-0.4747271,0.2710846,1.504026,0.2878165,-0.03648581,0.07858708,0.05537427,-0.4417007,0.6643782,-0.1251832,0.4138657,1.546526,0.193666,-0.177729,1.28821,0.2676457,279.7781,244.5246,8.949658,True
2,1.76667,-0.2284755,-0.01834794,0.03824013,-1.415306,-4.689736,-2.303783,0.1587253,1.323385,0.3646359,-1.018104,0.6770582,8.7,84.4,-0.1090067,-0.07159025,0.1194334,-0.3819644,-3.201014,-0.4747327,0.2704401,1.504064,0.2874961,-0.03231707,0.06256806,0.04686162,-0.4415031,0.6643751,-0.1249742,0.4132763,1.546482,0.1935596,-0.1791322,1.287289,0.2666628,279.9016,244.3877,8.86902,True
2,1.777781,-0.2348965,-0.009859238,0.03391457,-1.415587,-4.68984,-2.300787,0.1577064,1.32381,0.3642228,-1.010662,0.6697782,8.7,84.4,-0.10998,-0.03641581,0.1186918,-0.3812853,-3.197161,-0.4770092,0.2698347,1.504101,0.2871459,-0.03801244,0.03049609,0.008664834,-0.44257,0.6621298,-0.1221528,0.4128075,1.546414,0.1934087,-0.1806175,1.286336,0.2658728,280.0626,244.5293,8.595247,True
2,1.788892,-0.2401818,-0.03015424,0.02766219,-1.41491,-4.689129,-2.29802,0.1568913,1.324255,0.3638473,-1.00341,0.6522684,6.3,66.8,-0.1097993,0.0114941,0.1223139,-0.3808629,-3.190753,-0.4818215,0.2694177,1.50421,0.2867241,-0.04770987,0.007040586,-0.0007734438,-0.4428847,0.6602427,-0.119614,0.4123571,1.546345,0.1932695,-0.1820969,1.285335,0.2653325,280.2779,245.0263,8.023484,True
2,1.800003,-0.240073,-0.08239074,0.02269336,-1.412973,-4.687196,-2.295666,0.1561095,1.324623,0.3635218,-0.9953437,0.7267817,6.3,66.8,-0.1181476,0.05088952,0.1280784,-0.3803298,-3.184193,-0.486265,0.2690068,1.504224,0.2863407,-0.0560495,0.0007338598,0.02168506,-0.4417875,0.6603308,-0.1189267,0.4118043,1.546362,0.1931012,-0.1835154,1.284274,0.2650968,280.5096,245.7852,7.251952,True
2,1.811115,-0.2421719,-0.09730165,0.0238607,-1.411972,-4.685878,-2.29308,0.1553926,1.32499,0.3631778,-0.9875747,0.6987861,6.3,66.8,-0.1011625,0.1107021,0.1049988,-0.3815239,-3.175645,-0.4936252,0.2687086,1.504128,0.286046,-0.05690435,0.015726,0.04508874,-0.4404357,0.6625873,-0.120254,0.4113123,1.546352,0.1928542,-0.1848256,1.283156,0.2651252,280.7737,246.5794,6.560753,True
2,1.822226,-0.2549443,-0.1048497,0.0132564,-1.410851,-4.685278,-2.289852,0.1548945,1.32533,0.3629553,-0.9798254,0.6971852,6.3,66.8,-0.06739765,0.079908,0.08306322,-0.3814691,-3.175831,-0.4937088,0.2683274,1.504061,0.2858202,-0.02928514,-0.01629172,0.04069787,-0.440089,0.6593694,-0.1180811,0.4108807,1.546313,0.1927719,-0.1859033,1.281947,0.2652868,281.034,247.0315,6.321202,True
2,1.833337,-0.2549443,-0.1048497,0.0132564,-1.410851,-4.685278,-2.289852,0.1548945,1.32533,0.3629553,-0.9714509,0.7540604,10.6,74.2,-0.06739765,0.079908,0.08306322,-0.3814691,-3.175831,-0.4937088,0.2683274,1.504061,0.2858202,-0.02928514,-0.01629172,0.04069787,-0.440089,0.6593694,-0.1180811,0.4108807,1.546313,0.1927719,-0.1867677,1.28058,0.2654039,281.2786,247.202,6.378602,True
2,1.844448,-0.2613559,-0.09427562,-0.001730036,-1.409289,-4.684787,-2.284046,0.1533716,1.325847,0.3625841,-0.965634,0.5194756,10.6,74.2,-0.0454782,-0.0799735,0.08566886,-0.3765635,-3.188711,-0.481418,0.2673954,1.503962,0.2853417,-0.04542959,0.03583669,0.01083516,-0.4412038,0.6643043,-0.1212931,0.4101937,1.546098,0.1925344,-0.1874064,1.279033,0.2654184,281.5424,247.5561,6.119543,True
2,1.855559,-0.2614012,-0.06972927,0.004489843,-1.409522,-4.684701,-2.281248,0.1525509,1.326101,0.3622658,-0.9509307,1.333996,10.6,74.2,-0.06466547,-0.08417769,0.08582865,-0.3752096,-3.190295,-0.4785549,0.2668597,1.503878,0.2851088,-0.05920095,0.03375786,0.02054477,-0.4406392,0.6652204,-0.1210045,0.4097922,1.54601,0.1924171,-0.1877786,1.277149,0.2654267,281.7307,247.893,5.771591,True
2,1.86667,-0.2614984,-0.02382976,0.01159913,-1.410763,-4.686085,-2.277984,0.151636,1.326261,0.3618171,-0.9447234,0.5498917,10.6,74.2,-0.0570555,-0.06297035,0.09446568,-0.3741086,-3.187731,-0.4804409,0.2663135,1.503778,0.2848077,-0.05593489,0.02845709,0.03012304,-0.4399915,0.6657614,-0.1209682,0.4094136,1.545892,0.1923234,-0.1888571,1.275196,0.2652898,282.3076,248.4302,5.246879,True
2,1.877781,-0.2541003,-0.0003059953,0.01355212,-1.411751,-4.687144,-2.275031,0.1507978,1.326534,0.3615997,-0.936222,0.7669266,10.6,74.2,-0.06434162,-0.02144453,0.09917729,-0.3734945,-3.183153,-0.4837874,0.2658519,1.503626,0.2844713,-0.05268803,0.03379571,0.03540638,-0.439477,0.66723,-0.1218292,0.4090756,1.54578,0.1923025,-0.1902239,1.273305,0.2651435,282.8324,248.8849,4.719897,True
2,1.888893,-0.2476821,-0.01194493,0.02321839,-1.411745,-4.686369,-2.272666,0.1499007,1.326905,0.3613043,-0.9266149,0.865187,7.1,57.2,-0.06731281,0.009342521,0.1122682,-0.3725363,-3.178195,-0.4875574,0.2654376,1.503551,0.2841504,-0.07516284,0.05188399,0.01954664,-0.4399745,0.6696231,-0.1224569,0.4087885,1.545747,0.1922829,-0.1916388,1.271472,0.2650455,283.2307,249.6854,3.901664,True
2,1.900004,-0.2423233,-0.02790431,0.02225853,-1.411311,-4.685813,-2.270257,0.149021,1.327357,0.3608713,-0.9171916,0.8475331,7.1,57.2,-0.08846966,0.03277078,0.1212132,-0.3717102,-3.173253,-0.4902842,0.2650282,1.503482,0.2837811,-0.08697866,0.04760042,0.007934459,-0.4404155,0.670413,-0.1218428,0.408528,1.545705,0.192286,-0.193064,1.269693,0.2650634,283.5675,250.5987,2.995169,True
2,1.911115,-0.2465685,-0.03647906,0.01592656,-1.410754,-4.685382,-2.267479,0.1481726,1.327697,0.3604915,-0.9076527,0.8582792,7.1,57.2,-0.126722,0.0392095,0.1291216,-0.3705357,-3.169425,-0.4911271,0.2646277,1.503446,0.2834318,-0.09022893,0.05184267,0.0004900997,-0.4407542,0.6719896,-0.1221669,0.4082077,1.545634,0.1922779,-0.1943458,1.267943,0.265238,283.8898,251.3552,2.290089,True
2,1.922226,-0.2518826,-0.04724804,-0.004241323,-1.409854,-4.685772,-2.264336,0.1473832,1.328043,0.3602486,-0.8976222,0.9029593,7.1,57.2,-0.1223343,0.004915603,0.1511378,-0.367962,-3.169248,-0.4901186,0.2642196,1.503442,0.283102,-0.09354688,0.05710658,-0.01654842,-0.4416171,0.6732117,-0.1222998,0.4078885,1.545531,0.1923087,-0.1954497,1.266159,0.2654504,284.2101,251.9165,1.900086,True
2,1.933337,-0.252921,-0.06336576,-0.02437564,-1.408272,-4.685773,-2.261424,0.1464579,1.328379,0.3598821,-0.8870782,0.9494624,6.1,69,-0.1119746,-0.04399417,0.1367453,-0.3659892,-3.173043,-0.4856786,0.2636927,1.503267,0.2827334,-0.1127022,0.06139738,-0.0153462,-0.4418967,0.6749358,-0.1220718,0.407525,1.545388,0.1922877,-0.1964442,1.264292,0.2655916,284.5483,252.3188,1.6881,True
2,1.944448,-0.2507336,-0.09226443,-0.04870066,-1.405897,-4.686057,-2.258686,0.1452715,1.328804,0.3594182,-0.876646,0.9389583,6.1,69,-0.1314408,-0.07785644,0.1185311,-0.3644973,-3.176949,-0.479994,0.2631119,1.503122,0.2823386,-0.1190228,0.06782697,-0.006786546,-0.4417268,0.6773738,-0.1226261,0.4070663,1.545282,0.1923997,-0.1974004,1.262316,0.2656402,284.9197,252.6024,1.491848,True
2,1.955559,-0.2443227,-0.1083423,-0.06456794,-1.403782,-4.685843,-2.256077,0.1441203,1.329058,0.3590512,-0.8666773,0.8968258,6.1,69,-0.1711518,-0.1351578,0.1067089,-0.3621564,-3.184701,-0.4694242,0.2622678,1.502834,0.2818525,-0.1487415,0.07322997,0.005158567,-0.4413513,0.6796608,-0.1221672,0.4065737,1.545055,0.1923904,-0.1983982,1.260254,0.265669,285.3406,252.7561,1.322462,True
2,1.966671,-0.2517584,-0.1223588,-0.09004325,-1.401296,-4.686455,-2.25294,0.142742,1.329351,0.3588068,-0.8568172,0.8871717,6.1,69,-0.1729612,-0.1590728,0.04151885,-0.3627391,-3.193344,-0.4593018,0.2612722,1.502444,0.2813478,-0.1806028,0.1041904,0.01171261,-0.4412762,0.6848859,-0.1237845,0.4059866,1.544874,0.1924057,-0.1995574,1.258126,0.2657069,285.7884,252.7822,1.29716,True
2,1.977782,-0.2740935,-0.1427124,-0.102713,-1.398478,-4.686765,-2.249073,0.1412837,1.329532,0.3584566,-0.8467835,0.9031252,10.7,72.8,-0.1553342,-0.1051539,0.08230531,-0.3610128,-3.187879,-0.4634614,0.2603849,1.502214,0.2808378,-0.1887974,0.162888,0.04142363,-0.4402546,0.6944332,-0.1300027,0.4052728,1.544602,0.1924827,-0.2009315,1.255939,0.2657783,286.2411,252.6818,1.42622,True
2,1.988893,-0.2740935,-0.1427124,-0.102713,-1.398478,-4.686765,-2.249073,0.1412837,1.329532,0.3584566,-0.8363056,0.9435878,10.7,72.8,-0.1553342,-0.1051539,0.08230531,-0.3610128,-3.187879,-0.4634614,0.2603849,1.502214,0.2808378,-0.1887974,0.162888,0.04142363,-0.4402546,0.6944332,-0.1300027,0.4052728,1.544602,0.1924827,-0.2024117,1.253678,0.2659066,286.6714,252.6166,1.517733,True
2,2.000004,-0.3368112,-0.2098926,-0.09371181,-1.392237,-4.684167,-2.240406,0.1381534,1.329846,0.3580492,-0.8291411,0.6402841,10.7,72.8,-0.09673409,0.07852066,0.1334095,-0.3602522,-3.163292,-0.4863182,0.258384,1.500794,0.2792425,-0.1777408,0.2492586,0.07515021,-0.4388708,0.7131829,-0.1435761,0.403947,1.544125,0.1926374,-0.2037275,1.251374,0.2661758,287.1234,252.6743,1.445231,True
2,2.011115,-0.3591497,-0.2247771,-0.08403227,-1.389428,-4.683066,-2.235904,0.1365994,1.330017,0.3574679,-0.8113965,1.610323,10.7,72.8,-0.13583,0.1531352,0.142991,-0.360625,-3.15048,-0.495454,0.2575676,1.500163,0.2786777,-0.1787111,0.2610086,0.08470906,-0.4381081,0.721244,-0.1488683,0.4033116,1.543852,0.1926751,-0.2046869,1.248888,0.2666101,287.4044,252.8013,1.394248,True
2,2.022226,-0.3825695,-0.2332734,-0.07331515,-1.386894,-4.68161,-2.231102,0.1351722,1.330342,0.3570487,-0.8038384,0.6705475,10.7,72.8,-0.1507245,0.1820023,0.1370074,-0.3609254,-3.141122,-0.5018956,0.25676,1.499749,0.2785432,-0.1639034,0.2194182,0.07831978,-0.4377049,0.7236305,-0.1497709,0.402696,1.543647,0.1925778,-0.2069941,1.246387,0.2669778,288.1007,252.5888,1.79514,True
2,2.033337,-0.3857956,-0.2151034,-0.06385224,-1.385292,-4.680867,-2.226956,0.133843,1.330704,0.3565671,-0.7947405,0.8202932,6.7,66.3,-0.1468235,0.1257003,0.1183482,-0.3601883,-3.141342,-0.5002871,0.2560191,1.499344,0.2781408,-0.1639588,0.1831972,0.07737856,-0.4369566,0.7261783,-0.1503029,0.4020024,1.543261,0.192522,-0.2093173,1.244155,0.2672139,288.7537,252.4596,2.146277,True
2,2.044448,-0.3645794,-0.1724425,-0.06308638,-1.384446,-4.681115,-2.223506,0.1326893,1.331192,0.3559375,-0.7846274,0.9109728,6.7,66.3,-0.1542181,0.07120293,0.1403157,-0.3576529,-3.140308,-0.4993289,0.2552575,1.498987,0.277324,-0.1714352,0.1640361,0.0796399,-0.4360543,0.7295041,-0.1510433,0.4013334,1.543032,0.1924953,-0.2113173,1.242257,0.2672179,289.2443,252.5597,2.254452,True
2,2.055559,-0.3422741,-0.1383458,-0.06758124,-1.383533,-4.681496,-2.220474,0.1312994,1.331522,0.3553541,-0.775529,0.817504,6.7,66.3,-0.1897538,-0.03195639,0.1333636,-0.3547741,-3.148079,-0.4887486,0.2544609,1.498608,0.2769196,-0.1639989,0.1501726,0.07855271,-0.4354939,0.7326502,-0.1524258,0.4005633,1.542737,0.1923745,-0.212894,1.240722,0.2669516,289.6293,252.6058,2.291452,True
2,2.06667,-0.3157508,-0.08614309,-0.07540306,-1.383588,-4.68296,-2.21763,0.1300523,1.331791,0.3546543,-0.7665659,0.8059434,6.7,66.3,-0.2046795,-0.07142219,0.1438177,-0.3521386,-3.150939,-0.4832836,0.253701,1.498293,0.2763541,-0.1470502,0.1554368,0.06668421,-0.4353363,0.7373803,-0.1555576,0.399876,1.542427,0.1923361,-0.2141406,1.239519,0.2664631,289.8975,252.6145,2.237931,True
2,2.077781,-0.3221922,-0.0627424,-0.07769002,-1.382958,-4.683603,-2.213593,0.1287158,1.331916,0.3539574,-0.7570637,0.8551793,6.7,66.3,-0.1877282,-0.07672277,0.1361337,-0.3507394,-3.1511,-0.4817102,0.2528928,1.497834,0.2758956,-0.1450308,0.1575167,0.05174259,-0.4356218,0.741687,-0.1580035,0.3992658,1.542109,0.1922405,-0.2152385,1.238528,0.2658715,290.0406,252.5843,2.141195,True
2,2.088892,-0.3477625,-0.06175815,-0.0819516,-1.38183,-4.684054,-2.208835,0.1274808,1.331858,0.3534169,-0.747372,0.8720244,13.2,59.3,-0.1613391,-0.1022282,0.1196551,-0.3491915,-3.155379,-0.4769096,0.2519648,1.497324,0.2752221,-0.1483571,0.1447015,0.03796837,-0.435748,0.7445863,-0.1588608,0.3984283,1.541913,0.1922181,-0.2164578,1.237543,0.2653139,290.0874,252.5154,2.055963,True
2,2.100003,-0.3743787,-0.06809744,-0.0637852,-1.38082,-4.683311,-2.204001,0.1262147,1.331796,0.3528483,-0.7359422,1.030816,13.2,59.3,-0.174148,-0.09149344,0.1145547,-0.3478781,-3.155816,-0.4739926,0.2509759,1.496537,0.2746551,-0.1523618,0.1884647,0.06236809,-0.4348031,0.7535331,-0.1650912,0.3975829,1.541583,0.1922085,-0.21781,1.236381,0.2649263,290.1104,252.5843,1.893702,True
2,2.111114,-0.3892992,-0.0638079,-0.0552883,-1.380185,-4.683246,-2.199219,0.1249139,1.331751,0.3522935,-0.7250105,0.9840184,13.2,59.3,-0.1816407,-0.02521715,0.09178223,-0.3486925,-3.150064,-0.4771208,0.250033,1.495779,0.2740684,-0.1510523,0.2194337,0.08676272,-0.433625,0.7624719,-0.1715739,0.3967385,1.541264,0.1921566,-0.2192999,1.234922,0.2647352,290.2348,252.6725,1.819673,True
2,2.122225,-0.388254,-0.05080505,-0.02235033,-1.38056,-4.682329,-2.195181,0.1235362,1.331695,0.3517222,-0.7147242,0.9256769,13.2,59.3,-0.1772487,0.08467305,0.07247037,-0.3509466,-3.13774,-0.486919,0.2491392,1.49504,0.2734892,-0.1315626,0.2333626,0.1227781,-0.4315839,0.7701937,-0.1778456,0.3959464,1.541059,0.1921926,-0.2208047,1.233165,0.2647208,290.5017,252.7708,1.818014,True
2,2.133336,-0.3765878,-0.02509139,-0.004422956,-1.381282,-4.68225,-2.191372,0.1222628,1.331726,0.3510277,-0.7050202,0.8728895,8.8,61.4,-0.1718746,0.1102673,0.0683784,-0.3513072,-3.131708,-0.4910424,0.248385,1.494241,0.2729266,-0.1072774,0.2641242,0.0905286,-0.4323749,0.7795749,-0.1859941,0.3951476,1.540782,0.1921997,-0.2222615,1.231189,0.2647689,290.9045,253.0276,1.740782,True
2,2.144447,-0.3765878,-0.02509139,-0.004422956,-1.381282,-4.68225,-2.191372,0.1222628,1.331726,0.3510277,-0.6957476,0.8337827,8.8,61.4,-0.1718746,0.1102673,0.0683784,-0.3513072,-3.131708,-0.4910424,0.248385,1.494241,0.2729266,-0.1072774,0.2641242,0.0905286,-0.4323749,0.7795749,-0.1859941,0.3951476,1.540782,0.1921997,-0.2236856,1.229105,0.2647974,291.3822,253.4423,1.511882,True
2,2.155558,-0.3628467,0.03155281,0.02075404,-1.383631,-4.682434,-2.183822,0.1199455,1.33172,0.3496993,-0.6899568,0.5156736,8.8,61.4,-0.1797696,0.07542357,0.03618943,-0.3519239,-3.130264,-0.4882743,0.2469141,1.493255,0.2720246,-0.09881073,0.2502498,0.08623286,-0.4316611,0.7920282,-0.1952164,0.3936768,1.540142,0.1919079,-0.2247468,1.227014,0.2647434,291.8385,253.8806,1.185599,True
2,2.166669,-0.3596734,0.04542828,0.02490844,-1.384488,-4.682684,-2.179928,0.1189182,1.331731,0.3489881,-0.6730096,1.538498,8.8,61.4,-0.1820621,0.03711644,0.03160946,-0.3513343,-3.132185,-0.4843478,0.2461908,1.492789,0.271565,-0.09016472,0.2449659,0.1021591,-0.430524,0.7989966,-0.2008412,0.3929104,1.539816,0.1916773,-0.2252443,1.224782,0.2646896,292.0927,254.2584,0.8629076,True
2,2.17778,-0.360729,0.04111419,0.01960938,-1.384565,-4.682693,-2.175871,0.1178211,1.33183,0.348341,-0.6659591,0.624788,8.8,61.4,-0.1599675,-0.01824804,0.02023295,-0.3507133,-3.137344,-0.4784976,0.2452458,1.492312,0.271111,-0.0774778,0.1969952,0.0990025,-0.4297208,0.8006129,-0.2018468,0.3920586,1.539646,0.1914535,-0.226772,1.222506,0.2643693,292.7219,255.2358,0.1360395,True
2,2.188891,-0.3639189,0.03791156,0.02069691,-1.384923,-4.682591,-2.17165,0.1167035,1.331914,0.347683,-0.6569059,0.8167724,6.2,60.1,-0.1470017,-0.03339887,0.04233873,-0.3492086,-3.138056,-0.4766137,0.2444505,1.491797,0.2706149,-0.06876196,0.2045163,0.1212797,-0.4282363,0.8077942,-0.2078981,0.3912609,1.539318,0.1912692,-0.2283116,1.220474,0.2638177,293.2773,255.7083,359.754,True
2,2.200002,-0.3638571,0.009095974,0.01769161,-1.383945,-4.681744,-2.167844,0.1154755,1.332109,0.3472195,-0.6471716,0.8765982,6.2,60.1,-0.1404475,-0.002575785,0.04893973,-0.3490776,-3.133579,-0.479454,0.2437297,1.491343,0.2701538,-0.06334324,0.2013522,0.1329583,-0.4269676,0.8141868,-0.2131813,0.390433,1.539059,0.191133,-0.2295828,1.218724,0.2631232,293.6604,255.8987,359.5011,True
2,2.211113,-0.3691499,-0.01012787,0.01250222,-1.383396,-4.681333,-2.163568,0.114247,1.332218,0.3466263,-0.6374862,0.8717663,6.2,60.1,-0.1426634,-0.00890404,0.0425138,-0.3487164,-3.134084,-0.477304,0.2429771,1.490852,0.2696381,-0.06250212,0.171447,0.1106696,-0.4267385,0.8163183,-0.2144548,0.3896591,1.538776,0.1909873,-0.2306553,1.217228,0.2623837,293.9299,255.9534,359.308,True
2,2.222224,-0.3733777,-0.02184337,0.01895588,-1.382694,-4.680504,-2.159494,0.1130125,1.332431,0.3460929,-0.6283414,0.8225356,6.2,60.1,-0.137925,0.01630305,0.08210022,-0.3472283,-3.128871,-0.4806913,0.2421233,1.490321,0.2692385,-0.06363721,0.1884603,0.09997675,-0.4264941,0.8232158,-0.2198911,0.3889058,1.538441,0.1908476,-0.2316668,1.215932,0.2616679,294.1402,255.9852,359.1451,True
2,2.233335,-0.3733268,-0.04517162,0.03509552,-1.38214,-4.678989,-2.155557,0.111787,1.332633,0.3455043,-0.6186454,0.8733506,6.2,60.1,-0.1303114,0.03964071,0.09075387,-0.3466567,-3.123921,-0.4840865,0.2414318,1.489839,0.2687674,-0.06239645,0.2098144,0.116944,-0.4253132,0.8317171,-0.2269975,0.3883051,1.538137,0.1907504,-0.2327248,1.214745,0.2610276,294.3122,255.8768,359.1471,True
2,2.244446,-0.3604779,-0.07488187,0.05019475,-1.380908,-4.677168,-2.152262,0.1106384,1.332726,0.3446217,-0.6094468,0.8274848,3,53,-0.1441298,0.04606241,0.09201502,-0.3460725,-3.120928,-0.4847872,0.2407104,1.489575,0.2682939,-0.03817365,0.1756047,0.08915829,-0.4252189,0.8338337,-0.2292542,0.3877552,1.537959,0.1905565,-0.2338881,1.213601,0.2604903,294.4907,255.8555,359.1244,True
2,2.255557,-0.3498102,-0.08119837,0.05876625,-1.380515,-4.675632,-2.148987,0.1095531,1.332921,0.3439622,-0.600235,0.8291136,3,53,-0.1588415,0.05235055,0.1092724,-0.3448026,-3.116153,-0.4870458,0.2402474,1.489318,0.267874,-0.0405513,0.159549,0.06153474,-0.42566,0.8371685,-0.2317395,0.3870473,1.537738,0.1903965,-0.2350902,1.212468,0.2600404,294.6882,255.9012,359.1056,True
2,2.266668,-0.3189638,-0.05763996,0.06710447,-1.381046,-4.675045,-2.146496,0.1088493,1.333201,0.3430645,-0.5915973,0.7765502,3,53,-0.1772742,0.02918641,0.08475019,-0.3444597,-3.117213,-0.4834729,0.2398344,1.489139,0.2673044,-0.05237128,0.1126799,0.0575177,-0.4251406,0.8368299,-0.2304417,0.3865541,1.537588,0.1901517,-0.2362435,1.211296,0.2595802,294.8791,255.9853,359.1589,True
2,2.277779,-0.305122,-0.05443008,0.06494876,-1.380989,-4.6742,-2.143697,0.1080365,1.333519,0.3423741,-0.5825058,0.8185546,3,53,-0.1972944,0.02479243,0.1072899,-0.3428026,-3.114049,-0.483609,0.2393726,1.489153,0.2668533,-0.04487856,0.09564652,0.06390174,-0.4242858,0.8386988,-0.231984,0.3860667,1.537372,0.1899006,-0.2372495,1.21,0.258993,295.0584,256.0018,359.2955,True
2,2.28889,-0.2816678,-0.06403495,0.05542172,-1.380283,-4.673369,-2.141504,0.1074295,1.333922,0.3416741,-0.5742164,0.7447475,1.4,43.6,-0.2121393,-0.01261102,0.1252187,-0.3402241,-3.115028,-0.4797623,0.239098,1.489266,0.2664447,-0.03535487,0.05834951,0.06287539,-0.4234916,0.8378894,-0.2311863,0.3856505,1.537249,0.1895521,-0.2380221,1.208566,0.2582612,295.316,256.1452,359.2037,True
2,2.300001,-0.2816678,-0.06403495,0.05542172,-1.380283,-4.673369,-2.141504,0.1074295,1.333922,0.3416741,-0.5646807,0.859336,1.4,43.6,-0.2121393,-0.01261102,0.1252187,-0.3402241,-3.115028,-0.4797623,0.239098,1.489266,0.2664447,-0.03535487,0.05834951,0.06287539,-0.4234916,0.8378894,-0.2311863,0.3856505,1.537249,0.1895521,-0.2384705,1.206996,0.2574216,295.6216,256.3769,358.9372,True
2,2.311112,-0.2496743,-0.08340635,0.01719972,-1.377939,-4.672507,-2.136916,0.1063603,1.334445,0.3405128,-0.5582369,0.5755763,1.4,43.6,-0.1496393,-0.008207917,0.08944929,-0.3396143,-3.113475,-0.4797051,0.238282,1.48911,0.2655187,-0.03975231,0.02317405,0.05236922,-0.4226847,0.8373438,-0.2296228,0.3846985,1.537211,0.189034,-0.238642,1.205287,0.2566108,295.9323,256.3209,358.8164,True
2,2.322223,-0.2401209,-0.06744425,0.01176103,-1.377712,-4.67239,-2.134565,0.1058061,1.334635,0.3400943,-0.5445866,1.237007,1.4,43.6,-0.115526,0.0140956,0.08503559,-0.3393672,-3.110158,-0.4826383,0.2378662,1.488975,0.2651589,-0.0525193,0.04449321,0.05134533,-0.4223502,0.8405543,-0.2314748,0.3842607,1.537061,0.1888063,-0.2384201,1.204696,0.2564476,295.7551,255.8124,359.3121,True
2,2.333334,-0.2379851,-0.06532863,0.009625815,-1.377264,-4.671827,-2.132191,0.1050105,1.334821,0.3397048,-0.5371367,0.6644313,1.4,43.6,-0.07774016,-0.04106476,0.04580542,-0.3389986,-3.116829,-0.4767604,0.237479,1.488674,0.2647254,-0.05786668,0.05620849,0.04603462,-0.4221664,0.8434164,-0.2333315,0.3837834,1.53696,0.1886141,-0.2385338,1.204456,0.2564161,295.8347,256.4815,358.8029,True
2,2.344445,-0.2443626,-0.07280789,0.005396588,-1.376332,-4.671699,-2.129271,0.1042091,1.335081,0.3395116,-0.5285906,0.7703123,0.4,24.1,-0.06266244,-0.05513864,0.06576815,-0.3372766,-3.118286,-0.4751441,0.2369103,1.488534,0.2643731,-0.06725036,0.1329636,0.05758696,-0.4222122,0.8534233,-0.2413695,0.3832497,1.536771,0.1884117,-0.238647,1.204272,0.2564218,295.9006,256.8202,358.5038,True
2,2.355556,-0.2443626,-0.07280789,0.005396588,-1.376332,-4.671699,-2.129271,0.1042091,1.335081,0.3395116,-0.5196744,0.8027758,0.4,24.1,-0.06266244,-0.05513864,0.06576815,-0.3372766,-3.118286,-0.4751441,0.2369103,1.488534,0.2643731,-0.06725036,0.1329636,0.05758696,-0.4222122,0.8534233,-0.2413695,0.3832497,1.536771,0.1884117,-0.2385882,1.203979,0.2566714,295.653,257.8781,357.4514,True
2,2.366668,-0.2474985,-0.1026399,0.003451787,-1.374434,-4.670901,-2.126548,0.1034358,1.335401,0.33922,-0.5133451,0.5660713,0.4,24.1,-0.05503973,-0.024328,0.07341957,-0.3367072,-3.114057,-0.4786142,0.2365761,1.48835,0.263942,-0.0671023,0.1468526,0.0724476,-0.4215299,0.8588022,-0.2456236,0.3829614,1.536683,0.1881614,-0.238755,1.203782,0.2566901,295.7441,257.9648,357.2968,True
2,2.377779,-0.2356142,-0.1869018,-0.01622479,-1.368283,-4.668417,-2.122114,0.1022971,1.336003,0.3384938,-0.4991382,1.288465,0.4,24.1,-0.03928147,0.06782178,0.1284202,-0.3348083,-3.096527,-0.4947381,0.2358882,1.488535,0.2630501,-0.0181144,0.08927774,0.08075061,-0.4191528,0.8606436,-0.2484458,0.3822609,1.53642,0.1876104,-0.2387973,1.203448,0.2567545,295.5591,258.4963,356.6636,True
2,2.38889,-0.206872,-0.1772688,-0.01735077,-1.366829,-4.667589,-2.120932,0.1020277,1.336222,0.3380749,-0.493194,0.5267602,0.4,24.1,-0.02551013,0.1149887,0.2107321,-0.3315252,-3.080759,-0.5098183,0.2357575,1.48871,0.2626333,-0.01426425,0.03588157,0.04040674,-0.4197632,0.8566171,-0.2446614,0.3821266,1.536376,0.1872976,-0.2393211,1.203274,0.2567425,295.7896,259.2018,355.8442,True
2,2.400001,-0.1728918,-0.1227742,-0.003884718,-1.367398,-4.667494,-2.120167,0.101993,1.336326,0.3376787,-0.4858421,0.6628873,0.1,15.8,-0.02806981,0.1025565,0.172297,-0.331457,-3.078414,-0.511658,0.2356247,1.4887,0.2622457,-0.0155852,-0.007869558,0.01711721,-0.4199693,0.8523376,-0.2404656,0.3819818,1.53633,0.1870081,-0.2397187,1.203147,0.2565399,295.819,259.4682,355.4203,True
2,2.411112,-0.1516584,-0.08643761,0.006513335,-1.36788,-4.667284,-2.119267,0.1019059,1.33639,0.3373237,-0.4785977,0.6511764,0.1,15.8,-0.06039564,0.07932866,0.04030757,-0.3354459,-3.085412,-0.5030293,0.2356465,1.488732,0.2621739,-0.02007089,-0.02710945,-0.006219028,-0.420584,0.8495607,-0.2374472,0.381898,1.536346,0.1867411,-0.239873,1.202979,0.2562242,295.6481,259.4994,355.2722,True
2,2.422223,-0.1187307,-0.0372191,0.02746959,-1.369545,-4.667101,-2.119084,0.1019952,1.336387,0.3370128,-0.4711286,0.672015,0.1,15.8,-0.02721317,0.05665902,0.06213956,-0.3339742,-3.083092,-0.5060818,0.235578,1.488869,0.2620444,-0.02847463,-0.02704718,0.008761467,-0.4199107,0.8497905,-0.236942,0.381722,1.536319,0.1864045,-0.2398049,1.20273,0.255915,295.3702,259.5777,355.1613,True
2,2.433334,-0.1006452,-0.02004405,0.04119974,-1.370214,-4.666368,-2.118747,0.1019176,1.336491,0.3366895,-0.4631029,0.7229563,0.1,15.8,-0.0243152,0.02059548,0.04367445,-0.3336334,-3.085983,-0.5032027,0.2355942,1.488905,0.2618284,-0.01654677,-0.03018509,0.03423408,-0.418609,0.8491837,-0.2367236,0.3816299,1.536304,0.1860859,-0.2395922,1.202417,0.2556909,295.0204,259.94,354.8359,True
2,2.444445,-0.06545688,-0.03478971,0.05514352,-1.370052,-4.664875,-2.119598,0.1022229,1.336497,0.3363669,-0.4560994,0.6292001,1.7,14.6,-0.04470163,-0.009120055,0.03829313,-0.3329484,-3.088743,-0.499331,0.2357311,1.48912,0.2615504,-0.004824443,-0.02380512,0.03412007,-0.4182191,0.849565,-0.2373697,0.3815836,1.53633,0.185782,-0.2392655,1.202115,0.2556747,294.7327,260.143,354.7288,True
2,2.455556,-0.06545688,-0.03478971,0.05514352,-1.370052,-4.664875,-2.119598,0.1022229,1.336497,0.3363669,-0.4485349,0.6816717,1.7,14.6,-0.04470163,-0.009120055,0.03829313,-0.3329484,-3.088743,-0.499331,0.2357311,1.48912,0.2615504,-0.004824443,-0.02380512,0.03412007,-0.4182191,0.849565,-0.2373697,0.3815836,1.53633,0.185782,-0.2389151,1.201804,0.2557364,294.4236,260.6445,354.3586,True
2,2.466667,-0.04734812,-0.03586281,0.04875251,-1.369645,-4.66367,-2.119252,0.1026269,1.336424,0.3358765,-0.44191,0.5954085,1.7,14.6,-0.01473179,0.008835575,0.04559963,-0.3318075,-3.084642,-0.5036682,0.2361203,1.489331,0.261153,0.02364847,-0.02929092,-0.00125643,-0.4192082,0.8465763,-0.2360179,0.3816319,1.536276,0.1851454,-0.238623,1.201503,0.2558275,294.152,261.0536,354.0197,True
2,2.477778,-0.04415283,-0.03369873,0.05300488,-1.369841,-4.662781,-2.11902,0.1027003,1.336415,0.3356533,-0.4355637,0.5708409,1.7,14.6,0.01562807,0.006003243,-0.005873745,-0.3335625,-3.087447,-0.5023018,0.2362707,1.48953,0.2609434,0.03320207,-0.02932291,-0.005602554,-0.4194005,0.8454778,-0.2357481,0.3817095,1.536307,0.1848135,-0.2382665,1.201201,0.2559679,293.8163,261.4271,353.6855,True
2,2.488889,-0.01854637,-0.05390755,0.0488727,-1.368964,-4.661867,-2.119859,0.1028818,1.336353,0.3354259,-0.4282667,0.6582974,1.7,14.6,0.04001542,-0.005723331,-0.01368423,-0.3334805,-3.089238,-0.5018724,0.2363304,1.489515,0.2607706,0.02385091,-0.03453989,0.02432302,-0.4178947,0.8450888,-0.2352836,0.3818007,1.536322,0.1843476,-0.2377289,1.200866,0.2559556,293.3544,261.7404,353.5314,True
2,2.5,0.01550953,-0.03894134,0.04449333,-1.369217,-4.661771,-2.121214,0.1032523,1.336295,0.3352926,-0.4221281,0.5518007,5.2,7.2,0.03253778,-0.001414359,-0.01676787,-0.3338811,-3.089671,-0.5015404,0.2364198,1.489698,0.2606244,0.01436722,-0.05897355,0.04152311,-0.4164657,0.8420081,-0.2322796,0.3818213,1.536321,0.1839204,-0.2372997,1.20056,0.2559259,292.9748,261.8499,353.5199,True
2,2.511111,0.01973135,-0.02084853,0.04117276,-1.36975,-4.661665,-2.121485,0.1035516,1.336324,0.3350964,-0.4174084,0.4233083,5.2,7.2,0.01909326,0.022843,0.01554613,-0.3332632,-3.084737,-0.5058957,0.2365359,1.489913,0.2603881,0.02190055,-0.07918297,0.05538056,-0.4149621,0.8387255,-0.2297211,0.3818819,1.536405,0.1835816,-0.2369902,1.200295,0.2559204,292.6932,261.976,353.4589,True
2,2.522222,0.01324523,0.02494489,0.04085756,-1.371615,-4.662298,-2.121266,0.1040408,1.336257,0.3349352,-0.4127133,0.4223432,5.2,7.2,-0.01291063,0.07425182,-0.003912669,-0.3352536,-3.078546,-0.5104148,0.2368996,1.489992,0.2601397,0.03339775,-0.07715264,0.02864861,-0.4153967,0.8365651,-0.2284521,0.3821385,1.536517,0.1833708,-0.2367352,1.19997,0.2558627,292.2599,263.3564,352.1554,True
2,2.533333,0.02705233,0.0441271,0.03645908,-1.372725,-4.662748,-2.121961,0.1045382,1.336359,0.3349149,-0.406866,0.528218,5.2,7.2,-0.005457684,0.125503,-0.01951507,-0.3376468,-3.070861,-0.51789,0.2372575,1.490136,0.259937,0.03514159,-0.08795106,-0.01714005,-0.416871,0.8324741,-0.2251644,0.3824831,1.536547,0.1831281,-0.2362914,1.199596,0.2561093,291.8371,264.1286,351.4292,True
2,2.544444,0.06968103,0.03453153,0.02266756,-1.372676,-4.663013,-2.124234,0.1051168,1.336569,0.3349333,-0.4022806,0.4124969,6.7,3.7,0.04293674,0.1356375,0.02163436,-0.3368217,-3.062933,-0.5278071,0.2378823,1.490501,0.2598267,0.03825002,-0.08585742,-0.02782024,-0.4172449,0.8300971,-0.2234874,0.3827559,1.536593,0.1827445,-0.2359007,1.199302,0.2563349,291.4839,265.0409,350.6118,True
2,2.555555,0.07395916,0.0238369,0.01528314,-1.372444,-4.662973,-2.125104,0.1055462,1.336664,0.3348465,-0.399619,0.2380023,6.7,3.7,0.03493425,0.04107439,-0.002602883,-0.3367482,-3.068772,-0.5225436,0.2382644,1.490783,0.2596893,0.03077108,-0.06988887,-0.03314104,-0.4177477,0.8292289,-0.2227364,0.3830827,1.536783,0.1824679,-0.2355705,1.199151,0.2564206,291.1875,265.3513,350.3567,True
2,2.566666,0.08261005,-0.04130374,-0.009835939,-1.369393,-4.662352,-2.126515,0.1059731,1.336897,0.3348997,-0.3981788,0.1280315,6.7,3.7,0.03171225,0.001583911,0.005634644,-0.3353474,-3.075405,-0.5162588,0.2385956,1.491123,0.2596869,0.01480506,-0.0655977,-0.03195304,-0.4178388,0.8278507,-0.2210179,0.3833238,1.53686,0.1821024,-0.2352892,1.199058,0.2564629,290.9344,265.4847,350.2652,True
2,2.577777,0.09016946,-0.09254778,-0.02758173,-1.366682,-4.661479,-2.127917,0.106318,1.337018,0.3349612,-0.3941548,0.3652999,6.7,3.7,0.02522113,-0.02287835,0.003354761,-0.3348137,-3.078077,-0.5137699,0.2388671,1.491379,0.2596436,0.01185333,-0.06550284,-0.002106262,-0.4167229,0.8264759,-0.2197862,0.383606,1.537021,0.1817341,-0.234991,1.19884,0.2566643,290.6712,266.3755,349.4599,True
2,2.588888,0.09447691,-0.1160412,-0.03700809,-1.364458,-4.660965,-2.129241,0.1067812,1.337145,0.3349805,-0.3920653,0.1865367,6.7,3.7,0.0323135,-0.02365735,-0.03188442,-0.3361804,-3.081437,-0.5111855,0.2391025,1.491635,0.2595367,0.01831935,-0.07293099,0.008519128,-0.4159911,0.8242902,-0.2182293,0.3838459,1.537124,0.1813989,-0.2346642,1.198615,0.2569478,290.3641,267.2018,348.6471,True
2,2.599999,0.1029617,-0.1001041,-0.04564446,-1.363623,-4.66141,-2.130597,0.1075384,1.337216,0.3351402,-0.390062,0.1805826,7,1.1,0.06137,0.04222684,-0.02307021,-0.3374545,-3.073762,-0.520178,0.2393316,1.49169,0.2594483,0.02135992,-0.08258697,-0.009589434,-0.4165514,0.8204319,-0.2151893,0.3842266,1.537287,0.181149,-0.2343932,1.198397,0.257136,289.9783,268.887,346.9434,True
2,2.61111,0.1039558,-0.06920168,-0.04479641,-1.363647,-4.662021,-2.131532,0.1082561,1.337227,0.335269,-0.3883384,0.1551201,7,1.1,0.06889872,0.08273058,-0.02811531,-0.3390358,-3.068057,-0.526601,0.2396527,1.491754,0.2592738,0.02124339,-0.0858216,-0.02236343,-0.4170516,0.8176039,-0.2127144,0.3847058,1.537376,0.180928,-0.2340782,1.198244,0.2573802,289.6314,268.9747,346.719,True
2,2.622221,0.09640758,-0.02441396,-0.03658677,-1.364704,-4.662926,-2.132115,0.1088495,1.337147,0.3354604,-0.3870915,0.1119138,7,1.1,0.07002519,0.1157927,-0.03209154,-0.3407158,-3.062623,-0.5324357,0.2403034,1.491825,0.259196,0.02230533,-0.06878688,-0.02561915,-0.4173482,0.8171446,-0.21254,0.3850939,1.537445,0.1807852,-0.233779,1.198143,0.2575297,289.3261,269.0809,346.5609,True
2,2.633332,0.09745601,-0.01586105,-0.03237877,-1.364649,-4.663036,-2.133212,0.1093727,1.337211,0.3356974,-0.3854643,0.1471312,7,1.1,0.09250934,0.1359163,-0.02681608,-0.3418599,-3.057022,-0.5395072,0.240821,1.491985,0.2591615,0.02237775,-0.05491781,-0.02033661,-0.4173482,0.8170308,-0.2128129,0.3855059,1.537501,0.1805923,-0.2334552,1.198061,0.2576618,289.0071,269.2153,346.4024,True
2,2.644443,0.1081571,-0.04041396,-0.0428646,-1.363043,-4.663029,-2.134808,0.109947,1.337436,0.3359864,-0.384064,0.1261966,7.3,0.4,0.1021671,0.113391,-0.01326671,-0.3418583,-3.055618,-0.5422928,0.2412761,1.492346,0.2591753,0.03718597,-0.07627118,-0.02890738,-0.4175118,0.8127298,-0.2097913,0.385925,1.537656,0.1804023,-0.2331303,1.197881,0.2579412,288.7334,270.3917,345.2959,True
2,2.655554,0.1135443,-0.071402,-0.05756918,-1.360616,-4.662994,-2.136249,0.1103659,1.3377,0.3361549,-0.3834936,0.05063512,7.3,0.4,0.09902214,0.05675025,0.008628413,-0.3404452,-3.057904,-0.5410449,0.2416219,1.49257,0.2591405,0.04122859,-0.09765241,-0.05231219,-0.4185935,0.8075274,-0.2057188,0.3863327,1.537757,0.1802332,-0.2328598,1.197729,0.2582475,288.5076,271.5257,344.1933,True
2,2.666665,0.1168085,-0.1078207,-0.08714712,-1.357327,-4.663374,-2.137578,0.1108546,1.338051,0.3364468,-0.3832251,0.02370101,7.3,0.4,0.08948202,0.002259135,0.02954845,-0.3385112,-3.061969,-0.5378057,0.2420279,1.492925,0.2591233,0.01576348,-0.08479447,-0.0414882,-0.4185498,0.8066398,-0.2040533,0.386788,1.537891,0.1800561,-0.2325983,1.197614,0.258558,288.2777,272.4636,343.2436,True
