loc,t,aDotUA,bDotUA,gDotUA,aUA,bUA,gUA,xUA,yUA,zUA,qE,qDotE,emgA,emgB,aDotSH,bDotSH,gDotSH,aSH,bSH,gSH,xSH,ySH,zSH,aDotUB,bDotUB,gDotUB,aUB,bUB,gUB,xUB,yUB,zUB,xHand,yHand,zHand,aHand,bHand,gHand,enable
0,0,-0.3347122,-0.590943,-0.1525263,-1.330011,-3.99008,2.935315,0.6132663,1.129015,0.490546,-1.615172,0.6377622,3,28.7,-0.3570304,0.2285382,-0.05277435,-0.7840133,-4.296997,0.1042505,0.661737,1.30952,0.4173336,-0.167254,0.2112435,-0.06287997,-0.948447,0.3542964,-0.01984188,0.7880654,1.386168,0.2638428,0.4808231,0.9758697,0.3001526,304.5155,219.5052,0.1000789,True
0,0.01111111,-0.335791,-0.5791814,-0.1430195,-1.329937,-3.983597,2.937521,0.6120445,1.129013,0.4894421,-1.608162,0.631027,3,28.7,-0.3496117,0.239196,-0.05814276,-0.7844054,-4.292784,0.1047834,0.6613857,1.309418,0.4168532,-0.1703318,0.2101826,-0.05542205,-0.9491304,0.357141,-0.01937716,0.7883974,1.386204,0.2637711,0.4804502,0.9749266,0.2987811,304.8741,218.1539,1.208295,True
0,0.02222222,-0.3304685,-0.5641821,-0.1303324,-1.330134,-3.977616,2.939468,0.6109707,1.128965,0.4883566,-1.601393,0.6089534,3,28.7,-0.3463803,0.2530397,-0.05389184,-0.7845235,-4.288114,0.1051581,0.6610496,1.309462,0.416312,-0.1713405,0.2005825,-0.05010469,-0.9496012,0.3593663,-0.01872495,0.7886598,1.386112,0.2635257,0.4803502,0.9737603,0.2973557,305.2641,217.2146,1.933436,True
0,0.03333334,-0.3241038,-0.5438461,-0.1176894,-1.330251,-3.972071,2.941534,0.6100014,1.129026,0.4872677,-1.5946,0.611559,1.8,21.5,-0.3473432,0.2679403,-0.04108426,-0.784188,-4.283255,0.1055709,0.6607704,1.309529,0.4157953,-0.1713606,0.1899314,-0.05118931,-0.9502191,0.3615019,-0.01807434,0.788994,1.386052,0.2633944,0.480316,0.9734843,0.2965167,305.79,215.9886,3.014484,True
0,0.04444445,-0.3251879,-0.5321036,-0.1124296,-1.330292,-3.966178,2.943773,0.6088694,1.129029,0.4862084,-1.588333,0.563421,1.8,21.5,-0.3397106,0.2625908,-0.01771069,-0.7832868,-4.279529,0.1065222,0.6605215,1.309601,0.415247,-0.1629094,0.1814073,-0.05557668,-0.9510867,0.3635826,-0.01761441,0.7893715,1.385882,0.2632163,0.4802051,0.9733604,0.2960137,306.1387,215.6821,3.338631,True
0,0.05555556,-0.3315964,-0.5235885,-0.111407,-1.330214,-3.96036,2.946245,0.6080049,1.129082,0.4851816,-1.581914,0.5778934,1.8,21.5,-0.3426861,0.2337974,0.01104555,-0.78205,-4.277259,0.1088168,0.6603615,1.309641,0.4147253,-0.1555518,0.1707633,-0.06314463,-0.9520465,0.3654536,-0.01720402,0.7897505,1.385787,0.2630785,0.4800751,0.9732709,0.2956435,306.4003,215.6596,3.423992,True
0,0.06666667,-0.3337387,-0.5182959,-0.113562,-1.330067,-3.954233,2.948534,0.607065,1.129038,0.4841871,-1.575407,0.5860826,1.8,21.5,-0.3427213,0.2135603,0.006765123,-0.7819393,-4.274944,0.1109641,0.6604469,1.309724,0.4141431,-0.1524722,0.1622528,-0.07170736,-0.9529642,0.3673198,-0.01663144,0.7902715,1.385721,0.26298,0.479938,0.9731898,0.2952495,306.6801,215.5749,3.551368,True
0,0.07777778,-0.341209,-0.5172921,-0.1210143,-1.329596,-3.948165,2.951109,0.6063375,1.129145,0.4832361,-1.569108,0.5670311,0.9,20.5,-0.3321622,0.2018529,-0.005048677,-0.7822136,-4.272314,0.1124112,0.6604159,1.309806,0.4137292,-0.1409388,0.1420303,-0.08573689,-0.9544135,0.3683804,-0.01606818,0.7906607,1.385647,0.2628272,0.4798018,0.9731149,0.2947879,307.0073,215.3419,3.794199,True
0,0.08888889,-0.3465827,-0.50775,-0.1264024,-1.328929,-3.942246,2.953995,0.6057541,1.129198,0.4823642,-1.56331,0.5215357,0.9,20.5,-0.3054897,0.1879947,5.748495E-05,-0.7818705,-4.269836,0.1131985,0.6603363,1.309832,0.413399,-0.1281849,0.1196592,-0.08699414,-0.9553238,0.3692517,-0.0155201,0.7910423,1.38572,0.2627614,0.4797296,0.9730514,0.2942846,307.3401,214.9919,4.163103,True
0,0.1,-0.3540758,-0.4917933,-0.1275539,-1.328399,-3.936851,2.956962,0.6051313,1.129295,0.4814942,-1.557305,0.5407937,0.9,20.5,-0.2820233,0.1720071,0.004118166,-0.7815233,-4.267891,0.1141998,0.6603873,1.309901,0.4130301,-0.1153496,0.1057947,-0.08291539,-0.9560823,0.3701922,-0.0152719,0.7914221,1.385656,0.2626178,0.4797201,0.9729984,0.2937633,307.6638,214.5424,4.634886,True
0,0.1111111,-0.3541367,-0.4555479,-0.1213757,-1.328086,-3.932587,2.959888,0.6047543,1.12933,0.4808168,-1.551507,0.5220798,0.9,20.5,-0.2425967,0.1389771,0.005909024,-0.7812415,-4.267198,0.1150925,0.6605752,1.309963,0.4126892,-0.1026538,0.08555764,-0.08843239,-0.9572157,0.3706132,-0.01465085,0.7918507,1.385583,0.2623782,0.4796943,0.9729722,0.2929771,307.7322,213.8633,5.245501,True
0,0.1222222,-0.3574321,-0.4033112,-0.1131695,-1.327598,-3.9294,2.963148,0.6043902,1.129582,0.4801176,-1.546264,0.471569,0.9,20.5,-0.198899,0.0910307,0.008709201,-0.7811542,-4.267981,0.1163548,0.6608323,1.310055,0.4123864,-0.08671163,0.06424946,-0.08972581,-0.9581468,0.3707669,-0.01414858,0.7922032,1.385441,0.2620218,0.4798213,0.9729427,0.2923579,308.0875,213.0596,6.042893,True
0,0.1333333,-0.3543355,-0.3467537,-0.09860525,-1.327328,-3.927301,2.966486,0.6042809,1.129695,0.4796088,-1.541508,0.4276041,0,15.2,-0.1584399,0.01858519,0.008313261,-0.7813416,-4.271086,0.1191253,0.6611853,1.31,0.4120495,-0.06547841,0.03548118,-0.09430277,-0.9593346,0.3699956,-0.01370276,0.7926139,1.385373,0.2616758,0.4799092,0.9729316,0.291824,308.4081,212.4943,6.638039,True
0,0.1444445,-0.3523069,-0.2955773,-0.09038841,-1.327046,-3.925215,2.969852,0.6039578,1.129704,0.4791172,-1.536532,0.4481838,0,15.2,-0.1190082,-0.04747869,0.01113676,-0.7813459,-4.274816,0.1218985,0.6616503,1.310102,0.4117892,-0.04949809,0.006707691,-0.09241532,-0.9601516,0.3690639,-0.01304097,0.7929996,1.38533,0.2613542,0.4799645,0.9729299,0.2914134,308.6577,212.1474,7.035375,True
0,0.1555556,-0.3417857,-0.2197965,-0.07062599,-1.326902,-3.925408,2.973351,0.6040852,1.129855,0.4787545,-1.531889,0.4176109,0,15.2,-0.08381107,-0.08903735,0.01720899,-0.7812474,-4.27818,0.124099,0.6620961,1.310227,0.4115698,-0.03888856,-0.01886201,-0.09472435,-0.961252,0.3677518,-0.0122058,0.7934202,1.385271,0.2610254,0.4799547,0.9729367,0.2910784,308.8807,211.9662,7.264746,True
0,0.1666667,-0.3259515,-0.1365634,-0.05091567,-1.326829,-3.926301,2.976634,0.6042533,1.129975,0.4783866,-1.52717,0.4248478,0,15.2,-0.06563142,-0.09864563,0.02664864,-0.7807467,-4.280119,0.1258056,0.662578,1.310331,0.4113543,-0.03038329,-0.0348321,-0.09485287,-0.9622139,0.3669514,-0.01156318,0.7938578,1.385134,0.2607849,0.4799202,0.9729307,0.2908275,309.05,211.8768,7.391007,True
0,0.1777778,-0.3122461,-0.05440634,-0.03333277,-1.326647,-3.92819,2.980067,0.6046443,1.130104,0.4780993,-1.522952,0.3790036,0,15.2,-0.03247734,-0.1146481,0.04341741,-0.7799142,-4.28289,0.1270338,0.6631009,1.310444,0.4111485,-0.01976493,-0.04655293,-0.09713666,-0.9633564,0.3658103,-0.0110689,0.7942466,1.385033,0.2604461,0.4798436,0.9729164,0.2906264,309.2005,211.8509,7.432943,True
0,0.1888889,-0.3017786,0.03300207,-0.02642596,-1.326098,-3.931171,2.983945,0.6051602,1.130207,0.4779692,-1.518927,0.3620652,0,19.2,-0.01114243,-0.1263785,0.04750246,-0.7794386,-4.285493,0.1284,0.6635494,1.310509,0.4109728,-0.0123419,-0.05719981,-0.09937552,-0.9644622,0.3647966,-0.01056236,0.7946757,1.385023,0.2600853,0.4797708,0.9729132,0.2905064,309.2938,211.959,7.373202,True
0,0.2,-0.2838361,0.1236666,-0.01316573,-1.32564,-3.935124,2.98744,0.6057609,1.130345,0.477854,-1.515128,0.3419816,0,19.2,0.01655978,-0.1466242,0.04832927,-0.7791834,-4.288908,0.1296342,0.6640946,1.310627,0.4107945,-0.002633646,-0.07959736,-0.08887528,-0.96494,0.3628369,-0.009770073,0.7950048,1.384937,0.2596593,0.4797057,0.972913,0.2904275,309.3525,212.1424,7.261762,True
0,0.2111111,-0.2711807,0.1919432,-0.001884341,-1.325305,-3.939614,2.991132,0.606379,1.130461,0.4777827,-1.511553,0.3220696,0,19.2,0.04002149,-0.1604827,0.05133226,-0.7787717,-4.292243,0.130794,0.6646924,1.310742,0.410574,0.002813324,-0.09239923,-0.07831363,-0.9654475,0.3611426,-0.008975386,0.7954661,1.38492,0.2592609,0.4796706,0.972915,0.2903875,309.3765,212.3123,7.162773,True
0,0.2222222,-0.2553962,0.2954014,0.01344319,-1.325014,-3.946258,2.995108,0.6071762,1.130554,0.4779069,-1.509211,0.209764,0,19.2,0.05285519,-0.1572955,0.05762715,-0.7781234,-4.294719,0.1315024,0.6652604,1.310834,0.4103878,0.01245873,-0.1051967,-0.07313101,-0.9661022,0.359288,-0.008393485,0.7958895,1.384845,0.2587616,0.4796215,0.9729238,0.2903931,309.3819,212.49,7.031801,True
0,0.2333333,-0.2374841,0.397791,0.02663876,-1.324611,-3.9543,2.999114,0.6081162,1.130653,0.4780929,-1.506662,0.2299306,0,16.3,0.08504511,-0.1147201,0.08618435,-0.776148,-4.294732,0.1295386,0.6660103,1.310933,0.4102967,0.02527609,-0.1126676,-0.07010739,-0.9667392,0.3574555,-0.008060323,0.7963027,1.384752,0.2583163,0.4795275,0.9729373,0.2904464,309.373,212.7646,6.798536,True
0,0.2444444,-0.2312198,0.4628158,0.03155463,-1.324082,-3.961412,3.003315,0.6089274,1.13075,0.47822,-1.504673,0.1786781,0,16.3,0.1043736,-0.09663245,0.1052229,-0.774517,-4.295697,0.1284499,0.6668186,1.311018,0.4101508,0.03908939,-0.1275895,-0.07243786,-0.9676521,0.3550919,-0.007625695,0.796654,1.38465,0.257797,0.4793783,0.9729517,0.2905485,309.355,213.1299,6.458603,True
0,0.2555556,-0.2186076,0.5459539,0.03422183,-1.323328,-3.970639,3.00754,0.6100167,1.13088,0.4784992,-1.503074,0.1436073,0,16.3,0.15146,-0.1094525,0.1325392,-0.7722704,-4.298353,0.1271068,0.6678889,1.3111,0.4101331,0.06341463,-0.1531482,-0.08557079,-0.9690439,0.3519444,-0.007387076,0.7971018,1.384543,0.2572927,0.4791668,0.9729674,0.2907532,309.2962,213.6422,5.954148,True
0,0.2666667,-0.2112558,0.5928228,0.03071859,-1.322229,-3.978728,3.011566,0.6111448,1.131042,0.4787309,-1.501008,0.1866804,0,16.3,0.1632446,-0.1233116,0.1409535,-0.7707534,-4.301393,0.127102,0.6687348,1.311185,0.4100378,0.07717896,-0.1701961,-0.09109741,-0.9701704,0.3489548,-0.006853112,0.7974131,1.384398,0.2567956,0.478899,0.972977,0.2910491,309.1978,214.3369,5.27322,True
0,0.2777778,-0.1986578,0.6662717,0.01746804,-1.320635,-3.98869,3.015886,0.6124878,1.131173,0.4791424,-1.50001,0.08885185,0,16.3,0.2143969,-0.2149445,0.1447172,-0.7697654,-4.309772,0.1289644,0.6700635,1.311328,0.4101298,0.09309141,-0.1904387,-0.09559329,-0.9713742,0.3455374,-0.006509831,0.7978436,1.384299,0.2562695,0.4786065,0.9729834,0.2913525,309.1136,215.0487,4.561539,True
0,0.2888889,-0.1955419,0.6906669,-0.001874894,-1.318973,-3.99721,3.020148,0.6136918,1.131377,0.4793773,-1.498735,0.1151688,0,14.8,0.2473398,-0.2991023,0.134777,-0.7695236,-4.318584,0.1314808,0.6713204,1.311332,0.4101491,0.1079605,-0.2202777,-0.09796111,-0.9724405,0.3413415,-0.00581448,0.7984729,1.384248,0.25564,0.4783433,0.9729961,0.2916996,308.9991,215.7652,3.846804,True
0,0.3,-0.1923941,0.7033958,-0.01260972,-1.317522,-4.005443,3.024309,0.614875,1.131569,0.4796927,-1.497806,0.08332266,0,14.8,0.2674986,-0.3406415,0.1249869,-0.7691726,-4.326134,0.1332662,0.6725385,1.311397,0.4101853,0.1239257,-0.2405282,-0.09819628,-0.9735084,0.337278,-0.005441637,0.7989088,1.384144,0.2550957,0.4781485,0.9730113,0.2920671,308.8515,216.4085,3.205402,True
0,0.3111111,-0.1945702,0.7085937,-0.03287554,-1.315522,-4.013474,3.028589,0.6161317,1.131939,0.4801359,-1.496593,0.1096707,0,14.8,0.2929941,-0.3832476,0.1172808,-0.7689207,-4.334077,0.1350806,0.6738319,1.311488,0.4103715,0.1505372,-0.2788971,-0.09859305,-0.9745007,0.3320038,-0.00505468,0.7994518,1.384022,0.2545767,0.4779752,0.9730278,0.2924767,308.6738,217.0432,2.560611,True
0,0.3222222,-0.1935583,0.7180539,-0.05423474,-1.313393,-4.021746,3.032804,0.6174237,1.132279,0.4806142,-1.495798,0.0712589,0,14.8,0.3133344,-0.3939181,0.1298894,-0.767727,-4.340983,0.1359863,0.675128,1.311685,0.4105475,0.1569949,-0.2948945,-0.09336989,-0.9752693,0.32749,-0.004542287,0.7998775,1.383927,0.2540176,0.4777924,0.9730479,0.2928457,308.5312,217.6767,1.925871,True
0,0.3333333,-0.1989248,0.7189518,-0.0797984,-1.310871,-4.029764,3.03723,0.6187019,1.132713,0.4810786,-1.49497,0.07476512,0,16.2,0.3316924,-0.3470807,0.1606908,-0.765295,-4.34491,0.1345613,0.676632,1.311876,0.4106376,0.1752072,-0.3183599,-0.08405035,-0.975852,0.3222796,-0.004179033,0.8003488,1.383852,0.2533915,0.4776422,0.9730821,0.2931815,308.406,218.2082,1.382825,True
0,0.3444445,-0.2053483,0.7166961,-0.09788395,-1.308401,-4.037624,3.041837,0.620074,1.133073,0.481591,-1.494519,0.04033942,0,16.2,0.3512124,-0.3013208,0.2032023,-0.7618601,-4.348103,0.1323506,0.6781917,1.31209,0.410779,0.196603,-0.333305,-0.07581346,-0.976317,0.3172833,-0.004179299,0.8007853,1.383784,0.252754,0.4775324,0.9731376,0.2935207,308.2724,218.6375,0.9208777,True
0,0.3555556,-0.2245536,0.7025672,-0.1371791,-1.304824,-4.044899,3.046895,0.6213678,1.133685,0.4820619,-1.493792,0.06584641,0,16.2,0.3953385,-0.2427962,0.2593827,-0.7570797,-4.349934,0.1277585,0.6800337,1.312358,0.4108734,0.242321,-0.385525,-0.0807377,-0.9772853,0.3100697,-0.004393683,0.8013238,1.383664,0.2520087,0.4774246,0.9731996,0.2938854,308.1259,219.0666,0.4466241,True
0,0.3666667,-0.236277,0.6821052,-0.1689955,-1.301257,-4.051671,3.051676,0.6228259,1.134182,0.482568,-1.493161,0.05686395,0,16.2,0.4093516,-0.2460214,0.2805736,-0.7538077,-4.35504,0.1265252,0.681897,1.312621,0.4110036,0.2570914,-0.4323882,-0.09059201,-0.9785716,0.3025074,-0.003493535,0.8018823,1.383558,0.2513793,0.4771103,0.973263,0.2940119,307.6154,219.9533,359.6155,True
0,0.3777778,-0.2714173,0.6272729,-0.2389223,-1.295867,-4.056468,3.057202,0.6243203,1.134867,0.4830463,-1.492258,0.08202527,0,16.2,0.4129005,-0.3376881,0.3273211,-0.7493997,-4.366373,0.1300573,0.6840493,1.312957,0.4111605,0.281191,-0.5015943,-0.1197837,-0.9808593,0.2929144,-0.002121474,0.8025339,1.383418,0.2505696,0.4768071,0.9733321,0.2940367,307.2015,220.4262,359.0974,True
0,0.3888889,-0.3033725,0.599257,-0.2813163,-1.29084,-4.062234,3.063201,0.6257352,1.135572,0.4835749,-1.492146,0.009335772,0,15.1,0.4281088,-0.5209645,0.3674836,-0.7457362,-4.385344,0.1386253,0.6863827,1.313215,0.4113481,0.3073638,-0.5548201,-0.1542927,-0.9836838,0.283329,-0.001054079,0.8030959,1.38325,0.24966,0.4763998,0.973447,0.2939703,306.7305,220.323,359.2796,True
0,0.4,-0.3151167,0.5969551,-0.3057944,-1.286151,-4.068897,3.068828,0.6272587,1.136256,0.4840231,-1.490797,0.1233403,0,15.1,0.441922,-0.5891445,0.3630338,-0.7432212,-4.398847,0.1430078,0.6885684,1.313452,0.4115198,0.3167128,-0.5760984,-0.1725592,-0.9862484,0.2746951,-0.0001648497,0.8037119,1.383112,0.2488563,0.4750067,0.9736926,0.2940527,305.7764,218.5295,1.850641,True
0,0.4111111,-0.3397255,0.6286992,-0.332585,-1.281028,-4.076866,3.075709,0.628847,1.137013,0.4845834,-1.490448,0.03068838,0,15.1,0.4779421,-0.6562312,0.3392448,-0.7415822,-4.413167,0.1470901,0.6909763,1.31361,0.4116912,0.3328499,-0.6059692,-0.1589648,-0.9874767,0.2655145,0.0005968144,0.8044043,1.382899,0.2479167,0.4735771,0.9745849,0.2956069,305.8909,217.3931,3.754045,True
0,0.4222222,-0.3493725,0.6563433,-0.339125,-1.276507,-4.085253,3.082177,0.6305007,1.137665,0.4852545,-1.491113,-0.0608879,0,15.1,0.5055477,-0.6679419,0.3283564,-0.7394016,-4.424957,0.149329,0.6932427,1.31382,0.4118979,0.3351563,-0.6134656,-0.1440832,-0.988502,0.2568816,0.001615207,0.8050804,1.382812,0.2471337,0.4721695,0.9760643,0.2977797,305.7734,217.4804,4.52201,True
0,0.4333333,-0.3569353,0.7053303,-0.3394093,-1.272165,-4.094962,3.089249,0.6321553,1.138405,0.4858274,-1.490373,0.06835366,0,9.8,0.5224979,-0.683911,0.3164879,-0.7375135,-4.437681,0.152275,0.6955943,1.3141,0.4120543,0.341753,-0.6220232,-0.1271344,-0.9893532,0.2481543,0.002363289,0.8057209,1.382657,0.2462955,0.4708358,0.978059,0.3002981,305.5506,217.6222,5.295941,True
0,0.4444444,-0.360192,0.7373061,-0.3385258,-1.268008,-4.104524,3.09607,0.6338479,1.139002,0.4864409,-1.490885,-0.04749833,0,9.8,0.5256776,-0.7116152,0.3164346,-0.7353622,-4.451359,0.1566636,0.6979547,1.314406,0.4121168,0.3437759,-0.6380099,-0.1357127,-0.9912669,0.2387843,0.003532417,0.8064574,1.382507,0.2454305,0.4694992,0.980439,0.3028881,305.217,217.6488,6.172835,True
0,0.4555556,-0.3645557,0.7906123,-0.3303179,-1.26421,-4.115487,3.103515,0.6355813,1.139728,0.4870145,-1.490806,0.007785798,0,9.8,0.5150214,-0.7339846,0.3164937,-0.733311,-4.465307,0.1616557,0.7002405,1.314693,0.4121845,0.3476552,-0.6571329,-0.1656265,-0.9940931,0.2293745,0.004694088,0.8071801,1.382324,0.2445672,0.4681621,0.9830586,0.3053648,304.7571,217.6442,7.039875,True
0,0.4666667,-0.3646731,0.8386003,-0.3252468,-1.260781,-4.126986,3.111199,0.6375329,1.140624,0.4878118,-1.491051,-0.02244831,0,9.8,0.5032289,-0.7829819,0.3090728,-0.7319432,-4.481192,0.1683973,0.7025406,1.315,0.4121602,0.3505516,-0.666698,-0.190177,-0.9970209,0.2199599,0.005743107,0.808116,1.382261,0.2436824,0.4668116,0.9857671,0.3076043,304.2445,217.6183,7.871111,True
0,0.4777778,-0.3700716,0.8791234,-0.316959,-1.257273,-4.138494,3.118994,0.6393803,1.141345,0.4884107,-1.490917,0.0123894,0,9.8,0.4817693,-0.8074711,0.2911011,-0.7310505,-4.496336,0.1750522,0.7048231,1.3152,0.4121113,0.3501763,-0.6762308,-0.2200205,-1.000528,0.2106647,0.006876282,0.8088794,1.382083,0.2428098,0.4655541,0.9884447,0.3096052,303.7175,217.5412,8.658109,True
0,0.4888889,-0.3679873,0.9101101,-0.3064961,-1.254047,-4.150395,3.126741,0.6412344,1.14202,0.4888706,-1.49087,0.004285854,0,7.6,0.4698124,-0.7978576,0.2624329,-0.7306334,-4.509377,0.180015,0.7070237,1.315458,0.4121182,0.3394522,-0.6762493,-0.2273262,-1.003169,0.2012315,0.008367119,0.8097234,1.381756,0.2418888,0.4644745,0.9910628,0.3114581,303.264,217.4926,9.296041,True
0,0.5,-0.3594828,0.9240289,-0.2970097,-1.250863,-4.161533,3.13396,0.6430842,1.142701,0.4894567,-1.490811,0.005269486,0,7.6,0.4632146,-0.7818589,0.2390604,-0.7302185,-4.521881,0.1845153,0.7092203,1.315666,0.4121194,0.3330821,-0.6634638,-0.2261589,-1.005723,0.1929973,0.009292302,0.8104566,1.38157,0.2410383,0.4636465,0.99365,0.3133037,302.8677,217.4528,9.850272,True
0,0.5111111,-0.3552265,0.9357867,-0.2928408,-1.24753,-4.172911,3.141275,0.6449099,1.143207,0.4898469,-1.491025,-0.01960812,0,7.6,0.4513452,-0.7456143,0.2189522,-0.7298313,-4.532901,0.1880746,0.711116,1.315818,0.4120162,0.3151666,-0.6379155,-0.2109749,-1.007587,0.1856587,0.01033919,0.8107293,1.38133,0.2402263,0.4628821,0.9961419,0.315101,302.4897,217.3987,10.42306,True
0,0.5222223,-0.3466998,0.9400773,-0.2896984,-1.244318,-4.183915,-3.134912,0.6468172,1.143743,0.4902298,-1.491369,-0.03127324,0,7.6,0.440726,-0.7168642,0.2243818,-0.7285706,-4.544121,0.1919519,0.7131059,1.315952,0.4119556,0.3089093,-0.623016,-0.2012913,-1.009673,0.1779916,0.01110458,0.8113226,1.38114,0.2394114,0.46213,0.9985235,0.3168736,302.1257,217.3565,11.00001,True
0,0.5333334,-0.3285654,0.9294695,-0.2885951,-1.241227,-4.194526,-3.128438,0.6485634,1.144231,0.490711,-1.491384,-0.001132018,0,7.6,0.423753,-0.6870512,0.2341359,-0.7269583,-4.554939,0.1959269,0.715001,1.316075,0.4118371,0.2994261,-0.6049135,-0.1936835,-1.011613,0.1708214,0.01192191,0.8119729,1.380901,0.2386432,0.4614291,1.000781,0.3186778,301.7685,217.2875,11.60784,True
0,0.5444446,-0.316806,0.9135264,-0.2853318,-1.238183,-4.204624,-3.122051,0.6504532,1.144778,0.4911575,-1.491561,-0.0162507,0.9,4,0.4013885,-0.6657528,0.2364728,-0.7255894,-4.565902,0.2004655,0.7170607,1.316311,0.4116406,0.2865386,-0.5857146,-0.2030775,-1.014305,0.163814,0.01279409,0.8126128,1.380809,0.2378812,0.460731,1.002877,0.3205049,301.4339,217.2266,12.23884,True
0,0.5555557,-0.2933134,0.8901659,-0.2809632,-1.235396,-4.214286,-3.116444,0.6520855,1.145194,0.4915957,-1.491936,-0.03421333,0.9,4,0.3736749,-0.6273929,0.2335359,-0.7242514,-4.574967,0.2040932,0.7187347,1.316375,0.4114664,0.2780154,-0.5675973,-0.2040045,-1.016692,0.1570951,0.01349024,0.8132553,1.380572,0.2371931,0.4601054,1.004827,0.3223893,301.1471,217.1863,12.84884,True
0,0.5666668,-0.2634298,0.8678913,-0.2776809,-1.232503,-4.224018,-3.111254,0.6538367,1.145536,0.4919736,-1.491828,0.0101253,0.9,4,0.3470215,-0.5826467,0.2306005,-0.7228485,-4.583317,0.2073692,0.7204714,1.316449,0.4113374,0.2715938,-0.5526471,-0.2050012,-1.0193,0.150877,0.01411475,0.8138381,1.380297,0.2364979,0.4595699,1.006637,0.3243465,300.9013,217.1665,13.41908,True
0,0.577778,-0.2452842,0.854107,-0.273362,-1.229919,-4.233592,-3.105991,0.6554055,1.145902,0.4923232,-1.492352,-0.04810876,0.9,4,0.3373352,-0.5357606,0.2179493,-0.7217705,-4.590563,0.2094174,0.7220119,1.316481,0.4111595,0.2567543,-0.5206868,-0.200497,-1.021445,0.1454609,0.01461809,0.8144158,1.380049,0.235842,0.4591476,1.008331,0.3263585,300.7012,217.1745,13.96809,True
0,0.5888891,-0.2057947,0.8308336,-0.26155,-1.227722,-4.24268,-3.102028,0.6569401,1.146214,0.4926987,-1.492717,-0.03304438,0.3,2.1,0.3254615,-0.499508,0.1967761,-0.7212272,-4.597373,0.2112808,0.7235478,1.316502,0.4110234,0.2503681,-0.4940277,-0.2014509,-1.023854,0.140363,0.01469239,0.8150932,1.379798,0.2351708,0.4587493,1.009887,0.3283579,300.4997,217.1817,14.50999,True
0,0.6000003,-0.18339,0.818157,-0.2540371,-1.225539,-4.252232,-3.09741,0.6585466,1.146646,0.493022,-1.492458,0.02373786,0.3,2.1,0.3179027,-0.4803213,0.1840738,-0.7206285,-4.605009,0.2137506,0.7251716,1.316478,0.4108608,0.2439816,-0.4865667,-0.2013579,-1.02615,0.1344225,0.01529613,0.8156624,1.379571,0.2345259,0.4583911,1.011293,0.3303421,300.3083,217.1965,15.03658,True
0,0.6111114,-0.1524442,0.7980208,-0.2475681,-1.223388,-4.260932,-3.093869,0.6599241,1.1469,0.4931979,-1.493365,-0.08329538,0.3,2.1,0.3018437,-0.4547456,0.1746394,-0.7199499,-4.61176,0.2161347,0.7266824,1.316564,0.4107447,0.2334635,-0.4716569,-0.1926985,-1.028283,0.1287777,0.01579601,0.8164555,1.379325,0.2338679,0.4580109,1.012556,0.332277,300.1595,217.2684,15.48297,True
0,0.6222225,-0.1236136,0.7843475,-0.2294118,-1.221774,-4.269962,-3.090356,0.6614619,1.147186,0.4934599,-1.492746,0.05710215,0.3,2.1,0.2836909,-0.4334251,0.1694801,-0.7191067,-4.618509,0.2186458,0.7281321,1.31651,0.4104922,0.2282431,-0.463156,-0.1851552,-1.030201,0.122843,0.0163582,0.8170825,1.379115,0.233201,0.457696,1.013699,0.3341983,300.0272,217.3822,15.87016,True
0,0.6333337,-0.1076191,0.8070154,-0.1858931,-1.221636,-4.280259,-3.086185,0.662868,1.14736,0.4937236,-1.493221,-0.04408046,0.3,2.1,0.2749946,-0.4344631,0.1471747,-0.7192905,-4.625998,0.221518,0.7295092,1.316415,0.4102676,0.2272314,-0.4407901,-0.1819047,-1.032161,0.1180988,0.01630121,0.8175888,1.378886,0.2325797,0.4574119,1.01475,0.336094,299.939,217.5364,16.22448,True
0,0.6444448,-0.07991916,0.8114222,-0.1721188,-1.220643,-4.290297,-3.082575,0.6643275,1.147388,0.4938827,-1.493177,0.004196934,0,1.4,0.2725042,-0.4450608,0.1003077,-0.7208325,-4.633731,0.2242488,0.7307905,1.316468,0.4100239,0.2144094,-0.421597,-0.1859758,-1.034484,0.1133877,0.01672598,0.8181163,1.378775,0.232007,0.4571299,1.015708,0.3379259,299.8398,217.6733,16.59444,True
0,0.655556,-0.07031167,0.8158258,-0.151918,-1.220176,-4.300136,-3.078757,0.6656972,1.147506,0.4940784,-1.492694,0.04393888,0,1.4,0.2659953,-0.4503689,0.08543766,-0.7215659,-4.641509,0.2273634,0.7321109,1.316433,0.4098105,0.2080684,-0.4034933,-0.1837167,-1.036389,0.1087824,0.01687512,0.8186744,1.378516,0.2313418,0.4569171,1.0166,0.3397403,299.7303,217.9107,16.82324,True
0,0.6666671,-0.05531582,0.7796473,-0.1495865,-1.219005,-4.308013,-3.075893,0.6669682,1.147657,0.4942195,-1.49289,-0.0184014,0,1.4,0.2627218,-0.4588722,0.07692482,-0.7221971,-4.64937,0.2305272,0.7332597,1.316338,0.4095216,0.2091655,-0.3949882,-0.1815766,-1.038345,0.1038604,0.01700348,0.8192761,1.378297,0.2305789,0.4566382,1.017445,0.3415311,299.5873,218.2782,16.9347,True
0,0.6777782,-0.03496623,0.7275242,-0.1439798,-1.217958,-4.314912,-3.073668,0.6682096,1.147728,0.4942865,-1.492428,0.04222805,0,1.4,0.2543159,-0.4322556,0.09193759,-0.7215558,-4.655706,0.2327941,0.7343004,1.316303,0.40925,0.2070414,-0.3907342,-0.1815396,-1.040428,0.09887105,0.01725569,0.8196912,1.37819,0.2300336,0.4563255,1.018242,0.3433316,299.4373,218.5566,17.15901,True
0,0.6888894,-0.01353946,0.6657249,-0.1542882,-1.216309,-4.320974,-3.072114,0.6694638,1.147867,0.4941893,-1.492468,-0.004179613,0,1.3,0.2331163,-0.3789993,0.1038821,-0.7206135,-4.659963,0.2340873,0.735343,1.316327,0.4088504,0.1996243,-0.3694278,-0.1792777,-1.042406,0.09495781,0.01728152,0.8201267,1.378058,0.2295332,0.4560038,1.01901,0.3451446,299.3187,218.8411,17.39179,True
0,0.7000005,-0.001738086,0.6220509,-0.1593694,-1.214724,-4.327268,-3.070199,0.6707432,1.148037,0.4942243,-1.492601,-0.01220145,0,1.3,0.2181204,-0.3321087,0.09445947,-0.720482,-4.663388,0.2349041,0.7362506,1.316324,0.4085846,0.1912393,-0.3321574,-0.1726802,-1.043871,0.09188252,0.01666446,0.820607,1.377844,0.2290068,0.4557616,1.019738,0.3469137,299.2195,219.0436,17.72702,True
0,0.7111117,0.01863942,0.5592554,-0.1568895,-1.21333,-4.331811,-3.069466,0.6718795,1.148044,0.494226,-1.492805,-0.01872036,0,1.3,0.2116966,-0.3129297,0.09027134,-0.7203094,-4.667989,0.236244,0.73725,1.316207,0.4084091,0.1784918,-0.2948668,-0.1713896,-1.045764,0.08950591,0.01627325,0.8209798,1.377711,0.2285948,0.4556682,1.020387,0.3485542,299.1211,219.2163,18.09392,True
0,0.7222228,0.02399704,0.5486453,-0.1525655,-1.212297,-4.3383,-3.067591,0.6730329,1.148095,0.4943039,-1.49235,0.04160929,0,1.3,0.213714,-0.2894697,0.07536461,-0.7206056,-4.671645,0.2365667,0.7381499,1.316075,0.4081075,0.1637522,-0.2757133,-0.1615344,-1.046815,0.08642957,0.01612491,0.8214518,1.377515,0.2281556,0.4557773,1.020917,0.3500031,299.0599,219.3178,18.45583,True
0,0.7333339,0.04219872,0.5200495,-0.1311131,-1.211957,-4.34336,-3.066941,0.6741596,1.148057,0.4943719,-1.492684,-0.03108204,0,1.3,0.2061942,-0.283072,0.06797577,-0.7208197,-4.676222,0.2380421,0.7389305,1.315907,0.407932,0.1522544,-0.2512765,-0.1453231,-1.047531,0.08355748,0.01621519,0.8219441,1.377512,0.2276766,0.4560581,1.021322,0.3512613,299.0244,219.3883,18.72678,True
0,0.7444451,0.04434152,0.5179555,-0.1257772,-1.211199,-4.349508,-3.06536,0.6753409,1.148073,0.4944472,-1.492094,0.05420768,0,1.3,0.2008552,-0.2819997,0.06588729,-0.7208948,-4.681034,0.2395726,0.7397484,1.315812,0.4076848,0.148028,-0.245954,-0.1431208,-1.048984,0.0805288,0.01615873,0.8221276,1.377483,0.2272191,0.4564483,1.021564,0.3523164,298.9886,219.4337,18.91452,True
0,0.7555562,0.06789208,0.49486,-0.07880562,-1.212327,-4.354617,-3.065136,0.6764289,1.147831,0.4945068,-1.492579,-0.04495475,0,1.3,0.1805117,-0.2777211,0.05433013,-0.7213885,-4.685477,0.2417367,0.7403625,1.315661,0.4075105,0.1290539,-0.219329,-0.1279234,-1.049831,0.07887351,0.01617311,0.8220804,1.377184,0.2269092,0.4568351,1.021679,0.3532517,298.9831,219.5718,18.9323,True
0,0.7666674,0.07538376,0.4875177,-0.06386082,-1.212478,-4.360302,-3.064183,0.6775805,1.147818,0.494611,-1.491936,0.05903341,0,1.3,0.1719115,-0.2649243,0.04482371,-0.7218471,-4.689186,0.2429623,0.7411357,1.315534,0.4072626,0.1216394,-0.2075962,-0.1256949,-1.051326,0.07682367,0.01594514,0.8223469,1.377041,0.2264905,0.4572594,1.021701,0.3541458,298.9781,219.7551,18.9117,True
0,0.7777785,0.08505137,0.4728085,-0.03396323,-1.213381,-4.365446,-3.063684,0.6786172,1.147592,0.4946589,-1.492683,-0.06898406,0,1.3,0.1612979,-0.2244486,0.04921462,-0.7214056,-4.691128,0.2430329,0.7416792,1.315477,0.4070737,0.1109871,-0.1979937,-0.1245137,-1.053033,0.07480633,0.01618962,0.8225088,1.377015,0.2261128,0.457666,1.021672,0.3550626,298.9886,219.9897,18.85698,True
0,0.7888896,0.09470416,0.4537566,-0.01681717,-1.214112,-4.37019,-3.06339,0.6796685,1.147457,0.4947035,-1.492086,0.05527572,0,1.7,0.1549285,-0.1892879,0.05144757,-0.7208468,-4.692819,0.2428438,0.7423762,1.315415,0.4068525,0.09938274,-0.1884068,-0.1158329,-1.054093,0.07284705,0.01641439,0.8228758,1.376808,0.2258112,0.458088,1.021603,0.356021,298.945,220.3515,18.73224,True
0,0.8000008,0.1000781,0.4389158,-0.008206975,-1.2146,-4.375054,-3.062989,0.6807112,1.14742,0.4947071,-1.49211,-0.002943104,0,1.7,0.1527913,-0.1679781,0.05042523,-0.720612,-4.694722,0.2426995,0.742996,1.315363,0.4066617,0.09519876,-0.1809608,-0.1104384,-1.055138,0.07077004,0.0164373,0.8231899,1.376656,0.2254755,0.458507,1.021508,0.3570386,298.9404,220.6916,18.64411,True
0,0.8111119,0.1033192,0.4219166,-0.001717366,-1.215139,-4.379431,-3.062731,0.6817111,1.147288,0.494693,-1.492049,0.005575333,0,1.7,0.1474255,-0.1402687,0.04516824,-0.720474,-4.695673,0.2420299,0.7436609,1.315277,0.4063847,0.0911778,-0.1756618,-0.09121358,-1.055691,0.06878998,0.01649349,0.8234509,1.376588,0.2251592,0.458881,1.021393,0.358088,298.919,221.061,18.56028,True
0,0.8222231,0.1033716,0.4070651,0.007949769,-1.215708,-4.383798,-3.062389,0.6827749,1.147137,0.4946153,-1.491847,0.01826341,0,1.7,0.1442321,-0.1306802,0.04520417,-0.7202641,-4.6976,0.2419956,0.7443148,1.315199,0.4062123,0.09127798,-0.1756654,-0.08271681,-1.056667,0.06669394,0.01651746,0.8236929,1.376548,0.2248342,0.4592587,1.021271,0.3591491,298.9195,221.4431,18.48034,True
0,0.8333342,0.1087249,0.4007307,0.01437824,-1.216403,-4.388409,-3.062188,0.6837214,1.146977,0.494709,-1.491688,0.01432836,0,1.7,0.1463727,-0.1402712,0.04838157,-0.7199989,-4.700686,0.2427911,0.7449502,1.31511,0.4060333,0.09667647,-0.187398,-0.07641222,-1.057332,0.06385994,0.01666473,0.8238672,1.376492,0.224489,0.4596356,1.021166,0.3601966,298.9404,221.8015,18.42182,True
0,0.8444453,0.1076761,0.3943497,0.01654879,-1.216982,-4.392769,-3.061822,0.6847151,1.146825,0.49472,-1.491499,0.01712683,6,2.1,0.1463129,-0.1530405,0.04197676,-0.7202525,-4.703785,0.2435868,0.7455457,1.314977,0.4059682,0.1020652,-0.1906119,-0.07010438,-1.058124,0.0613097,0.01675235,0.8240453,1.376323,0.2242281,0.4600199,1.021081,0.361197,298.9351,222.1367,18.39125,True
0,0.8555565,0.1055833,0.383758,0.02726937,-1.217956,-4.396872,-3.061485,0.6856524,1.146671,0.4947224,-1.491631,-0.01220004,6,2.1,0.1547405,-0.1732706,0.03123822,-0.7208815,-4.70754,0.244488,0.7461463,1.314911,0.4058185,0.1052614,-0.1895483,-0.07014192,-1.058939,0.05897197,0.01661706,0.8242061,1.376253,0.2239008,0.4604295,1.021013,0.3621277,298.9096,222.4442,18.35678,True
0,0.8666676,0.1088247,0.3710423,0.03692885,-1.218952,-4.400797,-3.061495,0.6865742,1.146558,0.4947815,-1.491328,0.02775737,6,2.1,0.1631658,-0.197761,0.02048885,-0.7217742,-4.711829,0.2456849,0.7468199,1.314901,0.4057333,0.1138132,-0.1863591,-0.06812219,-1.059799,0.05678711,0.01611426,0.824512,1.376279,0.2235591,0.4608391,1.020952,0.3630129,298.8658,222.7208,18.29558,True
0,0.8777788,0.109923,0.3582908,0.04125855,-1.219742,-4.40468,-3.061419,0.6875473,1.146421,0.494823,-1.491182,0.01305249,6,2.1,0.1769312,-0.2211792,0.009700194,-0.7227702,1.566934,0.246491,0.747417,1.314829,0.4056101,0.115893,-0.1874197,-0.0724087,-1.060786,0.0543201,0.01592251,0.8247164,1.376201,0.2232189,0.4612528,1.020896,0.363864,298.8275,223.0081,18.2274,True
0,0.8888899,0.1121438,0.3167623,0.04363605,-1.220504,-4.406893,-3.06199,0.688375,1.146293,0.4947898,-1.491417,-0.02158573,6,2.1,0.183312,-0.2297022,0.008575924,-0.7234306,1.562745,0.2473608,0.7480553,1.314733,0.405473,0.119115,-0.1959508,-0.0703394,-1.061628,0.05141778,0.01583888,0.8248298,1.376129,0.2228644,0.4616659,1.020847,0.3646678,298.7954,223.3324,18.1252,True
0,0.900001,0.1132586,0.2965232,0.04268783,-1.221084,-4.409826,-3.062366,0.6893207,1.146098,0.4947762,-1.491301,0.01079153,32.3,4,0.1865428,-0.2329015,0.01280571,-0.7237907,1.558798,0.2481275,0.7486995,1.314583,0.4053037,0.1224423,-0.1959721,-0.05972952,-1.061973,0.04889164,0.01557763,0.8249335,1.376094,0.2225447,0.4621206,1.02081,0.3654361,298.7592,223.632,18.03278,True
0,0.9111122,0.113311,0.2677287,0.03753447,-1.221454,-4.411829,-3.062896,0.6901559,1.145941,0.4947317,-1.491312,-0.001195508,32.3,4,0.1854933,-0.2350342,0.01494204,-0.7242088,1.554855,0.2490823,0.7492553,1.314476,0.4051619,0.1226742,-0.1917315,-0.04161877,-1.061889,0.04681065,0.01517522,0.8250666,1.376133,0.22228,0.4626262,1.020765,0.3661676,298.7184,223.8942,17.98389,True
0,0.9222233,0.1090802,0.2538495,0.03336405,-1.221869,-4.414433,-3.063129,0.6910126,1.14577,0.494792,-1.491328,-0.001503868,32.3,4,0.1823099,-0.2265119,0.01710113,-0.7245625,1.551625,0.2496735,0.7497671,1.314455,0.4050965,0.1216944,-0.1874721,-0.03520952,-1.062144,0.04474284,0.01482369,0.8251474,1.376073,0.2220416,0.4631857,1.02067,0.3668007,298.6795,224.1119,17.97541,True
0,0.9333345,0.1059065,0.2431901,0.03343278,-1.222421,-4.416822,-3.063358,0.6918821,1.145573,0.4947643,-1.491129,0.01815393,32.3,4,0.1801819,-0.2179889,0.01712716,-0.7248954,1.548436,0.2501318,0.7502612,1.314357,0.4049497,0.1228544,-0.1821598,-0.02775641,-1.06222,0.04264054,0.01443407,0.8252109,1.376039,0.2217796,0.4638126,1.020499,0.3673379,298.648,224.2941,17.95669,True
0,0.9444456,0.1026996,0.2506591,0.03552915,-1.223179,-4.420112,-3.063285,0.6927234,1.145365,0.4947889,-1.490996,0.01202503,62.3,4.4,0.1716791,-0.1977468,0.01934799,-0.7249705,1.54619,0.2502413,0.7506541,1.314272,0.4048069,0.1250507,-0.1811171,-0.0224538,-1.062354,0.04020428,0.01417707,0.8251864,1.375938,0.221534,0.4644682,1.020235,0.367773,298.6541,224.4488,17.90236,True
0,0.9555568,0.1048114,0.2613433,0.03972275,-1.224001,-4.42351,-3.063329,0.6935519,1.145178,0.4947872,-1.490904,0.008378712,62.3,4.4,0.1686146,-0.1668732,0.03538643,-0.7242733,1.544645,0.2496495,0.7510695,1.314148,0.4046607,0.1219549,-0.1736751,-0.01493896,-1.062263,0.03823434,0.01385217,0.8252355,1.375924,0.2212861,0.4651283,1.019907,0.3681585,298.6828,224.6241,17.77718,True
0,0.9666679,0.107962,0.2965851,0.05228904,-1.225309,-4.428155,-3.063145,0.6944761,1.144896,0.4947813,-1.490908,-0.0004908901,62.3,4.4,0.1636827,-0.1338933,0.08553051,-0.7218083,1.543293,0.2490418,0.7514439,1.314042,0.404505,0.1230893,-0.1736913,-0.009632724,-1.062307,0.03594122,0.0135206,0.8252511,1.375843,0.2209473,0.4657636,1.019548,0.3685278,298.722,224.8442,17.60889,True
0,0.977779,0.1068783,0.3093999,0.05754103,-1.226408,-4.432167,-3.062948,0.6954347,1.144635,0.4947748,-1.491067,-0.01448069,62.3,4.4,0.1533777,-0.1147677,0.1303763,-0.7190918,1.541119,0.2493624,0.7518464,1.313977,0.4043455,0.1242239,-0.1705076,-0.004308519,-1.062135,0.03384878,0.01311127,0.8252878,1.375842,0.2207153,0.4663213,1.019201,0.3689363,298.76,225.1077,17.40377,True
0,0.9888902,0.1185197,0.3510327,0.06687044,-1.227969,-4.437719,-3.062737,0.6964824,1.144296,0.4947827,-1.491267,-0.01818928,62.3,4.4,0.1378482,-0.08819981,0.1880505,-0.7151551,1.539457,0.2496884,0.7522289,1.314006,0.4040928,0.1263897,-0.161986,-0.002193915,-1.062175,0.03217991,0.01240714,0.8253483,1.375778,0.2204196,0.4668021,1.01891,0.3694393,298.7774,225.403,17.20289,True
0,1.000001,0.1206325,0.3702849,0.07740518,-1.229483,-4.442669,-3.06253,0.6974165,1.144011,0.4947791,-1.491036,0.02127771,60.2,3.3,0.132413,-0.08073556,0.1742489,-0.7141735,1.537727,0.2497156,0.7526282,1.313902,0.4039536,0.1210425,-0.1587861,-0.004248866,-1.06227,0.03023913,0.01215041,0.825368,1.375756,0.2201865,0.4672358,1.018695,0.3701011,298.7427,225.7473,17.02227,True
0,1.011112,0.1269827,0.3969875,0.08682373,-1.231186,-4.448192,-3.062293,0.6984581,1.143647,0.4947929,-1.491974,-0.08531447,60.2,3.3,0.1352321,-0.07428895,0.1252293,-0.7145969,1.536942,0.2487379,0.7529815,1.31375,0.4038312,0.1136161,-0.1491953,-0.002012203,-1.062267,0.02877186,0.01187823,0.8253913,1.37575,0.2200007,0.4676627,1.018566,0.3709186,298.697,226.1104,16.89225,True
0,1.022224,0.1344119,0.4130233,0.09310636,-1.232797,-4.453523,-3.062233,0.6994669,1.143382,0.4948277,-1.492766,-0.07061305,60.2,3.3,0.1603093,-0.07422532,0.06218112,-0.7161283,1.536208,0.246675,0.7533675,1.313539,0.4038117,0.1105055,-0.1438772,0.004424604,-1.062059,0.02711151,0.01148968,0.8253806,1.375624,0.2197094,0.4680559,1.018546,0.3718892,298.6242,226.5308,16.75491,True
0,1.033335,0.1418601,0.4301754,0.1079099,-1.234955,-4.459151,-3.062274,0.7005986,1.142983,0.494899,-1.494378,-0.1454711,60.2,3.3,0.1843158,-0.09227332,0.0001897272,-0.7183238,1.534478,0.2453056,0.7537422,1.313311,0.4038079,0.1062903,-0.1321627,0.00769435,-1.061873,0.02586102,0.01102708,0.8253936,1.375596,0.2195466,0.4683822,1.018644,0.372954,298.5428,226.9703,16.65236,True
0,1.044446,0.1503869,0.4366546,0.1185135,-1.237014,-4.464524,-3.0625,0.7017629,1.142725,0.4949567,-1.496594,-0.1994253,58.1,3,0.2030551,-0.1177882,-0.05430974,-0.7210226,1.532104,0.2443168,0.754187,1.313137,0.4037802,0.1010461,-0.1204462,0.01417295,-1.06152,0.02486088,0.01058473,0.8254443,1.375637,0.219413,0.4686837,1.018889,0.3740667,298.4357,227.4075,16.57947,True
0,1.055557,0.1535839,0.4356025,0.1195794,-1.238729,-4.469531,-3.062664,0.7028627,1.142386,0.4950228,-1.499421,-0.2547,58.1,3,0.2082711,-0.1294951,-0.06821392,-0.7224863,1.529831,0.2435554,0.7545815,1.313029,0.4036193,0.1010884,-0.1151257,0.01737839,-1.061234,0.02358069,0.01006222,0.825464,1.375623,0.2192559,0.468999,1.019306,0.3751755,298.2964,227.8151,16.53665,True
0,1.066668,0.1653124,0.4378096,0.128075,-1.24087,-4.474711,-3.063272,0.7039716,1.142038,0.495043,-1.502739,-0.29857,58.1,3,0.2125304,-0.134823,-0.06825299,-0.7236922,1.527619,0.2426465,0.7550187,1.312922,0.403549,0.105441,-0.1108777,0.02479518,-1.060666,0.02231356,0.009337575,0.8254505,1.375666,0.2191114,0.4693955,1.019902,0.3762428,298.0967,228.2249,16.48985,True
0,1.077779,0.1674476,0.4324994,0.1291679,-1.242684,-4.479605,-3.063561,0.7051353,1.141697,0.4950624,-1.50629,-0.3192966,58.1,3,0.2137193,-0.1327109,-0.05227958,-0.7239867,1.525592,0.2417413,0.7554417,1.312809,0.403465,0.1055051,-0.1162156,0.0301197,-1.060072,0.02054682,0.008997223,0.8254325,1.375723,0.2189822,0.4698785,1.020665,0.37721,297.87,228.5572,16.50216,True
0,1.08889,0.1802559,0.4122462,0.1218151,-1.244095,-4.483666,-3.064654,0.7062407,1.141425,0.4950488,-1.511068,-0.4308165,58.1,3,0.2128702,-0.1295513,-0.02350498,-0.723534,1.523305,0.2412307,0.755939,1.312742,0.4033532,0.1076791,-0.115163,0.03327936,-1.059754,0.01902695,0.008421182,0.8254064,1.375829,0.2187815,0.4703786,1.021567,0.3780173,297.6145,228.7819,16.57274,True
0,1.100002,0.1887816,0.4069231,0.1186387,-1.245647,-4.488277,-3.065513,0.7073041,1.141065,0.4950986,-1.515521,-0.3997697,62,3.6,0.2193961,-0.1359587,-0.005457733,-0.7234855,1.520701,0.2405458,0.7563297,1.312679,0.4033506,0.11515,-0.1109109,0.03426947,-1.059234,0.01770949,0.00753648,0.8252879,1.375844,0.2185881,0.4709041,1.022588,0.3786528,297.314,228.9657,16.63865,True
0,1.111113,0.1919935,0.3941017,0.1112538,-1.246926,-4.492383,-3.066466,0.7083642,1.14081,0.4951003,-1.521262,-0.5177317,62,3.6,0.2215013,-0.1380863,-0.008672323,-0.7240735,1.518412,0.2396957,0.756736,1.312613,0.4033189,0.1204676,-0.126893,0.03417449,-1.058861,0.01547922,0.007103183,0.8252434,1.375893,0.2184317,0.4714767,1.023706,0.3791153,297.0077,229.0626,16.75276,True
0,1.122224,0.199467,0.3866314,0.1059675,-1.248303,-4.496685,-3.067691,0.7093985,1.140517,0.4951811,-1.527009,-0.5168422,62,3.6,0.2171786,-0.1359422,-0.01716245,-0.7249726,1.516574,0.2387532,0.7571023,1.312491,0.4033039,0.1172913,-0.1364883,0.03632005,-1.058474,0.01328491,0.007014234,0.8251601,1.375906,0.2182896,0.4721017,1.024897,0.3794061,296.6979,229.0273,16.92857,True
0,1.133335,0.2080016,0.3738088,0.09644482,-1.24932,-4.500531,-3.069033,0.7103952,1.140296,0.4952404,-1.533126,-0.5503989,62,3.6,0.223485,-0.1231485,-0.02784744,-0.7257929,1.515415,0.237045,0.7574553,1.312422,0.4032722,0.1141522,-0.1290374,0.04063402,-1.057886,0.01194667,0.006518087,0.825117,1.375918,0.218189,0.472727,1.026138,0.3795791,296.3752,228.9546,17.07651,True
0,1.144446,0.2133541,0.3588546,0.08694068,-1.250218,-4.5042,-3.070484,0.7112581,1.140058,0.4953668,-1.540034,-0.6221965,53.6,2.6,0.2255605,-0.1156824,-0.03531033,-0.7266302,1.514197,0.2353944,0.7577993,1.312293,0.4032607,0.1173349,-0.1247798,0.0395303,-1.057586,0.01054332,0.00582673,0.8250644,1.375994,0.2180567,0.4733531,1.027436,0.3796852,296.067,228.8488,17.23234,True
0,1.155557,0.2112563,0.3364132,0.07642485,-1.25092,-4.507219,-3.071787,0.7121027,1.139905,0.4954338,-1.546949,-0.6221444,53.6,2.6,0.2297282,-0.1220557,-0.04600081,-0.7277812,1.512333,0.2342461,0.7582284,1.312144,0.4031637,0.1141095,-0.1130571,0.0364034,-1.057205,0.009492172,0.005135374,0.8251011,1.376028,0.2179468,0.4739753,1.028792,0.3797895,295.7513,228.7103,17.40983,True
0,1.166668,0.2112806,0.3182484,0.0669478,-1.251536,-4.510211,-3.073174,0.7129697,1.139784,0.4954491,-1.554188,-0.6515973,53.6,2.6,0.2265205,-0.1433607,-0.04706616,-0.7288587,1.509128,0.2342215,0.7586006,1.312065,0.4031062,0.1140898,-0.1119891,0.03426734,-1.057005,0.008081229,0.004501541,0.8250479,1.375992,0.2177563,0.474569,1.0302,0.379926,295.4418,228.5195,17.64963,True
0,1.17778,0.2113139,0.2904579,0.05113459,-1.251676,-4.512588,-3.074765,0.7137444,1.139673,0.4955049,-1.561294,-0.6389623,53.6,2.6,0.2233483,-0.1646623,-0.04280866,-0.7297701,1.505764,0.2343875,0.758929,1.311945,0.4029932,0.1194497,-0.1056077,0.0363486,-1.056468,0.006925284,0.00349966,0.8249204,1.376073,0.2176139,0.4750918,1.031653,0.3801121,295.1332,228.3058,17.93227,True
0,1.188891,0.2102973,0.2584027,0.03534346,-1.251574,-4.514471,-3.076507,0.7144967,1.139596,0.4956129,-1.569019,-0.6956707,53.6,2.6,0.2137801,-0.1689266,-0.03955427,-0.7306457,1.502813,0.234351,0.7592733,1.3119,0.4029338,0.1215786,-0.1077389,0.0363157,-1.056097,0.005478788,0.002776079,0.8247994,1.376028,0.2175114,0.4755758,1.033165,0.3803259,294.8443,228.1118,18.24515,True
0,1.200002,0.212468,0.2413258,0.02905208,-1.251857,-4.516845,-3.078376,0.715336,1.139526,0.4957275,-1.576928,-0.7117461,61.1,2.8,0.2095564,-0.1614749,-0.0352557,-0.7313578,1.500823,0.2337909,0.7596787,1.311904,0.4029846,0.1173055,-0.1088014,0.03530439,-1.055725,0.003986752,0.002369947,0.8247292,1.376092,0.2173934,0.4760605,1.034755,0.3805306,294.5552,227.8796,18.62161,True
0,1.211113,0.2124806,0.228485,0.01954133,-1.251867,-4.519052,-3.080078,0.7160639,1.13949,0.4957917,-1.584972,-0.7238906,61.1,2.8,0.2011376,-0.1476379,-0.02239099,-0.731402,1.499051,0.2331643,0.7599502,1.311882,0.4029112,0.1054978,-0.1002629,0.02800499,-1.055683,0.002962234,0.002114284,0.8247142,1.376161,0.2174551,0.4765636,1.036414,0.3806876,294.256,227.5233,19.0971,True
0,1.222224,0.2125022,0.2156789,0.01430215,-1.252141,-4.521283,-3.08179,0.7167641,1.139424,0.4958642,-1.593425,-0.7611296,61.1,2.8,0.195828,-0.1401837,-0.02020772,-0.7318521,1.49714,0.2326229,0.7603236,1.311847,0.4029214,0.09904275,-0.08852442,0.02278482,-1.055532,0.002412424,0.001545432,0.8246167,1.376215,0.2173424,0.4771251,1.038131,0.3807824,293.9474,227.0972,19.59092,True
0,1.233335,0.2103939,0.2007302,0.009067794,-1.25219,-4.52317,-3.083473,0.7174159,1.139381,0.4959369,-1.601515,-0.7276962,61.1,2.8,0.1766631,-0.1210031,-0.01897112,-0.7321872,1.496135,0.2321286,0.760552,1.311824,0.4028468,0.09036963,-0.07677817,0.01012893,-1.05585,0.001891111,0.001092695,0.8245984,1.376253,0.2172747,0.4777461,1.039899,0.3808303,293.62,226.6814,20.04904,True
0,1.244446,0.2072189,0.191112,0.004862294,-1.252143,-4.525134,-3.085154,0.7180789,1.139312,0.4959083,-1.609889,-0.7537876,61.1,2.8,0.1702988,-0.1092812,-0.01571686,-0.7324662,1.495059,0.2312274,0.7607831,1.311792,0.4027677,0.08292052,-0.07038554,0.01023697,-1.055627,0.001140898,0.0007235809,0.8245425,1.376252,0.2170608,0.4783349,1.041698,0.3808202,293.2962,226.232,20.53599,True
0,1.255558,0.1965991,0.171888,-0.001401613,-1.251971,-4.526699,-3.086545,0.7187433,1.139241,0.4958332,-1.618234,-0.7508255,44.6,2.2,0.1522653,-0.08904696,-0.005965652,-0.7322617,1.494483,0.2306316,0.7610053,1.311731,0.4026909,0.08185654,-0.06718914,0.01025989,-1.055433,0.0003764378,0.0002178466,0.8245046,1.376292,0.2169843,0.4788766,1.04352,0.3807559,292.9654,225.7579,21.04205,True
0,1.266669,0.1849087,0.1515665,-0.01085121,-1.251587,-4.527767,-3.087889,0.7193085,1.139209,0.4958591,-1.626803,-0.7713578,44.6,2.2,0.1385026,-0.07093894,0.003749649,-0.7319176,1.49419,0.2297094,0.7611364,1.311725,0.4024606,0.07860989,-0.06078756,0.006047978,-1.055533,-0.0001581918,-0.0002822951,0.8245324,1.376246,0.2168283,0.4793842,1.045356,0.3806351,292.6389,225.2352,21.59889,True
0,1.27778,0.172153,0.1355308,-0.01712271,-1.251337,-4.528975,-3.089102,0.7198005,1.139204,0.4959674,-1.635033,-0.7400892,44.6,2.2,0.1236555,-0.06242253,0.012397,-0.7316103,1.493397,0.2294436,0.7613273,1.311697,0.4023793,0.07006377,-0.05438689,0.004038495,-1.055498,-0.0005820338,-0.0005443501,0.8245282,1.37628,0.2167387,0.4798937,1.047196,0.3804542,292.3126,224.6712,22.20967,True
0,1.288891,0.1583142,0.1290982,-0.01919539,-1.251093,-4.530249,-3.090005,0.7203006,1.139197,0.495985,-1.643513,-0.7632228,44.6,2.2,0.09931152,-0.06031021,0.03282113,-0.7308076,1.492193,0.2300604,0.7614831,1.311791,0.4023542,0.0636244,-0.04692028,-0.0001311906,-1.055644,-0.0009020126,-0.0008809737,0.8245704,1.376348,0.2167401,0.4804279,1.049037,0.3801928,292.0024,224.0587,22.85335,True
0,1.300002,0.1540372,0.1290713,-0.02345198,-1.250788,-4.531924,-3.090943,0.7208773,1.139261,0.4960353,-1.652204,-0.7822002,43.1,1.7,0.09189552,-0.05925712,0.03820641,-0.7304332,1.490874,0.2302332,0.7616508,1.311856,0.4022651,0.05507833,-0.03945784,-0.002138285,-1.055678,-0.001188968,-0.001039432,0.824702,1.376376,0.2166038,0.4809653,1.050892,0.3798441,291.7154,223.3716,23.50062,True
0,1.311113,0.1487124,0.1312165,-0.01919607,-1.250789,-4.533528,-3.0919,0.7213265,1.139249,0.4960499,-1.660766,-0.7702573,43.1,1.7,0.07591867,-0.05286008,0.03833725,-0.730079,1.490178,0.2304721,0.7617497,1.311873,0.402173,0.03796515,-0.02239272,-0.008288253,-1.055984,-0.0007922904,-0.001056476,0.8247578,1.376384,0.216563,0.4814736,1.052791,0.3794411,291.4304,222.6619,24.1243,True
0,1.322224,0.142327,0.1333437,-0.01813122,-1.250755,-4.535232,-3.09287,0.7216498,1.139255,0.4960697,-1.669795,-0.8129597,43.1,1.7,0.07378814,-0.04859383,0.03729069,-0.7298307,1.489547,0.2300327,0.7617137,1.311824,0.4020803,0.02839636,-0.01066738,-0.007086858,-1.056044,-0.0004392884,-0.001254083,0.8246816,1.376376,0.216464,0.4819632,1.054767,0.3790167,291.1442,221.9387,24.77138,True
0,1.333336,0.1369988,0.1408472,-0.008580756,-1.251095,-4.537117,-3.093598,0.7220178,1.139215,0.4960721,-1.678729,-0.8039534,43.1,1.7,0.06629989,-0.04432527,0.03309205,-0.729696,1.488984,0.2299887,0.7617592,1.311803,0.402015,0.01663323,0.002129971,-0.01117973,-1.056304,9.134642E-05,-0.001290035,0.8247231,1.376355,0.2164223,0.4824617,1.056849,0.3786166,290.8408,221.1594,25.48721,True
0,1.344447,0.1273943,0.1494011,-0.002227385,-1.251382,-4.539317,-3.09385,0.722314,1.139253,0.4961665,-1.687575,-0.7962568,43.1,1.7,0.0534328,-0.02726573,0.02256386,-0.7296907,1.489387,0.2296564,0.7617958,1.311701,0.4020092,0.01230383,0.01173072,-0.01749656,-1.056648,0.0005480786,-0.001602957,0.8246441,1.376497,0.2164423,0.4828859,1.059021,0.3782458,290.4903,220.3276,26.28007,True
0,1.355558,0.1167324,0.1579341,0.003063189,-1.25168,-4.541429,-3.094139,0.7226615,1.139133,0.4961753,-1.696087,-0.765749,35,1.4,0.04699868,-0.01873076,0.01623254,-0.729671,1.489552,0.2291426,0.7618297,1.311654,0.401967,0.002826144,0.02130741,-0.008833501,-1.056355,0.001152749,-0.001588576,0.8247572,1.37645,0.2164221,0.4832065,1.061249,0.3779156,290.1111,219.4424,27.14548,True
0,1.366669,0.1039418,0.1664526,0.007291898,-1.251999,-4.543598,-3.094233,0.7228936,1.139017,0.4962506,-1.704303,-0.7390465,35,1.4,0.03629952,-0.01019761,0.00993292,-0.7297354,1.489866,0.2288976,0.761842,1.311604,0.401931,0.001798972,0.03195683,-0.006674856,-1.056411,0.001959554,-0.002074336,0.8248319,1.376495,0.2164831,0.4834687,1.063498,0.3776479,289.7246,218.5643,28.01746,True
0,1.37778,0.08902743,0.1707138,0.01261536,-1.252421,-4.545644,-3.094125,0.7231133,1.138897,0.496196,-1.712832,-0.7678835,35,1.4,0.02022924,0.01006458,-0.002702835,-0.7299352,1.491199,0.2282313,0.761732,1.31153,0.401854,-0.006625831,0.04046895,0.0009054456,-1.056088,0.002809901,-0.002150769,0.824892,1.376504,0.2164485,0.4836767,1.065758,0.3774626,289.3508,217.6657,28.92874,True
0,1.388891,0.07731871,0.167507,0.0147816,-1.252732,-4.547447,-3.094015,0.7233522,1.13882,0.4961538,-1.721161,-0.749328,35,1.4,0.009457186,0.02180469,-0.01858615,-0.7305126,1.492387,0.2276092,0.7617253,1.311491,0.4018021,-0.007641185,0.04152292,0.00518029,-1.0559,0.003285276,-0.00220856,0.8249393,1.376407,0.2162712,0.483876,1.067997,0.3773525,288.9662,216.7103,29.93566,True
0,1.400002,0.06028074,0.1632064,0.0137703,-1.252979,-4.549209,-3.093581,0.7235557,1.138766,0.4959378,-1.729359,-0.7376449,46.4,1.2,-0.004419643,0.04098917,-0.02271528,-0.7305988,1.494042,0.2269059,0.7617105,1.311582,0.4017236,-0.007709038,0.04153449,-0.0001477158,-1.056139,0.003808853,-0.002369947,0.8250809,1.376463,0.2162154,0.4840324,1.070194,0.3772884,288.5909,215.7723,30.94786,True
0,1.411114,0.04325119,0.1535651,0.010656,-1.253052,-4.550643,-3.093037,0.7236806,1.138745,0.49576,-1.73755,-0.7371786,46.4,1.2,-0.00754969,0.04098039,-0.0141685,-0.7303703,1.494658,0.2266321,0.761742,1.311598,0.4016476,-0.01097202,0.03835002,-0.005440262,-1.056383,0.004152001,-0.002306031,0.8251688,1.37647,0.2161672,0.4841657,1.072341,0.3772179,288.239,214.8966,31.93252,True
0,1.422225,0.03153338,0.1535324,0.008546073,-1.25321,-4.552519,-3.092492,0.7238629,1.138679,0.4956303,-1.745348,-0.7014683,46.4,1.2,-0.005358441,0.03670994,-0.005666806,-0.7300667,1.494946,0.2264121,0.7618417,1.3116,0.4015491,-0.01416404,0.03941467,-0.005395053,-1.056362,0.004635764,-0.002338522,0.8253559,1.376536,0.2161176,0.484321,1.074443,0.377087,287.9189,214.0424,32.90517,True
0,1.433336,0.007043075,0.1449348,0.004370563,-1.253173,-4.55387,-3.091266,0.7239319,1.138642,0.4954464,-1.753117,-0.6990967,46.4,1.2,-2.118386E-05,0.02285638,-0.00359329,-0.7300976,1.494653,0.2264568,0.7619106,1.31161,0.401458,-0.01417604,0.04154721,-0.006456362,-1.056475,0.0052419,-0.002479137,0.8254694,1.376559,0.2160718,0.4844731,1.076521,0.376823,287.6279,213.1667,33.88695,True
0,1.444447,-0.01850537,0.1363726,0.005530097,-1.253464,-4.555243,-3.089788,0.7240026,1.138545,0.495343,-1.76113,-0.7215694,46.4,1.2,-0.003268243,0.004755398,-0.009985636,-0.7305897,1.494024,0.2270065,0.7619268,1.311619,0.4013429,-0.0131395,0.043678,-0.00859632,-1.056651,0.005838182,-0.002610164,0.8255858,1.376536,0.2160807,0.4846347,1.078599,0.3764,287.3549,212.1642,34.91913,True
0,1.455558,-0.04830733,0.1299701,0.01413272,-1.253982,-4.5565,-3.087893,0.7240108,1.138481,0.4951971,-1.768106,-0.6265404,41.9,1.5,-0.006502359,-0.009087641,-0.01423827,-0.7310164,1.493328,0.2277152,0.761961,1.311621,0.4012587,-0.01107583,0.04155613,-0.01395256,-1.057012,0.006261092,-0.002755573,0.8257191,1.376562,0.2160366,0.4848358,1.080687,0.37586,287.0725,211.0105,36.03274,True
0,1.466669,-0.08559856,0.13953,0.0215832,-1.25455,-4.558509,-3.085185,0.7239307,1.138353,0.495007,-1.775516,-0.6670538,41.9,1.5,-0.009811657,-0.01652458,-0.02806358,-0.7317322,1.492992,0.2282276,0.7619852,1.311479,0.4011085,-0.007909536,0.04262719,-0.01612352,-1.057326,0.006872154,-0.003026416,0.8258129,1.37639,0.2158921,0.4850201,1.082806,0.3752135,286.7956,209.7621,37.20599,True
0,1.47778,-0.09838171,0.1405818,0.02372544,-1.254961,-4.560193,-3.083196,0.7239511,1.138268,0.4948404,-1.782749,-0.6505356,41.9,1.5,-0.008864747,-0.01437356,-0.04404735,-0.7326553,1.493309,0.2279709,0.762027,1.311466,0.4010236,-0.004741807,0.04475358,-0.01828587,-1.057544,0.007424627,-0.003300988,0.825917,1.376431,0.2158217,0.4851969,1.084982,0.3744984,286.5063,208.4612,38.4057,True
0,1.488891,-0.1282308,0.1597624,0.03430983,-1.255891,-4.562742,-3.080052,0.7238153,1.138273,0.4946816,-1.789799,-0.633989,41.9,1.5,-0.01425942,-0.02181906,-0.05253694,-0.7336093,1.492918,0.2285762,0.7620378,1.311462,0.4009387,-0.004754936,0.04475553,-0.01935109,-1.057776,0.008002399,-0.003535613,0.8260291,1.376437,0.2157626,0.4853144,1.087252,0.3737326,286.2076,207.0958,39.67191,True
0,1.500003,-0.1420897,0.1682694,0.03534167,-1.256398,-4.565038,-3.07747,0.7237137,1.138234,0.4944892,-1.797979,-0.7375241,37.4,1.5,-0.02067935,-0.02607064,-0.055686,-0.7343044,1.492563,0.2293152,0.762037,1.311457,0.4008486,-0.009010475,0.0436863,-0.01823792,-1.057967,0.008430236,-0.003386742,0.8260734,1.376423,0.2156787,0.4853478,1.089648,0.3729575,285.9052,205.5907,41.09232,True
0,1.511114,-0.164472,0.1810711,0.04594961,-1.257449,-4.56754,-3.07411,0.7235205,1.138182,0.4942667,-1.804722,-0.6051889,37.4,1.5,-0.03349477,-0.02393093,-0.05984594,-0.7351155,1.492551,0.2301296,0.7619979,1.311475,0.4007487,-0.01317887,0.04474005,-0.01072695,-1.057857,0.009029315,-0.003399791,0.8261893,1.37642,0.2155979,0.4854026,1.092165,0.3722339,285.599,203.9317,42.66715,True
0,1.522225,-0.1836585,0.1928018,0.05335964,-1.258369,-4.570154,-3.070737,0.7233611,1.138174,0.4940622,-1.812607,-0.7109188,37.4,1.5,-0.04205053,-0.01220358,-0.06509192,-0.7358948,1.493262,0.2302537,0.7620271,1.311452,0.4006152,-0.01644437,0.04154746,-0.01602534,-1.058298,0.009305751,-0.003220827,0.8263475,1.376452,0.2155516,0.4853712,1.094831,0.3715959,285.2842,202.2204,44.31633,True
0,1.533336,-0.194312,0.1960016,0.0576166,-1.259307,-4.572479,-3.067509,0.7231342,1.138151,0.4938052,-1.819402,-0.6102822,37.4,1.5,-0.05164118,0.002714917,-0.066066,-0.7365174,1.494298,0.2303759,0.7619697,1.311494,0.4005029,-0.02502051,0.04049561,-0.0201839,-1.058671,0.009827597,-0.002895122,0.8264929,1.376436,0.2154868,0.4853178,1.097614,0.3710696,284.952,200.2838,46.24663,True
0,1.544447,-0.2134931,0.2013096,0.06080342,-1.260181,-4.574932,-3.063761,0.722863,1.138226,0.4935498,-1.826766,-0.6632324,37.4,1.5,-0.06333847,0.02721297,-0.06381883,-0.7369031,1.496052,0.2301986,0.7619638,1.31157,0.4004626,-0.03038676,0.04263819,-0.02331432,-1.0591,0.01051536,-0.002686597,0.8266304,1.376443,0.2153926,0.4852089,1.100492,0.3706376,284.6024,198.2885,48.28271,True
0,1.555558,-0.2358651,0.204482,0.06401163,-1.261188,-4.577364,-3.059699,0.7224994,1.138241,0.4932604,-1.834215,-0.6704673,35.6,1.7,-0.07289146,0.03040455,-0.05841437,-0.7372546,1.496753,0.2309067,0.761853,1.311659,0.4003456,-0.03259658,0.04158582,-0.02968159,-1.059649,0.01101204,-0.002506035,0.8268135,1.376421,0.2153268,0.4850937,1.103436,0.3702798,284.2647,196.1857,50.46678,True
0,1.566669,-0.2582296,0.2066098,0.07042198,-1.2624,-4.579785,-3.055404,0.7220935,1.138243,0.4930401,-1.841094,-0.6183651,35.6,1.7,-0.08033665,0.03572306,-0.05835334,-0.7378458,1.497552,0.2312862,0.7617906,1.31179,0.4002221,-0.04333381,0.04160129,-0.03593945,-1.060219,0.01147569,-0.001810151,0.8269192,1.376412,0.215378,0.4849774,1.106409,0.3699448,283.9457,193.9813,52.77208,True
0,1.577781,-0.2795362,0.2130077,0.07787088,-1.263729,-4.582447,-3.050852,0.7216818,1.138276,0.492774,-1.848061,-0.6268941,35.6,1.7,-0.08888794,0.04106002,-0.06253681,-0.7383923,1.498798,0.231588,0.7617091,1.311738,0.4001954,-0.04552954,0.03841313,-0.04018426,-1.060853,0.01180925,-0.001276187,0.8269991,1.376397,0.2153468,0.4848257,1.109404,0.3695832,283.6617,191.7145,55.12933,True
0,1.588892,-0.2965868,0.2204677,0.08424085,-1.265122,-4.58518,-3.046149,0.7211683,1.138242,0.4924929,-1.855133,-0.6363531,35.6,1.7,-0.09320716,0.03893939,-0.06996334,-0.73931,1.499701,0.2321235,0.7615891,1.311778,0.4001105,-0.05077682,0.03840411,-0.0337273,-1.061018,0.01230727,-0.0007840346,0.8270999,1.376398,0.2152982,0.4846229,1.112422,0.3691604,283.3964,189.315,57.59348,True
0,1.600003,-0.301918,0.2258126,0.08847727,-1.266489,-4.587921,-3.041818,0.7207142,1.138238,0.4922497,-1.86226,-0.6413398,35.6,1.7,-0.09866162,0.03682976,-0.08591057,-0.740778,1.500737,0.2326806,0.7613824,1.311817,0.4001653,-0.05386938,0.03839043,-0.02516596,-1.061,0.01279902,-0.0002950782,0.8271719,1.376381,0.2152019,0.4844011,1.115463,0.3686758,283.1501,186.8102,60.12827,True
0,1.611114,-0.3125866,0.2364694,0.09268962,-1.267966,-4.590922,-3.037071,0.7200817,1.138221,0.4919343,-1.869306,-0.6340974,35.3,1.2,-0.1051852,0.035786,-0.1029066,-0.7423646,1.50186,0.2332349,0.7611816,1.311859,0.4001198,-0.05917657,0.04904418,-0.0240155,-1.061213,0.01388652,1.544633E-05,0.827278,1.37638,0.2151783,0.48417,1.118533,0.3681378,282.9312,184.1643,62.78944,True
0,1.622225,-0.3179046,0.2364898,0.09803364,-1.269632,-4.593495,-3.032667,0.7194093,1.138257,0.4916372,-1.876704,-0.6664002,35.3,1.2,-0.1191362,0.03047344,-0.1166552,-0.7440089,1.502604,0.2343821,0.7609047,1.311931,0.4000628,-0.06561742,0.0575739,-0.02818719,-1.061769,0.01489679,0.0004964132,0.8272929,1.376378,0.2151909,0.4839367,1.121624,0.3675652,282.7413,181.3305,65.62523,True
0,1.633336,-0.3168614,0.250372,0.1032754,-1.271283,-4.596736,-3.028199,0.7186755,1.138196,0.4912534,-1.883294,-0.5924075,35.3,1.2,-0.1383603,0.01769973,-0.1218482,-0.7455397,1.502762,0.2364794,0.7606049,1.312015,0.4000621,-0.07745363,0.06292777,-0.03762495,-1.062593,0.01595646,0.001244229,0.8274186,1.376369,0.2152252,0.4837347,1.124702,0.3669951,282.5866,178.347,68.59807,True
0,1.644447,-0.3222151,0.2674313,0.107446,-1.273052,-4.600261,-3.023397,0.7180527,1.13816,0.4908969,-1.890229,-0.624706,35.3,1.2,-0.1479105,0.02195446,-0.1164456,-0.7465495,1.503676,0.2378235,0.7603452,1.312107,0.400136,-0.08918545,0.06933339,-0.03960936,-1.063227,0.01714516,0.001958222,0.8275511,1.376446,0.2151985,0.4834563,1.127771,0.3664327,282.4586,175.3405,71.59952,True
0,1.655559,-0.318033,0.3133109,0.1178191,-1.275299,-4.605332,-3.018502,0.7174177,1.138005,0.4904697,-1.897033,-0.612341,26,1.2,-0.1659704,0.03792959,-0.1098959,-0.7472969,1.505377,0.2390933,0.7599801,1.312152,0.4001176,-0.09446978,0.09277582,-0.03631132,-1.063591,0.0194745,0.002199238,0.8277498,1.376377,0.215277,0.4831127,1.130813,0.3658903,282.3541,172.3318,74.62007,True
0,1.66667,-0.3107018,0.3880407,0.1290432,-1.277524,-4.613187,-3.012961,0.7168143,1.137889,0.4901743,-1.903342,-0.5673213,26,1.2,-0.1734147,0.05816956,-0.1087517,-0.7481619,1.50765,0.2396033,0.7595378,1.312164,0.4000862,-0.1083772,0.1205006,-0.04248726,-1.064331,0.02217361,0.002486327,0.8278382,1.376368,0.2153683,0.4827162,1.133794,0.3653961,282.2897,169.2976,77.6863,True
0,1.677781,-0.304446,0.4798503,0.149753,-1.280514,-4.622039,-3.007282,0.7161629,1.137714,0.4897325,-1.910136,-0.6121109,26,1.2,-0.1851497,0.06669779,-0.1118446,-0.7492031,1.50945,0.2406211,0.759135,1.3122,0.4000645,-0.1148081,0.1396926,-0.04663851,-1.065048,0.02464343,0.002707103,0.8279048,1.376395,0.2154245,0.4823128,1.136705,0.3649992,282.2632,166.3812,80.64483,True
0,1.688892,-0.2918233,0.5758786,0.170464,-1.284383,-4.631568,-3.001678,0.7155614,1.137457,0.4892073,-1.916712,-0.5918847,26,1.2,-0.2043669,0.08801709,-0.1180639,-0.7502748,1.512359,0.2413964,0.7584908,1.31223,0.4000504,-0.1180465,0.1578122,-0.05082653,-1.065747,0.02736758,0.002831739,0.8279968,1.37637,0.2154865,0.4818274,1.139577,0.3647863,282.2919,163.4956,83.56867,True
0,1.700003,-0.285546,0.6473804,0.1849312,-1.288069,-4.641148,-2.996019,0.714855,1.137225,0.4886386,-1.923158,-0.5802196,26,1.2,-0.2182875,0.1072049,-0.127518,-0.7514828,1.515405,0.2420771,0.7579907,1.312279,0.3999453,-0.1233768,0.1674113,-0.05181993,-1.066516,0.0298816,0.003096457,0.8280309,1.376363,0.2155051,0.4811505,1.142476,0.3649331,282.3782,160.7176,86.42213,True
0,1.711114,-0.2643591,0.721042,0.2036337,-1.292511,-4.651632,-2.990927,0.7141529,1.137009,0.4880812,-1.929524,-0.5730901,22.5,0.8,-0.2417454,0.1402413,-0.1315603,-0.7524021,1.519808,0.2423101,0.7573689,1.312327,0.3999143,-0.1287984,0.1610362,-0.05922255,-1.067458,0.03165234,0.003856257,0.8280834,1.376306,0.2155728,0.4802417,1.145445,0.3655489,282.4163,158.0041,89.38129,True
0,1.722225,-0.2568818,0.7264639,0.2163761,-1.296486,-4.659527,-2.986313,0.7134881,1.136691,0.4874051,-1.935411,-0.5294695,22.5,0.8,-0.2555026,0.1594063,-0.1207793,-0.7527984,1.52336,0.2429141,0.7567619,1.312372,0.3997598,-0.1310051,0.1663781,-0.06558131,-1.068434,0.03397368,0.004261324,0.8281545,1.376217,0.2156606,0.4791684,1.148464,0.36664,282.3933,155.2696,92.58163,True
0,1.733337,-0.2643655,0.7392154,0.2131146,-1.300066,-4.667912,-2.980894,0.7127553,1.136533,0.4869254,-1.941949,-0.5895869,22.5,0.8,-0.2617516,0.154061,-0.1026276,-0.7529774,1.52568,0.2442321,0.7561098,1.312384,0.3997266,-0.1311356,0.1770548,-0.07620873,-1.069561,0.03666733,0.004476774,0.8280535,1.376212,0.2157593,0.4779658,1.151507,0.3681046,282.3683,152.6009,95.87014,True
0,1.744448,-0.2675705,0.7306033,0.2025394,-1.303363,-4.675359,-2.975809,0.7119548,1.136337,0.4865134,-1.947383,-0.4880755,22.5,0.8,-0.2596045,0.1444676,-0.09946184,-0.7536959,1.527836,0.2454963,0.7555854,1.312385,0.3997893,-0.1343889,0.1845258,-0.08149627,-1.070851,0.03931785,0.004749215,0.8280652,1.376092,0.2159419,0.4767614,1.154512,0.369843,282.3234,149.888,99.31581,True
0,1.755559,-0.2760689,0.7070417,0.1867137,-1.306033,-4.682009,-2.970726,0.711242,1.136107,0.4860115,-1.952186,-0.4313996,11.1,0.8,-0.264957,0.1306243,-0.1015659,-0.7546077,1.529747,0.2472963,0.7549735,1.312376,0.3997514,-0.1354983,0.1898652,-0.08466872,-1.071863,0.04202828,0.005094893,0.8280612,1.376041,0.2160285,0.4757096,1.157359,0.3716128,282.2855,147.2018,102.7825,True
0,1.76667,-0.2834507,0.660078,0.1742222,-1.308521,-4.687505,-2.965962,0.7103318,1.136003,0.4856234,-1.957666,-0.4938031,11.1,0.8,-0.2628798,0.106129,-0.1069354,-0.7558621,1.530762,0.249412,0.7543857,1.312341,0.3996985,-0.1290258,0.1951771,-0.07835728,-1.072605,0.04468878,0.005020059,0.8280796,1.376048,0.2161152,0.4747443,1.160079,0.3732212,282.3265,144.8158,105.8336,True
0,1.777781,-0.2897508,0.5970591,0.1511767,-1.310246,-4.691787,-2.961513,0.7095275,1.135867,0.4852829,-1.962919,-0.4723669,11.1,0.8,-0.2682526,0.08483261,-0.1122412,-0.7570685,1.531666,0.251853,0.7537748,1.312346,0.3995073,-0.1237283,0.2005153,-0.08055872,-1.073758,0.04753636,0.004930576,0.8282639,1.375968,0.2162066,0.4738952,1.162682,0.3745487,282.4268,142.5471,108.6522,True
0,1.788892,-0.2971132,0.5351368,0.1313176,-1.311769,-4.695583,-2.957012,0.7085373,1.135801,0.4849432,-1.968198,-0.4752703,11.1,0.8,-0.2682807,0.07418334,-0.1154493,-0.7582696,1.532825,0.253967,0.7530756,1.312312,0.3994412,-0.1206051,0.2122437,-0.08696776,-1.074921,0.05061511,0.004693555,0.8282667,1.375897,0.2163086,0.4731864,1.165169,0.3754921,282.5825,140.4158,111.2213,True
0,1.800003,-0.2991951,0.5019913,0.1144864,-1.313522,-4.70007,-2.952612,0.7076609,1.135874,0.4845741,-1.973319,-0.4608841,11.1,0.8,-0.2704118,0.06566408,-0.1154427,-0.7593822,1.534066,0.2561223,0.7523395,1.312306,0.3993883,-0.1207643,0.2197346,-0.09975056,-1.076629,0.05383207,0.004632036,0.828222,1.375835,0.2164786,0.4725763,1.16757,0.3759909,282.7881,138.4101,113.5131,True
0,1.811115,-0.2980961,0.4720571,0.09655327,-1.314761,-4.704238,-2.948279,0.7065744,1.135884,0.484298,-1.978117,-0.431523,11.1,1.2,-0.2842627,0.05821151,-0.1153444,-0.7605125,1.535085,0.2589858,0.7515572,1.312285,0.3992977,-0.1229157,0.2293274,-0.101837,-1.077813,0.0570991,0.004521781,0.8282015,1.375745,0.2166221,0.4721133,1.169854,0.3760437,283.0627,136.5516,115.5087,True
0,1.822226,-0.289542,0.4463969,0.07966309,-1.316073,-4.708261,-2.944447,0.7055159,1.135854,0.4840968,-1.983212,-0.4591177,11.1,1.2,-0.2990929,0.06459686,-0.10456,-0.7609056,1.536693,0.2615946,0.7507509,1.312387,0.3992467,-0.1303656,0.2431855,-0.1027883,-1.079,0.0606708,0.004389688,0.8281057,1.375574,0.2167974,0.4716726,1.172084,0.3757032,283.38,134.9433,117.1034,True
0,1.833337,-0.2810109,0.4356533,0.06160474,-1.317039,1.570424,-2.940617,0.7043437,1.135889,0.4838393,-1.987817,-0.4142278,11.1,1.2,-0.3150047,0.09335756,-0.09694636,-0.7611964,1.539725,0.2633347,0.7498571,1.312453,0.3991437,-0.1387751,0.2538249,-0.09413222,-1.07961,0.06417273,0.004518319,0.8279228,1.375573,0.2169576,0.4712147,1.174312,0.3751354,283.7426,133.5346,118.3988,True
0,1.844448,-0.2767506,0.4270814,0.05420071,-1.318358,1.56618,-2.936605,0.7032624,1.135945,0.4835098,-1.99225,-0.3996072,11.1,1.2,-0.3223851,0.1178495,-0.08833496,-0.7612971,1.542858,0.2647752,0.748946,1.312405,0.3991835,-0.1418801,0.2570221,-0.08770434,-1.080462,0.06765175,0.004399542,0.8279808,1.375496,0.2169902,0.4706815,1.176523,0.3745242,284.1706,132.1006,119.6725,True
0,1.855559,-0.268191,0.4164726,0.05851278,-1.320083,1.562016,-2.933026,0.7020162,1.136043,0.4832304,-1.995804,-0.3197197,11.1,1.2,-0.3296252,0.1497792,-0.06160975,-0.7603804,1.546567,0.2659752,0.7481108,1.312427,0.39908,-0.1418225,0.2559437,-0.08343596,-1.081089,0.07072304,0.004415521,0.8278185,1.375475,0.2171583,0.4700705,1.178636,0.3740505,284.6122,130.6712,120.9618,True
0,1.86667,-0.2682095,0.4335851,0.07332467,-1.322392,1.557275,-2.928896,0.700897,1.136031,0.4829502,-1.998448,-0.2375734,11.1,3,-0.341195,0.1561549,-0.0434005,-0.7597194,1.54914,0.2681507,0.7471733,1.312431,0.3990402,-0.1482269,0.2485078,-0.08444601,-1.082221,0.07376251,0.004771586,0.8277766,1.37536,0.2172208,0.4693003,1.180608,0.3738385,285.0128,129.4377,122.1564,True
0,1.877781,-0.269327,0.4612883,0.07529335,-1.324534,1.551427,-2.924434,0.6997567,1.136096,0.4826615,-2.001295,-0.2568817,11.1,3,-0.3517231,0.1614657,-0.02733338,-0.7589503,1.551754,0.2705244,0.7462721,1.312521,0.3989866,-0.1493579,0.2453439,-0.08976796,-1.083414,0.07705723,0.004895955,0.8277967,1.375211,0.2173569,0.468371,1.182416,0.3739369,285.3015,128.4186,123.2605,True
0,1.888893,-0.2693444,0.470876,0.07524029,-1.326512,1.546052,-2.920156,0.6985215,1.136208,0.4823804,-2.003038,-0.1560107,11.1,3,-0.3677242,0.1678706,-0.03039031,-0.7587144,1.554817,0.2728829,0.7453235,1.312591,0.3987315,-0.1524731,0.2485296,-0.08333136,-1.08411,0.08030003,0.005169196,0.8277006,1.375113,0.2175236,0.4672598,1.184073,0.3743442,285.5009,127.5162,124.342,True
0,1.900004,-0.2714501,0.4495054,0.06790408,-1.327987,1.542227,-2.916224,0.6973463,1.136408,0.481997,-2.004747,-0.1540075,11.1,3,-0.3699098,0.172135,-0.03782486,-0.7588432,1.55783,0.2748268,0.7444279,1.312776,0.3986797,-0.157776,0.244276,-0.08115679,-1.085096,0.08333537,0.005702627,0.827703,1.375154,0.2176974,0.466019,1.185584,0.3750547,285.6389,126.7698,125.355,True
0,1.911115,-0.2713509,0.3972694,0.0618342,-1.329067,1.539637,-2.91261,0.6960158,1.136616,0.4817202,-2.006381,-0.1472279,13.5,8.2,-0.3699313,0.1817263,-0.04100978,-0.7587591,1.561296,0.276435,0.7435114,1.312913,0.3986256,-0.1629889,0.2357385,-0.07152019,-1.085548,0.08595645,0.006467753,0.8276298,1.375122,0.2178652,0.4646259,1.187031,0.3760381,285.7537,126.2323,126.2435,True
0,1.922226,-0.272315,0.3493149,0.06106613,-1.330261,1.537599,-2.909155,0.6947632,1.136799,0.4816227,-2.007718,-0.1202337,13.5,8.2,-0.3613997,0.191304,-0.03999844,-0.7584352,1.564734,0.2776465,0.7426889,1.313003,0.3985744,-0.1660969,0.2282874,-0.06404714,-1.086134,0.08880311,0.007098922,0.8274524,1.375028,0.2180958,0.4631472,1.188447,0.3771974,285.8158,125.715,127.2021,True
0,1.933337,-0.2721725,0.265056,0.04451715,-1.330164,1.537661,-2.906138,0.6933742,1.137064,0.4813793,-2.008903,-0.1066705,13.5,8.2,-0.3496611,0.2040812,-0.03794381,-0.7580124,1.568699,0.2782324,0.7418058,1.313154,0.3985195,-0.1723781,0.2250818,-0.05438417,-1.086366,0.09160249,0.007987087,0.8272812,1.375049,0.2183239,0.4617179,1.189817,0.3783288,285.8383,125.1505,128.2582,True
0,1.944448,-0.2816049,0.1765334,0.03121973,-1.330066,1.538592,-2.902915,0.6919297,1.137389,0.4811647,-2.009937,-0.09306439,13.5,8.2,-0.3410503,0.2083244,-0.02628201,-0.757223,-4.711207,0.2793922,0.7408171,1.313344,0.3984771,-0.1787667,0.2272344,-0.05430332,-1.087002,0.09481892,0.008676047,0.8270999,1.375031,0.2184718,0.4603906,1.191131,0.3792343,285.8884,124.5379,129.2697,True
0,1.955559,-0.2771507,0.0720591,0.01690888,-1.329188,1.541163,-2.90068,0.6905142,1.137685,0.481003,-2.010739,-0.07206873,13.5,8.2,-0.3345956,0.1997903,-0.01781899,-0.756603,-4.70858,0.2809547,0.7399257,1.313491,0.3984253,-0.1882633,0.2325551,-0.04671781,-1.087222,0.09798954,0.009669938,0.8269827,1.375,0.2187223,0.4592217,1.192367,0.3798009,285.9739,123.8821,130.2006,True
0,1.966671,-0.2717468,0.03693993,0.02353395,-1.329498,1.542051,-2.898039,0.6891754,1.13791,0.4808428,-2.011075,-0.02972315,18.9,5.3,-0.3324038,0.1901912,-0.01039187,-0.7560464,-4.706238,0.2827899,0.7389903,1.313611,0.3984385,-0.1913155,0.2357457,-0.03496062,-1.087247,0.1012973,0.01038899,0.8268348,1.374964,0.2188897,0.4581647,1.193522,0.3798658,286.0987,123.2778,130.971,True
0,1.977782,-0.2599289,-0.008814968,0.02911515,-1.329751,1.543723,-2.895943,0.687665,1.138015,0.4805672,-2.012285,-0.1099832,18.9,5.3,-0.3334315,0.1933864,-0.006107949,-0.7552144,-4.703068,0.2841697,0.7380155,1.313705,0.3983917,-0.1890998,0.2346608,-0.02859131,-1.087248,0.1040827,0.01101084,0.8266438,1.374965,0.2191122,0.4571977,1.194606,0.3793493,286.2468,122.769,131.4729,True
0,1.988893,-0.2503451,-0.004515577,0.03227329,-1.330222,1.543798,-2.893479,0.6863252,1.138172,0.4803348,-2.012896,-0.05464701,18.9,5.3,-0.3387437,0.2114969,-0.004980955,-0.7544139,-4.698883,0.2850752,0.7371116,1.313816,0.3983591,-0.1836909,0.22507,-0.02121587,-1.087192,0.1067376,0.01168568,0.8264616,1.374899,0.2191956,0.4563755,1.195565,0.3782686,286.4454,122.3733,131.6442,True
0,2.000004,-0.2471726,0.009359855,0.03538291,-1.330884,1.543266,-2.890694,0.684984,1.13835,0.4801373,-2.013689,-0.07187038,18.9,5.3,-0.3355851,0.2306731,-0.01031078,-0.7538221,-4.694247,0.2853497,0.7362334,1.313895,0.3983247,-0.1729975,0.2218746,-0.01709241,-1.08725,0.1096791,0.0120279,0.8263054,1.37488,0.2193582,0.4555928,1.196445,0.3768191,286.6845,121.9994,131.6274,True
0,2.011115,-0.2366933,0.09571457,0.04229084,-1.3327,1.539258,-2.887309,0.6838562,1.13854,0.4798925,-2.014087,-0.03561211,24,5,-0.3207601,0.2370688,-0.02213991,-0.7536544,-4.689954,0.2852736,0.735304,1.313844,0.3983757,-0.1622818,0.2186627,-0.01190335,-1.087171,0.1123114,0.0122556,0.8261553,1.374849,0.2195964,0.454761,1.19725,0.3751946,286.9469,121.6069,131.5759,True
0,2.022226,-0.2324792,0.1266397,0.04638155,-1.333903,1.537134,-2.884424,0.6826104,1.138669,0.4796972,-2.014194,-0.009355098,24,5,-0.3197327,0.2210993,-0.02642737,-0.7535174,-4.687097,0.2867564,0.7344626,1.3139,0.398304,-0.1622938,0.2218653,-0.01295338,-1.087225,0.1153522,0.01269263,0.8259466,1.374797,0.2198534,0.4538428,1.197992,0.3736537,287.1993,121.4351,131.294,True
0,2.033337,-0.2176391,0.1682533,0.05250671,-1.335528,1.533985,-2.881773,0.6814132,1.138746,0.4795067,-2.014638,-0.04038702,24,5,-0.3165899,0.1848843,-0.03181984,-0.7537843,-4.685755,0.2892153,0.7336242,1.313891,0.3983045,-0.1603019,0.231474,-0.02467873,-1.087901,0.1186783,0.01286467,0.8257675,1.374721,0.2201436,0.4527842,1.198748,0.3724549,287.4091,121.4504,130.8763,True
0,2.044448,-0.2123422,0.1842712,0.05773107,-1.33702,1.531768,-2.878976,0.6803877,1.138795,0.4792092,-2.014914,-0.02471974,24,5,-0.3049844,0.1476007,-0.04473581,-0.754563,-4.684912,0.2916313,0.7327951,1.314004,0.3982158,-0.1571472,0.2389442,-0.02791204,-1.088456,0.1221194,0.01300635,0.8256765,1.374751,0.2203467,0.4515817,1.199609,0.3718821,287.5757,121.4735,130.6326,True
0,2.055559,-0.2059341,0.1832594,0.06412095,-1.338428,1.530017,-2.87653,0.6792428,1.138844,0.4790244,-2.015536,-0.05659617,24,5,-0.2998151,0.1156648,-0.06398766,-0.7557785,-4.683948,0.2940777,0.7319789,1.313972,0.3982053,-0.1603931,0.2432144,-0.03212139,-1.088872,0.1253431,0.01341807,0.8255147,1.374665,0.220613,0.4503142,1.200547,0.3719797,287.6943,121.2199,130.9196,True
0,2.06667,-0.2048458,0.1737033,0.06843784,-1.339739,1.528628,-2.8739,0.6781573,1.138865,0.4787762,-2.015318,0.02035224,26,4.5,-0.2956125,0.1028888,-0.0714912,-0.7564996,-4.682401,0.2961036,0.7309954,1.313975,0.3980713,-0.1538917,0.2495892,-0.02367381,-1.088906,0.128769,0.01332779,0.82528,1.374601,0.2208426,0.449053,1.201504,0.3726811,287.764,120.7513,131.6558,True
0,2.077781,-0.2026913,0.1577148,0.06639941,-1.340693,1.527636,-2.871443,0.6769457,1.138964,0.4785674,-2.015598,-0.02566786,26,4.5,-0.2860244,0.1092764,-0.07155789,-0.7568043,-4.680075,0.2972658,0.7300565,1.313991,0.3980124,-0.1506751,0.2485204,-0.02158376,-1.089048,0.1318326,0.01352912,0.8250436,1.374586,0.2210715,0.4478785,1.202421,0.3737752,287.7722,120.1612,132.6944,True
0,2.088892,-0.1951904,0.1310366,0.05803128,-1.341199,1.52742,-2.869576,0.6756775,1.13892,0.4784546,-2.015427,0.01584249,26,4.5,-0.2796635,0.1401669,-0.07689603,-0.7569631,-4.676073,0.2971667,0.7291452,1.313974,0.3980386,-0.1463226,0.2485039,-0.01417963,-1.088933,0.1348699,0.01356934,0.8248037,1.374561,0.2213197,0.446754,1.203298,0.375003,287.7698,119.5082,133.8458,True
0,2.100003,-0.1866077,0.1022937,0.05925704,-1.341989,1.527465,-2.86783,0.6745589,1.138962,0.4781592,-2.015547,-0.01108402,26,4.5,-0.2807144,0.1636017,-0.07579559,-0.7569673,-4.672048,0.2973979,0.7282141,1.314003,0.3980002,-0.1441325,0.2410301,-0.008889618,-1.088784,0.1375097,0.01389558,0.8244905,1.374633,0.2215619,0.4456553,1.204133,0.3761163,287.7698,118.885,134.9396,True
0,2.111114,-0.172703,0.07247487,0.05621938,-1.342446,1.527816,-2.866455,0.6733685,1.13901,0.4779267,-2.01602,-0.0430848,26,4.5,-0.2753009,0.2062001,-0.06619449,-0.7561876,-4.666667,0.2963281,0.7273622,1.314063,0.3979924,-0.140822,0.2356836,0.0006479176,-1.088385,0.1402579,0.01405164,0.8242182,1.374646,0.2218175,0.4445382,1.204934,0.3769198,287.8167,118.336,135.8477,True
0,2.122225,-0.1566762,0.05228718,0.06058518,-1.343318,1.528145,-2.865291,0.6722394,1.13904,0.4776621,-2.016143,-0.01090753,25.4,3.3,-0.2731388,0.2136524,-0.06406493,-0.7559926,-4.662976,0.296425,0.726356,1.314093,0.3979051,-0.1374809,0.2313946,0.01232804,-1.087735,0.1429304,0.01415763,0.82398,1.374585,0.2219889,0.4434669,1.205614,0.3773039,287.8923,117.8287,136.5655,True
0,2.133336,-0.1438757,0.04379056,0.0606172,-1.344018,1.528143,-2.864115,0.6710474,1.139068,0.4773958,-2.01643,-0.02613267,25.4,3.3,-0.2667341,0.202995,-0.06199606,-0.756031,-4.660044,0.2970306,0.7254372,1.314094,0.3978531,-0.1309562,0.2356318,0.02290973,-1.087084,0.1460643,0.0139254,0.8237075,1.37457,0.2222354,0.4424653,1.206154,0.3772155,287.9453,117.456,137.0164,True
0,2.144447,-0.1311003,0.0534234,0.06374374,-1.345145,1.527422,-2.862992,0.6699047,1.139011,0.4771881,-2.016627,-0.01787402,25.4,3.3,-0.2583437,0.1710472,-0.07807899,-0.7571852,-4.658445,0.2984211,0.7243769,1.314045,0.3978393,-0.1256305,0.2420185,0.0218087,-1.086679,0.1493218,0.01348385,0.8233609,1.374602,0.2224443,0.4415119,1.206562,0.3766825,288.0117,117.2453,137.1512,True
0,2.155558,-0.1151301,0.06734875,0.07109567,-1.346472,1.526496,-2.862161,0.6686838,1.139045,0.4769192,-2.016637,-0.0008212134,25.4,3.3,-0.2552301,0.14549,-0.08772021,-0.758235,-4.656902,0.3000315,0.7234035,1.314061,0.3977954,-0.1299848,0.2377728,0.01440234,-1.086694,0.1521294,0.01376961,0.8230379,1.374624,0.2227082,0.4405824,1.206866,0.3758177,288.0884,117.1283,137.0638,True
0,2.166669,-0.1055622,0.07696296,0.0731589,-1.347662,1.52569,-2.86107,0.6676325,1.139002,0.4766092,-2.016767,-0.01193564,25.4,4,-0.2668923,0.148679,-0.08229586,-0.7583479,-4.654237,0.3013609,0.7224185,1.313949,0.3977468,-0.1384711,0.239894,0.01770716,-1.086321,0.1550946,0.01426762,0.8227639,1.374641,0.2229671,0.4396141,1.207107,0.3747884,288.1953,117.1132,136.7901,True
0,2.17778,-0.1002439,0.08125138,0.0763234,-1.34887,1.524996,-2.859886,0.6665448,1.138989,0.4764428,-2.01702,-0.02311927,25.4,4,-0.2615326,0.173175,-0.07911045,-0.7582302,-4.650023,0.3009825,0.721454,1.313812,0.39783,-0.1406245,0.246291,0.01561898,-1.086133,0.1584623,0.0143366,0.8224609,1.374626,0.2232518,0.4385756,1.20732,0.3738115,288.2981,117.1203,136.4747,True
0,2.188891,-0.09703147,0.07810608,0.08379434,-1.350235,1.524538,-2.858801,0.6654512,1.138935,0.476228,-2.016653,0.0336774,25.4,4,-0.2487673,0.1944807,-0.08238078,-0.7583655,-4.64553,0.3000605,0.720449,1.313749,0.3977516,-0.1386074,0.244168,0.007059783,-1.086382,0.1613706,0.01453633,0.8221118,1.374591,0.2235572,0.437444,1.207537,0.3730501,288.358,117.0878,136.2867,True
0,2.200002,-0.09594756,0.07279144,0.08701851,-1.35137,1.524352,-2.857758,0.664268,1.13893,0.4760368,-2.016403,0.02244111,25.4,4,-0.2466342,0.1976703,-0.08346064,-0.7586685,-4.642103,0.300146,0.7194366,1.31379,0.397615,-0.1333295,0.2430992,0.003800118,-1.086351,0.1643082,0.01459013,0.8216884,1.37456,0.2237961,0.4363178,1.207724,0.3725868,288.3735,117.0399,136.2321,True
0,2.211113,-0.09166139,0.06108825,0.088147,-1.352456,1.524346,-2.856887,0.663105,1.138895,0.4757903,-2.01674,-0.03046677,25.4,4,-0.234887,0.1859436,-0.07930353,-0.758896,-4.639455,0.3004858,0.7184449,1.313755,0.3975718,-0.1237432,0.2420288,0.003680061,-1.086264,0.1673461,0.01423619,0.8213384,1.374573,0.2240155,0.435204,1.207935,0.3724353,288.3516,116.9466,136.3152,True
0,2.222224,-0.08738226,0.04935398,0.08501141,-1.353236,1.524473,-2.856074,0.6620025,1.138872,0.4755273,-2.017412,-0.06044299,26,3.7,-0.2252738,0.1880646,-0.07724553,-0.7590504,-4.636224,0.3002355,0.7175173,1.313771,0.3975153,-0.1056421,0.2270968,0.003423348,-1.086244,0.1694924,0.0138013,0.8209372,1.374563,0.2242072,0.4341094,1.208226,0.3725377,288.3112,116.7338,136.6197,True
0,2.233335,-0.08632004,0.05149297,0.08606227,-1.354384,1.524129,-2.855067,0.6608427,1.138846,0.4752858,-2.018552,-0.1027879,26,3.7,-0.2199056,0.1901875,-0.07195794,-0.7589988,-4.632864,0.3000994,0.7165639,1.313732,0.3974822,-0.08855379,0.2100327,0.007442546,-1.086008,0.1715009,0.01327586,0.8205289,1.37457,0.2244496,0.4330254,1.208645,0.3727836,288.2827,116.4254,137.0944,True
0,2.244446,-0.07778776,0.04509693,0.08289313,-1.355287,1.524082,-2.854512,0.6597282,1.138775,0.4749718,-2.02,-0.1302624,26,3.7,-0.2145118,0.1741979,-0.06243014,-0.7589285,-4.630678,0.3007843,0.7156473,1.313636,0.3975792,-0.07901982,0.198312,0.004106415,-1.086034,0.173533,0.01300208,0.8201076,1.374529,0.2247238,0.4320161,1.209179,0.3730472,288.2805,116.0394,137.6838,True
0,2.255557,-0.07778464,0.04080243,0.07759285,-1.356042,1.524034,-2.853655,0.6585825,1.138709,0.4747429,-2.021677,-0.1507449,26,3.7,-0.2114056,0.1347874,-0.07314783,-0.759981,-4.62999,0.302485,0.7147753,1.313542,0.397563,-0.0694829,0.1972478,-0.0002725115,-1.086147,0.1759859,0.01226998,0.8196106,1.374524,0.2250025,0.4311199,1.209818,0.3732148,288.325,115.6456,138.252,True
0,2.266668,-0.0766849,0.03020854,0.0872414,-1.357287,1.524376,-2.852918,0.6574234,1.138655,0.4745312,-2.024127,-0.2211177,23.4,4.2,-0.2019379,0.0953843,-0.08711529,-0.7614329,-4.629733,0.3042715,0.7138814,1.313427,0.397552,-0.06645532,0.1919375,-0.01310389,-1.086694,0.1781904,0.01199674,0.8191073,1.37449,0.2252328,0.430311,1.210584,0.3732322,288.4221,115.2025,138.8103,True
0,2.277779,-0.07668505,0.02485708,0.08300963,-1.35807,1.524487,-2.851998,0.656287,1.138588,0.4742844,-2.026203,-0.1861738,23.4,4.2,-0.1945906,0.07728308,-0.09997548,-0.7627597,-4.628631,0.3054811,0.7129365,1.313288,0.3974385,-0.06328551,0.1855335,-0.01421269,-1.086728,0.1801088,0.01182017,0.8186165,1.374501,0.2253838,0.4296254,1.211423,0.3730631,288.5829,114.717,139.3573,True
0,2.28889,-0.07773771,0.02168435,0.08729134,-1.359194,1.524662,-2.851139,0.6551353,1.138521,0.4740341,-2.028777,-0.2319337,23.4,4.2,-0.1871268,0.07301839,-0.09897274,-0.7636055,-4.627281,0.3063541,0.7120402,1.313177,0.3973806,-0.0535772,0.1673981,-0.003713259,-1.086416,0.1815301,0.01142576,0.818139,1.374498,0.2255516,0.4290231,1.212318,0.3727075,288.782,114.2403,139.8085,True
0,2.300001,-0.08090738,0.01637011,0.09052011,-1.360197,1.524958,-2.85036,0.6539924,1.138535,0.4738364,-2.031435,-0.2389877,23.4,4.2,-0.1849245,0.07941149,-0.09046429,-0.7639533,-4.625151,0.3067834,0.7111672,1.313146,0.3973901,-0.03847,0.158828,0.01207151,-1.085662,0.1830951,0.01059672,0.8176066,1.374483,0.2256756,0.4284787,1.213263,0.3721945,288.9916,113.7299,140.2349,True
0,2.311112,-0.07983415,0.0131827,0.09160282,-1.361238,1.525238,-2.849564,0.6528557,1.138461,0.4735224,-2.034433,-0.2699494,23.4,4.2,-0.1816539,0.08153015,-0.08089922,-0.7642159,-4.623535,0.307504,0.7102338,1.313112,0.3973362,-0.02874859,0.1566678,0.02260948,-1.084968,0.184964,0.009673666,0.817054,1.374486,0.225858,0.4279756,1.214239,0.3715642,289.2272,113.2916,140.5661,True
0,2.322223,-0.07769465,0.01319416,0.09267001,-1.362374,1.525398,-2.848944,0.6516701,1.138327,0.4732738,-2.037609,-0.2858678,21.3,11.5,-0.1805315,0.08152422,-0.07344531,-0.7644449,-4.622037,0.3084175,0.709305,1.313166,0.3974342,-0.02763846,0.1534677,0.02578702,-1.084581,0.1868242,0.009008941,0.8165092,1.374499,0.2260265,0.4274903,1.215248,0.3708735,289.4594,112.8686,140.8547,True
0,2.333334,-0.07450914,0.02819833,0.1074922,-1.364217,1.525196,-2.848178,0.6506689,1.138272,0.4728825,-2.040714,-0.279444,21.3,11.5,-0.1793629,0.0953581,-0.06065454,-0.7641813,-4.619812,0.3087501,0.7083822,1.313232,0.3974609,-0.02973548,0.1587871,0.02795155,-1.084229,0.1889472,0.00835913,0.8160272,1.37449,0.2262185,0.4270165,1.216283,0.3701772,289.6904,112.4464,141.1453,True
0,2.344445,-0.06599997,0.04319862,0.1191101,-1.366123,1.52474,-2.847665,0.649605,1.138223,0.4725308,-2.044005,-0.2964681,21.3,11.5,-0.1739125,0.1155749,-0.04681927,-0.7635666,-4.617254,0.3084375,0.7075342,1.313252,0.3974745,-0.03085297,0.1587835,0.02370347,-1.084108,0.1906912,0.007899735,0.8155404,1.374482,0.2263281,0.4265529,1.217308,0.36951,289.9408,111.9879,141.499,True
0,2.355556,-0.05322719,0.06891022,0.1381145,-1.36864,1.523699,-2.847475,0.6484247,1.13828,0.472152,-2.046653,-0.2380657,21.3,11.5,-0.1717427,0.1294161,-0.04149596,-0.7633445,-4.614562,0.3084095,0.7066874,1.313287,0.3974347,-0.03196277,0.153466,0.02050357,-1.084076,0.1924139,0.007522897,0.8151064,1.374472,0.2264829,0.4260771,1.218281,0.3689152,290.1808,111.4943,141.8992,True
0,2.366668,-0.03515601,0.1096127,0.1698081,-1.372146,1.522171,-2.84732,0.6473952,1.138249,0.4718285,-2.049256,-0.2347298,18.9,29.9,-0.169548,0.1240792,-0.03299639,-0.7630724,-4.612854,0.3089775,0.7058488,1.313362,0.3973784,-0.03528255,0.1321658,0.01197584,-1.084299,0.1930585,0.007797469,0.8146719,1.374505,0.2265615,0.4255672,1.219198,0.3684283,290.3582,111.0088,142.3321,True
0,2.377779,-0.03088695,0.1139247,0.1772347,-1.37457,1.521541,-2.847021,0.6463752,1.138193,0.471437,-2.05168,-0.2185764,18.9,29.9,-0.1641395,0.1208708,-0.02238813,-0.7626244,-4.611199,0.3094274,0.7049712,1.313349,0.3973122,-0.0331228,0.1193638,0.0140478,-1.084149,0.1939162,0.007556453,0.8140548,1.374598,0.226722,0.4249347,1.220091,0.3680741,290.5106,110.5586,142.7585,True
0,2.38889,-0.02451032,0.1364344,0.1983987,-1.378013,1.52012,-2.846709,0.6453273,1.138071,0.4710994,-2.053482,-0.1620854,18.9,29.9,-0.1588063,0.1166068,-0.02136892,-0.7624641,-4.609522,0.3097917,0.7041147,1.313374,0.3972783,-0.03303563,0.1108273,0.02148805,-1.083668,0.1950016,0.007427822,0.8135571,1.374636,0.2268267,0.4241113,1.220979,0.367901,290.6232,110.0976,143.213,True
0,2.400001,-0.02130932,0.1385971,0.202651,-1.380802,1.519318,-2.846443,0.6443326,1.137956,0.4707696,-2.054545,-0.09506452,18.9,29.9,-0.1556033,0.105948,-0.02140925,-0.7625088,-4.608385,0.3104447,0.7032882,1.313334,0.3971503,-0.0298121,0.1129475,0.02357665,-1.083411,0.1964732,0.006955111,0.8129466,1.374648,0.226964,0.4231997,1.221777,0.3679661,290.6853,109.5571,143.823,True
0,2.411112,-0.02874124,0.1290199,0.2069794,-1.383464,1.518988,-2.845805,0.6432672,1.137794,0.4703817,-2.055829,-0.1159848,18.9,29.9,-0.1557485,0.08998929,-0.03953699,-0.7633493,-4.607305,0.311404,0.7024314,1.313249,0.3970516,-0.02336658,0.1161319,0.02776486,-1.082948,0.1980517,0.00625683,0.8124474,1.374697,0.2271008,0.4222552,1.222423,0.3681972,290.7179,109.0481,144.4847,True
0,2.422223,-0.03725936,0.1193733,0.1995932,-1.385612,1.518581,-2.84499,0.6422024,1.137718,0.4701264,-2.056789,-0.0862104,18.3,39.4,-0.1569822,0.07616445,-0.06084835,-0.7644982,-4.606144,0.3123403,0.7015122,1.313235,0.3970222,-0.02011874,0.1225141,0.03199176,-1.082555,0.199848,0.005603823,0.8119361,1.374673,0.2272258,0.4212673,1.222938,0.3685547,290.7141,108.5343,145.1716,True
0,2.433334,-0.05004979,0.1128742,0.1858005,-1.387432,1.518061,-2.843903,0.6411992,1.137533,0.4697404,-2.057212,-0.03749762,18.3,39.4,-0.1538842,0.07937402,-0.07365263,-0.7653978,-4.604239,0.3125638,0.7005994,1.313121,0.3969371,-0.02336616,0.1289079,0.0267154,-1.082468,0.2015659,0.005047755,0.8113791,1.374696,0.2274132,0.42027,1.223315,0.368952,290.6799,108.0384,145.8751,True
0,2.444445,-0.06495307,0.09675246,0.1667407,-1.388739,1.517901,-2.842728,0.6401881,1.137207,0.4693055,-2.057801,-0.0530634,18.3,39.4,-0.145478,0.08790897,-0.08862223,-0.7663624,-4.601812,0.3121691,0.699744,1.31302,0.3968947,-0.02652889,0.1278381,0.02994779,-1.082034,0.2031194,0.004818191,0.8107713,1.374651,0.2274625,0.4192396,1.223604,0.3692741,290.6277,107.5953,146.5132,True
0,2.455556,-0.08307156,0.08917829,0.1529619,-1.390246,1.517527,-2.841086,0.6393459,1.136797,0.4689054,-2.058261,-0.04117682,18.3,39.4,-0.1392973,0.106048,-0.1174124,-0.767955,-4.598465,0.3110439,0.6987531,1.312849,0.3968401,-0.03285205,0.1427165,0.03536708,-1.081611,0.2050622,0.004555603,0.810209,1.374762,0.2277005,0.418196,1.22385,0.3694576,290.584,107.2878,146.9657,True
0,2.466667,-0.09693113,0.08695698,0.1423413,-1.39164,1.517044,-2.839429,0.6385775,1.136476,0.4685881,-2.058742,-0.0432458,18.3,39.4,-0.1245038,0.1422829,-0.1345306,-0.7690825,-4.593774,0.3085624,0.697853,1.312686,0.3967907,-0.03275394,0.1544206,0.04284566,-1.080865,0.2074685,0.003791809,0.8096286,1.374782,0.2279155,0.4172142,1.224046,0.369463,290.5817,107.029,147.3462,True
0,2.477778,-0.1022793,0.09651575,0.1401597,-1.393461,1.516191,-2.838027,0.6378509,1.136192,0.4682217,-2.058902,-0.0138912,21,47.2,-0.1011376,0.1571904,-0.1442785,-0.7701835,-4.590191,0.3063368,0.6970794,1.31258,0.3968761,-0.0241705,0.1554489,0.04805899,-1.08029,0.209044,0.003065032,0.8089797,1.374923,0.2281222,0.4163615,1.224153,0.3692596,290.6244,106.7813,147.6616,True
0,2.488889,-0.09910404,0.1136233,0.1496418,-1.39582,1.515029,-2.83685,0.6371785,1.135832,0.4679804,-2.059418,-0.04677077,21,47.2,-0.08626712,0.1508002,-0.1497275,-0.7714826,-4.587429,0.3047964,0.696278,1.312424,0.3968499,-0.01565496,0.1437264,0.04793208,-1.079763,0.2103775,0.002332663,0.8083985,1.374949,0.2282684,0.4156704,1.224189,0.3688757,290.6675,106.5966,147.8253,True
0,2.5,-0.09062476,0.1371012,0.1548156,-1.398228,1.513498,-2.83583,0.6364244,1.13561,0.4676883,-2.060231,-0.07356101,21,47.2,-0.07349756,0.1156332,-0.1498651,-0.7730113,-4.586858,0.3048824,0.695384,1.312281,0.3969636,-0.012447,0.1362467,0.04893192,-1.079352,0.2114828,0.001827461,0.8077861,1.374958,0.2284162,0.4150923,1.224251,0.3683805,290.7039,106.4955,147.8349,True
0,2.511111,-0.07683969,0.1755357,0.1641565,-1.40125,1.510992,-2.835023,0.6358393,1.135235,0.4674711,-2.060941,-0.06412518,21,47.2,-0.05968565,0.07728204,-0.1532117,-0.7748393,-4.586679,0.3049405,0.6946765,1.312147,0.3969767,-0.008253954,0.1319933,0.04354543,-1.079057,0.2129818,0.001067928,0.8072041,1.374973,0.228548,0.4145821,1.224414,0.3678812,290.7618,106.375,147.8294,True
0,2.522222,-0.05772353,0.2160909,0.1724087,-1.404263,1.508328,-2.83468,0.6353003,1.134908,0.4671912,-2.061493,-0.04978983,24.3,43.1,-0.05105432,0.04849549,-0.1383944,-0.7759168,-4.586725,0.3052363,0.6939427,1.312003,0.396785,-0.004001215,0.1255791,0.04347213,-1.078678,0.2140015,0.0005589975,0.806542,1.374977,0.2286272,0.4140962,1.2247,0.3675075,290.86,106.1529,147.9323,True
0,2.533333,-0.04176699,0.2289189,0.174441,-1.407072,1.506075,-2.834389,0.6347203,1.134587,0.4669862,-2.062108,-0.05571068,24.3,43.1,-0.04141344,0.03463531,-0.1310275,-0.777095,-4.586339,0.3051043,0.6932114,1.311867,0.3967478,-0.001871906,0.1234474,0.04344195,-1.078204,0.2154501,-0.0001797634,0.8059733,1.375014,0.2287555,0.4135593,1.225119,0.3673552,290.9908,105.8799,148.1461,True
0,2.544444,-0.02476086,0.255616,0.1817177,-1.410297,1.503399,-2.834296,0.6343788,1.134295,0.4668252,-2.062765,-0.05957417,24.3,43.1,-0.0402949,0.02716426,-0.1235904,-0.7781981,-4.585766,0.3051706,0.6925548,1.311651,0.3967061,-0.00505998,0.1202273,0.04452795,-1.077822,0.216458,-0.0004189152,0.805374,1.375103,0.2288725,0.4130292,1.22556,0.3675342,291.1303,105.5411,148.5135,True
0,2.555555,-0.00984638,0.2566908,0.1774281,-1.412881,1.50114,-2.834412,0.6339463,1.133999,0.4666765,-2.062856,-0.00783334,24.3,43.1,-0.03384307,0.03567629,-0.1161733,-0.7789539,-4.584398,0.3043346,0.6918287,1.311549,0.3966656,-0.003965467,0.1095619,0.04662152,-1.077302,0.2172687,-0.0009081379,0.8048141,1.375149,0.2289987,0.4124887,1.225958,0.3680607,291.2451,105.1302,149.0785,True
0,2.566666,0.005070105,0.2492162,0.1699948,-1.41517,1.499308,-2.834625,0.6334326,1.13361,0.4665372,-2.063132,-0.0251844,24.3,43.1,-0.03368736,0.05695663,-0.09697257,-0.77898,-4.58241,0.3032853,0.6910615,1.311388,0.3967497,-0.006079867,0.1010279,0.04875155,-1.076832,0.218059,-0.0010634,0.804284,1.375228,0.2291727,0.4119261,1.226255,0.3688772,291.2976,104.6903,149.7547,True
0,2.577777,0.00724143,0.2289357,0.1626513,-1.417193,1.497983,-2.834687,0.6328797,1.133408,0.4663835,-2.063285,-0.01380283,23.4,44.5,-0.02720658,0.07185614,-0.0863549,-0.7792686,-4.58045,0.3019463,0.6903303,1.31143,0.3968029,-0.009336285,0.09677107,0.04345494,-1.076579,0.2190158,-0.00138298,0.8036957,1.375302,0.2293212,0.4113753,1.226419,0.3699178,291.2812,104.2724,150.4737,True
0,2.588888,0.01469918,0.2107241,0.1425126,-1.418617,1.49657,-2.834798,0.632454,1.133204,0.4662547,-2.063294,-0.0006732196,23.4,44.5,-0.01754557,0.09741078,-0.07787792,-0.7792399,-4.57759,0.2997766,0.6896777,1.311375,0.3968086,-0.01246414,0.09355241,0.04987182,-1.075907,0.219859,-0.001401888,0.8031249,1.375242,0.229393,0.4107898,1.226456,0.3710566,291.2584,103.873,151.2265,True
0,2.599999,0.01793063,0.179744,0.12671,-1.419779,1.495847,-2.834909,0.6320853,1.132915,0.4661002,-2.063032,0.02384203,23.4,44.5,-0.01329339,0.09741195,-0.0789822,-0.779944,-4.575776,0.298522,0.6889883,1.3113,0.3968842,-0.01030257,0.08713121,0.05302352,-1.075303,0.220361,-0.001537443,0.8024138,1.37538,0.2295206,0.4101227,1.226372,0.3721479,291.216,103.4713,151.9781,True
0,2.61111,0.02756767,0.140222,0.1056236,-1.420289,1.495756,-2.83552,0.6315913,1.132755,0.4660504,-2.06268,0.03148727,23.4,44.5,-0.01116671,0.08462781,-0.07901318,-0.7806109,-4.574718,0.297816,0.6883837,1.311224,0.3969114,-0.008124471,0.07753474,0.05724065,-1.074536,0.2209691,-0.001812547,0.8018826,1.375435,0.2296011,0.4093487,1.226206,0.3730582,291.1186,103.1626,152.5915,True
0,2.622221,0.03189737,0.09430436,0.08564816,-1.420525,1.496198,-2.836132,0.6309808,1.132666,0.4661036,-2.06184,0.07572125,21,34,-0.01325986,0.07397284,-0.07475001,-0.7811542,-4.573726,0.2972623,0.6877496,1.311148,0.3971136,-0.009215668,0.06580548,0.05616892,-1.073929,0.2211382,-0.001669536,0.8012015,1.375395,0.2297602,0.4085804,1.225903,0.3737166,291.0002,103.0121,152.9737,True
0,2.633332,0.03726685,0.06011908,0.06773236,-1.420532,1.496708,-2.836806,0.6304613,1.132535,0.4660709,-2.061167,0.06000789,21,34,-0.01217343,0.06225063,-0.07157578,-0.7817262,-4.573028,0.2968687,0.6871608,1.311048,0.3971376,-0.00825255,0.05729125,0.04761159,-1.07379,0.2214477,-0.001847968,0.8007424,1.375395,0.2298694,0.4078697,1.225449,0.3740764,290.8777,102.9248,153.1947,True
0,2.644443,0.04583175,0.02486953,0.04980981,-1.420177,1.497537,-2.837693,0.6300377,1.132437,0.466121,-2.059775,0.1256801,21,34,-0.00466463,0.04945771,-0.06419156,-0.7821336,-4.572574,0.2963797,0.6865625,1.310914,0.3971088,-0.007279597,0.05729124,0.04119605,-1.073678,0.2220147,-0.001887116,0.8003058,1.375333,0.2300198,0.4071354,1.224903,0.3741261,290.7674,102.9323,153.1923,True
0,2.655554,0.05543778,-0.001912216,0.02119004,-1.419229,1.498157,-2.838818,0.6296123,1.132298,0.4661031,-2.05821,0.1406338,21,34,0.002874594,0.04944339,-0.0535966,-0.7821981,-4.571705,0.2954769,0.6859778,1.310792,0.3971198,-0.01151296,0.06367204,0.04232036,-1.073232,0.222918,-0.002188053,0.7998292,1.375323,0.2301495,0.4063284,1.224289,0.3739131,290.6552,103.0109,153.0128,True
0,2.666665,0.06501666,-0.01477701,0.004201461,-1.418519,1.498531,-2.839741,0.6292282,1.13216,0.4660578,-2.056569,0.1475727,21,34,0.007108599,0.06649005,-0.05787081,-0.782564,-4.569541,0.2936841,0.6854082,1.310732,0.3970881,-0.01046346,0.06685252,0.04230877,-1.072805,0.2237051,-0.002231995,0.7993319,1.375288,0.2302287,0.4055135,1.223569,0.3735138,290.5215,103.1758,152.6995,True
0,2.677776,0.07248452,-0.02653164,-0.00320207,-1.418024,1.499164,-2.84082,0.6287775,1.13193,0.465996,-2.055223,0.1208659,17.7,62.8,-0.00141345,0.08034209,-0.05885531,-0.7828857,-4.567465,0.292463,0.6848534,1.310605,0.3970873,-0.01153629,0.0572699,0.04230543,-1.072325,0.224137,-0.002224538,0.7988088,1.375374,0.2303476,0.4047504,1.222733,0.3730113,290.3648,103.4501,152.2561,True
0,2.688887,0.07994612,-0.03401772,-0.01062537,-1.417482,1.49967,-2.841992,0.6284446,1.131815,0.4660602,-2.053658,0.1412244,17.7,62.8,-0.002479263,0.09099444,-0.05989959,-0.7831616,-4.565406,0.2909844,0.6842611,1.310507,0.397094,-0.00824856,0.0519046,0.05077044,-1.071584,0.2241922,-0.002125202,0.7983267,1.375295,0.2303693,0.4040366,1.221809,0.3724792,290.2111,103.8219,151.7216,True
0,2.699998,0.08099918,-0.03082306,-0.01064873,-1.41729,1.499875,-2.842842,0.6280371,1.131835,0.4660525,-2.052521,0.1020308,17.7,62.8,0.007129721,0.09631775,-0.0578348,-0.783274,-4.563481,0.2891727,0.6837394,1.310427,0.397192,-0.00392282,0.04977241,0.056057,-1.070553,0.2249494,-0.002585397,0.7975745,1.375294,0.2305381,0.403342,1.220869,0.3719959,290.0508,104.1627,151.232,True
0,2.711109,0.08097903,-0.02231343,-0.01282973,-1.417081,1.499773,-2.843725,0.6277776,1.131694,0.4660673,-2.05121,0.1179828,17.7,62.8,0.01347528,0.08034248,-0.06322866,-0.7840197,-4.562654,0.2882201,0.6832687,1.310325,0.3972082,0.002482623,0.05189814,0.05704731,-1.069875,0.2257164,-0.003198989,0.7971473,1.37528,0.2305691,0.4026507,1.21995,0.371614,289.8928,104.4066,150.8601,True
0,2.72222,0.07987987,-0.007398879,-0.01291196,-1.417134,1.499332,-2.844449,0.6275206,1.131585,0.4660962,-2.049168,0.1842211,18,81.3,0.0187808,0.0409266,-0.06437646,-0.784963,-4.563587,0.2885309,0.6828983,1.310345,0.3973093,0.001247466,0.03805545,0.04425021,-1.069865,0.2253759,-0.002916694,0.7967418,1.375375,0.2306638,0.4019414,1.219088,0.3713833,289.7159,104.6501,150.5116,True
0,2.733331,0.08198453,0.008588513,-0.01300329,-1.41726,1.498688,-2.84542,0.6272962,1.131493,0.4661071,-2.047137,0.1825292,18,81.3,0.02419323,0.02386794,-0.05271922,-0.7852522,-4.563826,0.288247,0.6825356,1.310287,0.3973382,0.00541199,0.02740224,0.03565075,-1.069836,0.225103,-0.003178217,0.7964267,1.37536,0.2307122,0.4011732,1.218329,0.3713355,289.5371,104.8602,150.2563,True
0,2.744442,0.08410875,0.01500996,-0.008785715,-1.41737,1.49834,-2.846386,0.6270246,1.131349,0.4661362,-2.044695,0.2199147,18,81.3,0.02847866,0.02812175,-0.04954894,-0.7855079,-4.563005,0.2872355,0.6821067,1.310233,0.3973007,0.00962827,0.02741431,0.03241324,-1.069402,0.2256313,-0.003620567,0.7958707,1.375324,0.2307248,0.4004457,1.217586,0.3714915,289.3875,105.019,150.1127,True
0,2.755553,0.09368403,0.02569935,-0.006732052,-1.417584,1.497643,-2.847718,0.6268384,1.131287,0.4661806,-2.042258,0.218869,18,81.3,0.02653601,0.04727128,-0.02607512,-0.7846924,-4.561574,0.2860003,0.6818155,1.310179,0.3973584,0.01176292,0.01996019,0.03343666,-1.069018,0.2256933,-0.003769438,0.7954351,1.375411,0.2308016,0.3997291,1.216847,0.3718469,289.2422,105.1116,150.088,True
0,2.766664,0.09579787,0.0342491,-0.003590277,-1.417847,1.496982,-2.848666,0.6266726,1.13114,0.4661808,-2.039201,0.275371,18,81.3,0.02769357,0.04939042,-0.01436469,-0.7843078,-4.560753,0.2850765,0.6814384,1.310047,0.3973844,0.01065425,0.01568413,0.03129899,-1.068923,0.2254206,-0.00349673,0.7951809,1.37549,0.2308259,0.3990032,1.216071,0.3723695,289.0961,105.1413,150.1817,True
0,2.777775,0.1021965,0.03749094,0.001713296,-1.418253,1.496559,-2.85002,0.6264732,1.131048,0.4662876,-2.036275,0.2627472,19.5,82,0.03190081,0.03874205,-0.02080088,-0.7847425,-4.560516,0.2844283,0.6811693,1.309961,0.3974419,0.01166708,0.01354527,0.02807958,-1.0688,0.2253201,-0.003436543,0.7948471,1.375539,0.2308688,0.3982352,1.215215,0.3729962,288.9247,105.1347,150.3415,True
0,2.788886,0.1032506,0.04604055,0.005922567,-1.418673,1.495851,-2.851104,0.6263311,1.130922,0.4663489,-2.032219,0.3658831,19.5,82,0.03390566,0.009989363,-0.03576356,-0.7859521,-4.561501,0.2846829,0.6809664,1.30985,0.3975279,0.01699116,0.009281727,0.02800642,-1.068499,0.2253006,-0.003793939,0.7945504,1.375569,0.230845,0.3974195,1.214234,0.3736786,288.7143,105.1713,150.4707,True
0,2.799997,0.1085776,0.04498779,0.005921898,-1.418877,1.495398,-2.852411,0.6261237,1.130818,0.4663968,-2.028504,0.3335787,19.5,82,0.03810222,-0.004920713,-0.04326949,-0.7868395,-4.562071,0.284539,0.6806648,1.30979,0.3975892,0.01924011,-0.001402268,0.03861434,-1.067674,0.2247012,-0.003682886,0.7940475,1.37557,0.230967,0.3965405,1.213106,0.3743668,288.4586,105.2405,150.5617,True
0,2.811108,0.109638,0.04499177,0.005924933,-1.41916,1.494952,-2.853513,0.6260343,1.130782,0.4665155,-2.023873,0.4173605,19.5,82,0.04018517,-0.01983316,-0.04863322,-0.7878291,-4.562825,0.2845883,0.6803701,1.309725,0.3976996,0.02465556,-0.006744349,0.04599581,-1.066895,0.2243974,-0.004005394,0.7937662,1.375598,0.2309234,0.3955818,1.211829,0.3750295,288.1592,105.3453,150.5848,True
0,2.822219,0.1149791,0.03645824,0.002773261,-1.41912,1.494864,-2.85498,0.6259328,1.130696,0.466547,-2.019222,0.4181537,20.7,83,0.03387658,-0.001736005,-0.03897738,-0.7877774,-4.561927,0.2837521,0.6801611,1.309767,0.3977289,0.02036686,-0.01421091,0.04496935,-1.06648,0.2237307,-0.00358568,0.793406,1.375552,0.2309096,0.3945418,1.2104,0.3756499,287.8209,105.5277,150.5228,True
0,2.83333,0.1171138,0.03218243,-0.0004003476,-1.419068,1.494621,-2.856333,0.6258076,1.130652,0.466573,-2.013794,0.4889282,20.7,83,0.0297285,0.00570331,-0.02508894,-0.7875548,-4.561614,0.2832876,0.6799668,1.309736,0.3977661,0.02036588,-0.0163415,0.04496558,-1.06598,0.2234318,-0.003664776,0.793147,1.375572,0.230916,0.3934231,1.208825,0.3762095,287.4403,105.7975,150.3505,True
0,2.844441,0.1224704,0.01511738,-0.005629587,-1.418768,1.494957,-2.857981,0.625789,1.130702,0.4666476,-2.008448,0.480646,20.7,83,0.03084543,0.006758384,-0.0187062,-0.7875644,-4.561514,0.2827925,0.6798576,1.309788,0.3978257,0.01922406,-0.015259,0.03752997,-1.065784,0.2233837,-0.004022705,0.792859,1.375471,0.2309477,0.3922791,1.207113,0.3767136,287.007,106.1494,150.0739,True
0,2.855552,0.1278307,-0.001960272,-0.01299565,-1.418205,1.495412,-2.859823,0.6257762,1.130649,0.46668,-2.002291,0.554454,20.7,83,0.02984313,0.004615892,-0.0101776,-0.7874072,-4.561651,0.2826208,0.6796888,1.309789,0.3978722,0.01593336,-0.01312121,0.02904233,-1.065926,0.2231533,-0.004104464,0.7927338,1.375443,0.2309382,0.3911314,1.205266,0.3771468,286.5655,106.5498,149.7471,True
0,2.866663,0.1246566,-0.01690606,-0.01823132,-1.417667,1.495873,-2.861156,0.6257811,1.130657,0.466625,-1.995964,0.5690632,20.7,83,0.03409238,0.006742513,-0.01233698,-0.7875729,-4.561507,0.2819169,0.6795037,1.309729,0.3977799,0.01166694,-0.01632083,0.02908247,-1.06568,0.222703,-0.003809918,0.7925479,1.375535,0.2308414,0.3899625,1.203309,0.3775127,286.0966,107.0296,149.3175,True
0,2.877774,0.1172249,-0.0275925,-0.02135068,-1.417197,1.496423,-2.862401,0.6257288,1.130594,0.4666848,-1.989269,0.6024196,16.8,81.2,0.03723678,0.001421753,-0.01875915,-0.7880448,-4.561583,0.2814604,0.6793133,1.309708,0.3977978,0.009678978,-0.02061752,0.04081553,-1.064872,0.2220074,-0.003513242,0.7922794,1.375609,0.2308195,0.388832,1.201235,0.3778135,285.6035,107.5891,148.7879,True
0,2.888885,0.1150893,-0.02547021,-0.02242918,-1.416838,1.496473,-2.863622,0.6257725,1.130586,0.4666891,-1.98146,0.7036691,16.8,81.2,0.03821307,-0.001758627,-0.03049307,-0.7888666,-4.561375,0.2808428,0.6791654,1.309686,0.3978455,0.007539898,-0.02381188,0.04083753,-1.064403,0.2215899,-0.003235474,0.7920607,1.375648,0.2306919,0.3877439,1.199027,0.3780493,285.1183,108.1981,148.2031,True
0,2.899997,0.1140049,-0.01799589,-0.02033936,-1.416805,1.496298,-2.86471,0.625761,1.130387,0.466707,-1.973628,0.7046542,16.8,81.2,0.04143324,0.0003663478,-0.02838906,-0.7891095,-4.561184,0.2800439,0.6789272,1.309637,0.397784,0.00333369,-0.02699856,0.04516054,-1.063553,0.2213873,-0.003104447,0.7915406,1.375546,0.2307949,0.3866364,1.196727,0.3782246,284.621,108.8875,147.5205,True
0,2.911108,0.1107729,0.00225684,-0.01725875,-1.416929,1.495565,-2.865694,0.6258247,1.13029,0.4667532,-1.965695,0.7138291,16.8,81.2,0.04788575,0.005680742,-0.02097622,-0.7890499,-4.560859,0.2790282,0.678746,1.30961,0.3977602,0.003384687,-0.03020198,0.04941576,-1.062875,0.2208864,-0.002908438,0.791302,1.375555,0.2307379,0.3854874,1.194361,0.3783772,284.1146,109.661,146.718,True
0,2.922219,0.1075468,0.02038671,-0.01309828,-1.417185,1.494771,-2.86667,0.6257498,1.130222,0.4668202,-1.957351,0.7511451,16.8,81.2,0.04681347,0.01634027,-0.02202491,-0.7892113,-4.559903,0.2778873,0.6784683,1.30958,0.3978751,0.002300899,-0.02273957,0.04731028,-1.062453,0.2209406,-0.002991529,0.7910146,1.375662,0.2307951,0.3843161,1.191936,0.3785672,283.6047,110.5326,145.8157,True
0,2.93333,0.1107259,0.03321428,-0.006786796,-1.417547,1.494013,-2.867902,0.6257676,1.130147,0.4668603,-1.948828,0.7670134,18,73.2,0.04788386,0.005684404,-0.02097987,-0.7894973,-4.560251,0.2775706,0.6783091,1.309549,0.3978777,0.007649204,-0.01422663,0.04832292,-1.061926,0.2210253,-0.003392867,0.790799,1.375677,0.2307596,0.3831245,1.189449,0.3788608,283.0984,111.4023,144.9274,True
0,2.944441,0.1128393,0.03748574,-0.006809623,-1.417696,1.493435,-2.869015,0.6257392,1.130094,0.4669166,-1.940126,0.7831636,18,73.2,0.04785212,0.0003619064,-0.02524755,-0.7899857,-4.560393,0.2770739,0.6781008,1.309501,0.3978496,0.007597229,-0.01526788,0.04406959,-1.06144,0.2210626,-0.003512976,0.7904838,1.3757,0.2306979,0.3818853,1.186936,0.3793178,282.5651,112.3634,143.9807,True
0,2.955552,0.1117696,0.03747225,-0.008938305,-1.41764,1.492982,-2.870108,0.6257669,1.130022,0.4669402,-1.931485,0.7773699,18,73.2,0.04893912,-0.003905477,-0.02206422,-0.7901775,-4.560624,0.2766931,0.6779195,1.309497,0.3978271,0.001118377,-0.01845364,0.03668167,-1.061389,0.2205891,-0.003121225,0.7902615,1.375752,0.2306402,0.3805708,1.18443,0.3799643,282.0082,113.3368,143.0808,True
0,2.966663,0.1117648,0.03747592,-0.008936106,-1.417699,1.492515,-2.871215,0.6257811,1.129896,0.4669425,-1.922306,0.8264863,18,73.2,0.04897208,-0.003912743,-0.0178023,-0.7902063,-4.56068,0.2761831,0.677709,1.309461,0.3978164,-0.001062302,-0.01951675,0.03351345,-1.061078,0.2202101,-0.002690059,0.7900929,1.375789,0.2305827,0.3792661,1.181897,0.3807813,281.4355,114.299,142.2645,True
0,2.977774,0.1106917,0.03532846,-0.01211545,-1.417589,1.49207,-2.87223,0.6258111,1.129838,0.4669859,-1.913057,0.8323825,14.4,73.2,0.04792145,-0.003916916,-0.01566262,-0.7903117,-4.56073,0.2757485,0.6775562,1.309419,0.3978009,-0.007432193,-0.01207621,0.03465999,-1.060781,0.220093,-0.002417618,0.7898548,1.375852,0.2305157,0.3779935,1.179324,0.3817072,280.8621,115.3227,141.4422,True
0,2.988885,0.1043061,0.02997031,-0.01527077,-1.417374,1.491824,-2.873132,0.6257607,1.129766,0.4670579,-1.903764,0.8362761,14.4,73.2,0.04366003,0.00674127,-0.01668462,-0.7904342,-4.559988,0.2748318,0.6772877,1.309472,0.3978517,-0.01273639,-0.006750475,0.03686649,-1.060276,0.2202273,-0.002070341,0.7896767,1.375852,0.2305017,0.3767923,1.176687,0.3826635,280.2959,116.4492,140.541,True
0,2.999996,0.1032547,0.02358596,-0.0130984,-1.41735,1.491817,-2.874221,0.6257144,1.129779,0.4670365,-1.894276,0.8540922,14.4,73.2,0.04359833,0.01954228,-0.02625426,-0.7907847,-4.558764,0.2733692,0.677014,1.30952,0.3978455,-0.01374857,-0.002499407,0.04114577,-1.059711,0.2202979,-0.001901497,0.7894332,1.375973,0.2305179,0.3756454,1.173987,0.383585,279.7327,117.6996,139.5007,True
0,3.011107,0.1043517,0.01082999,-0.008763076,-1.417324,1.492132,-2.875449,0.6256297,1.129742,0.4670622,-1.884649,0.8665394,14.4,73.2,0.04144689,0.03233005,-0.02941922,-0.7909764,-4.557494,0.2720981,0.6767923,1.309518,0.3978434,-0.01474769,-0.001443012,0.04648682,-1.059025,0.2203245,-0.001717473,0.789247,1.376009,0.2304628,0.3745158,1.171247,0.384429,279.1726,119.2345,138.1368,True
0,3.022218,0.1033157,-0.0008666739,-0.004433457,-1.417248,1.492528,-2.876631,0.6254946,1.129763,0.4670234,-1.875247,0.8458514,14.4,73.2,0.03294493,0.0600353,-0.02825381,-0.7907106,-4.555091,0.2702706,0.6766081,1.30952,0.3976963,-0.01688898,-0.006770702,0.04650594,-1.058471,0.2199911,-0.00120002,0.7891034,1.375986,0.230366,0.373362,1.168496,0.3851672,278.6091,121.0289,136.4782,True
0,3.033329,0.100121,-0.005165751,-0.009730065,-1.416908,1.49266,-2.877641,0.6253955,1.129752,0.4670286,-1.865746,0.8550919,11.4,58.6,0.02872377,0.05576888,-0.02289933,-0.7906531,-4.554467,0.2696584,0.6764407,1.309538,0.3976848,-0.006250219,-0.01103679,0.04529671,-1.058094,0.2196563,-0.001345429,0.78899,1.375987,0.2303267,0.3722021,1.165748,0.3857712,278.0396,123.061,134.5589,True
0,3.04444,0.09482363,-0.01902319,-0.009640845,-1.416608,1.49326,-2.878619,0.6252749,1.129758,0.4669549,-1.856025,0.8750396,11.4,58.6,0.02352077,0.04084125,-0.006891802,-0.7901423,-4.554772,0.2697095,0.6762383,1.309571,0.3975852,-0.005305372,-0.01100964,0.03570712,-1.057893,0.219723,-0.001323591,0.7887237,1.375987,0.2303143,0.3710577,1.162992,0.3862281,277.4944,125.3446,132.3524,True
0,3.055551,0.08845519,-0.03291529,-0.01487696,-1.416054,1.494003,-2.879534,0.6252046,1.129674,0.4669569,-1.84617,0.8871181,11.4,58.6,0.02035306,0.02485587,-0.002624214,-0.7901061,-4.555229,0.2699074,0.6761644,1.309539,0.3975689,-0.007556459,-0.01098183,0.02616118,-1.057727,0.2197711,-0.00114223,0.7884455,1.37598,0.2302485,0.3699234,1.160224,0.3865429,276.9849,128.0809,129.6533,True
0,3.066662,0.07887504,-0.03826252,-0.01483454,-1.415695,1.49454,-2.880153,0.6251001,1.129656,0.4668343,-1.836307,0.8877392,11.4,58.6,0.02675759,0.01846088,-0.001611482,-0.7900619,-4.555246,0.2693111,0.6760072,1.309534,0.3975089,-0.007516623,-0.009922151,0.0293587,-1.057292,0.219667,-0.001016795,0.788296,1.376013,0.2301869,0.3688293,1.15743,0.3867598,276.5153,131.3726,126.3595,True
0,3.077773,0.06715752,-0.03399802,-0.01058262,-1.415646,1.494733,-2.880597,0.6250865,1.129561,0.4668217,-1.826447,0.8873594,11.4,56,0.03199446,0.01953537,-0.01336962,-0.7905386,-4.554721,0.2683913,0.6758595,1.309507,0.3974898,-0.008492194,-0.006745035,0.03576541,-1.056719,0.2195884,-0.0009805759,0.788118,1.376105,0.230217,0.367799,1.154604,0.386904,276.0711,135.1194,122.5974,True
0,3.088884,0.05970407,-0.03292484,-0.007385775,-1.415562,1.494989,-2.881104,0.624922,1.129578,0.4667935,-1.816519,0.8939062,11.4,56,0.03404097,0.02487628,-0.02509999,-0.7911096,-4.553762,0.2671867,0.6755979,1.309427,0.3975008,-0.01157749,-0.007824922,0.04539095,-1.055869,0.2194874,-0.0005928196,0.7879779,1.376145,0.2301443,0.3668501,1.151737,0.3870041,275.662,139.4502,118.2407,True
0,3.099995,0.04586657,-0.03183071,0.002215031,-1.415776,1.495359,-2.881233,0.6248352,1.129548,0.466795,-1.806831,0.8718867,11.4,56,0.03501764,0.03341178,-0.036817,-0.7916939,-4.552584,0.2659638,0.6753577,1.309372,0.397517,-0.01152022,-0.006769421,0.04965195,-1.055226,0.2193989,-0.0004873585,0.7877668,1.376236,0.230078,0.3659317,1.148879,0.3870926,275.2771,144.5679,113.0937,True
0,3.111106,0.03948209,-0.02861438,0.007527125,-1.415875,1.495584,-2.881634,0.6246815,1.129551,0.466769,-1.797431,0.8458694,11.4,56,0.03290644,0.04299871,-0.0346589,-0.7917919,-4.551385,0.2648399,0.6752327,1.309355,0.3974829,-0.009339293,-0.011039,0.05387913,-1.054469,0.2191083,-0.0003222425,0.7876282,1.376273,0.2299688,0.365038,1.146069,0.3872316,274.9332,150.4012,107.2219,True
0,3.122217,0.03415516,-0.02540404,0.01177687,-1.41609,1.495815,-2.881864,0.6245838,1.129538,0.4667432,-1.78768,0.878191,11.4,56,0.0276503,0.046189,-0.02609697,-0.7916683,-4.550508,0.2640519,0.6750909,1.309404,0.3974328,-0.00616421,-0.01423582,0.05170081,-1.054026,0.2187563,-0.0002862898,0.787478,1.376277,0.2299154,0.3641104,1.143361,0.3874553,274.6396,156.8497,100.7597,True
0,3.133328,0.02776997,-0.03074136,0.0118148,-1.41601,1.496322,-2.88203,0.6245214,1.129541,0.4667039,-1.778636,0.8132306,6.9,46.6,0.02567748,0.05255765,-0.005832765,-0.7909018,-4.549677,0.2632617,0.6750365,1.309427,0.3973963,-0.001961455,-0.02381643,0.04737417,-1.053597,0.2181253,-7.137271E-05,0.7873141,1.376315,0.2298086,0.3632,1.140766,0.3877732,274.396,163.6986,93.93635,True
0,3.144439,0.0245739,-0.03289726,0.008636095,-1.415883,1.496745,-2.882259,0.6244291,1.129558,0.466675,-1.769252,0.8449708,6.9,46.6,0.02147119,0.05254778,0.00166449,-0.7904187,-4.549074,0.2627579,0.675018,1.309423,0.3973036,-0.003070138,-0.02699803,0.0441936,-1.053113,0.2177939,0.0002077266,0.7870824,1.376275,0.2297356,0.3623208,1.13828,0.3881733,274.2227,170.6536,87.04802,True
0,3.15555,0.01927938,-0.04462871,0.006578252,-1.415626,1.497481,-2.88259,0.6244158,1.129465,0.4667118,-1.759918,0.8401214,6.9,46.6,0.02042582,0.04402039,0.004859664,-0.790195,-4.548893,0.2624713,0.6750372,1.309408,0.3972645,-0.005340933,-0.0301777,0.03249557,-1.053186,0.217199,0.0005629922,0.7870032,1.376276,0.2296498,0.361528,1.135867,0.3886303,274.1074,177.6342,80.16541,True
0,3.166661,0.01290917,-0.05208331,0.007693536,-1.415535,1.498172,-2.882702,0.6243261,1.12945,0.4666758,-1.750938,0.8080171,6.9,46.6,0.02149547,0.03123532,0.005902291,-0.7901077,-4.549053,0.2623336,0.6750336,1.309391,0.3972437,-0.0032907,-0.02377658,0.02608884,-1.05308,0.217131,0.0006309029,0.7869731,1.376313,0.2296185,0.3608313,1.133505,0.3890942,274.0626,184.6358,73.2765,True
0,3.177772,0.007583988,-0.05423716,0.005583187,-1.415345,1.498829,-2.882708,0.624241,1.129452,0.4666359,-1.742101,0.7952487,5.4,49.5,0.02677645,0.006736161,0.0005089813,-0.7904693,-4.549998,0.2624686,0.6749355,1.309434,0.3972089,-0.002222992,-0.01952075,0.02608567,-1.052721,0.2169708,0.0006918893,0.7868316,1.376324,0.2296188,0.3602142,1.131174,0.3895302,274.0868,191.2964,66.71098,True
0,3.188883,0.005462408,-0.05420358,0.01197788,-1.41554,1.499526,-2.882811,0.6241523,1.129462,0.4665909,-1.733127,0.8081344,5.4,49.5,0.0213324,-0.001767848,-0.01437318,-0.7911554,-4.55014,0.2624902,0.6749125,1.309452,0.3971884,-0.00221134,-0.02271849,0.02714534,-1.052365,0.2165643,0.0009089369,0.7867894,1.376347,0.2295218,0.3596842,1.128832,0.3899129,274.1592,197.549,60.52828,True
0,3.199994,0.005461384,-0.04885751,0.01407347,-1.41564,1.499811,-2.883023,0.624072,1.129444,0.4665854,-1.724354,0.7895184,5.4,49.5,0.01919224,-0.0006996635,-0.01542029,-0.7913269,-4.549958,0.2622495,0.6748002,1.309475,0.3971689,-0.006430648,-0.02912537,0.03143986,-1.051993,0.21576,0.00161787,0.7867545,1.376439,0.2295094,0.3591376,1.126496,0.3902189,274.285,203.825,54.31193,True
0,3.211105,-0.001983023,-0.04989356,0.02154731,-1.415967,1.500505,-2.882834,0.6239935,1.129479,0.4665675,-1.71589,0.7615073,5.4,49.5,0.01507928,0.02697888,0.002753244,-0.7903804,-4.548547,0.261238,0.6747723,1.309491,0.3971488,-0.01057063,-0.02274831,0.04108607,-1.051306,0.2156814,0.00190416,0.7866983,1.376468,0.2294481,0.358562,1.124178,0.3904395,274.4778,209.8806,48.29393,True
0,3.222216,-0.006241434,-0.05204166,0.01836485,-1.415854,1.501023,-2.882745,0.623922,1.12951,0.4665139,-1.707604,0.7455958,5.4,49.5,0.01511136,0.04294939,0.005970031,-0.7898446,-4.547245,0.2601141,0.6746394,1.309428,0.3970852,-0.01167226,-0.01635053,0.0379146,-1.050979,0.2157139,0.002047705,0.7866992,1.376469,0.2293746,0.3579767,1.121887,0.3905864,274.7148,215.4066,42.7724,True
0,3.233327,-0.01686629,-0.0605671,0.02055941,-1.415887,1.501952,-2.882481,0.6238002,1.129507,0.4665315,-1.698879,0.7859266,2.4,50.2,0.002271144,0.03231142,-0.001401129,-0.7901183,-4.547057,0.260324,0.6745646,1.309516,0.3970091,-0.006489916,-0.01526722,0.02613351,-1.051073,0.215571,0.001992577,0.7867422,1.376482,0.2292886,0.3578576,1.120748,0.3908122,274.5815,218.4071,39.71355,True
0,3.244438,-0.01577998,-0.07551672,0.0142546,-1.415487,1.503228,-2.882535,0.6236928,1.129544,0.4664941,-1.690871,0.7202659,2.4,50.2,0.002285198,0.02271516,0.0007210029,-0.7900869,-4.547348,0.2604984,0.6745939,1.309586,0.3971119,-0.004482698,-0.02164707,0.01650987,-1.051248,0.2149766,0.002284726,0.7865722,1.376474,0.2291772,0.3579583,1.120244,0.3910336,274.3132,219.1661,38.92345,True
0,3.255549,-0.0200328,-0.08193587,0.01110269,-1.415214,1.504332,-2.88234,0.6235896,1.129589,0.4664633,-1.682739,0.7324145,2.4,50.2,0.009744655,0.01525106,0.001721358,-0.7900225,-4.547517,0.2602976,0.6745968,1.309597,0.3970807,-0.002398902,-0.02164605,0.01221815,-1.051316,0.214613,0.002347044,0.7865473,1.376512,0.229073,0.3580819,1.119904,0.3911892,274.0107,218.9374,39.18022,True
0,3.26666,-0.0178967,-0.08618367,0.01112023,-1.415044,1.505261,-2.882344,0.6235415,1.129568,0.4663558,-1.6752,0.67792,2.4,50.2,0.01183497,0.01845233,-0.003617847,-0.7901626,-4.546997,0.2597157,0.6746064,1.309628,0.3970685,-0.004397413,-0.01740173,0.02289615,-1.050804,0.2146236,0.002454902,0.7865789,1.376567,0.2292082,0.358167,1.119584,0.3912817,273.7328,218.3141,39.77467,True
0,3.277771,-0.01684027,-0.08086123,0.01108291,-1.414893,1.506043,-2.882339,0.6234479,1.129528,0.4661572,-1.667343,0.7076287,2.4,50.2,0.005469006,0.02164644,-0.0003690887,-0.7899634,-4.546566,0.2595783,0.674605,1.309642,0.3970602,-0.009696415,-0.01420705,0.02510054,-1.050404,0.2145556,0.002777943,0.7865132,1.376648,0.2291496,0.3582384,1.119253,0.3913196,273.4783,217.1968,40.86936,True
0,3.288882,-0.01684305,-0.07446112,0.01210735,-1.414857,1.506652,-2.882381,0.6233805,1.129533,0.4661305,-1.65997,0.6631265,1.2,49.7,-0.0008622753,0.02483248,0.007143165,-0.7895122,-4.54622,0.2595658,0.6746144,1.309645,0.3970773,-0.01287651,-0.008881018,0.02621423,-1.05005,0.2146404,0.002997388,0.7865808,1.376647,0.2291231,0.358296,1.118922,0.3913337,273.2271,215.8151,42.22722,True
0,3.299993,-0.01578759,-0.06590416,0.01951928,-1.415238,1.507411,-2.8823,0.6233537,1.129511,0.4660652,-1.65251,0.6715115,1.2,49.7,0.001287676,0.01950213,0.009255077,-0.789272,-4.546311,0.259476,0.6746334,1.309614,0.3970718,-0.015214,-0.009924416,0.00918746,-1.050626,0.2143226,0.003345197,0.7865194,1.376503,0.2291088,0.3583632,1.118601,0.3913336,272.9535,213.9226,44.10664,True
0,3.311104,-0.02220568,-0.04561712,0.02899072,-1.415785,1.507344,-2.881835,0.6233684,1.129516,0.4660323,-1.645146,0.662655,1.2,49.7,0.0002550241,0.01843236,0.01352317,-0.7889625,-4.546187,0.2594289,0.6746687,1.309628,0.3970666,-0.0164183,-0.010981,-0.002524949,-1.051094,0.2139371,0.003688212,0.7865425,1.376492,0.2290645,0.3584595,1.118375,0.3913607,272.6743,211.6854,46.29375,True
0,3.322215,-0.02223697,-0.03177452,0.02997389,-1.416105,1.507534,-2.881559,0.6233737,1.129469,0.4659326,-1.637626,0.677078,1.2,49.7,-0.001898576,0.0194993,0.01034976,-0.7888401,-4.545908,0.2592747,0.6746846,1.309729,0.396996,-0.01543222,-0.01203577,-0.008931171,-1.051404,0.2137418,0.003926831,0.7866027,1.376482,0.2290092,0.3585319,1.11815,0.3912603,272.5369,207.2092,50.65919,True
0,3.333326,-0.02332352,-0.02002345,0.03522913,-1.416614,1.507489,-2.88116,0.6233956,1.129456,0.465889,-1.629918,0.6939403,0.3,40.4,-0.005109593,0.02376378,0.008248689,-0.7886813,-4.545369,0.2590539,0.674714,1.309732,0.3969729,-0.01320906,-0.009918937,-0.001497232,-1.051165,0.2136858,0.004040015,0.7866837,1.376469,0.2289541,0.3586037,1.117947,0.3911795,272.4023,202.8628,54.87835,True
0,3.344437,-0.02759955,-0.01471191,0.03520646,-1.417007,1.507709,-2.880689,0.6234241,1.129422,0.4658217,-1.622542,0.6634848,0.3,40.4,-0.007302321,0.03229339,-0.0002449211,-0.7887591,-4.544483,0.2585634,0.6746722,1.309701,0.3969376,-0.01531065,-0.009925222,0.0006625869,-1.050986,0.2135087,0.004335892,0.7866002,1.376438,0.2288723,0.3586637,1.117755,0.3911436,272.2196,198.9303,58.68836,True
0,3.355548,-0.02334628,-0.01256567,0.03625116,-1.417375,1.5079,-2.88052,0.6234126,1.129417,0.4657893,-1.614911,0.6869764,0.3,40.4,-0.008436447,0.03017088,-0.00876148,-0.7890355,-4.544024,0.2583812,0.6746515,1.309709,0.3969162,-0.01203771,-0.01101017,0.007011964,-1.050719,0.21321,0.004524711,0.7865466,1.376398,0.2287791,0.3587602,1.117601,0.3914093,271.7505,196.8443,60.6625,True
0,3.366659,-0.02441626,-0.01472907,0.03306953,-1.417508,1.508359,-2.88023,0.6234857,1.129365,0.4657946,-1.607171,0.6966991,0.3,40.4,-0.0009605614,0.02057808,-0.005640466,-0.7890909,-4.544142,0.2582526,0.6747739,1.309644,0.3969212,-0.01197665,-0.02060695,0.01232167,-1.050401,0.2125872,0.00496067,0.7866198,1.376364,0.2286682,0.3589339,1.117465,0.3916256,271.5069,191.2685,66.07313,True
0,3.37777,-0.02122226,-0.01687307,0.03095619,-1.417804,1.50883,-2.880111,0.6235542,1.129426,0.4657633,-1.599794,0.6633966,0.3,40.4,-0.0009139706,0.01204347,0.0007447712,-0.7888608,-4.544575,0.2585613,0.6748604,1.309669,0.3969371,-0.008840597,-0.02806671,0.008008465,-1.050475,0.2118057,0.005406749,0.7866462,1.376374,0.228549,0.3590564,1.11721,0.3916117,271.4989,185.1868,72.11351,True
0,3.388881,-0.02337349,-0.01371575,0.0245472,-1.417844,1.50883,-2.879711,0.623546,1.129464,0.4657872,-1.59194,0.7073312,0,36,0.005520287,-0.005012808,0.007061944,-0.7888214,-4.545496,0.2589695,0.6749802,1.309729,0.3969851,-0.007803195,-0.03339217,0.005853772,-1.050538,0.2111684,0.005780924,0.7866745,1.376286,0.2284632,0.3591878,1.116912,0.3915765,271.5115,178.5084,78.74344,True
0,3.399992,-0.02444742,-0.01267937,0.02134125,-1.417837,1.509067,-2.879409,0.62361,1.129453,0.4657648,-1.584317,0.6856741,0,36,0.008738643,-0.01034432,0.01022167,-0.7887692,-4.545939,0.259095,0.6751087,1.309709,0.3969975,-0.008887623,-0.0333758,0.00373307,-1.050615,0.2109839,0.005914881,0.7866758,1.376297,0.2289424,0.3592938,1.116706,0.391479,271.4081,166.7196,90.38219,True
0,3.411103,-0.02444534,-0.01482073,0.01922161,-1.417918,1.509308,-2.879183,0.6236787,1.129504,0.4658289,-1.576445,0.7088927,0,36,0.01517238,-0.01141816,0.01549966,-0.7884592,-4.546269,0.2589304,0.6752402,1.309778,0.3969798,-0.006754095,-0.03977944,0.003683863,-1.050761,0.2100628,0.006307164,0.7866956,1.376285,0.2288334,0.3594696,1.116554,0.3913367,271.654,161.2208,95.79599,True
0,3.422215,-0.02124769,-0.01803099,0.01605037,-1.418044,1.509691,-2.879109,0.6237974,1.129475,0.4658954,-1.568902,0.6786871,0,36,0.01943476,-0.006089237,0.01546607,-0.7883623,-4.546084,0.2584635,0.6753602,1.309797,0.3969584,-0.01097043,-0.0397687,0.006933812,-1.050544,0.2098054,0.006620086,0.7867671,1.376311,0.2288589,0.3597734,1.116381,0.3913224,271.9143,152.5103,104.3181,True
0,3.433326,-0.02125193,-0.0159292,0.01070901,-1.417934,1.509724,-2.878987,0.6238331,1.129515,0.46595,-1.561484,0.6675065,0,32.3,0.02159062,-0.01035783,0.01864025,-0.7881497,-4.546608,0.2584989,0.6754322,1.309825,0.3969295,-0.01618629,-0.03979637,0.01550451,-1.050324,0.2090374,0.00725019,0.7868509,1.376256,0.2287624,0.3598688,1.116116,0.3913022,271.998,149.2185,107.5282,True
0,3.444437,-0.01807618,-0.01706943,-0.002073637,-1.417428,1.509904,-2.878834,0.6239188,1.129546,0.4658389,-1.554186,0.6566944,0,32.3,0.01624725,-0.006090522,0.01655265,-0.7880698,-4.546514,0.258447,0.6755166,1.309863,0.3968737,-0.01099048,-0.03124801,0.004803284,-1.050598,0.2091368,0.007185209,0.7869351,1.376252,0.2286825,0.3599215,1.115861,0.3913852,271.9523,145.5058,111.2027,True
0,3.455548,-0.01809425,-0.007499071,-0.005327633,-1.417324,1.509602,-2.878665,0.6239493,1.129637,0.4658585,-1.546818,0.6632053,0,32.3,0.0109234,-0.009291669,0.01765519,-0.7879356,-4.546974,0.2589021,0.6755784,1.309876,0.3968177,-0.009968674,-0.02487147,0.0005215979,-1.051008,0.2087211,0.007376157,0.7870327,1.376246,0.2286055,0.3600003,1.115651,0.3916557,271.75,136.1405,120.5779,True
0,3.466659,-0.01277421,-0.0075382,-0.01278445,-1.417025,1.509733,-2.878771,0.6240912,1.129621,0.4658756,-1.539426,0.6653976,0,32.3,0.00566625,0.005619655,0.0262336,-0.7872341,-4.546333,0.2585623,0.6756392,1.309904,0.396703,-0.01119589,-0.01738451,-0.01223017,-1.051505,0.2089378,0.007539409,0.7871459,1.376301,0.2285988,0.3600864,1.115439,0.3920141,271.5722,122.177,134.5069,True
0,3.47777,-0.01174446,-0.002301189,-0.02772705,-1.41633,1.509432,-2.878576,0.6241649,1.129671,0.4658957,-1.532186,0.6515231,0,32.3,0.00145924,0.008806859,0.03265854,-0.786669,-4.546305,0.2585953,0.6756753,1.309919,0.3966475,-0.0102017,-0.01311478,-0.01862917,-1.051915,0.2088926,0.00757696,0.7870916,1.376153,0.2285841,0.3601898,1.115226,0.3923436,271.5433,107.6071,148.9892,True
0,3.488881,-0.00642636,-0.001246956,-0.03200593,-1.415849,1.509223,-2.878645,0.6242684,1.129776,0.4659412,-1.525143,0.6335603,0.9,29.2,-0.003866198,0.01733117,0.03270192,-0.7862871,-4.545713,0.2584214,0.6757632,1.309876,0.3966477,-0.01442905,-0.002488732,-0.01645509,-1.052416,0.2088391,0.0078755,0.7872611,1.37624,0.2285986,0.3604159,1.115009,0.3925731,271.7796,100.9119,155.4313,True
0,3.499992,-0.005361073,-0.002316276,-0.03199495,-1.415561,1.509302,-2.878597,0.6243387,1.129816,0.4659209,-1.517825,0.6590352,0.9,29.2,-0.00709238,0.01626669,0.0295315,-0.7860554,-4.545708,0.2586699,0.6758888,1.309868,0.396632,-0.02185785,0.007106146,-0.01421408,-1.052457,0.209406,0.008126636,0.7873945,1.376294,0.2285991,0.3606074,1.114792,0.3927017,271.9998,96.67664,159.5435,True
0,3.511103,-0.003228665,-0.005503664,-0.03197892,-1.41519,1.509302,-2.878572,0.6244614,1.129819,0.4660091,-1.511096,0.6052181,0.9,29.2,-0.006129068,0.01628003,0.01673825,-0.7862951,-4.545386,0.2584944,0.6759171,1.309874,0.3966491,-0.02711192,0.01243224,-0.008800549,-1.052201,0.209852,0.008314389,0.787272,1.376255,0.2286594,0.3607646,1.114579,0.3928237,272.1913,93.66438,162.426,True
