loc,t,aDotUA,bDotUA,gDotUA,aUA,bUA,gUA,xUA,yUA,zUA,qE,qDotE,emgA,emgB,aDotSH,bDotSH,gDotSH,aSH,bSH,gSH,xSH,ySH,zSH,aDotUB,bDotUB,gDotUB,aUB,bUB,gUB,xUB,yUB,zUB,xHand,yHand,zHand,aHand,bHand,gHand,enable
0,0,-0.03910366,-0.8956871,-0.005695127,-1.409506,-4.186234,-3.106243,0.6472791,1.197072,0.5024941,-1.481474,-0.02339066,0,0,-0.1420025,0.2734155,0.03356148,-0.7428488,-4.361411,0.05702307,0.6984243,1.461213,0.410696,-0.1039549,0.0616838,0.06088338,-0.8626932,0.1466831,0.03407301,0.8000323,1.528214,0.2046862,0.4278887,1.060173,0.2975781,297.8929,234.9796,353.7928,False
0,0.01111111,-0.04988071,-0.860537,0.0005120561,-1.409399,-4.177677,-3.10667,0.6462406,1.197229,0.5018814,-1.481429,0.004408955,0,0,-0.1440625,0.2690968,0.04100534,-0.7419503,-4.357203,0.05562465,0.698096,1.461344,0.4103074,-0.09435018,0.053149,0.06507826,-0.8617952,0.1469362,0.03472016,0.8000168,1.528354,0.2044024,0.4284481,1.060002,0.2954254,298.028,234.0059,354.3924,False
0,0.02222222,-0.05750312,-0.8200795,0.002389945,-1.408917,-4.169558,-3.10704,0.6453208,1.19736,0.5011675,-1.481406,0.002097598,0,0,-0.1386371,0.2583675,0.0504511,-0.7410091,-4.353445,0.05407868,0.6979256,1.46143,0.4099579,-0.08587162,0.04246511,0.06183224,-0.8612125,0.1468648,0.03545759,0.7999961,1.528389,0.2041125,0.4292378,1.05977,0.2929619,298.1466,233.2726,354.619,False
0,0.03333334,-0.06409015,-0.7689596,0.003169805,-1.408699,-4.162605,-3.107244,0.6444476,1.197532,0.5005634,-1.48127,0.01240822,0,0,-0.1194906,0.2210803,0.04890024,-0.7405505,-4.351786,0.05353087,0.6977611,1.461557,0.4096715,-0.08061893,0.03604957,0.05434314,-0.8608535,0.147078,0.03601899,0.8000236,1.528471,0.2038541,0.4301845,1.059514,0.2902446,298.2601,232.6664,354.5796,False
0,0.04444445,-0.07496788,-0.7136165,0.002871405,-1.408493,-4.156156,-3.106997,0.6435558,1.197495,0.5000291,-1.481349,-0.007287379,0,0,-0.1078076,0.1997915,0.045423,-0.7401207,-4.349608,0.05269171,0.6974022,1.46161,0.409337,-0.07846816,0.03072038,0.05752791,-0.8601488,0.1471801,0.03676121,0.7999642,1.528553,0.2035778,0.4312679,1.059299,0.2874151,298.3669,232.0989,354.4511,False
0,0.05555556,-0.07512776,-0.670991,0.005830053,-1.408515,-4.149766,-3.10717,0.6427603,1.19765,0.4995108,-1.48146,-0.009976018,0,0,-0.09304997,0.1775368,0.0301884,-0.7402762,-4.347693,0.05184083,0.697248,1.461695,0.4090543,-0.07313316,0.02325637,0.05962563,-0.8594644,0.1471084,0.0374041,0.7999648,1.528611,0.203342,0.4324168,1.059164,0.2845982,298.4525,231.4893,354.3486,False
0,0.06666667,-0.08618359,-0.5634145,0.009490818,-1.408625,-4.147084,-3.106251,0.6423357,1.197718,0.4989738,-1.48118,0.02569463,0,0,-0.0813747,0.1647836,0.02571495,-0.7400627,-4.345518,0.05072416,0.6970464,1.461817,0.4087479,-0.06568023,0.02217076,0.05956495,-0.8587863,0.1472076,0.03783926,0.799849,1.528651,0.2031345,0.4335061,1.059131,0.2819434,298.4919,230.8903,354.2241,False
0,0.07777778,-0.09171201,-0.5112635,0.004934614,-1.40834,-4.142815,-3.10583,0.6417598,1.197815,0.4984105,-1.481653,-0.04341288,0,0,-0.07923906,0.1551935,0.02668397,-0.7396552,-4.34332,0.04993321,0.6968961,1.461931,0.4084709,-0.06568862,0.01790693,0.05957362,-0.8581259,0.1471912,0.03862249,0.7998533,1.528677,0.2028828,0.434408,1.059191,0.2795518,298.4876,230.3785,354.0922,False
0,0.08888889,-0.09521773,-0.42816,0.008724006,-1.408508,-4.14085,-3.104976,0.6414586,1.197849,0.4979212,-1.481288,0.03386663,0,0,-0.07803758,0.1540312,0.03945068,-0.7386181,-4.340786,0.04875183,0.6968563,1.462025,0.4081013,-0.05831349,0.009349629,0.0520668,-0.8578798,0.1467728,0.03935859,0.7998857,1.528698,0.2026546,0.4351333,1.059366,0.2775293,298.4706,229.9733,353.979,False
0,0.1,-0.1062021,-0.3461435,0.01041941,-1.408734,-4.139679,-3.103378,0.641333,1.197916,0.4975727,-1.481551,-0.02428191,0,0,-0.0715602,0.1283946,0.04877793,-0.7377233,-4.339906,0.04862666,0.696764,1.46207,0.4078424,-0.05737972,-0.00560132,0.04037099,-0.8578585,0.1458122,0.04071521,0.7999461,1.528724,0.2024574,0.4355535,1.059658,0.2759516,298.4363,229.7234,353.8803,False
0,0.1111111,-0.1161285,-0.2609733,0.004615638,-1.408507,-4.139676,-3.101723,0.6413419,1.197936,0.4971933,-1.481588,-0.00316393,0,0,-0.0702955,0.1165118,0.06997373,-0.7362543,-4.338646,0.04847832,0.6968184,1.462126,0.4075453,-0.05105194,-0.0184107,0.03501323,-0.8577206,0.1448413,0.04168806,0.8000323,1.528679,0.2021105,0.4356863,1.060041,0.2747797,298.364,229.5132,353.9319,False
0,0.1222222,-0.1218406,-0.1608898,-0.001268983,-1.408456,-4.140881,-3.099991,0.641355,1.198039,0.4968114,-1.481043,0.04996845,0,0,-0.04897522,0.09624583,0.07173788,-0.7354063,-4.338024,0.04781626,0.6969947,1.462267,0.4071751,-0.04150492,-0.02482937,0.03175002,-0.8574537,0.14413,0.04236983,0.8000967,1.528651,0.2018728,0.4356053,1.060506,0.2740285,298.2605,229.4405,353.9709,False
0,0.1333333,-0.09546369,-0.09367403,-0.001704339,-1.408452,-4.142061,-3.099602,0.6414456,1.198033,0.4964197,-1.481208,-0.01555924,0,0,-0.02878767,0.05365682,0.06801154,-0.7348514,-4.339141,0.04833771,0.697192,1.462308,0.4069383,-0.03397964,-0.03121805,0.0402167,-0.856822,0.1433237,0.04294214,0.8001601,1.528626,0.2015834,0.4353584,1.061053,0.2736593,298.1564,229.4776,354.0164,False
0,0.1444445,-0.05749583,0.01091639,0.005088257,-1.408939,-4.145617,-3.09975,0.6417153,1.198179,0.4962411,-1.481448,-0.02169067,0,0,0.002060461,0.005723456,0.06520821,-0.7342809,-4.341312,0.04900696,0.6974617,1.462418,0.4067321,-0.0265295,-0.03762931,0.04123181,-0.8563591,0.1423115,0.04376825,0.8001827,1.528632,0.201288,0.4349253,1.061666,0.2735808,298.0497,229.532,354.1246,False
0,0.1555556,-0.1580378,0.1149582,0.004666016,-1.409406,-4.150731,-3.093498,0.6420218,1.198213,0.4960654,-1.482842,-0.1272709,0,0,0.0189425,-0.02931685,0.04985496,-0.7342862,-4.343379,0.04981336,0.6976991,1.462438,0.4065437,-0.02015847,-0.03764559,0.03904706,-0.8560262,0.1417341,0.04420767,0.8002617,1.528621,0.2010264,0.4342926,1.062336,0.2737092,297.9379,229.6553,354.237,False
0,0.1666667,-0.1701074,0.2129871,0.01796246,-1.41026,-4.155986,-3.090214,0.6425586,1.198233,0.4959612,-1.483828,-0.08906991,0,0,0.0366759,-0.08337159,0.01303775,-0.7354814,-4.347293,0.05175374,0.6979917,1.462467,0.4064219,-0.01707936,-0.04300947,0.02624688,-0.8562324,0.1407755,0.04494537,0.8003312,1.528624,0.200768,0.4336131,1.063009,0.2740351,297.772,229.826,354.3314,False
0,0.1777778,-0.1670774,0.2567309,0.02304888,-1.411248,-4.160192,-3.087722,0.6428233,1.198218,0.4960117,-1.477772,0.5543217,0,0,0.04087998,-0.1067743,0.008548567,-0.7356541,-4.349901,0.05324911,0.6983008,1.462437,0.4063101,-0.01604793,-0.04728039,0.02305051,-0.8561274,0.1398515,0.04569532,0.8004252,1.528638,0.2005839,0.4329343,1.063604,0.2746325,297.582,230.0863,354.2934,False
0,0.1888889,-0.1693917,0.3057254,0.02276573,-1.411791,-4.165277,-3.084986,0.6432545,1.198301,0.4960401,-1.480309,-0.2366373,0,0,0.04844362,-0.0994038,0.01918667,-0.735147,-4.351206,0.05342434,0.6986217,1.462499,0.4061365,-0.006604316,-0.05478846,0.008069324,-0.8566281,0.1386623,0.04629826,0.8005384,1.528627,0.2002943,0.4319192,1.064225,0.2753072,297.6127,230.5202,354.1423,False
0,0.2,-0.165195,0.3206666,0.02161279,-1.412395,-4.169363,-3.082487,0.6436926,1.19825,0.4960053,-1.481544,-0.1101754,0,0,0.05614869,-0.07722098,0.04379353,-0.733719,-4.351144,0.05250049,0.6990354,1.462637,0.4059014,-0.002406832,-0.07611926,0.004881131,-0.8567315,0.136399,0.04774036,0.8006803,1.528696,0.2000237,0.4307963,1.065072,0.2761263,297.5754,230.9101,354.1232,False
0,0.2111111,-0.1758934,0.3269706,0.01093756,-1.4124,-4.173437,-3.079514,0.6442416,1.198379,0.4960401,-1.481633,-0.00733564,0,0,0.04368189,-0.04336587,0.07507917,-0.7317935,-4.350218,0.05174469,0.6995975,1.462814,0.4056478,0.01042194,-0.08784565,0.01225152,-0.8564391,0.1345376,0.04845382,0.8008041,1.528728,0.1997604,0.4296922,1.066115,0.2770528,297.402,231.2731,354.1544,False
0,0.2222222,-0.1865068,0.3119794,0.005718701,-1.412528,-4.176286,-3.076528,0.6448688,1.198563,0.4961247,-1.481751,-0.01085644,0,0,0.0322753,-0.03935228,0.1071867,-0.7295219,-4.350935,0.05234842,0.7001993,1.463021,0.4054227,0.02861904,-0.1017027,0.02490889,-0.8557999,0.1323229,0.04896408,0.8009058,1.528684,0.199491,0.4286634,1.06729,0.2780399,297.1335,231.6089,354.2234,False
0,0.2333333,-0.2087727,0.2734318,-0.01425866,-1.411816,-4.178115,-3.073169,0.6456232,1.198654,0.4962559,-1.481336,0.03804825,0,0,0.04967356,-0.09931794,0.1459696,-0.7266904,-4.355695,0.05484034,0.701214,1.463284,0.4052207,0.04881434,-0.135823,0.02587199,-0.8556028,0.1286838,0.05012123,0.8010443,1.528658,0.1992042,0.4277753,1.068494,0.2789968,296.8161,231.9138,354.3291,False
0,0.2444444,-0.2341868,0.2264043,-0.02459274,-1.411301,-4.179177,-3.06953,0.646364,1.199082,0.4964418,-1.481156,0.01624718,0,0,0.078508,-0.1420197,0.1549441,-0.7249444,-4.36044,0.0565429,0.7020549,1.46346,0.4050944,0.04969972,-0.1422572,0.006698886,-0.8563491,0.1263551,0.0512062,0.8011277,1.528614,0.198921,0.427112,1.069689,0.2798767,296.5566,232.1404,354.4643,False
0,0.2555556,-0.2522166,0.2039572,-0.02657372,-1.410925,-4.180824,-3.065925,0.647085,1.19933,0.4964416,-1.480721,0.03970652,0,0,0.1263978,-0.194213,0.1519406,-0.7236128,-4.366257,0.05789739,0.7031767,1.46373,0.4049325,0.0645603,-0.1359036,-0.0008989498,-0.8566809,0.1247258,0.05108555,0.8012718,1.5286,0.198637,0.4267703,1.070859,0.2806146,296.3325,232.2755,354.6431,False
0,0.2666667,-0.2946859,0.1546749,-0.04538529,-1.409926,-4.18095,-3.061037,0.6480608,1.199996,0.4967761,-1.480427,0.02670073,0,0,0.1582061,-0.2441913,0.1384594,-0.722702,-4.372767,0.06001354,0.7043592,1.464102,0.4047687,0.0858006,-0.1455395,-0.006385458,-0.8569978,0.1221431,0.05118995,0.8014616,1.528613,0.1983209,0.4267913,1.071993,0.2811337,296.1601,232.2664,354.8649,False
0,0.2777778,-0.309559,0.1407315,-0.05272272,-1.409451,-4.18235,-3.056936,0.6488929,1.200663,0.4971015,-1.480704,-0.02540277,0,0,0.1656386,-0.2708158,0.1371126,-0.7214546,-4.378718,0.06245033,0.705565,1.464514,0.4045875,0.09753218,-0.1519449,-0.004345549,-0.8571235,0.1195972,0.05127144,0.8016144,1.528611,0.1979949,0.4270841,1.073152,0.2813486,296.0722,232.1989,355.0115,False
0,0.2888889,-0.329803,0.1449611,-0.04525684,-1.409318,-4.184186,-3.052252,0.6498657,1.201437,0.4974546,-1.479424,0.1173807,0,0,0.1860122,-0.2943734,0.1516471,-0.7194988,-4.385015,0.06445196,0.7069478,1.465123,0.4045031,0.105145,-0.1604451,0.01584352,-0.856422,0.1165808,0.05189329,0.8017902,1.528665,0.1976762,0.4275617,1.074378,0.2812675,295.9809,232.0858,355.094,False
0,0.3,-0.3490604,0.1651097,-0.04640444,-1.409139,-4.186606,-3.047323,0.6511446,1.202241,0.4978609,-1.48051,-0.1001567,0,0,0.2183492,-0.320276,0.1916188,-0.7161959,-4.392149,0.06634973,0.70851,1.465872,0.4043195,0.1202831,-0.1817116,0.04558374,-0.8551016,0.1128885,0.05248212,0.8020344,1.528789,0.197331,0.4282922,1.075822,0.2810094,295.9551,231.8367,355.1764,False
0,0.3111111,-0.3768207,0.1777351,-0.05602333,-1.40836,-4.18917,-3.041808,0.6524123,1.203322,0.498276,-1.480362,0.01470501,0,0,0.2445179,-0.3388889,0.2540806,-0.7115061,-4.399451,0.06823818,0.7102711,1.466767,0.4041486,0.1415353,-0.2115662,0.04439697,-0.8548704,0.1086157,0.05297427,0.8022097,1.52881,0.1969218,0.4290645,1.077559,0.2806677,295.862,231.5649,355.1707,False
0,0.3222222,-0.3939273,0.1904019,-0.0635259,-1.407706,-4.191666,-3.036436,0.653749,1.204361,0.4986317,-1.480379,-0.001635845,0,0,0.2568006,-0.3766576,0.3133269,-0.7065036,-4.408551,0.07189497,0.7123223,1.467729,0.4040697,0.1667489,-0.2510926,0.01017231,-0.8561221,0.1032598,0.05377908,0.802475,1.528815,0.1964412,0.4298131,1.079632,0.2804132,295.6719,231.3874,355.1033,False
0,0.3333333,-0.4185195,0.2039994,-0.0902129,-1.405833,-4.194593,-3.030545,0.6552816,1.205543,0.4989483,-1.480036,0.03157781,0,0,0.2731495,-0.4206523,0.3533047,-0.7018117,-4.418572,0.07598665,0.7142929,1.468673,0.4039652,0.1856985,-0.283113,-0.0101747,-0.857205,0.09802883,0.0545695,0.8027225,1.52875,0.1959522,0.4305304,1.082047,0.2803901,295.3903,231.2306,355.1189,False
0,0.3444445,-0.4240651,0.2560758,-0.1043523,-1.404844,-4.199134,-3.024873,0.6567272,1.206647,0.4994078,-1.480352,-0.02900885,0,0,0.3430691,-0.5448442,0.4272903,-0.6954776,-4.435186,0.08252071,0.7167348,1.469742,0.4039488,0.2011584,-0.3535465,-0.05810148,-0.8598415,0.08977423,0.05718366,0.8031291,1.528764,0.1953928,0.4311079,1.084791,0.2806193,295.0706,231.0347,355.288,False
0,0.3555556,-0.4434054,0.293202,-0.1205237,-1.403388,-4.203945,-3.018505,0.6583378,1.20783,0.4998913,-1.480168,0.01721185,0,0,0.38045,-0.6142107,0.4402397,-0.6910381,-4.449802,0.08840443,0.7188827,1.470702,0.4038236,0.2116469,-0.3695598,-0.07414371,-0.8614,0.08426362,0.05813627,0.8034327,1.528803,0.1948495,0.4315384,1.087806,0.2810909,294.6669,230.8373,355.5985,False
0,0.3666667,-0.4617272,0.3517291,-0.1197686,-1.402877,-4.209871,-3.011812,0.6598558,1.208991,0.5005155,-1.480832,-0.0606588,0,0,0.4263523,-0.6931672,0.4530253,-0.6865224,-4.46697,0.09526847,0.7213386,1.471709,0.4037635,0.2200721,-0.3908945,-0.08162902,-0.8628796,0.07763421,0.05969502,0.8037881,1.528778,0.1942744,0.4318251,1.091021,0.2817963,294.2236,230.5556,356.043,False
0,0.3777778,-0.4746332,0.3846776,-0.1220681,-1.402218,-4.21512,-3.005392,0.6614784,1.210155,0.501065,-1.480445,0.03601016,0,0,0.459717,-0.7488716,0.4895477,-0.6810331,-4.483624,0.1020587,0.7237633,1.472616,0.4036252,0.249026,-0.4110992,-0.05626463,-0.8628429,0.0713839,0.06003351,0.8041701,1.528733,0.1937089,0.4319132,1.094351,0.2827771,293.7262,230.3771,356.404,False
0,0.3888889,-0.491854,0.4336416,-0.1180662,-1.401944,-4.221762,-2.998308,0.6630085,1.211225,0.5017312,-1.480438,0.0003911041,0,0,0.4736438,-0.757466,0.4978685,-0.6762256,-4.498213,0.1077446,0.726079,1.473525,0.4034975,0.274827,-0.4419669,-0.02339687,-0.8623928,0.06365594,0.06122474,0.804484,1.5287,0.1931736,0.4318305,1.097732,0.2840562,293.245,230.2915,356.7412,False
0,0.4,-0.5004475,0.4602929,-0.10756,-1.401919,-4.227551,-2.991717,0.6643534,1.212346,0.502291,-1.480791,-0.03205052,0,0,0.4844273,-0.7373239,0.5107081,-0.6711102,-4.510638,0.1118983,0.7284527,1.474558,0.4032869,0.2759151,-0.4589699,-0.0159216,-0.8627965,0.05686129,0.0628245,0.8049232,1.528627,0.1926289,0.4315612,1.101132,0.285612,292.7877,230.3755,357.0117,False
0,0.4111111,-0.481315,0.4818038,-0.08534563,-1.402498,-4.233527,-2.986084,0.66571,1.213494,0.5029347,-1.480569,0.02064396,0,0,0.4921367,-0.7066257,0.5353757,-0.6652273,-4.522623,0.1157205,0.7308319,1.475539,0.4030917,0.2834316,-0.4717477,-0.006371407,-0.8629451,0.04948246,0.06434757,0.8053136,1.528536,0.1919856,0.4312151,1.104508,0.2873713,292.3325,230.4998,357.3466,False
0,0.4222222,-0.4898488,0.4839012,-0.08322197,-1.402417,-4.238953,-2.97944,0.6671972,1.214702,0.5033851,-1.481047,-0.04375415,0,0,0.4930901,-0.6553784,0.520851,-0.6605662,-4.532723,0.1181458,0.7333656,1.476493,0.4027882,0.2941801,-0.4973028,0.009579655,-0.8625936,0.04106701,0.06619633,0.8055137,1.528373,0.1913445,0.4307314,1.107831,0.2892339,291.9052,230.6922,357.6287,False
0,0.4333333,-0.4940464,0.4603476,-0.100127,-1.401365,-4.243577,-2.973049,0.6685084,1.21586,0.5038705,-1.482188,-0.1039002,0,0,0.4769308,-0.6424355,0.5019303,-0.6565624,-4.544574,0.1227544,0.7357332,1.477535,0.402596,0.2929354,-0.5218397,-0.007410029,-0.8637739,0.03237578,0.06856814,0.8059406,1.528221,0.1905813,0.4301574,1.111099,0.2910906,291.5114,230.9666,357.8506,False
0,0.4444444,-0.5024086,0.406932,-0.1200515,-1.399758,-4.246532,-2.966655,0.6697924,1.217071,0.5040567,-1.481252,0.08652774,0,0,0.4314119,-0.6288066,0.5312456,-0.650672,-4.556927,0.1294046,0.7383369,1.478629,0.4023185,0.3088871,-0.5559607,-0.005338348,-0.864281,0.02267375,0.07089575,0.8064003,1.528113,0.1899433,0.4296762,1.114286,0.2929192,291.1115,231.2941,358.0309,False
0,0.4555556,-0.511864,0.3695853,-0.1251432,-1.398727,-4.249632,-2.960205,0.6710098,1.218264,0.5043011,-1.481314,-0.00648567,0,0,0.4283784,-0.6278873,0.5493959,-0.6450027,-4.569785,0.1351104,0.7408579,1.479729,0.402009,0.3120502,-0.5602431,-0.00748542,-0.8648387,0.01442421,0.07280736,0.8068227,1.52814,0.1893213,0.4293496,1.117379,0.2945894,290.7576,231.4823,358.348,False
0,0.4666667,-0.5350755,0.2828808,-0.1789313,-1.395027,-4.250517,-2.953194,0.67219,1.219444,0.5042498,-1.481146,0.01551394,0,0,0.4499009,-0.6280712,0.5715584,-0.6388795,-4.583039,0.1399965,0.7432609,1.480671,0.4016805,0.3045022,-0.5602533,-0.01807418,-0.8658901,0.006289188,0.07492511,0.8072848,1.528056,0.1886714,0.4291841,1.120375,0.295976,290.4251,231.3923,358.8736,False
0,0.4777778,-0.5424259,0.2400752,-0.2063727,-1.392226,-4.252587,-2.946429,0.6734725,1.220612,0.5043142,-1.481196,-0.004647351,0,0,0.4680615,-0.6217327,0.5767584,-0.6333189,-4.596022,0.1446294,0.7457619,1.48151,0.4014122,0.3002351,-0.5623907,-0.01695886,-0.8664696,-0.002292582,0.07737255,0.8078169,1.528008,0.1879954,0.4292141,1.123291,0.2969393,290.1361,231.1707,359.4379,False
0,0.4888889,-0.5520595,0.244194,-0.2244913,-1.389741,-4.256054,-2.939283,0.6746769,1.221764,0.5043435,-1.480397,0.07324816,0,0,0.4690519,-0.6056873,0.5683516,-0.6281918,-4.608039,0.1490332,0.7480924,1.482383,0.4011209,0.2927451,-0.5602573,-0.02116054,-0.8673612,-0.01041496,0.07959203,0.8082624,1.527952,0.1873944,0.4294527,1.126155,0.2974362,289.8445,230.8431,-0.00516588,False
0,0.5,-0.5479313,0.2728676,-0.2427854,-1.387247,-4.260809,-2.932569,0.6759242,1.222885,0.5044377,-1.480915,-0.04794997,0,0,0.4538651,-0.561793,0.5400817,-0.6239051,-4.617519,0.1523677,0.7504832,1.483128,0.4007359,0.2929209,-0.5570232,-0.000921566,-0.8671348,-0.01852388,0.08159073,0.8087255,1.527887,0.1868687,0.4299298,1.12898,0.2974158,289.5812,230.0432,0.8779321,False
0,0.5111111,-0.5439102,0.3314009,-0.2559201,-1.385205,-4.267022,-2.925598,0.6770015,1.223918,0.5045433,-1.481011,-0.008078944,0,0,0.4386764,-0.5317203,0.5106374,-0.6199903,-4.626978,0.1557566,0.752615,1.48386,0.4004061,0.2963834,-0.5303422,0.02562788,-0.8663428,-0.02517366,0.08253057,0.8091331,1.527799,0.1863604,0.4306166,1.131834,0.2970472,289.3294,229.1205,1.630711,False
0,0.5222223,-0.5451384,0.3772145,-0.2540564,-1.383783,-4.273163,-2.918509,0.6779562,1.224935,0.5046244,-1.48179,-0.07111473,0,0,0.4267628,-0.4921441,0.4897571,-0.6159742,-4.635562,0.1585028,0.754724,1.484648,0.4000325,0.2911747,-0.5036889,0.03521167,-0.8659993,-0.0314498,0.08363817,0.8095622,1.527781,0.1858573,0.4312893,1.134773,0.2965514,289.0639,228.2244,2.200387,False
0,0.5333334,-0.5453568,0.4401163,-0.2459062,-1.382894,-4.280643,-2.911125,0.6788349,1.225884,0.5048101,-1.481945,-0.01352887,0,0,0.4127516,-0.4610996,0.4720237,-0.6120163,-4.643766,0.1611189,0.7568192,1.485329,0.3996134,0.2901727,-0.4930262,0.04052168,-0.8658874,-0.03829999,0.08489864,0.8100144,1.527702,0.1853139,0.4317737,1.137807,0.2962315,288.7371,227.2617,2.806723,False
0,0.5444446,-0.5487285,0.4869772,-0.2461758,-1.381822,-4.28808,-2.903581,0.6796985,1.226776,0.5049584,-1.481847,0.008958813,0,0,0.3795176,-0.4406533,0.4479946,-0.6086894,-4.652154,0.1648033,0.7588091,1.486026,0.3992436,0.2826023,-0.4962452,0.02781054,-0.8664573,-0.04582741,0.08688217,0.8106601,1.527684,0.1848044,0.4318248,1.14092,0.2963159,288.3563,226.426,3.410567,False
0,0.5555557,-0.5541154,0.5018436,-0.2505187,-1.380364,-4.294691,-2.89605,0.6805304,1.227718,0.5050974,-1.481813,0.00306286,0,0,0.3401347,-0.4268006,0.450626,-0.6042702,-4.66129,0.1697757,0.7608476,1.486736,0.3988218,0.2835622,-0.5005363,0.01716662,-0.8670714,-0.0533342,0.08862095,0.8112062,1.527567,0.1844025,0.4313747,1.144097,0.2969367,287.9501,225.8625,3.983187,False
0,0.5666668,-0.5798109,0.5282716,-0.2687429,-1.378531,-4.302127,-2.887367,0.6813091,1.228672,0.5051641,-1.481677,0.01245012,0,0,0.3147694,-0.4397407,0.4720785,-0.5993055,-4.672322,0.1762336,0.7627141,1.487264,0.3984599,0.2907645,-0.4771832,-0.01703478,-0.8687754,-0.05908343,0.08885983,0.811738,1.527487,0.1839314,0.4304478,1.147321,0.2981768,287.5247,225.5323,4.577717,False
0,0.577778,-0.5969485,0.5483702,-0.2816229,-1.376786,-4.309555,-2.87886,0.6822109,1.229667,0.5051596,-1.481567,0.009926864,0,0,0.3211081,-0.4450043,0.46558,-0.5954179,-4.682534,0.1807357,0.7645736,1.487747,0.397984,0.2917198,-0.458053,-0.03305532,-0.869937,-0.06488472,0.08936397,0.8121141,1.527395,0.1834893,0.4291927,1.150566,0.2999962,287.0945,225.3436,5.311368,False
0,0.5888891,-0.6184362,0.5886644,-0.2999342,-1.375041,-4.31834,-2.869549,0.6828724,1.230541,0.5052583,-1.48065,0.0838637,0,0,0.328385,-0.4310087,0.4464424,-0.5919813,-4.691502,0.1842423,0.7662009,1.488239,0.397665,0.2713794,-0.4122554,-0.05321892,-0.8715211,-0.06858984,0.08943667,0.8125618,1.527332,0.1831284,0.4277807,1.153805,0.302216,286.6879,225.1799,6.213513,False
0,0.6000003,-0.6303601,0.6386228,-0.3119222,-1.373757,-4.327882,-2.860412,0.6833714,1.231464,0.5054839,-1.480867,-0.02044168,0,0,0.3165054,-0.4148876,0.4296488,-0.5885117,-4.699929,0.1882631,0.7679348,1.488784,0.3972783,0.269575,-0.3749075,-0.02238388,-0.8708585,-0.07265423,0.08914132,0.8129236,1.527277,0.1826563,0.4262607,1.157078,0.3046051,286.3416,225.0547,7.150559,False
0,0.6111114,-0.6443483,0.675862,-0.3110534,-1.37293,-4.337306,-2.851006,0.6837955,1.232304,0.5055494,-1.480533,0.03087659,0,0,0.2392535,-0.3579204,0.3711872,-0.5868489,-4.704023,0.191706,0.769284,1.489241,0.3969195,0.2686732,-0.3695415,-0.004276671,-0.8706188,-0.07778361,0.08952216,0.8133419,1.527263,0.1822727,0.4247524,1.160431,0.3069909,285.9958,224.8499,8.130185,False
0,0.6222225,-0.6454327,0.6854694,-0.3079098,-1.372092,-4.345921,-2.842303,0.6841987,1.233273,0.5056367,-1.480983,-0.0413391,0,0,0.2039035,-0.3193788,0.3494629,-0.5841175,-4.709177,0.1948656,0.7707027,1.489907,0.3965321,0.2559908,-0.3780205,0.009710092,-0.8703738,-0.08398239,0.09115042,0.8137405,1.527303,0.1818528,0.4231404,1.163905,0.3092639,285.6283,224.4695,9.115154,False
0,0.6333337,-0.6528687,0.6790392,-0.3099982,-1.370836,-4.354052,-2.833195,0.6844046,1.234144,0.5057354,-1.4809,0.008139406,0,0,0.1720013,-0.2767921,0.3543645,-0.5803832,1.569429,0.1978129,0.7722015,1.490416,0.3961294,0.2538408,-0.3599221,0.004365241,-0.8708936,-0.08841362,0.09128917,0.8142728,1.527311,0.1814466,0.4214036,1.167533,0.3114465,285.2039,224.0185,10.06431,False
0,0.6444448,-0.6581375,0.6597941,-0.3183994,-1.369231,-4.361843,-2.824002,0.6845593,1.235106,0.5057545,-1.481551,-0.05950015,0,0,0.1626075,-0.2620248,0.3737481,-0.5760795,1.563269,0.2014644,0.773571,1.490972,0.3957253,0.2527473,-0.3375649,-0.003130041,-0.8714247,-0.09233619,0.09097677,0.8147739,1.527294,0.1810853,0.4196056,1.171306,0.3135308,284.7279,223.6159,10.99755,False
0,0.655556,-0.6697257,0.6202748,-0.3287989,-1.367225,-4.368517,-2.814772,0.6846181,1.236164,0.5057521,-1.48122,0.03079729,0,0,0.1595461,-0.2461399,0.3866873,-0.5719149,1.557496,0.2045691,0.7750317,1.491431,0.3952918,0.2462614,-0.3173479,-0.01803374,-0.8724058,-0.09599377,0.09078423,0.8152339,1.527307,0.1807868,0.4179119,1.17517,0.3154995,284.2099,223.0052,12.15669,False
0,0.6666671,-0.6823545,0.57328,-0.3412868,-1.364774,-4.374485,-2.80549,0.6844137,1.237234,0.5056906,-1.481121,0.008742047,0,0,0.124615,-0.2143351,0.4085831,-0.5669162,1.553112,0.2080773,0.7762983,1.491856,0.394851,0.2332574,-0.2950226,-0.04673239,-0.8741645,-0.09914976,0.09082418,0.8157266,1.527293,0.1804776,0.4163129,1.17905,0.3172821,283.6882,222.0772,13.58376,False
0,0.6777782,-0.6971132,0.5273348,-0.3559148,-1.362013,-4.380262,-2.796088,0.6842177,1.238256,0.5056348,-1.480978,0.01304616,0,0,0.1011035,-0.2185293,0.4013171,-0.563453,1.546632,0.2131783,0.7776045,1.492274,0.394454,0.2236103,-0.2854432,-0.05412555,-0.875226,-0.1029851,0.09115867,0.8161882,1.527133,0.1801763,0.4148176,1.182915,0.3188393,283.2149,220.9279,15.1677,False
0,0.6888894,-0.7171964,0.4759932,-0.3790214,-1.358555,-4.385517,-2.786317,0.6839547,1.239331,0.505604,-1.480907,0.006512701,0,0,0.07758689,-0.2365713,0.3939467,-0.5601326,1.538986,0.2196237,0.7788516,1.492595,0.3940718,0.2151083,-0.2673216,-0.05515655,-0.8760964,-0.1059465,0.09095361,0.816674,1.527091,0.1798778,0.4134091,1.186752,0.3201162,282.8005,219.5707,16.89203,False
0,0.7000005,-0.7320293,0.4481872,-0.3894782,-1.355771,-4.391271,-2.776411,0.6837832,1.240366,0.5057478,-1.480888,0.001740904,0,0,0.06684707,-0.2620756,0.3874607,-0.5569351,1.53042,0.2265176,0.7799401,1.492832,0.3937073,0.2204047,-0.2481713,-0.06270006,-0.8772133,-0.1086489,0.08999886,0.8171556,1.527003,0.1795499,0.4120232,1.190556,0.3210719,282.4236,217.9093,18.83108,False
0,0.7111117,-0.7500598,0.4203353,-0.4042003,-1.352422,-4.396627,-2.766244,0.6832906,1.241366,0.5058033,-1.480577,0.02856395,0,0,0.06243822,-0.2683489,0.372539,-0.5541266,1.522945,0.2323102,0.7810676,1.493108,0.3934011,0.2161335,-0.2375184,-0.06588209,-0.8782615,-0.1114875,0.0895693,0.817601,1.526944,0.1792777,0.4107159,1.194312,0.3217704,282.0786,215.9215,21.00421,False
0,0.7222228,-0.7575064,0.4181888,-0.4031009,-1.350203,-4.402838,-2.756246,0.6828446,1.242288,0.5059888,-1.480689,-0.01037892,0,0,0.04708594,-0.273321,0.3279107,-0.5527418,1.516106,0.2381186,0.7821143,1.493311,0.3930464,0.2002036,-0.2172521,-0.06365251,-0.8789853,-0.1137829,0.08942815,0.8181606,1.526867,0.1790583,0.4095174,1.198035,0.3223039,281.7982,213.6739,23.33302,False
0,0.7333339,-0.7628726,0.430975,-0.3989135,-1.348193,-4.409442,-2.746209,0.6822903,1.243112,0.5060542,-1.480551,0.01292119,0,0,0.01349655,-0.2728588,0.2707117,-0.5523673,1.509971,0.2443815,0.782918,1.49352,0.392771,0.1854753,-0.1831125,-0.04761971,-0.8790461,-0.1150378,0.08873253,0.8186046,1.526778,0.1788588,0.4083953,1.201767,0.3228108,281.5348,211.3245,25.69447,False
0,0.7444451,-0.7736034,0.4544017,-0.3958359,-1.346537,-4.41675,-2.735742,0.6816199,1.244086,0.5061533,-1.48106,-0.04655411,0,0,-0.02508354,-0.2374897,0.2457932,-0.5509377,1.506404,0.2490357,0.7836054,1.493681,0.3925633,0.1769812,-0.1660507,-0.0475824,-0.8796554,-0.1166234,0.08802733,0.8189615,1.526728,0.1785758,0.4071583,1.205547,0.3233379,281.2816,208.7987,28.22598,False
0,0.7555562,-0.7726293,0.4810714,-0.3906652,-1.345229,-4.424337,-2.725564,0.6810503,1.244975,0.506283,-1.481307,-0.0220682,0,0,-0.04640295,-0.204446,0.244133,-0.5484876,1.502783,0.2533745,0.7843621,1.493906,0.3921661,0.1577034,-0.1500779,-0.06237048,-0.8810546,-0.1181201,0.08783904,0.819504,1.526676,0.1783531,0.4057885,1.209391,0.3240305,280.9903,206.2513,30.8113,False
0,0.7666674,-0.7791259,0.5108833,-0.3918981,-1.3439,-4.432532,-2.71494,0.6804428,1.24575,0.5064251,-1.481166,0.01313563,0,0,-0.07943156,-0.1532746,0.2416574,-0.5459693,1.501834,0.2562792,0.7848358,1.49399,0.3919182,0.1404458,-0.1469083,-0.08779767,-0.8829993,-0.1199007,0.08796527,0.8199738,1.526566,0.1781211,0.4041996,1.213295,0.3249515,280.6807,203.6941,33.50122,False
0,0.7777785,-0.7813399,0.536472,-0.3867172,-1.342994,-4.440585,-2.704446,0.6797332,1.246477,0.5065911,-1.481593,-0.03914472,0,0,-0.1187008,-0.09156474,0.254241,-0.5425743,1.50214,0.258618,0.7853233,1.494032,0.3917136,0.1286151,-0.1341363,-0.1037028,-0.8846957,-0.1210572,0.08759642,0.8204287,1.526594,0.178067,0.4023799,1.217283,0.326164,280.4006,201.2373,36.18589,False
0,0.7888896,-0.7792643,0.552466,-0.3846775,-1.342059,-4.448499,-2.69411,0.678808,1.2472,0.506856,-1.481414,0.01675512,0,0,-0.1515677,-0.04691858,0.2687586,-0.5389258,1.502327,0.2613118,0.7856653,1.494025,0.3915241,0.1104259,-0.1160237,-0.1163698,-0.8865035,-0.121717,0.0874148,0.8208916,1.526472,0.1779051,0.4004686,1.221328,0.3277308,280.1076,198.6217,39.14172,False
0,0.8000008,-0.7824518,0.5524782,-0.3814757,-1.341041,-4.455976,-2.683686,0.6779243,1.247936,0.5069909,-1.481557,-0.01323471,0,0,-0.1760821,-0.0383816,0.2680021,-0.5361407,1.500171,0.2658796,0.7859674,1.493983,0.3913043,0.08912259,-0.09362432,-0.1194315,-0.8879016,-0.1219599,0.08732532,0.8214042,1.526339,0.1777203,0.3984746,1.2254,0.3296278,279.8046,195.7997,42.39977,False
0,0.8111119,-0.774931,0.5354638,-0.3803182,-1.339741,-4.462714,-2.673837,0.6767724,1.24858,0.5071521,-1.481764,-0.01866325,0,0,-0.1986928,-0.0445722,0.2436689,-0.5345401,1.497857,0.2708469,0.7862679,1.493884,0.3911707,0.07531723,-0.08400711,-0.1161378,-0.8891171,-0.1225832,0.08736846,0.8218776,1.5262,0.1775417,0.3963833,1.229476,0.3317681,279.4938,192.8492,45.85589,False
0,0.8222231,-0.7652411,0.5121199,-0.3727387,-1.338546,-4.469087,-2.664234,0.6755668,1.249146,0.507273,-1.481646,0.01093515,0,0,-0.2238107,-0.06217881,0.1809192,-0.5351025,1.495406,0.2762555,0.7863724,1.493625,0.391149,0.06141509,-0.07121943,-0.1245709,-0.8908466,-0.1229557,0.08735941,0.8221812,1.526068,0.1773651,0.3941884,1.233519,0.3340358,279.1999,189.7933,49.47309,False
0,0.8333342,-0.7513202,0.4951584,-0.367334,-1.33741,-4.475493,-2.654819,0.6742975,1.249683,0.5073366,-1.482069,-0.03882123,0,0,-0.2319004,-0.06485645,0.1159871,-0.5361987,1.494458,0.2799507,0.7863309,1.493407,0.3912351,0.0348638,-0.03495435,-0.1212191,-0.8919235,-0.1218411,0.08723211,0.8225935,1.525833,0.177243,0.3919589,1.237495,0.3362772,278.9466,186.6655,53.2165,False
0,0.8444453,-0.7288855,0.4857205,-0.3598632,-1.336487,-4.482194,-2.645909,0.673018,1.250246,0.5073438,-1.482288,-0.01968282,0,0,-0.2345619,-0.02392949,0.05880485,-0.5370701,1.497358,0.2800452,0.7862462,1.493213,0.3911691,0.01789065,-0.008287005,-0.1179345,-0.8930394,-0.1206436,0.08687364,0.8230025,1.525719,0.1772134,0.3897248,1.241342,0.338333,278.739,183.1878,57.27738,False
0,0.8555565,-0.7043744,0.4858338,-0.3567193,-1.335601,-4.489122,-2.637228,0.671856,1.250785,0.5074017,-1.482476,-0.01707258,0,0,-0.2600434,0.0653235,-0.04572379,-0.5400049,1.506729,0.275753,0.7859154,1.493199,0.3912117,0.008391723,0.01198301,-0.1115022,-0.8940003,-0.1196102,0.08638469,0.8234013,1.525615,0.1772013,0.387551,1.244996,0.3401024,278.5824,179.5943,61.3638,False
0,0.8666676,-0.6809357,0.4880882,-0.3503784,-1.335082,-4.495937,-2.628867,0.6705215,1.251285,0.5073996,-1.483005,-0.04823843,0,0,-0.2982602,0.1035972,-0.03333527,-0.5393977,1.51126,0.2764465,0.7856711,1.493081,0.3912222,0.002053678,0.02797979,-0.108286,-0.8950213,-0.1184053,0.08582356,0.8237635,1.525521,0.1772187,0.3854477,1.248433,0.341547,278.5009,176.1733,65.15414,False
0,0.8777788,-0.6628379,0.4988816,-0.3376964,-1.335041,-4.503012,-2.620344,0.6692189,1.251924,0.507453,-1.483237,-0.02085793,0,0,-0.3128003,0.1310109,0.004309811,-0.5372981,1.514637,0.2774867,0.7855445,1.492893,0.3911724,-0.006452695,0.04503371,-0.1103763,-0.8961958,-0.1169696,0.08518068,0.8241872,1.525459,0.1772716,0.3834482,1.251649,0.3427272,278.4974,173.0357,68.53442,False
0,0.8888899,-0.6468652,0.5021529,-0.3345426,-1.334755,-4.509862,-2.612108,0.6678928,1.25244,0.5075092,-1.483402,-0.01507997,0,0,-0.3091908,0.1541208,0.04600512,-0.5347041,1.518375,0.2775477,0.7852904,1.492739,0.3911529,-0.01596183,0.07062567,-0.1060882,-0.8970874,-0.1147014,0.08429597,0.8245329,1.525403,0.1773248,0.3815593,1.254657,0.3437568,278.5532,170.1727,71.54568,False
0,0.900001,-0.6351156,0.4979797,-0.3281479,-1.33452,-4.51643,-2.603955,0.6665783,1.252879,0.5075328,-1.48316,0.02213938,0,0,-0.3218742,0.1242026,0.05762124,-0.5336559,1.518224,0.2815683,0.7850406,1.492456,0.3911476,-0.01803391,0.08448986,-0.1018374,-0.8979167,-0.1128295,0.08338384,0.8248651,1.525397,0.177449,0.379648,1.25752,0.3447149,278.6232,167.6574,74.1627,False
0,0.9111122,-0.6030708,0.4811155,-0.3185003,-1.334311,-4.522283,-2.597073,0.6650791,1.253223,0.5074832,-1.483211,-0.004993018,0,0,-0.3603197,0.07314894,0.05013492,-0.5336314,1.516682,0.288112,0.7845273,1.492104,0.3912141,-0.02334455,0.09408627,-0.1018124,-0.8989042,-0.1109581,0.08265547,0.8252133,1.525346,0.1775291,0.3776765,1.260321,0.3457129,278.6971,165.5457,76.3843,False
0,0.9222233,-0.5881152,0.4737637,-0.3099588,-1.334233,-4.528433,-2.589533,0.6636701,1.253641,0.5075111,-1.483094,0.01063041,0.08,0,-0.3807043,0.05089477,0.03630861,-0.5337363,1.516332,0.2933853,0.7840941,1.491877,0.3913343,-0.04274891,0.128133,-0.1358058,-0.9013085,-0.1074274,0.08150232,0.8254936,1.525171,0.1776867,0.3756764,1.263087,0.3468318,278.7827,163.3262,78.78181,False
0,0.9333345,-0.5635716,0.469647,-0.3003863,-1.33432,-4.534459,-2.582798,0.6622666,1.253861,0.5076339,-1.484015,-0.08436383,0.2,0,-0.3883235,0.05848578,0.01939292,-0.5338136,1.51845,0.2960282,0.7835517,1.491666,0.3915703,-0.05887267,0.144089,-0.1559451,-0.9035104,-0.1046989,0.08092574,0.825833,1.525147,0.1778395,0.3736576,1.265827,0.3480788,278.8564,160.9323,81.44363,False
0,0.9444456,-0.5401231,0.473016,-0.2855291,-1.334909,-4.540601,-2.576145,0.6607871,1.254126,0.5077989,-1.483335,0.0626545,0.31,0,-0.3831796,0.1087174,-0.001572426,-0.5337023,1.524271,0.2950852,0.7828212,1.491388,0.3918381,-0.07692606,0.172884,-0.1547869,-0.9050204,-0.1009291,0.08006101,0.8260412,1.525156,0.1781564,0.3716232,1.268487,0.3494101,278.922,158.261,84.43581,False
0,0.9555568,-0.5123773,0.4742852,-0.2674768,-1.335681,-4.546475,-2.570143,0.659315,1.254415,0.5079572,-1.483817,-0.04486326,0.41,0,-0.3802299,0.1440825,-0.02901893,-0.5340288,1.530054,0.2941349,0.7820816,1.491067,0.3920124,-0.07678549,0.1878267,-0.1409736,-0.9059296,-0.0976721,0.07885966,0.8262976,1.525154,0.1784782,0.3695979,1.271046,0.3508147,278.998,155.8893,87.12022,False
0,0.9666679,-0.485722,0.4733965,-0.253656,-1.336568,-4.552297,-2.564176,0.6577913,1.254622,0.5081658,-1.483781,0.003665651,0.43,0,-0.4050483,0.2136172,-0.06445853,-0.534571,1.540105,0.2908406,0.7810758,1.490691,0.3923078,-0.08503813,0.2134646,-0.1143244,-0.9060639,-0.09354127,0.07751609,0.8264569,1.525128,0.1788092,0.3676132,1.273467,0.3523067,279.0889,153.5649,89.72798,False
0,0.977779,-0.4664807,0.461838,-0.2397805,-1.337226,-4.557762,-2.558271,0.6564393,1.254875,0.5082428,-1.484122,-0.03140447,0.45,0,-0.4177472,0.2092901,-0.05584367,-0.5342163,1.543926,0.2925525,0.7802953,1.49041,0.3925073,-0.08599791,0.2294628,-0.1047643,-0.9067914,-0.0896946,0.07614164,0.8266753,1.525241,0.1790447,0.3655921,1.275771,0.3538767,279.1538,151.5474,92.02303,False
0,0.9888902,-0.4429105,0.4300225,-0.2289769,-1.337465,-4.562063,-2.553199,0.6548973,1.254956,0.5085189,-1.483931,0.0175555,0.47,0,-0.4377918,0.2070098,-0.035425,-0.5332953,1.547721,0.2947715,0.7793567,1.489956,0.392817,-0.0987306,0.2380154,-0.1004124,-0.9075004,-0.08588894,0.07529902,0.8268304,1.525214,0.1794138,0.3635377,1.277952,0.3555081,279.2083,149.7033,94.17127,False
0,1.000001,-0.432172,0.4130959,-0.2171778,-1.338055,-4.566793,-2.547641,0.6533322,1.255032,0.5087771,-1.483645,0.02578298,0.48,0,-0.4290984,0.2004673,-0.01744255,-0.5322348,1.551008,0.2964002,0.7783483,1.489407,0.3930986,-0.1042441,0.2454282,-0.1238205,-0.9094956,-0.08203854,0.07425159,0.82708,1.525062,0.1797941,0.3614685,1.279999,0.3571721,279.2521,148.0476,96.17009,False
0,1.011112,-0.403316,0.3962705,-0.1968706,-1.339111,-4.570924,-2.543116,0.6515929,1.25484,0.5092492,-1.483952,-0.02839364,0.48,0,-0.39856,0.2018141,-0.0539485,-0.5332266,1.556451,0.29518,0.7771907,1.488835,0.3935337,-0.1215136,0.2645711,-0.1535429,-0.9118738,-0.07722635,0.0732332,0.8272079,1.525067,0.1805,0.35947,1.281905,0.3588018,279.3058,146.5923,98.00594,False
0,1.022224,-0.3712991,0.3890428,-0.1777042,-1.340262,-4.575198,-2.538976,0.6498232,1.254704,0.5096626,-1.483386,0.05186534,0.41,0,-0.3873873,0.2374182,-0.1123765,-0.5351782,1.565294,0.2914558,0.7758746,1.488141,0.3941083,-0.1459237,0.3146821,-0.1523732,-0.9131463,-0.0706201,0.07161027,0.8273048,1.525027,0.1811588,0.3575428,1.283634,0.3603205,279.3978,145.0085,99.91241,False
0,1.033335,-0.3488886,0.3849612,-0.1627949,-1.341606,-4.579661,-2.534695,0.648137,1.254753,0.5100791,-1.484001,-0.05684831,0.35,0,-0.4027241,0.2697207,-0.1567192,-0.5369253,-4.708916,0.2888584,0.7746475,1.487515,0.3946803,-0.1500951,0.3413289,-0.1470672,-0.9142137,-0.06474238,0.06976736,0.8273954,1.525019,0.1818447,0.3556001,1.28522,0.3617035,279.498,143.5119,101.6265,False
0,1.044446,-0.3200457,0.3670066,-0.1542144,-1.342409,-4.583455,-2.53123,0.6462866,1.254605,0.5104885,-1.484253,-0.02265484,0.29,0,-0.4450001,0.3395944,-0.2346022,-0.5402781,-4.694523,0.2829212,0.7731944,1.486796,0.3952174,-0.1518853,0.3712337,-0.1130252,-0.9140065,-0.05816304,0.06749036,0.8273491,1.525048,0.1827056,0.3536217,1.286628,0.3629977,279.5994,141.8428,103.424,False
0,1.055557,-0.2965152,0.3458294,-0.146668,-1.343087,-4.586926,-2.527896,0.6445166,1.254445,0.5108044,-1.48391,0.03126267,0.23,0,-0.4856638,0.3877124,-0.2540784,-0.5419021,-4.681929,0.2789954,0.7718455,1.486191,0.3956504,-0.1496198,0.3776481,-0.0981438,-0.9143713,-0.05281847,0.06582376,0.8274169,1.525088,0.1832871,0.3515663,1.287859,0.3642489,279.6711,140.5585,104.8136,False
0,1.066668,-0.2911,0.3170269,-0.1571596,-1.342919,-4.590408,-2.523981,0.6427307,1.254274,0.5111985,-1.484268,-0.03317037,0,0,-0.4819978,0.4225028,-0.2069636,-0.5410116,-4.670613,0.2745551,0.7705344,1.485438,0.3961482,-0.1471729,0.3873076,-0.0630293,-0.9135489,-0.04691678,0.06375048,0.8272591,1.525148,0.1841576,0.3494321,1.288964,0.365507,279.7198,139.8068,105.6954,False
0,1.077779,-0.2910518,0.299951,-0.1634579,-1.342887,-4.594102,-2.519763,0.6410867,1.254055,0.511507,-1.484103,0.01517718,0,0,-0.4528367,0.4253699,-0.1667356,-0.5402089,-4.661361,0.2705956,0.7692558,1.484747,0.396699,-0.14698,0.4011981,-0.04281456,-0.9130967,-0.04075742,0.06167002,0.8270825,1.52518,0.1849985,0.3472627,1.289919,0.3667779,279.7875,139.0054,106.6823,False
0,1.08889,-0.2931736,0.2945707,-0.1708817,-1.342956,-4.597963,-2.515561,0.6394911,1.253723,0.5118506,-1.48326,0.07671746,0,0,-0.3969738,0.3972669,-0.1174229,-0.5389082,-4.654842,0.267502,0.7680365,1.484115,0.3974972,-0.1373245,0.4150425,-0.03760015,-0.9130323,-0.03429193,0.05894002,0.8269697,1.525227,0.1858077,0.3451197,1.290698,0.3680337,279.8559,138.2804,107.627,False
0,1.100002,-0.2847449,0.3233464,-0.1742517,-1.344039,-4.602929,-2.511752,0.6378752,1.253248,0.5121999,-1.482745,0.04636218,0,0,-0.3682159,0.3247883,-0.1150711,-0.5397551,-4.652067,0.2683119,0.7667118,1.483283,0.398257,-0.1383822,0.4214294,-0.03760158,-0.9131399,-0.02822924,0.05686009,0.8268121,1.525224,0.1867762,0.3430096,1.291338,0.36925,279.9395,137.932,108.1797,False
0,1.111113,-0.2774044,0.3574915,-0.1691325,-1.345753,-4.608243,-2.507725,0.6362883,1.252823,0.5126722,-1.482644,0.008785517,0,0,-0.366808,0.2166733,-0.1851831,-0.5442766,-4.651478,0.2720478,0.7652493,1.482503,0.399194,-0.1426594,0.4224949,-0.04076149,-0.9134238,-0.02222621,0.05486751,0.8266405,1.525278,0.1878102,0.3409795,1.291914,0.370433,280.0129,137.8309,108.4616,False
0,1.122224,-0.2383042,0.4536442,-0.1463175,-1.349895,-4.615585,-2.504743,0.6347602,1.252135,0.5132346,-1.483177,-0.04880091,0,0,-0.367795,0.1386079,-0.2837973,-0.5506373,-4.650177,0.2750862,0.7637602,1.481777,0.4001033,-0.1489602,0.4278525,-0.03113106,-0.9131883,-0.01600254,0.0529274,0.8264139,1.525328,0.1888225,0.3390268,1.292503,0.3716194,280.0952,137.6152,108.8115,False
0,1.133335,-0.2033293,0.5210976,-0.1105382,-1.354424,-4.622014,-2.502209,0.6331917,1.251525,0.5137548,-1.48297,0.01932969,0,0,-0.3747761,0.1891821,-0.3472605,-0.5550827,-4.640022,0.2707436,0.7622371,1.480953,0.4009142,-0.1616824,0.4385321,-0.02677974,-0.9130158,-0.009435713,0.05102643,0.8262076,1.525393,0.1897399,0.3370836,1.29316,0.3729153,280.1823,137.0186,109.4874,False
0,1.144446,-0.1831469,0.5468681,-0.08834822,-1.358348,-4.627867,-2.499582,0.6316524,1.25097,0.5142047,-1.484249,-0.1173248,0,0,-0.3769123,0.2627195,-0.3509279,-0.5576025,-4.628308,0.2650594,0.7607409,1.480215,0.4016826,-0.1657957,0.4620031,-0.0140109,-0.912424,-0.00188685,0.0484176,0.8259164,1.525482,0.1907611,0.3350889,1.293938,0.3744606,280.2439,136.1913,110.3567,False
0,1.155557,-0.1671422,0.5502369,-0.06920472,-1.361919,-4.632967,-2.497182,0.6301653,1.25033,0.514689,-1.484375,-0.01062922,0,0,-0.3603273,0.345345,-0.2918483,-0.5570465,-4.61575,0.2578443,0.7592808,1.479588,0.4024277,-0.1561257,0.4396499,-0.0002023894,-0.911844,0.003345463,0.046592,0.8256973,1.525585,0.1917861,0.3330176,1.294811,0.3764722,280.256,134.6901,111.9495,False
0,1.166668,-0.1670296,0.5214989,-0.06477302,-1.364398,-4.637315,-2.494407,0.6287079,1.249717,0.5152342,-1.483858,0.04706654,0,0,-0.340491,0.3693151,-0.2247345,-0.5559929,-4.606528,0.2531167,0.7577759,1.478879,0.4031491,-0.1657514,0.4162292,-6.975606E-05,-0.9116229,0.008214787,0.0457563,0.8253926,1.525695,0.192682,0.3308509,1.295704,0.3789591,280.1888,132.8013,114.1647,False
0,1.17778,-0.1765008,0.4884172,-0.06882298,-1.366316,-4.641376,-2.491314,0.6272342,1.249046,0.5157642,-1.483606,0.0224974,0,0,-0.338471,0.3600246,-0.1257471,-0.5532046,-4.601079,0.2521918,0.7562399,1.478122,0.4039514,-0.1797003,0.4034457,-0.009510038,-0.9118855,0.01333285,0.04510889,0.8251057,1.525777,0.1936798,0.3286462,1.296523,0.3817637,280.1007,131.0124,116.5125,False
0,1.188891,-0.1943788,0.4244176,-0.0705564,-1.367156,-4.643894,-2.488049,0.6257237,1.248179,0.5163774,-1.482854,0.06834684,0,0,-0.3485375,0.3552946,-0.06495982,-0.5507875,-4.594849,0.2510858,0.7547246,1.477264,0.4047375,-0.1903987,0.38109,-0.01043581,-0.9118722,0.0176493,0.04498745,0.824771,1.525835,0.1944768,0.3265173,1.297169,0.3846722,280.02,129.4063,118.7784,False
0,1.200002,-0.1995448,0.3850161,-0.06392646,-1.368563,-4.646479,-2.485241,0.6241262,1.247257,0.516988,-1.482273,0.05246271,0,0,-0.3526073,0.3476813,-0.0447327,-0.5497825,-4.588337,0.2496301,0.7531121,1.476193,0.4055812,-0.1776655,0.362955,-0.0126339,-0.9118738,0.02201209,0.04380767,0.8243207,1.525789,0.1953611,0.3244946,1.297615,0.3874457,279.9568,128.197,120.6247,False
0,1.211113,-0.1908715,0.3510564,-0.04669091,-1.370375,-4.648549,-2.483086,0.6224692,1.24622,0.5176914,-1.481692,0.05275873,0,0,-0.3331882,0.3302152,-0.1292272,-0.5535503,-4.580781,0.2461198,0.7514334,1.475141,0.4064279,-0.1723038,0.3512416,-0.006262501,-0.9115606,0.02634492,0.04286065,0.8238866,1.525836,0.1963112,0.3225845,1.297875,0.3898906,279.9339,127.2539,122.1094,False
0,1.222224,-0.1502088,0.314067,-0.02203593,-1.372282,-4.650031,-2.482661,0.6207769,1.245366,0.518373,-1.482107,-0.03833979,0,0,-0.2853734,0.3087711,-0.2513104,-0.5598705,-4.572738,0.2407562,0.7497686,1.474255,0.4073377,-0.1427641,0.3961138,0.07541782,-0.9078061,0.03361375,0.0389695,0.8232147,1.525916,0.19766,0.3208083,1.297956,0.3918412,279.9511,126.458,123.2944,False
0,1.233335,-0.0976739,0.252644,0.002648771,-1.373914,-4.650928,-2.482471,0.6191605,1.24463,0.5189776,-1.482687,-0.05264071,0,0,-0.2584878,0.2721076,-0.33389,-0.5655324,-4.566926,0.2378315,0.7480723,1.473665,0.4083683,-0.1401143,0.4388309,0.1264353,-0.9046023,0.04135476,0.03554681,0.8227772,1.526115,0.1989105,0.3191049,1.297904,0.3932603,279.9911,125.668,124.2578,False
0,1.244446,-0.05266794,0.1708746,0.02338593,-1.37375,-4.648817,-2.484566,0.6178626,1.24411,0.519381,-1.484241,-0.1418134,0,0,-0.2617711,0.2615226,-0.3424639,-0.5689492,-4.560675,0.2355497,0.7464503,1.472986,0.40922,-0.1717623,0.4996589,0.1510773,-0.9017586,0.05096997,0.03257419,0.8222824,1.526279,0.2000635,0.317452,1.297725,0.3942176,280.0279,124.8722,125.0428,False
0,1.255558,-0.02463228,0.08582693,0.03662309,-1.373441,-4.646956,-2.48551,0.6165835,1.243407,0.5198281,-1.484298,-0.00412879,0,0,-0.2687366,0.2835037,-0.2921539,-0.5694302,-4.552927,0.2323014,0.7449228,1.472301,0.4100463,-0.1974923,0.4836862,0.1342742,-0.9009922,0.05686129,0.03189535,0.8218774,1.526384,0.2010775,0.3158456,1.297384,0.394819,280.0598,124.1859,125.6198,False
0,1.266669,-0.0202063,0.03894593,0.03262536,-1.372905,-4.645862,-2.485661,0.6152886,1.24267,0.5202947,-1.485655,-0.1244399,0,0,-0.2724346,0.2958407,-0.2344915,-0.5692288,-4.54597,0.2295631,0.7433331,1.471563,0.410748,-0.1956689,0.4410111,0.106652,-0.9006486,0.06116562,0.03133582,0.8214678,1.526471,0.2020183,0.3143661,1.296824,0.3951313,280.0255,123.8452,125.8873,False
0,1.27778,-0.01791062,-0.007937754,0.02863341,-1.372179,-4.644616,-2.485719,0.6141311,1.24165,0.520844,-1.484339,0.1211663,0,0,-0.2780333,0.3346362,-0.1542276,-0.5671068,-4.537371,0.2255596,0.7416965,1.470782,0.4112952,-0.1941986,0.3737583,0.04287356,-0.9022694,0.06349642,0.0319345,0.8209889,1.526522,0.2029161,0.3132397,1.295889,0.3950845,280.0032,123.795,125.915,False
0,1.288891,-0.01359857,-0.02284779,0.02658199,-1.371957,-4.643925,-2.485838,0.6130261,1.240509,0.5213625,-1.483233,0.09978979,0,0,-0.2786301,0.3651641,-0.1071072,-0.5654567,-4.528174,0.2209044,0.7401352,1.469945,0.4119048,-0.1988487,0.3491712,0.001413326,-0.9036356,0.06740234,0.03184288,0.8205894,1.52655,0.2036943,0.3122864,1.294618,0.394674,280.0007,124.1999,125.3484,False
0,1.300002,-0.008324912,-0.006843318,0.02755017,-1.372603,-4.644124,-2.485948,0.6118314,1.239305,0.5219631,-1.482826,0.03634879,0,0,-0.2379941,0.3863359,-0.09242509,-0.5651239,-4.518804,0.2141182,0.7385247,1.469059,0.4125082,-0.1881637,0.3715287,0.001276928,-0.9033943,0.07378554,0.02967081,0.8199795,1.526635,0.2047074,0.3113325,1.293152,0.3940379,280.0167,125.0694,124.1487,False
0,1.311113,0.02027344,0.03908135,0.02937432,-1.374232,-4.645555,-2.486901,0.6108359,1.23803,0.5224931,-1.482844,-0.001989144,0,0,-0.1797693,0.3855376,-0.1302948,-0.5672022,-4.510191,0.20682,0.7368377,1.468251,0.4133403,-0.1814168,0.4035558,0.03630767,-0.9015535,0.08086449,0.02699753,0.8193634,1.526757,0.2058809,0.3104015,1.291551,0.3933812,280.0411,126.0193,122.7933,False
0,1.322224,0.06908368,0.1022523,0.05236848,-1.377388,-4.647447,-2.488973,0.6099207,1.236819,0.5229776,-1.482909,-0.006020855,0,0,-0.1494246,0.382769,-0.1870749,-0.5703537,-4.501198,0.199797,0.7352037,1.467511,0.4140904,-0.1581218,0.4772254,0.1296964,-0.8967716,0.0906528,0.02183606,0.8186873,1.526891,0.20718,0.3094206,1.28992,0.3928982,280.0461,126.8422,121.5688,False
0,1.333336,0.101966,0.1482739,0.06803167,-1.380431,-4.64927,-2.490909,0.6090291,1.235748,0.5234935,-1.483859,-0.08692943,0,0,-0.1551931,0.3788698,-0.2328547,-0.5734643,-4.492349,0.1943828,0.7336394,1.46677,0.4148448,-0.1514271,0.5049779,0.16047,-0.8940738,0.09868956,0.01836676,0.8181313,1.526999,0.2083888,0.3083047,1.288361,0.3927904,280.0084,127.4489,120.625,False
0,1.344447,0.1593261,0.2050879,0.09211205,-1.384448,-4.651642,-2.494252,0.6084456,1.23472,0.5237648,-1.484936,-0.09780398,0,0,-0.1642564,0.3675867,-0.2882546,-0.5778767,-4.48386,0.1894509,0.732156,1.466121,0.4155865,-0.1566116,0.5082173,0.1764874,-0.8914271,0.1060537,0.01566205,0.8175492,1.527143,0.2094734,0.3071193,1.286889,0.3932474,279.9069,127.7044,120.1779,False
0,1.355558,0.1805489,0.2318198,0.09512234,-1.387359,-4.653671,-2.496563,0.6078123,1.233691,0.5240278,-1.484574,0.03353389,0,0,-0.1515597,0.3452632,-0.296005,-0.580559,-4.477318,0.1852388,0.730714,1.465412,0.4162476,-0.1535881,0.4869318,0.1605195,-0.8903368,0.1129698,0.01298238,0.8172388,1.527572,0.2104034,0.3058783,1.285487,0.3943483,279.7157,127.4475,120.452,False
0,1.366669,0.1922343,0.2403784,0.09398895,-1.389951,-4.65547,-2.498765,0.6071911,1.232595,0.5243039,-1.485657,-0.09964173,0,0,-0.135589,0.3282128,-0.2962922,-0.5832829,-4.470806,0.1807535,0.7293708,1.464808,0.4169176,-0.1456107,0.427148,0.1083794,-0.8909723,0.116309,0.0122303,0.8167415,1.527699,0.2112491,0.304592,1.284143,0.3960164,279.4308,127.0542,121.1015,False
0,1.37778,0.2124694,0.2436571,0.09500438,-1.392475,-4.6571,-2.501508,0.6065819,1.231502,0.5245416,-1.484308,0.1240404,0,0,-0.1172855,0.3174047,-0.277378,-0.5850778,-4.464219,0.1758208,0.7280198,1.464238,0.4175549,-0.1396775,0.3801635,0.06263226,-0.8917195,0.1197229,0.01135758,0.815998,1.527624,0.2121291,0.3033842,1.282768,0.398103,279.1231,126.3322,122.2936,False
0,1.388891,0.2390372,0.2597082,0.09061043,-1.395241,-4.659365,-2.504643,0.6060761,1.230453,0.5246956,-1.483673,0.05662775,0,0,-0.1055435,0.3035268,-0.2744034,-0.5875103,-4.458137,0.1715198,0.726733,1.463666,0.4181821,-0.1130911,0.3641363,0.05924224,-0.8910761,0.1244085,0.008681639,0.8154261,1.527795,0.2131038,0.3021971,1.281329,0.4003478,278.8348,125.6542,123.5501,False
0,1.400002,0.2571215,0.2650948,0.089487,-1.397878,-4.661307,-2.507671,0.6055008,1.229394,0.5248425,-1.48389,-0.02042481,0,0,-0.09698516,0.2683239,-0.2694366,-0.590058,-4.454159,0.169018,0.7256191,1.46315,0.4187708,-0.09593956,0.35884,0.07294786,-0.8898122,0.1298315,0.005800897,0.8148323,1.527834,0.2141044,0.3010315,1.27982,0.4025066,278.5633,125.112,124.6495,False
0,1.411114,0.2879951,0.2716098,0.09153408,-1.400683,-4.66326,-2.511589,0.6050571,1.228447,0.5248778,-1.484183,-0.0267467,0,0,-0.1044118,0.248058,-0.265262,-0.5924655,-4.449517,0.1666161,0.7244651,1.46263,0.4193232,-0.08938846,0.3663194,0.08991774,-0.888242,0.1353289,0.003115898,0.8142411,1.527868,0.2149799,0.2999144,1.278222,0.4044025,278.291,124.6947,125.5249,False
0,1.422225,0.3103754,0.2695682,0.09257849,-1.403257,-4.664993,-2.515443,0.6045932,1.227383,0.5249798,-1.483793,0.03570746,0,0,-0.1245938,0.2149995,-0.2589338,-0.5948447,-4.446442,0.1660265,0.7233402,1.462189,0.419769,-0.08070526,0.3791415,0.1068558,-0.8865227,0.1415756,-0.0001504686,0.8136785,1.527899,0.2158959,0.2988561,1.276522,0.4059636,278.0274,124.4634,126.0846,False
0,1.433336,0.3317187,0.2621942,0.0936598,-1.405768,-4.666514,-2.519693,0.6041364,1.226399,0.5250287,-1.48438,-0.05415474,0,0,-0.1373021,0.1936402,-0.250455,-0.5970887,-4.442876,0.1650081,0.7222714,1.461768,0.4202712,-0.07744953,0.3653161,0.1153918,-0.8848736,0.1464,-0.002539857,0.8130521,1.527949,0.2167654,0.2978309,1.274733,0.4071589,277.7513,124.5126,126.2506,False
0,1.444447,0.3402866,0.251597,0.09796846,-1.408197,-4.667833,-2.523592,0.6038288,1.225467,0.5250425,-1.484076,0.02802953,0,0,-0.1221784,0.1817419,-0.2283207,-0.5986568,-4.439484,0.1630936,0.7212957,1.461379,0.420717,-0.07321367,0.3397464,0.1175418,-0.8834547,0.1502137,-0.004289021,0.8125395,1.527987,0.2175236,0.2969041,1.272835,0.4080184,277.4911,124.7473,126.1343,False
0,1.455558,0.3424694,0.2366804,0.09699691,-1.410437,-4.668906,-2.527327,0.6035782,1.224596,0.5250936,-1.484122,-0.004670255,0,0,-0.1092259,0.179465,-0.210351,-0.6000741,-4.435441,0.1605479,0.7202671,1.46096,0.4212406,-0.06908914,0.3184063,0.1047683,-0.882725,0.1540007,-0.006143114,0.8121611,1.528018,0.218292,0.2960588,1.270808,0.4086068,277.2516,125.1444,125.7635,False
0,1.466669,0.3457091,0.2260577,0.1002488,-1.412698,-4.669998,-2.531135,0.6033617,1.223669,0.5251167,-1.483501,0.05666516,0,0,-0.09311034,0.1644285,-0.1957084,-0.6015143,-4.432657,0.1587172,0.7193595,1.460598,0.4216762,-0.06931266,0.2991825,0.08243987,-0.8825737,0.1574947,-0.007571101,0.8116895,1.528049,0.218998,0.2952757,1.268666,0.4090011,276.9964,125.813,125.0695,False
0,1.47778,0.343627,0.2154363,0.1077683,-1.415016,-4.670885,-2.53472,0.6033378,1.222726,0.5250936,-1.483032,0.04227636,0,0,-0.07808989,0.1515497,-0.18424,-0.6031356,-4.429906,0.1569063,0.7184566,1.460199,0.422128,-0.0695563,0.2810152,0.0569169,-0.8828017,0.1607645,-0.008915198,0.8112414,1.527964,0.2197657,0.2945781,1.266449,0.4092808,276.6983,126.9795,123.8597,False
0,1.488891,0.3447486,0.2037694,0.1163527,-1.41733,-4.671544,-2.538489,0.6032305,1.221794,0.5250401,-1.482921,0.009745618,0,0,-0.05361369,0.1419715,-0.1866846,-0.6051235,-4.42705,0.1543222,0.7176404,1.459824,0.4225085,-0.07283378,0.2746042,0.04843468,-0.8825215,0.1643971,-0.01034372,0.8108461,1.528028,0.2203512,0.2939601,1.264237,0.4095163,276.391,128.5377,122.2545,False
0,1.500003,0.3469426,0.1867741,0.1228339,-1.419448,-4.671988,-2.542234,0.6031264,1.220899,0.5250297,-1.482549,0.03394952,0,0,-0.04521409,0.1346119,-0.1996003,-0.6075059,-4.424165,0.1521171,0.716752,1.45943,0.4228559,-0.07496609,0.2682185,0.04953207,-0.8819526,0.1679794,-0.01171604,0.8104161,1.528043,0.2209632,0.2934467,1.262075,0.4097748,276.0992,130.0179,120.7475,False
0,1.511114,0.34602,0.1516604,0.1315621,-1.421169,-4.671245,-2.546206,0.6029828,1.220051,0.5250077,-1.482574,-0.002648685,0,0,-0.04537463,0.1230193,-0.2156736,-0.6103891,-4.421676,0.1506382,0.7159376,1.459066,0.4231834,-0.06643425,0.2469015,0.05376969,-0.8811894,0.1705325,-0.01303324,0.8100246,1.52814,0.2215023,0.2930673,1.259999,0.4100854,275.8113,131.2474,119.5374,False
0,1.522225,0.3451119,0.1101304,0.1339289,-1.422377,-4.670329,-2.550173,0.6027434,1.219307,0.5249729,-1.482456,0.01076123,0,0,-0.05823655,0.1081626,-0.2231255,-0.6130336,-4.419902,0.1503386,0.7149851,1.458673,0.4234693,-0.06316765,0.2298767,0.06549742,-0.8800767,0.173163,-0.01410277,0.8096054,1.528148,0.222007,0.2927404,1.258046,0.4104336,275.5517,132.084,118.7557,False
0,1.533336,0.3388985,0.06107578,0.1299701,-1.423032,-4.668736,-2.554072,0.6024318,1.21858,0.5249853,-1.482429,0.002337972,0,0,-0.05811974,0.1229899,-0.2112956,-0.6147087,-4.416019,0.1478342,0.7141601,1.458322,0.4238148,-0.06205265,0.2224322,0.0729598,-0.8790775,0.1761155,-0.01528761,0.8091742,1.528093,0.2225368,0.2924433,1.256208,0.4107897,275.3152,132.6151,118.3078,False
0,1.544447,0.3380184,0.008855268,0.1270763,-1.42318,-4.666596,-2.558087,0.6022173,1.2179,0.5249636,-1.482347,0.007383896,0,0,-0.04510352,0.1590294,-0.1887674,-0.6155854,-4.410605,0.1434719,0.7133821,1.457963,0.4240441,-0.05563384,0.2117798,0.0782548,-0.8780612,0.1786741,-0.01652705,0.8087819,1.528092,0.2229793,0.2921658,1.254454,0.4110595,275.0966,132.9473,118.0864,False
0,1.555558,0.3339564,-0.04336125,0.127384,-1.423244,-4.664057,-2.562113,0.6019737,1.21725,0.5248787,-1.482132,0.01962746,0,0,-0.03221269,0.1791924,-0.1791528,-0.6170134,-4.405755,0.1393944,0.7126899,1.457693,0.4242873,-0.05777833,0.19687,0.07937057,-0.8772266,0.1808292,-0.01723385,0.8084475,1.528192,0.2233994,0.2918605,1.252752,0.4111593,274.9181,133.456,117.6637,False
0,1.566669,0.3160532,-0.08505553,0.1253278,-1.423442,-4.661966,-2.565694,0.601756,1.216594,0.5248384,-1.482123,0.0007016718,0,0,-0.02685302,0.1844916,-0.175967,-0.6185091,-4.401564,0.1360889,0.7119367,1.457367,0.424525,-0.05455062,0.1883557,0.08254733,-0.8762887,0.1834489,-0.01836782,0.8081,1.52821,0.223805,0.2915674,1.251047,0.4110328,274.7683,134.2923,116.8599,False
0,1.577781,0.27878,-0.1064294,0.1246447,-1.423388,-4.659245,-2.567523,0.6016494,1.215949,0.524699,-1.482062,0.005485869,0,0,-0.02475156,0.1951599,-0.1780323,-0.6201969,-4.396888,0.1326915,0.7112615,1.457086,0.4246833,-0.05351926,0.1808855,0.08256074,-0.8754268,0.1854528,-0.01910711,0.8078703,1.528198,0.2241106,0.2913716,1.249283,0.4106394,274.629,135.5929,115.5354,False
0,1.588892,0.2394658,-0.1364227,0.1206234,-1.423094,-4.656454,-2.569236,0.6014709,1.215336,0.5245352,-1.481678,0.0350468,0,0,-0.02905443,0.1994614,-0.1822247,-0.6221097,-4.392215,0.1294086,0.7106049,1.456798,0.4248996,-0.0472502,0.1648712,0.07082136,-0.8751004,0.1871562,-0.01993669,0.8075738,1.528218,0.2244575,0.2912544,1.247453,0.4099661,274.4969,137.3844,113.6345,False
0,1.600003,0.2437871,-0.1545412,0.1175241,-1.422805,-4.653783,-2.572574,0.6013384,1.214673,0.5244257,-1.479878,0.1644384,0,0,-0.03427295,0.1855232,-0.1716267,-0.6234322,-4.389398,0.1275263,0.7101415,1.45645,0.4250333,-0.04836828,0.1499503,0.06767006,-0.8744479,0.1886559,-0.02032498,0.8072981,1.528241,0.2247009,0.2911967,1.245581,0.4090765,274.369,139.7316,111.0949,False
0,1.611114,0.2779018,-0.1661959,0.1068811,-1.422274,-4.651457,-2.577271,0.6011422,1.214149,0.5242312,-1.47976,0.00949965,0,0,-0.03515281,0.1864421,-0.1524407,-0.6243541,-4.385496,0.1247853,0.7094918,1.456171,0.4251599,-0.04100443,0.1413869,0.05696733,-0.8742327,0.1903147,-0.02132366,0.8070008,1.528229,0.2249825,0.2911739,1.243785,0.4079904,274.2241,143.1217,107.4995,False
0,1.622225,0.307699,-0.1586345,0.1057219,-1.422454,-4.649642,-2.582016,0.601009,1.21359,0.5240519,-1.481624,-0.1702275,0,0,-0.0318636,0.1884967,-0.142868,-0.6253539,-4.381541,0.1218274,0.7088948,1.455881,0.4253075,-0.03683089,0.1275144,0.04950448,-0.8739424,0.191595,-0.02186642,0.8067286,1.528236,0.2252471,0.2911831,1.242186,0.4067462,274.1398,146.7416,103.6426,False
0,1.633336,0.3140134,-0.1405487,0.09814226,-1.422539,-4.648373,-2.585863,0.6008713,1.213099,0.5238104,-1.483297,-0.1513704,0,0,-0.03292131,0.1810386,-0.1418526,-0.6267851,-4.378005,0.1193594,0.7082549,1.455633,0.4254403,-0.03683288,0.1200582,0.05058389,-0.8733629,0.19306,-0.02239186,0.8064341,1.52824,0.2255547,0.2913107,1.240742,0.4054516,274.1414,148.9117,101.188,False
0,1.644447,0.3053979,-0.1150131,0.09800951,-1.423237,-4.647416,-2.589103,0.6008155,1.212539,0.5236013,-1.483476,-0.01531448,0,0,-0.03504007,0.1629134,-0.1398426,-0.6281283,-4.375624,0.1179029,0.7077564,1.455367,0.4255645,-0.03044693,0.111527,0.05161327,-0.8727648,0.1943197,-0.02308188,0.8061846,1.528254,0.2257814,0.2915046,1.239336,0.4042242,274.1874,149.5879,100.2025,False
0,1.655559,0.2903889,-0.08734707,0.1021384,-1.424286,-4.646607,-2.591933,0.6007614,1.21195,0.5233986,-1.482513,0.08787598,0,0,-0.03507555,0.1490844,-0.143146,-0.6296805,-4.373399,0.1164718,0.7072814,1.45514,0.4257357,-0.02946686,0.1019203,0.04310144,-0.8725927,0.195474,-0.0235498,0.8058945,1.528278,0.2260199,0.2916732,1.237851,0.4031895,274.1946,149.8504,99.65176,False
0,1.66667,0.2636202,-0.0512466,0.09877995,-1.425418,-4.646471,-2.594085,0.6007923,1.211326,0.5232148,-1.481773,0.06687839,0,0,-0.02119818,0.1245444,-0.1392093,-0.6310222,-4.3723,0.1153316,0.7068365,1.454903,0.4258416,-0.02955981,0.0955077,0.03352816,-0.8725741,0.1965589,-0.02391039,0.8056184,1.528299,0.2262166,0.2916965,1.236273,0.4024193,274.1452,151.2053,98.09186,False
0,1.677781,0.2315981,-0.03005577,0.09977093,-1.426484,-4.646112,-2.595878,0.6007658,1.210693,0.5230286,-1.481331,0.0399365,0,0,-0.01263036,0.1159741,-0.1340295,-0.6321822,-4.370258,0.1135734,0.7063468,1.454685,0.4259362,-0.02847966,0.09124394,0.03565395,-0.8721943,0.1976365,-0.02434662,0.805378,1.528348,0.2263641,0.291589,1.234629,0.4019567,274.0276,153.8129,95.38176,False
0,1.688892,0.165446,0.0006271899,0.1050256,-1.428147,-4.646272,-2.595451,0.6008692,1.210043,0.5228252,-1.480796,0.04868776,0,0,-0.007328711,0.1096012,-0.1362601,-0.6336203,-4.368104,0.1117601,0.7059217,1.454477,0.4260435,-0.0134828,0.08697832,0.04618781,-0.8713096,0.1987235,-0.02541641,0.8050947,1.528373,0.2265334,0.2913899,1.232983,0.4017895,273.8704,157.2921,91.90546,False
0,1.700003,0.1419764,0.01440183,0.1081817,-1.42955,-4.645964,-2.596503,0.6007919,1.209548,0.522557,-1.48049,0.02763224,0,0,-0.005290374,0.1022032,-0.1448584,-0.6353765,-4.366327,0.1104269,0.7055181,1.454363,0.4261074,-0.006000772,0.08164473,0.05038972,-0.8707178,0.1996569,-0.02611656,0.8048195,1.528427,0.2266703,0.2911503,1.231412,0.401883,273.7171,161.221,88.06544,False
0,1.711114,0.1515463,0.01975751,0.1081361,-1.430749,-4.645586,-2.5987,0.6007714,1.209113,0.5223796,-1.478556,0.1767848,0,0,-0.009537257,0.0926032,-0.1427659,-0.6368822,-4.364794,0.1094743,0.7051193,1.454171,0.4261847,-0.009224698,0.07525254,0.04829916,-0.8702971,0.200495,-0.02643507,0.8045162,1.528396,0.2268448,0.2909079,1.229994,0.4021533,273.5686,164.9785,84.45857,False
0,1.722225,0.1963243,0.009247437,0.1038626,-1.431499,-4.644925,-2.602644,0.600596,1.208757,0.5221207,-1.480069,-0.1395866,0,0,-0.01261635,0.07759194,-0.1300641,-0.6377839,-4.363952,0.1090261,0.7047365,1.454076,0.4262342,-0.003984116,0.06776751,0.03974808,-0.8701378,0.2011704,-0.02699646,0.8042628,1.528413,0.2269888,0.2906451,1.228903,0.4024931,273.395,169.4033,80.23124,False
0,1.733337,0.2080661,0.001831158,0.102825,-1.432428,-4.644172,-2.605374,0.6006238,1.208303,0.5218449,-1.481638,-0.1418918,0,0,-0.01252635,0.06898714,-0.1194822,-0.6387698,-4.362834,0.1083488,0.7045171,1.453893,0.4263287,0.001320347,0.05709872,0.03865574,-0.869823,0.2014958,-0.02746358,0.8040789,1.528401,0.2271156,0.2904221,1.228202,0.4027767,273.2573,172.1418,77.706,False
0,1.744448,0.2016847,-0.002471488,0.09966421,-1.433185,-4.643487,-2.607491,0.6005694,1.207961,0.5215821,-1.483539,-0.1726963,0,0,-0.008251451,0.0551204,-0.1175005,-0.6399837,-4.362349,0.1079092,0.7042555,1.45375,0.4263451,0.01285409,0.045318,0.01940693,-0.8703098,0.2015945,-0.0280857,0.803851,1.528421,0.227247,0.2903506,1.227768,0.4029336,273.1494,171.8469,78.16265,False
0,1.755559,0.1910764,-0.01210382,0.0986754,-1.433938,-4.642527,-2.609512,0.6005316,1.207715,0.5213821,-1.482417,0.103919,0,0,-0.01889122,0.04552361,-0.1164146,-0.641367,-4.361886,0.1080269,0.7040449,1.453482,0.4263284,0.02133062,0.04103303,0.01507957,-0.8703194,0.2020452,-0.02885455,0.8036255,1.528415,0.2273674,0.2904344,1.227364,0.4029099,273.0674,168.2813,81.82121,False
0,1.76667,0.1857796,-0.02172902,0.09554344,-1.434454,-4.64154,-2.611509,0.600455,1.20739,0.5211289,-1.481605,0.07314395,0,0,-0.01568522,0.045514,-0.1153802,-0.642543,-4.360815,0.1072407,0.7038025,1.453319,0.4263375,0.01813138,0.04103864,0.01403948,-0.8702396,0.202712,-0.02941595,0.8034106,1.528424,0.227459,0.2906248,1.226814,0.4026791,272.9897,165.0749,85.04356,False
0,1.777781,0.1719671,-0.03244571,0.0924335,-1.434934,-4.640503,-2.613119,0.6003694,1.207227,0.5208423,-1.481423,0.01613369,0,0,-0.014587,0.04442161,-0.112205,-0.6436775,-4.359827,0.1065472,0.7035919,1.45328,0.4263608,0.02127026,0.02504008,0.01084553,-0.8702891,0.2022622,-0.0294226,0.8032876,1.52843,0.2275002,0.2907573,1.226112,0.4022365,272.9331,164.612,85.44443,False
0,1.788892,0.1496316,-0.04319059,0.09040727,-1.435411,-4.639262,-2.614199,0.6002669,1.207031,0.5205643,-1.481448,-0.00236593,0,0,-0.01680167,0.04022664,-0.1207441,-0.6453153,-4.359045,0.1061866,0.7033877,1.453182,0.4265027,0.02761573,0.007985663,0.008692657,-0.8703141,0.2017645,-0.02964524,0.8031166,1.528414,0.2276363,0.2908152,1.225283,0.4016224,272.8964,166.5949,83.34695,False
0,1.800003,0.1049063,-0.04759724,0.09156467,-1.435984,-4.63835,-2.614037,0.6003802,1.206763,0.5202367,-1.481139,0.02838487,0,0,-0.02107545,0.01359675,-0.12091,-0.6467396,-4.360013,0.1073209,0.7032464,1.453069,0.4265277,0.03067288,-0.009092726,-0.004079935,-0.8707733,0.2008198,-0.02949478,0.8029543,1.528439,0.2276468,0.2907997,1.224355,0.4008852,272.8809,169.8033,80.00401,False
0,1.811115,0.04738906,-0.04890493,0.08740522,-1.436397,-4.637341,-2.613022,0.6002604,1.206488,0.5198619,-1.480658,0.04372452,0,0,-0.02531524,-0.0024027,-0.1178033,-0.6480616,-4.36064,0.1082769,0.7030861,1.453008,0.4266114,0.03811652,-0.01656882,-0.004128008,-0.8707924,0.2002328,-0.02975363,0.802834,1.528458,0.2276196,0.2907186,1.223407,0.4000737,272.8814,174.1095,75.5561,False
0,1.822226,0.04845992,-0.04996025,0.08847485,-1.436983,-4.636304,-2.613682,0.6001532,1.20629,0.5195606,-1.479596,0.09688395,0,0,-0.02098555,-0.02270638,-0.1105477,-0.6492105,-4.362083,0.1094378,0.7029562,1.452919,0.4266124,0.04351728,-0.02081821,0.005423278,-0.8703935,0.1997532,-0.03011716,0.8026841,1.52847,0.2276247,0.2906508,1.222508,0.3992375,272.8954,178.4999,71.03001,False
0,1.833337,0.07615129,-0.04880104,0.08629189,-1.437525,-4.6355,-2.615701,0.6000957,1.205975,0.5192297,-1.478903,0.06284676,0,0,-0.01775773,-0.01953531,-0.1073581,-0.6502992,-4.361977,0.1094312,0.7027868,1.452834,0.4266665,0.04031559,-0.021878,0.005451622,-0.8703812,0.1994264,-0.03015817,0.8024881,1.528526,0.2275844,0.2906452,1.221768,0.3984144,272.9201,182.5371,66.88031,False
0,1.844448,0.0995846,-0.04980563,0.08199827,-1.437892,-4.634624,-2.61775,0.5999993,1.205778,0.5189347,-1.480808,-0.1744729,0,0,-0.01226632,-0.001554601,-0.09128939,-0.6506593,-4.360941,0.1085054,0.702584,1.452754,0.426585,0.0381906,-0.01867839,0.005462723,-0.8702992,0.1992871,-0.03041836,0.802341,1.528552,0.2275867,0.2905902,1.221344,0.3976008,272.9514,185.6114,63.70725,False
0,1.855559,0.09211747,-0.04664251,0.07986481,-1.438509,-4.633916,-2.618601,0.5998768,1.205548,0.5187743,-1.482575,-0.1598949,0,0,-0.006931581,0.01015715,-0.09018189,-0.6515738,-4.359813,0.1076317,0.7023555,1.452658,0.4265544,0.03394648,-0.008020606,0.005484072,-0.8701069,0.1995913,-0.03083568,0.8021633,1.52855,0.2275891,0.2906162,1.221205,0.3968456,272.9482,185.7474,63.46844,False
0,1.86667,0.07827476,-0.04882947,0.07883454,-1.438934,-4.632948,-2.61911,0.5997971,1.205309,0.5185351,-1.482753,-0.01505422,0,0,-0.01017661,0.01446091,-0.09544405,-0.6527781,-4.359098,0.1072836,0.7021642,1.452559,0.4265251,0.03604874,-0.00483536,0.00119746,-0.8702512,0.1997019,-0.03143329,0.8020296,1.528588,0.2276015,0.2907909,1.221162,0.396198,272.8911,182.616,66.50423,False
0,1.877781,0.06337614,-0.05207149,0.07994844,-1.439485,-4.631834,-2.619492,0.5997684,1.205042,0.5183222,-1.481531,0.1117105,0,0,-0.01130736,0.01877279,-0.1017955,-0.6541389,-4.358291,0.1069161,0.7019891,1.452406,0.4263947,0.03385294,-0.005921166,-0.006239021,-0.8705421,0.1993873,-0.0315566,0.8019004,1.528622,0.2275679,0.2909982,1.221066,0.3956719,272.83,178.6879,70.33488,False
0,1.888893,0.05802413,-0.04676376,0.07993256,-1.440172,-4.631073,-2.62002,0.5998015,1.204754,0.5180182,-1.48105,0.04298795,0,0,-0.01874582,0.01982956,-0.09959047,-0.6551946,-4.357604,0.106866,0.7017942,1.452331,0.4263473,0.02855496,-0.002707418,-0.004071106,-0.8705351,0.1995694,-0.03186366,0.8017483,1.528643,0.2275541,0.2911074,1.22087,0.3952725,272.7714,176.4951,72.45477,False
0,1.900004,0.04521389,-0.04043081,0.07778643,-1.440746,-4.630467,-2.620177,0.5997769,1.204522,0.517808,-1.480969,0.007239472,0,0,-0.01434219,0.02823207,-0.08464566,-0.6554492,-4.356623,0.1061912,0.7017162,1.452209,0.426264,0.0274763,0.002614195,-0.006201271,-0.8706385,0.1997882,-0.03222159,0.8016618,1.5286,0.2275534,0.2911325,1.220569,0.3949574,272.7176,176.4186,72.53283,False
0,1.911115,0.04413046,-0.03509908,0.07883106,-1.441545,-4.629826,-2.620713,0.5997578,1.204316,0.5176096,-1.481274,-0.02781834,0,0,-0.01105323,0.03242056,-0.07505912,-0.6559323,-4.355649,0.1054361,0.7015591,1.452211,0.4263239,0.02855474,0.005802957,-0.005148771,-0.8706044,0.1998794,-0.03263278,0.8015798,1.52865,0.22752,0.2911414,1.220181,0.394674,272.664,177.8659,71.13168,False
0,1.922226,0.04088876,-0.0212641,0.07875612,-1.442389,-4.629562,-2.621177,0.5995766,1.2042,0.5174267,-1.481064,0.0194736,0,0,-0.001392365,0.02916288,-0.06771813,-0.6564101,-4.355237,0.1047429,0.7014444,1.452053,0.4263029,0.03179238,0.009002605,-0.0009220624,-0.8704435,0.2001615,-0.03328925,0.8014909,1.528671,0.2274818,0.2911631,1.219736,0.3943814,272.6211,179.8328,69.20797,False
0,1.933337,0.04194538,-0.01806554,0.07874177,-1.443139,-4.628963,-2.621803,0.5995384,1.203955,0.5172334,-1.481508,-0.04075309,0,0,-0.00247816,0.02705314,-0.06986041,-0.657339,-4.354633,0.1043448,0.7012951,1.45204,0.4262223,0.02743344,0.008987056,-0.01260365,-0.8710262,0.2003202,-0.03356835,0.8013942,1.528684,0.2274265,0.2911604,1.219296,0.3940673,272.5999,182.2583,66.77901,False
0,1.944448,0.04618751,-0.01380117,0.07657981,-1.443796,-4.628573,-2.622495,0.5994604,1.203796,0.51704,-1.48161,-0.00882869,0,0,-0.004577311,0.00678084,-0.06573628,-0.6579803,-4.35559,0.1052226,0.7011811,1.451995,0.4261799,0.02637772,0.003663501,-0.01044952,-0.8710209,0.2000107,-0.0336011,0.8013631,1.528707,0.2273138,0.2911178,1.218911,0.3937379,272.5806,184.462,64.53503,False
0,1.955559,0.0461853,-0.01275104,0.07338227,-1.444417,-4.628109,-2.623159,0.5993643,1.203623,0.5168073,-1.481782,-0.01566045,0,0,-0.005639712,-0.0006706975,-0.06578502,-0.6587307,-4.355719,0.1053376,0.7009935,1.451834,0.4259949,0.02952565,0.001521893,-0.01580054,-0.8713927,0.2000528,-0.03410764,0.8011919,1.528695,0.2272208,0.2909972,1.218611,0.3934148,272.556,186.0047,62.94453,False
0,1.966671,0.05043902,-0.01599856,0.06167553,-1.444505,-4.62771,-2.62393,0.599281,1.203483,0.5165942,-1.481921,-0.01259862,0,0,-0.001363599,-0.004943267,-0.06373453,-0.6594498,-4.355741,0.1052638,0.7008743,1.451764,0.4259012,0.02618922,-0.0272588,-0.02636227,-0.8720084,0.198344,-0.03318059,0.8011599,1.528747,0.2271485,0.2909285,1.218347,0.3931108,272.5161,186.6286,62.29628,False
0,1.977782,0.05362302,-0.01711189,0.05102683,-1.444623,-4.62739,-2.624668,0.5992708,1.203439,0.5163131,-1.481914,0.0008347743,0,0,0.002907455,-0.00175618,-0.06374783,-0.6601241,-4.355614,0.1048529,0.7007742,1.451699,0.4258566,0.03486565,-0.0165784,-0.01048477,-0.8716819,0.1986072,-0.03400324,0.8011042,1.528719,0.227108,0.2908868,1.218107,0.3928189,272.4764,186.9069,62.00469,False
0,1.988893,0.05893347,-0.01606965,0.04355918,-1.444841,-4.627103,-2.625534,0.5991925,1.203348,0.5160785,-1.482032,-0.01088199,0,0,-0.01385215,0.02040482,-0.03465667,-0.6594306,-4.353883,0.1042809,0.7006547,1.451645,0.4258027,0.04139564,0.01965264,-0.002097486,-0.8714012,0.2008133,-0.03618144,0.800995,1.528701,0.2270904,0.2908558,1.217875,0.3925249,272.4431,187.0002,61.90917,False
0,2.000004,0.062132,-0.01606118,0.04248377,-1.445113,-4.626805,-2.626421,0.59913,1.203313,0.5158823,-1.482024,0.000900535,0,0,-0.01184648,0.02263997,-0.04851197,-0.6604804,-4.353241,0.1037437,0.7005492,1.451556,0.4257779,0.02628998,0.0004656091,-0.02004647,-0.872418,0.1998468,-0.0352251,0.8009199,1.528709,0.2270412,0.2908427,1.217626,0.3922226,272.438,187.2249,61.68072,False
0,2.011115,0.07171468,-0.01712102,0.03714864,-1.445209,-4.626503,-2.627568,0.59905,1.203281,0.5156815,-1.482146,-0.01125769,0,0,-0.01398852,0.01945181,-0.04958216,-0.6611436,-4.353034,0.1037954,0.7004029,1.451532,0.4257689,0.03810672,-0.004846219,-0.00735624,-0.8721511,0.1995552,-0.03585467,0.8009186,1.528738,0.2270741,0.290842,1.217366,0.3919097,272.4457,188.0335,60.86171,False
0,2.022226,0.06957404,-0.01609384,0.03288192,-1.445262,-4.626205,-2.62831,0.598995,1.203221,0.5154636,-1.482164,-0.001549974,0,0,-0.01294507,0.02693507,-0.05273094,-0.661763,-4.351974,0.1029898,0.7003796,1.451459,0.4256985,0.0295379,0.01431909,-0.0169127,-0.8726305,0.2006178,-0.03665495,0.8008839,1.528769,0.2269924,0.2908212,1.217096,0.3915957,272.4481,188.9116,59.9535,False
0,2.033337,0.06422259,-0.009729018,0.03178705,-1.445574,-4.626157,-2.628829,0.598977,1.203114,0.5151892,-1.482398,-0.02139884,0,0,-0.01088249,0.03018221,-0.06018191,-0.6626227,-4.351265,0.1024372,0.7004073,1.451478,0.425493,0.02736267,0.01431282,-0.0222222,-0.8731301,0.2008003,-0.03698438,0.8009442,1.52877,0.226918,0.2907792,1.216815,0.3912944,272.4495,190.0287,58.80193,False
0,2.044448,0.01618982,0.01243637,0.02640746,-1.446074,-4.626966,-2.627091,0.5991426,1.202978,0.5149817,-1.481992,0.03734423,0,0,-0.01825872,0.02692324,-0.05161319,-0.6628683,-4.350908,0.1026124,0.70037,1.451482,0.4254193,0.02630799,-0.0005900338,-0.01791902,-0.8731626,0.2001327,-0.03679796,0.8009461,1.528773,0.2268519,0.2907272,1.216504,0.3910134,272.4565,190.8582,57.95002,False
0,2.055559,-0.02117528,0.03249886,0.01890566,-1.446672,-4.627846,-2.625525,0.5990065,1.202726,0.514714,-1.481746,0.02210224,0,0,-0.02243261,0.01939134,-0.04205064,-0.6630941,-4.351017,0.1030958,0.7003053,1.451437,0.4254079,0.02731377,-0.004865132,-0.02324762,-0.873626,0.1998817,-0.0368981,0.8009216,1.528814,0.2267666,0.2906694,1.216161,0.390751,272.4644,191.9748,56.82637,False
0,2.06667,-0.01169952,0.06127167,0.01446403,-1.447507,-4.629304,-2.625499,0.598997,1.202637,0.5145113,-1.479664,0.1902397,0,0,-0.02231124,0.01716598,-0.02928275,-0.6629519,-4.350782,0.1031477,0.7003037,1.451411,0.4253147,0.02734843,-0.0005969219,-0.0200613,-0.8737416,0.2000693,-0.03735217,0.8009154,1.528805,0.2266889,0.2906305,1.215803,0.3905212,272.4735,193.4579,55.33342,False
0,2.077781,0.01379161,0.07834744,0.003668275,-1.447881,-4.630673,-2.626519,0.5990251,1.202597,0.5143704,-1.479829,-0.01650873,0,0,-0.02007551,0.01601591,-0.01865611,-0.6627297,-4.350594,0.1030904,0.7002024,1.45135,0.4252117,0.03165767,-0.001656134,-0.01476233,-0.873617,0.2000541,-0.03789439,0.8008375,1.528758,0.2266314,0.2905355,1.215568,0.3903584,272.5119,196.0427,52.73156,False
0,2.088892,0.0435643,0.08904555,-0.007092245,-1.448179,-4.631987,-2.627781,0.5989246,1.202648,0.5142002,-1.481697,-0.1703247,0,0,-0.01369727,0.009629827,-0.01983194,-0.6629795,-4.350751,0.1031256,0.7002118,1.451311,0.4251521,0.03057785,-0.004852761,-0.01581164,-0.8738348,0.1998134,-0.03805098,0.8008618,1.528736,0.2265739,0.290296,1.215586,0.390279,272.5367,197.7508,51.02114,False
0,2.100003,0.09787796,0.09241301,-0.01252898,-1.448458,-4.633188,-2.630666,0.5987952,1.202612,0.5140557,-1.482996,-0.1172969,0,0,-0.0158332,0.01070373,-0.02086914,-0.663265,-4.350456,0.1030835,0.7000964,1.451233,0.4250784,0.03059779,-0.002722766,-0.01368248,-0.8738875,0.1997694,-0.03832741,0.8008416,1.528723,0.2265079,0.2905358,1.215885,0.3906502,272.357,194.9502,53.80183,False
0,2.111114,0.1074275,0.09879404,-0.0210951,-1.448804,-4.634602,-2.632018,0.5988081,1.202521,0.5138047,-1.483265,-0.02376235,0,0,-0.0190532,0.005400691,-0.0230108,-0.6635905,-4.350504,0.1034556,0.7000943,1.451203,0.4250858,0.02741122,-0.00165252,-0.01259179,-0.8740185,0.1997393,-0.03848667,0.8008996,1.528746,0.2264543,0.2902047,1.216089,0.39092,272.4835,193.9347,55.01077,False
0,2.122225,0.09465286,0.09445323,-0.02743912,-1.448838,-4.635698,-2.632444,0.5989048,1.202551,0.5136321,-1.484697,-0.1309947,0,0,-0.01589934,0.002232928,-0.02732949,-0.6640826,-4.350626,0.1036145,0.7001651,1.451163,0.4250693,0.02734741,-0.006993067,-0.01897151,-0.874458,0.1993871,-0.03858121,0.8009672,1.52875,0.2263918,0.2898925,1.216269,0.3913103,272.3718,192.3373,56.71814,False
0,2.133336,0.08398812,0.1008385,-0.02106596,-1.449484,-4.63683,-2.632872,0.5989261,1.202514,0.5135076,-1.483112,0.1458622,0,0,-0.01274946,-0.001996966,-0.03166004,-0.6646808,-4.350788,0.1038124,0.7002248,1.451082,0.4249184,0.02837496,-0.007003959,-0.02324033,-0.8748495,0.1992749,-0.03885126,0.8010384,1.528734,0.2263491,0.2896543,1.216224,0.3917818,272.239,188.9419,60.24895,False
0,2.144447,0.06908678,0.09650318,-0.02421527,-1.449614,-4.63784,-2.633034,0.5992496,1.202496,0.5133886,-1.481803,0.1182022,0,0,-0.01168944,-0.01265005,-0.03175305,-0.6651037,-4.351553,0.1045035,0.7002918,1.451035,0.4248779,0.02300285,-0.007003725,-0.02851807,-0.8752905,0.1992115,-0.03889494,0.8012641,1.528624,0.2263293,0.2894762,1.215873,0.39228,272.1574,188.5039,60.8578,False
0,2.155558,0.06378181,0.09222488,-0.02417422,-1.449901,-4.638722,-2.633598,0.5993309,1.202511,0.5132236,-1.481668,0.01144695,0,0,-0.007451044,-0.02968813,-0.03298502,-0.6655203,-4.352969,0.1056226,0.7003489,1.451053,0.4248869,0.02192419,-0.004874058,-0.03063969,-0.8756266,0.1992793,-0.03915885,0.8013185,1.528557,0.2262118,0.2891374,1.214337,0.3927128,272.6229,200.658,48.88603,False
0,2.166669,0.0627363,0.08581721,-0.02626646,-1.449927,-4.639542,-2.634169,0.5994261,1.202525,0.5131612,-1.481429,0.02186529,0,0,-0.0105904,-0.03186293,-0.0265728,-0.6655468,-4.353523,0.1063432,0.700464,1.451047,0.4248285,0.02190589,-0.01020287,-0.03169316,-0.8760042,0.1988777,-0.03913862,0.8014289,1.528529,0.2261434,0.2884991,1.212546,0.3929434,272.7564,214.8813,34.71689,False
0,2.17778,0.0553076,0.07723572,-0.03152338,-1.449845,-4.640244,-2.634537,0.599452,1.202573,0.5131493,-1.481839,-0.03760858,0,0,-0.002006356,-0.0308509,-0.02025533,-0.6655985,-4.354029,0.106479,0.7005787,1.45104,0.4247701,0.02187086,-0.01128229,-0.03595102,-0.8765187,0.1985513,-0.03924061,0.8014831,1.528541,0.226089,0.2883394,1.212108,0.3932512,272.6371,221.5385,28.11226,False
0,2.188891,0.04893998,0.07081933,-0.03147164,-1.449872,-4.640835,-2.634797,0.5995499,1.202637,0.5131602,-1.481918,-0.006849809,0,0,0.0001986269,-0.03411444,-0.01177761,-0.6654947,-4.354834,0.1071254,0.7007082,1.450974,0.4247155,0.01545981,-0.01234167,-0.03802516,-0.8769971,0.1982983,-0.03904034,0.8015903,1.528512,0.2260079,0.2883103,1.212033,0.3933621,272.5763,223.6628,26.00284,False
0,2.200002,0.04258332,0.06119559,-0.03354012,-1.449612,-4.641368,-2.635056,0.5997598,1.202648,0.5130808,-1.481724,0.01774667,0,0,0.008714877,-0.04583586,-0.01195076,-0.6657104,-4.356305,0.1078594,0.7008183,1.450966,0.4246562,0.01549181,-0.01552758,-0.03375534,-0.8771893,0.1979532,-0.03900945,0.8016636,1.528458,0.2259138,0.2883427,1.212034,0.3933398,272.6262,221.9169,27.74719,False
0,2.211113,0.04151313,0.06224769,-0.03460791,-1.449613,-4.642156,-2.635406,0.5998985,1.202625,0.5130394,-1.481611,0.0102234,0,0,0.004445247,-0.04902619,-0.01300021,-0.666006,-4.357388,0.10878,0.7010177,1.450915,0.4245877,0.01867584,-0.01660143,-0.03484565,-0.877608,0.1976299,-0.03911757,0.8017641,1.528404,0.2257895,0.2883898,1.21206,0.3933175,272.7289,219.2531,30.40459,False
0,2.222224,0.03512707,0.0622258,-0.03353302,-1.449617,-4.642888,-2.63553,0.6000298,1.202578,0.5130563,-1.481637,-0.00249094,0,0,0.004469413,-0.04158589,-0.01081184,-0.6660816,-4.35772,0.1089955,0.7011187,1.450883,0.4245448,0.01551135,-0.01978771,-0.03055269,-0.8778296,0.1971027,-0.03883129,0.8018755,1.52839,0.2257147,0.2884513,1.212089,0.3933645,272.7854,217.4216,32.25732,False
0,2.233335,0.03084578,0.07073739,-0.03250878,-1.449871,-4.643973,-2.635732,0.6001791,1.202583,0.5131745,-1.481803,-0.01508425,0,0,0.009819098,-0.03947302,-0.008715393,-0.6661317,-4.358254,0.1090871,0.7012284,1.450931,0.4244735,0.01765811,-0.01978442,-0.02844285,-0.878114,0.196863,-0.03890799,0.8019947,1.528347,0.2256258,0.2886364,1.212045,0.393525,273.1016,209.7094,40.10932,False
0,2.244446,0.01913682,0.06965709,-0.02715991,-1.450062,-4.644688,-2.635421,0.600365,1.202573,0.5132389,-1.481625,0.01649448,0,0,0.0119322,-0.03306575,-0.01081669,-0.6663426,-4.358469,0.1090431,0.7013249,1.450929,0.424438,0.02195475,-0.01659422,-0.02529122,-0.8782642,0.1966623,-0.03920946,0.8021181,1.528301,0.2255912,0.2889268,1.212,0.393916,273.3225,205.4562,44.51725,False
0,2.255557,0.01489508,0.06539818,-0.02287053,-1.450139,-4.645211,-2.635357,0.6005789,1.202571,0.5133471,-1.481761,-0.01253929,0,0,0.01198484,-0.03523925,-0.005508709,-0.6663021,-4.359318,0.1095526,0.7014877,1.451003,0.4244204,0.02200898,-0.0176461,-0.01889765,-0.8782732,0.1963344,-0.03922357,0.8021973,1.528308,0.2255461,0.2891898,1.212016,0.3944273,273.3222,205.9296,44.13453,False
0,2.266668,0.01276703,0.0632416,-0.02605067,-1.450102,-4.645967,-2.635332,0.6007211,1.202579,0.5133982,-1.481269,0.04503766,0,0,0.01195202,-0.03627744,-0.008716669,-0.6666158,-4.359913,0.10991,0.7016094,1.451049,0.4244184,0.01772792,-0.01870862,-0.02098944,-0.8785614,0.1960017,-0.03906405,0.8023072,1.528288,0.2254581,0.2893421,1.2122,0.3950455,273.0494,208.4531,41.66694,False
0,2.277779,0.01067786,0.05473313,-0.02067363,-1.45013,-4.646196,-2.63538,0.6009326,1.202554,0.5134258,-1.481503,-0.02170728,0,0,0.01196862,-0.04162455,-0.006624644,-0.6666595,-4.361063,0.1107076,0.7017287,1.451048,0.4244132,0.01660644,-0.02191783,-0.02736246,-0.8790434,0.1954789,-0.03893089,0.8024548,1.528267,0.225409,0.2894809,1.212593,0.3957199,272.5683,214.495,35.66737,False
0,2.28889,0.007497931,0.04938297,-0.02276847,-1.450023,-4.646675,-2.635293,0.6010895,1.202581,0.5134442,-1.481667,-0.01475209,0,0,0.01092954,-0.03951054,-0.004460184,-0.666561,-4.361663,0.1110237,0.7018963,1.451085,0.42431,0.01555016,-0.02723812,-0.02521135,-0.8792112,0.1948434,-0.03868002,0.8025733,1.528247,0.2253189,0.2896203,1.21303,0.3964517,272.3209,214.9602,35.3734,False
0,2.300001,0.006444559,0.04402276,-0.02806306,-1.449729,-4.647213,-2.635302,0.6012652,1.202576,0.513325,-1.481735,-0.006070016,0,0,0.01942684,-0.04801963,-0.006738934,-0.6667922,-4.362897,0.1114975,0.7020433,1.451099,0.4242563,0.01449376,-0.02723358,-0.02413555,-0.8794067,0.1944181,-0.03853914,0.8026651,1.528238,0.2252364,0.2897487,1.213451,0.3971483,272.1875,212.7008,37.85325,False
0,2.311112,0.003247472,0.04400431,-0.02912004,-1.4497,-4.647794,-2.635168,0.6014302,1.202605,0.5133586,-1.481675,0.005528138,0,0,0.01833282,-0.04693601,-0.008846409,-0.666945,-4.363621,0.1120392,0.7020916,1.451093,0.4241748,0.01238537,-0.03041893,-0.02091492,-0.8795265,0.1938415,-0.03824352,0.8027862,1.52823,0.2251525,0.2899069,1.213788,0.3976988,272.0871,210.414,40.33077,False
0,2.322223,-0.001060868,0.05568657,-0.0334442,-1.449714,-4.648975,-2.634913,0.6015691,1.202629,0.513366,-1.481804,-0.01175053,0,0,0.007671652,-0.04372752,-0.009784195,-0.667124,-4.364231,0.1127686,0.7022146,1.451113,0.4241173,0.0081282,-0.032538,-0.01980964,-0.879681,0.1933334,-0.03782967,0.8029226,1.528189,0.2250712,0.2900454,1.213998,0.3981206,272.0099,209.5424,41.35673,False
0,2.333334,-0.003187417,0.05461412,-0.03343112,-1.449714,-4.649634,-2.634738,0.601748,1.202657,0.5133893,-1.481714,0.008366873,0,0,0.003457081,-0.04163603,-0.004392819,-0.6669163,-4.364903,0.1134842,0.7023779,1.451087,0.4240656,0.007110586,-0.03678663,-0.01340139,-0.8796304,0.1925497,-0.03739557,0.802965,1.52818,0.2249801,0.2901738,1.214053,0.3984236,271.941,210.3085,40.6893,False
0,2.344445,-0.006411351,0.06098155,-0.03559266,-1.449747,-4.650672,-2.634428,0.6020309,1.202648,0.513442,-1.481687,0.002327979,0,0,0.002458584,-0.03103263,0.002091519,-0.6666473,-4.364911,0.1135021,0.7025062,1.451104,0.4240026,0.0103173,-0.0357246,-0.01236577,-0.8797167,0.1920772,-0.03731062,0.8030835,1.528173,0.2248924,0.2902731,1.214024,0.3985013,272.0173,209.4123,41.58158,False
0,2.355556,-0.007520647,0.0726915,-0.0367228,-1.449962,-4.651958,-2.634176,0.6022429,1.202672,0.5134733,-1.481738,-0.004635799,0,0,0.008905706,-0.02468232,0.00740434,-0.6664321,-4.365012,0.1132182,0.7025979,1.451196,0.4239631,0.006056294,-0.03465169,-0.01233052,-0.879828,0.1916259,-0.03692127,0.8031819,1.528154,0.2248194,0.2903284,1.214023,0.398416,272.0615,209.4494,41.43596,False
0,2.366668,-0.01288284,0.08441451,-0.03251983,-1.450427,-4.65324,-2.633695,0.6025006,1.202642,0.5135398,-1.481691,0.004434418,0,0,0.009933736,-0.02891501,0.004175045,-0.6664337,-4.36572,0.1137029,0.7027988,1.451164,0.4238605,0.00816492,-0.0367907,-0.01447449,-0.8800485,0.1909918,-0.03667945,0.8032955,1.528154,0.2247415,0.2904167,1.214043,0.398286,272.0834,210.0563,40.71534,False
0,2.377779,-0.01398893,0.09613955,-0.03151321,-1.450951,-4.654686,-2.633324,0.6028726,1.2026,0.5135958,-1.481806,-0.01055849,0,0,0.000394674,-0.03534403,0.009543797,-0.6662222,-4.366738,0.1147934,0.7029108,1.451203,0.4237895,0.001804765,-0.04529279,-0.008004656,-0.879795,0.1898642,-0.03562298,0.8034308,1.528109,0.2245817,0.2905482,1.214049,0.3982419,272.1239,210.508,40.17706,False
0,2.38889,-0.01405584,0.1120882,-0.03692566,-1.451366,-4.656513,-2.632971,0.6032108,1.202561,0.5136621,-1.481624,0.01680322,0,0,-0.009145342,-0.04070475,0.01491882,-0.6659724,-4.367729,0.1160182,0.7030376,1.4512,0.4236829,-0.002456382,-0.05060945,-0.006891215,-0.8797998,0.1888708,-0.03480192,0.8035464,1.52812,0.2244842,0.2906754,1.214056,0.3983414,272.1966,210.1547,40.47827,False
0,2.400001,-0.01734212,0.1333546,-0.04236603,-1.451921,-4.658758,-2.632342,0.6036445,1.202575,0.5137162,-1.481767,-0.01324193,0,0,-0.01117804,-0.04291338,0.02450654,-0.6654931,-4.368841,0.1170228,0.7031949,1.451228,0.4236665,-0.005634196,-0.0505996,-0.004736926,-0.8798051,0.1881126,-0.03414679,0.8037034,1.528149,0.2243166,0.2908274,1.214077,0.3985774,272.2733,209.4981,41.12194,False
