loc,t,aDotUA,bDotUA,gDotUA,aUA,bUA,gUA,xUA,yUA,zUA,qE,qDotE,emgA,emgB,aDotSH,bDotSH,gDotSH,aSH,bSH,gSH,xSH,ySH,zSH,aDotUB,bDotUB,gDotUB,aUB,bUB,gUB,xUB,yUB,zUB,xHand,yHand,zHand,aHand,bHand,gHand,enable
3,0,0.02214301,0.1631617,-0.04780971,-1.495022,-4.205064,3.004081,0.6367804,1.172816,0.4843845,-1.71979,0.01689894,0,0,0.1625369,-0.1020057,0.05573798,-0.7895048,-4.125516,-0.02446486,0.6330618,1.443575,0.3996868,0.05574217,-0.114364,0.06616587,-0.7949578,0.4090179,-0.02682762,0.7755961,1.530312,0.2231991,0.4246677,1.066908,0.2683275,294.6633,242.1348,345.6902,False
3,0.01111111,0.02853197,0.1663959,-0.04250308,-1.494448,-4.206973,3.003683,0.6372622,1.172975,0.4847071,-1.720056,-0.0244454,0,0,0.1624877,-0.1094353,0.05142944,-0.7890238,-4.127566,-0.02485288,0.6334869,1.443631,0.3997829,0.06000332,-0.1228863,0.066135,-0.7941509,0.4067092,-0.02600976,0.7755718,1.530384,0.2229962,0.4254535,1.066731,0.2682836,294.9147,243.1234,344.1482,False
3,0.02222222,0.04344632,0.166452,-0.03612043,-1.494015,-4.208724,3.002849,0.6378177,1.173113,0.4850414,-1.720009,0.00447995,0,0,0.1548872,-0.1167783,0.03545842,-0.7892534,-4.129828,-0.02465262,0.6338345,1.443691,0.399941,0.06212863,-0.1228804,0.06505919,-0.7932923,0.404948,-0.02556768,0.7754737,1.530498,0.2228734,0.4262483,1.066836,0.2681117,294.9358,243.1466,343.7081,False
3,0.03333334,0.04343417,0.1739003,-0.03615076,-1.493401,-4.210733,3.002511,0.6382856,1.173197,0.4853992,-1.720317,-0.02811829,0,0,0.1494049,-0.1123697,0.01422215,-0.7898648,-4.131395,-0.02501321,0.6341785,1.443716,0.4000778,0.06852943,-0.1218143,0.06606798,-0.7924779,0.4031007,-0.02527606,0.7754254,1.530574,0.2227297,0.4269036,1.067182,0.2679976,294.8399,242.8943,343.6507,False
3,0.04444445,0.04343365,0.1770898,-0.03723133,-1.492675,-4.212705,3.002113,0.6387919,1.17335,0.4857385,-1.720734,-0.03792112,0,0,0.145094,-0.09845255,0.004749222,-0.7901929,-4.132252,-0.02581535,0.6345154,1.44386,0.4003313,0.06640624,-0.1250117,0.06715812,-0.791607,0.4009822,-0.02443051,0.7753316,1.530646,0.2225771,0.4273757,1.067681,0.2680849,294.6694,242.7508,343.6128,False
3,0.05555556,0.04130125,0.1738856,-0.03721592,-1.491995,-4.214365,3.00198,0.6393729,1.173451,0.486078,-1.720241,0.04531627,0,0,0.1452096,-0.07613841,0.01341669,-0.7896726,-4.132414,-0.027348,0.6348577,1.444072,0.4004803,0.07074036,-0.1239352,0.07564571,-0.7904055,0.3992493,-0.02412025,0.7753149,1.530664,0.2223697,0.4276904,1.068203,0.2684664,294.4539,242.7339,343.5744,False
3,0.06666667,0.04451571,0.1643367,-0.02971502,-1.491694,-4.215799,3.001537,0.6399039,1.173578,0.4863985,-1.720193,0.003925199,0,0,0.1506555,-0.05917349,0.02413651,-0.7890408,-4.132473,-0.02916561,0.6351343,1.444161,0.4006329,0.07186125,-0.1217999,0.08202644,-0.7892278,0.3975018,-0.02374102,0.775263,1.530753,0.2222581,0.4277917,1.068625,0.2691428,294.272,242.7818,343.5814,False
3,0.07777778,0.04772788,0.15477,-0.02753978,-1.491259,-4.217209,3.001055,0.6404634,1.173736,0.4866614,-1.719892,0.02755666,0,0,0.1561192,-0.04543088,0.03804122,-0.7880453,-4.132676,-0.03090812,0.6355498,1.444363,0.4007466,0.06870691,-0.1207305,0.08737896,-0.7880922,0.3957146,-0.02305658,0.7752703,1.530765,0.221987,0.4277453,1.068898,0.2701039,294.1574,242.8736,343.6757,False
3,0.08888889,0.04774463,0.1473398,-0.02217592,-1.491014,-4.218603,3.000601,0.6409534,1.173883,0.4869874,-1.720145,-0.02340654,0,0,0.151869,-0.05183393,0.04122927,-0.7874578,-4.13372,-0.03176645,0.635813,1.444476,0.4009254,0.06542763,-0.1207376,0.07781948,-0.7874962,0.3937962,-0.0223615,0.7752407,1.530813,0.2218761,0.4276423,1.069008,0.2712698,294.1223,243.0306,343.8178,False
3,0.1,0.05095553,0.1356522,-0.01786935,-1.490624,-4.219755,3.000142,0.6415476,1.174051,0.4872479,-1.720204,-0.005143674,0,0,0.1411401,-0.06028235,0.03380198,-0.7873306,-4.135047,-0.0320341,0.636159,1.44446,0.4011259,0.06963761,-0.1228736,0.07246467,-0.7867404,0.391726,-0.02177214,0.7752247,1.530841,0.221839,0.4275483,1.068971,0.2725067,294.1585,243.2476,343.9598,False
3,0.1111111,0.06163266,0.1239752,-0.01355553,-1.490488,-4.220704,2.999155,0.6420056,1.174248,0.4875534,-1.720156,0.004347486,0,0,0.1313561,-0.07077157,0.01143833,-0.7879004,-4.136711,-0.03198563,0.6364434,1.444557,0.4012914,0.0685259,-0.1196816,0.06714532,-0.7861438,0.3900397,-0.02131248,0.7752045,1.530879,0.221797,0.4275172,1.068814,0.2736897,294.2448,243.4308,344.1168,False
3,0.1222222,0.06804524,0.1155058,-0.007128246,-1.490417,-4.221863,2.998248,0.6424474,1.174419,0.4877634,-1.720117,0.003527847,0,0,0.1269936,-0.0781509,0.0007724371,-0.7882088,-4.138267,-0.0321574,0.636681,1.444637,0.4013712,0.05877635,-0.1133074,0.04805238,-0.7861071,0.3884957,-0.02059715,0.7751334,1.530903,0.2216983,0.4275805,1.068582,0.2747384,294.3591,243.5733,344.2466,False
3,0.1333333,0.07018144,0.112315,-0.007110912,-1.490193,-4.223038,2.997518,0.6429181,1.174672,0.4880588,-1.720594,-0.0436437,0,0,0.1238586,-0.0653881,0.00513977,-0.7880033,-4.138623,-0.03318565,0.6369275,1.44479,0.4015262,0.053348,-0.1143814,0.03638176,-0.7860794,0.3866363,-0.01967863,0.7751153,1.530971,0.2216139,0.4277831,1.068331,0.275601,294.489,243.6569,344.36,False
3,0.1444445,0.06911387,0.1122976,-0.01030518,-1.489801,-4.224225,2.996893,0.6434162,1.174862,0.4883339,-1.720529,0.006205608,0,0,0.1251756,-0.04532346,0.03189403,-0.7866808,-4.13829,-0.03483335,0.6371009,1.445012,0.4015965,0.06077603,-0.1143789,0.03206189,-0.7857444,0.3849882,-0.01962537,0.7749576,1.53104,0.221555,0.4280918,1.06809,0.276247,294.6086,243.7021,344.4106,False
3,0.1555556,0.06486157,0.106964,-0.01027954,-1.489486,-4.225235,2.996416,0.6439328,1.175081,0.4885631,-1.72028,0.02266409,0,0,0.1316396,-0.03899142,0.03934984,-0.7859148,-4.138618,-0.03627039,0.6374528,1.445089,0.4017627,0.05870448,-0.1186431,0.03847032,-0.7851334,0.3827439,-0.01867675,0.7748779,1.531058,0.221468,0.4284654,1.067873,0.276692,294.7162,243.7189,344.4087,False
3,0.1666667,0.06591174,0.1154936,-0.009257726,-1.489216,-4.226742,2.995783,0.6444194,1.175206,0.4888425,-1.720112,0.01514675,0,0,0.1391132,-0.04649146,0.04350532,-0.7852469,-4.139679,-0.03732633,0.6377283,1.445163,0.4018903,0.0588249,-0.1037188,0.05230772,-0.7840687,0.3818259,-0.01866743,0.7748035,1.531104,0.2213616,0.4289065,1.067714,0.277022,294.8097,243.6656,344.411,False
3,0.1777778,0.06697644,0.115508,-0.007125039,-1.489051,-4.228036,2.995125,0.6449175,1.175291,0.4891458,-1.719922,0.01727858,0,0,0.1432925,-0.05496673,0.03489962,-0.7851127,-4.140918,-0.0381876,0.6380134,1.445227,0.4019742,0.05776697,-0.1015857,0.05338877,-0.7833129,0.380395,-0.01822454,0.7747757,1.53111,0.2213075,0.4293804,1.067623,0.2773057,294.8727,243.5851,344.4249,False
3,0.1888889,0.07442137,0.1240762,-0.0007804744,-1.489015,-4.229711,2.994205,0.6453828,1.175403,0.4893916,-1.720095,-0.01600746,0,0,0.1388679,-0.06549455,0.01675561,-0.7854834,-4.142466,-0.03848454,0.638252,1.445279,0.4021077,0.06096268,-0.09838979,0.05335858,-0.7826791,0.3790403,-0.01801549,0.7747247,1.531139,0.2212055,0.4298435,1.067605,0.2775873,294.912,243.5183,344.4303,False
3,0.2,0.07761341,0.1272799,-0.0007989593,-1.488759,-4.231237,2.993338,0.6458117,1.175441,0.4895618,-1.720119,-0.001999696,0,0,0.1345701,-0.06864904,0.01251026,-0.7853897,-4.143572,-0.03908269,0.6384978,1.445347,0.402168,0.05981349,-0.09733899,0.04378157,-0.7824724,0.3773687,-0.01744104,0.7747685,1.531195,0.2211072,0.4302456,1.067633,0.2779315,294.9055,243.4885,344.4068,False
3,0.2111111,0.07973155,0.1336702,-0.001897577,-1.488455,-4.232931,2.992519,0.6462703,1.17551,0.4897938,-1.720389,-0.02475633,0,0,0.1292236,-0.06648673,0.009369487,-0.7853742,-4.144518,-0.03966752,0.6386693,1.44538,0.4022641,0.0555506,-0.09414198,0.04382067,-0.7819243,0.3760892,-0.01694223,0.774731,1.531213,0.2210546,0.4305721,1.067675,0.2783795,294.8822,243.5226,344.3642,False
3,0.2222222,0.07971606,0.1390168,0.001270093,-1.48828,-4.234703,2.991904,0.6467109,1.175523,0.490133,-1.720318,0.006687886,0,0,0.1185647,-0.05685627,0.006319357,-0.7853337,-4.144907,-0.04031653,0.6387552,1.445394,0.4024153,0.05237225,-0.0898812,0.04597682,-0.781314,0.3748477,-0.01652332,0.7747166,1.531224,0.2209809,0.4307824,1.067687,0.2789313,294.8555,243.6094,344.3382,False
3,0.2333333,0.07973816,0.1283847,0.004522946,-1.488321,-4.23581,2.991109,0.6471055,1.175609,0.4902813,-1.720233,0.007660273,0,0,0.1036646,-0.04296245,0.004393065,-0.7853284,-4.144913,-0.04093012,0.638873,1.445399,0.4024556,0.04500025,-0.07709052,0.05562076,-0.7803419,0.3742817,-0.01639149,0.774635,1.531279,0.2209549,0.4308863,1.067625,0.27957,294.8347,243.6965,344.371,False
3,0.2444444,0.07976134,0.1155959,0.0035218,-1.488189,-4.236683,2.990288,0.6474683,1.175711,0.4904494,-1.720004,0.02091605,0,0,0.08868593,-0.01513298,-0.01128628,-0.7858781,-4.143949,-0.0421083,0.6389748,1.445505,0.4026246,0.04393142,-0.0685711,0.05561757,-0.7798226,0.3735504,-0.01626099,0.7746304,1.531358,0.2209482,0.430949,1.067483,0.280316,294.8418,243.7719,344.4251,False
3,0.2555556,0.07552406,0.1038646,0.002523828,-1.488146,-4.237473,2.989595,0.6478032,1.175811,0.4905345,-1.720093,-0.008418212,0,0,0.08551608,-0.006604709,-0.01120811,-0.786,-4.143785,-0.04322657,0.6391929,1.445617,0.4026413,0.03851228,-0.06644836,0.04500985,-0.7797049,0.372607,-0.01583276,0.7746005,1.531381,0.2209213,0.4309851,1.067269,0.2811503,294.8919,243.9048,344.4561,False
3,0.2666667,0.0755515,0.0867825,-0.004847594,-1.487799,-4.237824,2.988731,0.6481087,1.1759,0.4906375,-1.720103,-0.0008011901,0,0,0.07907102,0.003057662,-0.02068448,-0.7865518,-4.14331,-0.04423004,0.6393622,1.445659,0.4027078,0.03514377,-0.06219772,0.02479514,-0.7801624,0.3718375,-0.01564554,0.7745205,1.531389,0.220854,0.4310152,1.067011,0.2819654,294.9839,244.0774,344.5145,False
3,0.2777778,0.07023923,0.07716477,-0.009056605,-1.487489,-4.23838,2.988183,0.6484528,1.176075,0.4908121,-1.71996,0.01307278,0,0,0.07902362,-0.002240092,-0.02497924,-0.7869502,-4.143648,-0.04484018,0.6394757,1.445661,0.4028213,0.03079962,-0.0622073,0.01524204,-0.780287,0.3707518,-0.01506843,0.7744519,1.531345,0.2208076,0.4310826,1.066733,0.2826796,295.0886,244.201,344.6126,False
3,0.2888889,0.0627901,0.0728898,-0.009030912,-1.48728,-4.239022,2.987767,0.648757,1.176203,0.4909594,-1.720076,-0.01074968,0,0,0.07041958,-0.01709492,-0.03139972,-0.7874733,-4.14466,-0.04462313,0.6397071,1.44572,0.4028974,0.02973433,-0.06114203,0.01525055,-0.7801155,0.3698313,-0.01470438,0.7744128,1.531345,0.2207727,0.4311983,1.066464,0.2832245,295.188,244.2802,344.7069,False
3,0.3,0.05746847,0.07074624,-0.010072,-1.487168,-4.239801,2.987324,0.6490602,1.176353,0.4911788,-1.719794,0.02590029,0,0,0.06612156,-0.03092638,-0.03358922,-0.7879084,-4.145921,-0.04448438,0.6399573,1.445831,0.4029515,0.03187292,-0.05900725,0.0152295,-0.7798998,0.369088,-0.01476084,0.7744595,1.531385,0.2207463,0.431418,1.066224,0.2835991,295.2694,244.2704,344.7963,False
3,0.3111111,0.04999893,0.0771188,-0.01116507,-1.486848,-4.240843,2.987127,0.6493757,1.176538,0.4913285,-1.719658,0.01224156,0,0,0.06075226,-0.04688733,-0.03471511,-0.7882839,-4.14742,-0.04390701,0.6402336,1.445965,0.403048,0.03295663,-0.05261388,0.01734603,-0.7796223,0.3685643,-0.0147848,0.7744563,1.531384,0.2207115,0.4317369,1.066045,0.2838448,295.3545,244.2155,344.8334,False
3,0.3222222,0.03932098,0.09203509,-0.008035989,-1.486654,-4.242482,2.987164,0.6497065,1.176757,0.4914787,-1.71972,-0.005765355,0,0,0.06077829,-0.06291541,-0.02630113,-0.7883191,-4.148975,-0.0434279,0.6404098,1.446092,0.4031796,0.03399869,-0.06113699,0.01414935,-0.7795094,0.3672293,-0.01432434,0.7745119,1.531415,0.2207608,0.4320836,1.065944,0.2839971,295.4241,244.157,344.8181,False
3,0.3333333,0.02968474,0.1207709,-0.01030254,-1.486138,-4.244773,2.98726,0.6500405,1.177085,0.491616,-1.719548,0.01591054,0,0,0.06293128,-0.06400565,-0.02312875,-0.7884315,-4.150034,-0.04345293,0.6407005,1.44633,0.403254,0.0242907,-0.06753851,0.000392451,-0.7798785,0.3658599,-0.01330409,0.7745103,1.531453,0.2207255,0.432421,1.065934,0.284127,295.47,244.1052,344.7789,False
3,0.3444445,0.01257209,0.1569433,-0.01366749,-1.485468,-4.247652,2.987897,0.6504506,1.177492,0.4916744,-1.719399,0.01349259,0,0,0.05658597,-0.06402233,-0.01774571,-0.7883415,-4.150864,-0.04336452,0.6410453,1.446717,0.4031279,0.02108227,-0.0590139,-0.001722265,-0.7800623,0.3654607,-0.01324044,0.7745965,1.53146,0.2206833,0.4326816,1.066017,0.2842833,295.5009,244.0515,344.7585,False
3,0.3555556,-0.008809876,0.1963226,-0.01491391,-1.484793,-4.251117,2.988956,0.6508917,1.177919,0.4917729,-1.719449,-0.004635399,0,0,0.04287488,-0.08331274,0.004604988,-0.7875404,-4.15309,-0.04188966,0.641485,1.446975,0.4032245,0.02524287,-0.07925504,-0.01346184,-0.780549,0.3633797,-0.01222764,0.7747064,1.531506,0.220644,0.4328072,1.066208,0.2845313,295.5284,244.0252,344.7398,False
3,0.3666667,-0.02485749,0.2314205,-0.02040771,-1.483821,-4.254762,2.990086,0.6513983,1.178378,0.4918885,-1.719049,0.03666154,0,0,0.03973887,-0.1281769,0.02458393,-0.7864671,-4.157154,-0.03933649,0.6420171,1.447391,0.4033291,0.02713223,-0.09738542,-0.04116376,-0.781919,0.3609505,-0.01087395,0.7748693,1.531517,0.2205446,0.4327615,1.066524,0.2849411,295.5468,244.0141,344.7654,False
3,0.3777778,-0.05160609,0.2877875,-0.03026284,-1.48241,-4.259687,2.992027,0.6520507,1.178859,0.4920056,-1.718748,0.02726462,0,0,0.04935764,-0.1623773,0.03813742,-0.7855659,-4.161265,-0.03733299,0.6424354,1.447765,0.4035532,0.01519414,-0.1059311,-0.0666227,-0.7834647,0.3588536,-0.009186841,0.7751063,1.531426,0.2203858,0.4325288,1.06699,0.2855553,295.5514,244.0431,344.8378,False
3,0.3888889,-0.07838279,0.3622544,-0.04127469,-1.480608,-4.266055,2.994361,0.6527532,1.1794,0.4922025,-1.718811,-0.005804621,0,0,0.0676204,-0.2137668,0.07175823,-0.783469,-4.166992,-0.03468554,0.6430988,1.448308,0.4037256,0.01827864,-0.1165934,-0.07942583,-0.784751,0.3565049,-0.007808921,0.775334,1.53142,0.2202222,0.4321231,1.067629,0.2864011,295.519,244.1284,344.9422,False
3,0.4,-0.0955353,0.4186661,-0.04368459,-1.479087,-4.272255,2.996522,0.6533999,1.179884,0.4923775,-1.718292,0.04758677,0,0,0.06985161,-0.2245211,0.08658166,-0.7820809,-4.170792,-0.03291321,0.6437321,1.448782,0.4037964,0.01931146,-0.1261835,-0.08368568,-0.7856773,0.3541358,-0.006494385,0.7755796,1.53156,0.2200823,0.4316037,1.06844,0.2874884,295.4258,244.2261,345.1093,False
3,0.4111111,-0.1148778,0.509185,-0.04306314,-1.477333,-4.281045,2.99932,0.654045,1.180409,0.4927349,-1.718176,0.01040342,0,0,0.06355751,-0.2405957,0.1035732,-0.7802556,-4.175294,-0.03019439,0.6444587,1.44931,0.4039354,0.02464727,-0.1357703,-0.08265983,-0.7865662,0.3515334,-0.005121791,0.775862,1.531552,0.219893,0.4309475,1.069412,0.2888273,295.3009,244.3076,345.3225,False
3,0.4222222,-0.1373584,0.5762889,-0.03699779,-1.475973,-4.289474,3.002201,0.65448,1.180987,0.4930286,-1.718548,-0.03399734,0,0,0.05935453,-0.2555818,0.1152284,-0.7785645,-4.179989,-0.02733229,0.6451349,1.4498,0.4040632,0.02892724,-0.1442893,-0.08055808,-0.787322,0.3489612,-0.003770237,0.7761527,1.531516,0.2196858,0.430089,1.070544,0.2904429,295.1478,244.4157,345.5558,False
3,0.4333333,-0.1533964,0.6071847,-0.0307659,-1.474634,-4.2969,3.005119,0.6551172,1.181501,0.4933352,-1.718401,0.01394346,0,0,0.04877956,-0.2769669,0.1311538,-0.7764292,-4.185401,-0.02362357,0.645993,1.450328,0.4041715,0.03202116,-0.1613427,-0.09229122,-0.7887548,0.3455372,-0.001818406,0.7765278,1.53149,0.2194719,0.4290069,1.0718,0.2923181,294.9504,244.5912,345.7719,False
3,0.4444444,-0.1693836,0.611422,-0.02971256,-1.473426,-4.303834,3.008252,0.6556463,1.182032,0.4935961,-1.718468,-0.006149812,0,0,0.04357551,-0.2973272,0.152369,-0.7739812,-4.190889,-0.0200307,0.6469424,1.450881,0.4042797,0.03716877,-0.1783992,-0.1125642,-0.7907159,0.341989,0.0001571265,0.7769052,1.531336,0.2192621,0.4275992,1.073154,0.2944967,294.75,244.8468,345.9426,False
3,0.4555556,-0.2055661,0.5910268,-0.0477039,-1.471477,-4.309566,3.01218,0.6560926,1.182506,0.4937663,-1.718547,-0.007059157,0,0,0.04582158,-0.3209189,0.1745737,-0.771252,-4.197219,-0.01602504,0.6479255,1.451426,0.4043901,0.0348399,-0.1890694,-0.1349096,-0.7929663,0.3385642,0.002310292,0.7774321,1.531349,0.2190192,0.4259152,1.074596,0.2969435,294.5328,245.2474,346.1405,False
3,0.4666667,-0.2310897,0.5632127,-0.06139868,-1.469683,-4.314833,3.016091,0.656526,1.18308,0.4939916,-1.718487,0.005713187,0,0,0.0395515,-0.3487523,0.1978821,-0.7681952,-4.204109,-0.01130139,0.6489378,1.451965,0.404515,0.04004557,-0.1976018,-0.1487982,-0.7951107,0.3351045,0.004119644,0.7779144,1.531274,0.2187824,0.424243,1.076109,0.2995652,294.2751,245.723,346.4283,False
3,0.4777778,-0.2449103,0.5396811,-0.0751246,-1.467774,-4.319975,3.019794,0.657075,1.183625,0.4941332,-1.717786,0.06421006,0,0,0.03317189,-0.3647507,0.2031517,-0.7657845,-4.210654,-0.006805442,0.6499261,1.452495,0.4046175,0.04210871,-0.2061264,-0.1562704,-0.7971113,0.3315974,0.006077333,0.7784721,1.531191,0.2184806,0.4226703,1.077643,0.3021365,293.9975,246.1786,346.787,False
3,0.4888889,-0.2693663,0.5108036,-0.08881471,-1.465795,-4.324495,3.024106,0.6574572,1.184211,0.4943411,-1.717934,-0.01401262,0,0,0.02675927,-0.3775245,0.2041919,-0.7634479,-4.217193,-0.002172607,0.6510258,1.452972,0.4046483,0.0484352,-0.2071971,-0.1637822,-0.7992082,0.3283201,0.007609717,0.7790135,1.531132,0.2182679,0.4212521,1.079168,0.304426,293.7442,246.4672,347.2328,False
3,0.5,-0.2842682,0.5011431,-0.09834647,-1.463809,-4.329721,3.028268,0.6579219,1.184735,0.4945362,-1.718411,-0.04321909,0,0,0.02144596,-0.3796658,0.2074186,-0.760978,-4.223432,0.002355832,0.6521338,1.453596,0.4048116,0.04412679,-0.2146606,-0.1679996,-0.8012024,0.3246725,0.009976202,0.7795733,1.531104,0.2180111,0.4200796,1.080717,0.306326,293.5281,246.6285,347.6349,False
3,0.5111111,-0.3013014,0.4872167,-0.1078624,-1.461678,-4.334579,3.032802,0.6584308,1.1853,0.4947081,-1.718026,0.03575945,0,0,0.01407933,-0.3722446,0.2160402,-0.7583772,-4.229006,0.00638413,0.6531795,1.454236,0.4049022,0.04624811,-0.2189227,-0.1690804,-0.8031476,0.3210935,0.01186012,0.7801774,1.531025,0.2177665,0.4191893,1.08229,0.3078027,293.3076,246.6733,347.9734,False
3,0.5222223,-0.3289979,0.482845,-0.1195432,-1.459421,-4.339577,3.037916,0.658818,1.185904,0.4948871,-1.71843,-0.03709132,0,0,0.002460867,-0.3648327,0.226833,-0.7555777,-4.234535,0.0107368,0.6544549,1.454879,0.4049473,0.04302073,-0.2274464,-0.1722411,-0.8051588,0.3173172,0.01415523,0.7808019,1.531006,0.2174745,0.4184735,1.083891,0.3088592,293.0966,246.5716,348.2599,False
3,0.5333334,-0.3417903,0.4849271,-0.1248781,-1.457287,-4.344908,3.042664,0.6593392,1.186511,0.4951491,-1.718293,0.01300037,0,0,-0.007064193,-0.3659347,0.2354208,-0.7527904,-4.240662,0.01558695,0.655656,1.455459,0.4050059,0.0472075,-0.2338444,-0.1807956,-0.8074939,0.3134883,0.01613742,0.7814426,1.530929,0.2172198,0.4178835,1.085532,0.3096317,292.8595,246.3791,348.5021,False
3,0.5444446,-0.3652597,0.5008358,-0.1302715,-1.455121,-4.350793,3.04813,0.6598258,1.187088,0.495357,-1.717937,0.0325629,0,0,-0.002759099,-0.4332125,0.2594605,-0.7492511,-4.250968,0.0230462,0.6570756,1.456014,0.405201,0.0555715,-0.2498476,-0.1989715,-0.8104138,0.3087622,0.01847808,0.7821841,1.530702,0.2169833,0.417352,1.087222,0.3102518,292.6208,246.1193,348.7559,False
3,0.5555557,-0.3812749,0.5188944,-0.1346136,-1.452932,-4.356967,3.05355,0.6602932,1.187675,0.4956682,-1.718539,-0.05511726,0,0,0.0120129,-0.4822198,0.2547706,-0.7468143,-4.261158,0.02990197,0.6584535,1.456611,0.4053781,0.05760142,-0.2519854,-0.2107103,-0.8131989,0.3049935,0.02036306,0.782913,1.530551,0.2167299,0.4167615,1.088993,0.3108474,292.3956,245.8081,349.036,False
3,0.5666668,-0.3973055,0.5443993,-0.1411248,-1.450576,-4.363733,3.059292,0.6607771,1.188232,0.4959319,-1.718181,0.03338448,0,0,0.02661869,-0.5438944,0.2318906,-0.7452776,-4.27321,0.03795484,0.6598099,1.457132,0.4055567,0.0553593,-0.2498642,-0.2234764,-0.816204,0.3013859,0.02228001,0.7836422,1.530411,0.2165058,0.416128,1.090871,0.3116002,292.1328,245.5203,349.3244,False
3,0.577778,-0.408029,0.5848759,-0.1381292,-1.448516,-4.371446,3.064993,0.6612428,1.18882,0.4962204,-1.718432,-0.02313872,0,0,0.0243198,-0.5842973,0.2210008,-0.7434688,-4.284439,0.04602555,0.6611983,1.457664,0.4057214,0.05210039,-0.2509354,-0.2309036,-0.8190467,0.297623,0.0243634,0.7843787,1.53027,0.2162883,0.4153363,1.092853,0.3126035,291.8441,245.2941,349.6324,False
3,0.5888891,-0.4176939,0.6253639,-0.1330039,-1.446634,-4.379497,3.070875,0.66175,1.189344,0.4965711,-1.71843,0.0005743727,0,0,0.01688272,-0.5789619,0.2221579,-0.7413085,-4.293696,0.05291461,0.6624428,1.458166,0.4058311,0.04788798,-0.2445382,-0.2255466,-0.8213961,0.2943786,0.0261834,0.7851233,1.530058,0.2160914,0.4143594,1.094938,0.3139417,291.5171,245.1121,350.0007,False
3,0.6000003,-0.4284298,0.6668906,-0.1332047,-1.444592,-4.388109,3.077046,0.6623023,1.189884,0.4968863,-1.718781,-0.03198913,0,0,-0.001126975,-0.5480623,0.2278247,-0.7388264,-4.301086,0.05914774,0.6636496,1.458705,0.4059067,0.04897931,-0.2466748,-0.2234261,-0.823892,0.2904746,0.02812724,0.7858644,1.52986,0.215838,0.4131633,1.097111,0.3156445,291.1698,245.0019,350.4174,False
3,0.6111114,-0.4380552,0.6956297,-0.1354801,-1.442391,-4.396595,3.083092,0.6627172,1.190359,0.4972167,-1.718858,-0.006669438,0,0,-0.009445518,-0.4905768,0.2378428,-0.7361127,-4.306524,0.0635116,0.6647565,1.459165,0.4059284,0.04577437,-0.2541327,-0.224458,-0.8265077,0.2863861,0.03050411,0.7866305,1.529724,0.2156143,0.4117607,1.099361,0.3177334,290.8031,245.0166,350.8263,False
3,0.6222225,-0.447699,0.7243477,-0.1409466,-1.44014,-4.405531,3.089533,0.6631703,1.190795,0.4976206,-1.718805,0.005034219,0,0,-0.003979206,-0.4448189,0.2434298,-0.7333328,-4.311979,0.06742299,0.6659415,1.459582,0.4059117,0.04468548,-0.2605349,-0.2276381,-0.8292444,0.2821112,0.03287619,0.7873892,1.529578,0.215349,0.4102256,1.101659,0.3201874,290.4132,245.1482,351.2443,False
3,0.6333337,-0.4530736,0.7520673,-0.1346906,-1.438398,-4.414904,3.095994,0.6636484,1.191191,0.4980502,-1.719064,-0.0236241,0,0,-0.004974306,-0.3893789,0.2363282,-0.7312076,-4.315956,0.07038175,0.6670939,1.459847,0.4059319,0.03510335,-0.2616022,-0.226495,-0.8319273,0.2782089,0.03546878,0.7882527,1.529391,0.2151089,0.4085874,1.103978,0.3229202,290.0152,245.3067,351.7396,False
3,0.6444448,-0.5042216,0.7712082,-0.1241156,-1.436936,-4.424057,3.104366,0.6640902,1.191555,0.4985161,-1.718906,0.0146921,0,0,-0.00609538,-0.3583879,0.221626,-0.7294329,-4.320667,0.07410059,0.6683171,1.46026,0.4060133,0.03086081,-0.2573396,-0.2243304,-0.8344456,0.2746483,0.03765577,0.7889881,1.529201,0.2149057,0.40687,1.106277,0.3258184,289.602,245.4245,352.3149,False
3,0.655556,-0.5244247,0.7583876,-0.1261685,-1.435132,-4.4321,3.11176,0.6644194,1.191935,0.4989555,-1.719065,-0.01459404,0,0,-0.005128324,-0.3476431,0.2067772,-0.7278126,-4.326367,0.07843702,0.6695156,1.460561,0.4061549,0.03200018,-0.245621,-0.2158208,-0.8365884,0.2714868,0.03936578,0.7898256,1.528959,0.214735,0.4051404,1.108535,0.328814,289.2051,245.5494,352.8676,False
3,0.6666671,-0.5233139,0.7360617,-0.1175316,-1.433909,-4.439651,3.118618,0.6645646,1.192243,0.4992673,-1.717338,0.1581881,0,0,-0.005330861,-0.3570809,0.1832809,-0.7268949,-4.332968,0.08340514,0.6706295,1.460832,0.4062719,0.03946608,-0.2392284,-0.2148253,-0.8390481,0.2683031,0.04080202,0.7905878,1.528758,0.2145753,0.4034469,1.110753,0.3318499,288.824,245.7642,353.3184,False
3,0.6777782,-0.509402,0.7084339,-0.1110154,-1.432734,-4.446882,3.124708,0.6648667,1.192646,0.4995902,-1.71823,-0.08275836,0,0,-0.004409492,-0.3644269,0.1661836,-0.7259303,-4.339572,0.08831947,0.6718614,1.461102,0.4063807,0.04160044,-0.2381667,-0.2148485,-0.8416361,0.2647918,0.04256131,0.7913404,1.528561,0.2143347,0.4017422,1.112999,0.3347994,288.5096,246.039,353.7221,False
3,0.6888894,-0.5008222,0.6808169,-0.09809296,-1.432,-4.453538,3.130837,0.6649151,1.192948,0.4998138,-1.719053,-0.0742943,0,0,-0.00668478,-0.3739078,0.1501606,-0.725264,-4.346458,0.09362316,0.6729721,1.46136,0.4065051,0.03615344,-0.2392425,-0.2286496,-0.844785,0.2613509,0.04464923,0.7920904,1.528346,0.2142019,0.4000796,1.115328,0.3375278,288.1732,246.1903,354.2338,False
3,0.7000005,-0.5071673,0.6563259,-0.09584495,-1.430814,-4.46031,3.137718,0.6651415,1.193074,0.4999905,-1.719983,-0.08433928,0,0,-0.01622126,-0.3792723,0.1587296,-0.7234807,-4.353436,0.09941474,0.674036,1.461615,0.406661,0.03604349,-0.2307326,-0.2414421,-0.8480693,0.2584139,0.04617708,0.7928375,1.528196,0.2141163,0.3985142,1.11773,0.3399327,287.7853,246.3377,354.6795,False
3,0.7111117,-0.5284241,0.6318232,-0.08825158,-1.43012,-4.46656,-3.13795,0.6651735,1.193305,0.5001383,-1.720001,-0.000867239,0,0,-0.02471173,-0.3878178,0.1651323,-0.7218866,-4.360738,0.1054313,0.6751016,1.461854,0.4067624,0.04021141,-0.2339389,-0.2510639,-0.8513029,0.2548856,0.04804849,0.7936425,1.527995,0.2138996,0.397175,1.120152,0.3419957,287.3468,246.4203,355.0766,False
3,0.7222228,-0.5528744,0.6030115,-0.09022603,-1.429062,-4.472463,-3.130122,0.6652514,1.193494,0.50034,-1.719286,0.06525914,0,0,-0.03753939,-0.3888312,0.1599015,-0.7207574,-4.367759,0.1115489,0.676174,1.462126,0.4069242,0.03912753,-0.2328751,-0.253186,-0.8543069,0.2516827,0.0497569,0.7943885,1.527795,0.2138,0.3959639,1.122505,0.3436794,286.8624,246.404,355.4551,False
3,0.7333339,-0.5613508,0.5795589,-0.09117837,-1.428031,-4.478243,-3.122922,0.6652739,1.193703,0.5005105,-1.71859,0.06309686,0,0,-0.04704314,-0.3878088,0.1695648,-0.7191302,-4.374531,0.1173778,0.6772001,1.462353,0.4070611,0.03915161,-0.2200882,-0.2500007,-0.8570265,0.2492905,0.05093722,0.7951436,1.52755,0.2137313,0.3948688,1.124737,0.3450363,286.4042,246.2251,355.88,False
3,0.7444451,-0.5644919,0.5518936,-0.08357956,-1.427499,-4.4835,-3.115835,0.665086,1.193859,0.5006638,-1.718328,0.02361836,0,0,-0.05226147,-0.3782941,0.1824522,-0.7170998,-4.380872,0.1230287,0.6782883,1.46259,0.4072058,0.0423094,-0.2083753,-0.2543035,-0.8601105,0.2469188,0.05187225,0.7959639,1.527318,0.2136557,0.3937774,1.126893,0.3461159,286.0425,246.0003,356.2609,False
3,0.7555562,-0.5719138,0.5348678,-0.07816147,-1.426978,-4.489057,-3.108483,0.6649398,1.194027,0.5008869,-1.719095,-0.07018352,0,0,-0.04793715,-0.360226,0.1867943,-0.7153645,-4.386508,0.1277284,0.6792775,1.462659,0.407337,0.04646966,-0.2041279,-0.2660603,-0.8635396,0.2442072,0.05298758,0.7968477,1.527104,0.2135875,0.3927139,1.129042,0.3470247,285.7349,245.6397,356.7183,False
3,0.7666674,-0.5952756,0.4954531,-0.06942685,-1.426694,-4.49338,-3.100478,0.6645305,1.194055,0.501061,-1.719357,-0.02322318,0,0,-0.04902905,-0.3345891,0.1763131,-0.7141442,-4.391163,0.1318302,0.6801958,1.462749,0.4074914,0.04207826,-0.1977473,-0.2809414,-0.8672488,0.2418373,0.05420758,0.7976295,1.526866,0.2135365,0.391651,1.13123,0.3478658,285.4095,245.222,357.2109,False
3,0.7777785,-0.6037612,0.4848438,-0.0587221,-1.42656,-4.498558,-3.092862,0.6642027,1.194148,0.5012164,-1.719252,0.00989628,0,0,-0.05123982,-0.3185138,0.1615258,-0.7131919,-4.396195,0.1362958,0.6812159,1.462844,0.4076025,0.04951099,-0.1913611,-0.2842055,-0.8705676,0.2394906,0.05487417,0.7983023,1.526646,0.2135408,0.3905221,1.133462,0.3487081,285.041,244.8831,357.6311,False
3,0.7888896,-0.6026365,0.4572212,-0.04473286,-1.426776,-4.502867,-3.085594,0.6636597,1.194206,0.5013764,-1.718522,0.06668573,0,0,-0.0599087,-0.3002296,0.1372046,-0.7128899,-4.400493,0.1404655,0.6821057,1.462878,0.4077461,0.04639935,-0.188159,-0.2745915,-0.873397,0.2370565,0.05601373,0.7990867,1.526377,0.2134981,0.3893199,1.135734,0.3496265,284.6318,244.5735,358.0606,False
3,0.8000008,-0.6057622,0.4220831,-0.04135255,-1.426662,-4.506538,-3.078272,0.6630586,1.19428,0.5015466,-1.719094,-0.05277664,0,0,-0.06968796,-0.2893761,0.109652,-0.7129613,-4.404837,0.144856,0.6829749,1.462862,0.4079149,0.04647666,-0.1860216,-0.2660702,-0.8761725,0.2346519,0.05700523,0.799801,1.526078,0.2134001,0.3879736,1.138056,0.3505886,284.2144,244.3439,358.4722,False
3,0.8111119,-0.6120987,0.3954906,-0.03162679,-1.426883,-4.510147,-3.070747,0.6625397,1.194312,0.5016747,-1.719509,-0.03740018,0,0,-0.07627803,-0.2827978,0.08204345,-0.7134033,-4.409396,0.1493149,0.6837475,1.462931,0.4080737,0.04653239,-0.1806903,-0.2596827,-0.8789231,0.2324901,0.05787209,0.8005129,1.525848,0.213361,0.3865523,1.140441,0.3516233,283.7919,244.1443,358.8866,False
3,0.8222231,-0.6194589,0.3518353,-0.02607273,-1.427,-4.512648,-3.063386,0.6617826,1.194391,0.5017056,-1.719478,0.003188814,0,0,-0.07965598,-0.2783754,0.05759994,-0.7139237,-4.413946,0.1537547,0.6845381,1.462978,0.4082761,0.04338449,-0.172162,-0.2543418,-0.881795,0.2306304,0.05866225,0.801174,1.525708,0.2133603,0.3850751,1.142863,0.3526922,283.3402,244.0025,359.2866,False
3,0.8333342,-0.6300572,0.3241166,-0.02806123,-1.426806,-4.515541,-3.055628,0.6611387,1.1945,0.5017989,-1.719327,0.01384012,0,0,-0.07970035,-0.2815425,0.05224968,-0.7140169,-4.419073,0.1584594,0.6853297,1.463065,0.4084508,0.04019994,-0.1636412,-0.2532637,-0.8848129,0.2287886,0.05947638,0.8018477,1.525468,0.2133842,0.3836256,1.145279,0.3537371,282.8783,243.8066,359.757,False
3,0.8444453,-0.6704353,0.2676004,-0.02455883,-1.426787,-4.516503,-3.046778,0.6600989,1.194627,0.5016501,-1.719392,-0.005997117,0,0,-0.08064696,-0.2602964,0.06198235,-0.7133037,-4.422626,0.1621045,0.6861088,1.463079,0.4085295,0.03908801,-0.1561881,-0.2585862,-0.8879656,0.2271387,0.06013231,0.8025377,1.525244,0.2133842,0.3822423,1.147674,0.3546886,282.4261,243.6638,0.1808001,False
3,0.8555565,-0.6842444,0.2494857,-0.02233429,-1.426846,-4.518937,-3.038349,0.6593312,1.194837,0.5016811,-1.719146,0.02259601,0,0,-0.07838163,-0.2444035,0.07485253,-0.7123466,-4.426267,0.1656518,0.6868341,1.463236,0.4086761,0.03908074,-0.1572568,-0.2596548,-0.8910964,0.224964,0.06103699,0.803275,1.524989,0.2134345,0.3808872,1.15004,0.3554331,281.9969,243.4387,0.6551765,False
3,0.8666676,-0.6831572,0.2421112,-0.00631775,-1.427633,-4.52133,-3.030368,0.6583631,1.194912,0.5014865,-1.717887,0.1150038,0,0,-0.08357981,-0.2327603,0.08775701,-0.7112494,-4.43013,0.1696711,0.6876669,1.463368,0.4088457,0.03798434,-0.1519403,-0.2628479,-0.8943273,0.2231164,0.06183221,0.8039924,1.524764,0.2134492,0.379558,1.152392,0.3559292,281.5959,243.0655,1.219004,False
3,0.8777788,-0.6852958,0.247422,-0.008476883,-1.427724,-4.524369,-3.022267,0.6574003,1.19501,0.5012503,-1.718579,-0.06411698,0,0,-0.08231767,-0.2147833,0.108108,-0.709636,-4.433414,0.1730285,0.6883762,1.463451,0.4089634,0.03690836,-0.1476792,-0.2639135,-0.8974928,0.2214189,0.06252996,0.8047782,1.524563,0.2133763,0.3781414,1.154813,0.3560525,281.2535,242.6793,1.726123,False
3,0.8888899,-0.6831869,0.2602198,-0.006411791,-1.428125,-4.527782,-3.014157,0.6563557,1.195113,0.5010452,-1.719289,-0.06415324,0,0,-0.08211042,-0.1914765,0.1284972,-0.707726,-4.436085,0.1759934,0.6890757,1.463537,0.409096,0.02630362,-0.140219,-0.2585011,-0.9003513,0.219969,0.06347991,0.8054753,1.524335,0.2133965,0.3767872,1.157371,0.35592,280.8995,242.0679,2.314642,False
3,0.900001,-0.6768044,0.2762624,0.0009562671,-1.428841,-4.53152,-3.006485,0.6553316,1.195019,0.500741,-1.719439,-0.01308808,0,0,-0.08845249,-0.1744324,0.1307945,-0.7063609,-4.438643,0.1792108,0.6897472,1.46355,0.4091856,0.03174582,-0.1338241,-0.245773,-0.9028228,0.2183908,0.06385808,0.806203,1.524145,0.2134206,0.3754251,1.16006,0.3556166,280.4458,241.3644,2.94784,False
3,0.9111122,-0.6810803,0.2869391,0.006232306,-1.429605,-4.535099,-2.998172,0.6541224,1.195112,0.5004883,-1.719562,-0.01114131,0,0,-0.1066403,-0.1721974,0.1202959,-0.7057601,-4.441823,0.1834455,0.6903591,1.463618,0.4092832,0.0382539,-0.1338134,-0.2330476,-0.905152,0.2166748,0.06419976,0.8068798,1.523909,0.2134082,0.3740324,1.16283,0.355272,279.9381,240.269,3.937039,False
3,0.9222233,-0.6885239,0.2837679,0.01478127,-1.430577,-4.537993,-2.98992,0.6528786,1.195188,0.5001693,-1.720097,-0.04883118,0,0,-0.1227006,-0.1678243,0.1087328,-0.7052615,-4.444638,0.1874964,0.6909686,1.463733,0.4093459,0.03722945,-0.1316888,-0.2277119,-0.9076048,0.2149407,0.06499232,0.8075674,1.523721,0.2133896,0.3725692,1.165635,0.3550275,279.3981,239.0272,5.076808,False
3,0.9333345,-0.6959721,0.2816331,0.01586004,-1.431256,-4.541012,-2.981572,0.6516764,1.195359,0.4999144,-1.719516,0.05354177,0,0,-0.1440987,-0.1516958,0.09195279,-0.7051092,-4.446581,0.1912658,0.6915225,1.463813,0.4094603,0.02438888,-0.1370198,-0.2339881,-0.9105465,0.2130172,0.06639021,0.8081683,1.523577,0.2134089,0.3710282,1.168391,0.354983,278.8325,237.8884,6.189111,False
3,0.9444456,-0.7002373,0.2848375,0.0190423,-1.432104,-4.544224,-2.973171,0.6504115,1.195536,0.4995539,-1.719449,0.005741604,0,0,-0.1621304,-0.1218469,0.09440653,-0.704152,-4.447487,0.1944235,0.6920047,1.463889,0.4096274,0.02329513,-0.1327651,-0.237179,-0.9134483,0.2115061,0.06710314,0.8088167,1.523329,0.2135324,0.3693225,1.171094,0.3551461,278.3377,237.0489,7.108662,False
3,0.9555568,-0.7151553,0.2869485,0.02011305,-1.43297,-4.54746,-2.964239,0.6493467,1.195753,0.4991908,-1.719434,0.00136991,0,0,-0.1726634,-0.1005745,0.1031425,-0.70283,-4.448464,0.197348,0.692513,1.463991,0.4097223,0.02216086,-0.1242579,-0.2446308,-0.9164598,0.2102611,0.06765681,0.8095551,1.523115,0.2136042,0.3675329,1.173751,0.3554674,277.901,236.4167,7.928368,False
3,0.9666679,-0.7460703,0.2996883,0.02219614,-1.433968,-4.551176,-2.954322,0.6481419,1.195926,0.4987767,-1.719473,-0.003535671,0,0,-0.1766712,-0.06876132,0.1268111,-0.7006266,-4.448782,0.1996053,0.6930697,1.464128,0.4098494,0.01995575,-0.115742,-0.2531407,-0.9196614,0.2092692,0.06808344,0.8102198,1.522895,0.2136886,0.3657324,1.176392,0.3558964,277.511,235.7305,8.843398,False
3,0.977779,-0.7897832,0.3219957,0.02423993,-1.435138,-4.555446,-2.943419,0.6469238,1.196035,0.4983532,-1.719028,0.04073728,0,0,-0.1807875,-0.05393703,0.141853,-0.6986084,-4.449701,0.2025001,0.6936731,1.464329,0.4099469,0.0189046,-0.1125514,-0.2510046,-0.9224859,0.2079452,0.06876522,0.8108689,1.522701,0.2137349,0.3639546,1.179058,0.3563763,277.1265,235.0438,9.781456,False
3,0.9888902,-0.8132423,0.341176,0.0326796,-1.436656,-4.559621,-2.93333,0.6456187,1.196272,0.4979577,-1.718188,0.07655179,0,0,-0.1828752,-0.07958199,0.154489,-0.6968933,-4.452911,0.2070365,0.6941779,1.464561,0.4100661,0.02211881,-0.106158,-0.2489068,-0.9251859,0.2070372,0.06894365,0.811484,1.522497,0.2138066,0.3622656,1.181795,0.3568585,276.7375,234.2712,10.80283,False
3,1.000001,-0.8420718,0.3946796,0.09100603,-1.440575,-4.564873,-2.922545,0.6443847,1.196418,0.4974594,-1.717407,0.07100993,0,0,-0.1839621,-0.1041099,0.1586083,-0.6954302,-4.456575,0.21192,0.6947569,1.464665,0.4102614,0.02219337,-0.09869706,-0.2403917,-0.9275737,0.2061849,0.06919718,0.8121052,1.522323,0.2138927,0.3605306,1.184694,0.3572875,276.3248,233.193,12.09534,False
3,1.011112,-0.8486583,0.500069,0.07662399,-1.442755,-4.573803,-2.911836,0.6432821,1.196783,0.4971342,-1.718388,-0.09010269,0,0,-0.190298,-0.1350936,0.1744396,-0.6935894,-4.461312,0.217854,0.6952415,1.464934,0.4104102,0.0147388,-0.09337183,-0.2403366,-0.9303614,0.2053422,0.06972981,0.8127415,1.522117,0.2139707,0.3587089,1.187855,0.3576653,275.8914,231.8383,13.62531,False
3,1.022224,-0.8359979,0.5758228,0.09541154,-1.446365,-4.582237,-2.901974,0.6422641,1.196999,0.4967217,-1.718183,0.01980632,0,0,-0.1976264,-0.1319798,0.1904996,-0.6912459,-4.464147,0.2225132,0.6957951,1.465117,0.4105113,0.01256832,-0.09338074,-0.2445828,-0.9333628,0.204206,0.07036897,0.8133249,1.521865,0.2140632,0.3568603,1.19132,0.3580349,275.3902,230.3251,15.27323,False
3,1.033335,-0.8606365,0.6578267,0.0992853,-1.44995,-4.59146,-2.890646,0.641107,1.197083,0.496161,-1.718882,-0.06398606,0,0,-0.2048237,-0.1204402,0.220457,-0.688082,-4.466724,0.2269719,0.6963328,1.465325,0.4106228,0.01038311,-0.08592934,-0.2509645,-0.9364564,0.203611,0.07067417,0.8139737,1.52161,0.2141433,0.3549843,1.195111,0.3585038,274.8159,228.7725,16.91939,False
3,1.044446,-0.9066025,0.748306,0.1009856,-1.453923,-4.602257,-2.87776,0.6399525,1.197304,0.4956145,-1.719842,-0.0872649,0,0,-0.2025864,-0.1205309,0.2342896,-0.685396,-4.469805,0.2315152,0.6969059,1.465505,0.4106829,0.01778464,-0.08699888,-0.2574204,-0.9395835,0.2026628,0.07073142,0.8145345,1.521412,0.2142258,0.3530887,1.199189,0.3593437,274.2267,224.7341,21.02958,False
3,1.055557,-0.9173074,0.7898591,0.1060966,-1.45771,-4.611362,-2.86661,0.6387951,1.197373,0.4950988,-1.718642,0.1105351,0,0,-0.2057185,-0.1195029,0.2417765,-0.6829421,-4.472769,0.2361214,0.6973749,1.465752,0.4108105,0.01997319,-0.08380221,-0.251053,-0.9422194,0.2018137,0.07089894,0.8151304,1.521241,0.2143321,0.3512228,1.203422,0.3607054,273.5102,218.9828,27.00647,False
3,1.066668,-0.9407986,0.8293726,0.1336087,-1.46297,-4.620801,-2.854497,0.6374267,1.197659,0.4944813,-1.717262,0.125333,0,0,-0.2120231,-0.1099563,0.2504091,-0.6801516,-4.475226,0.2405801,0.6978754,1.466016,0.4109142,0.02533579,-0.08380038,-0.2468376,-0.9447995,0.2009101,0.07101639,0.8157076,1.521074,0.2144117,0.34919,1.207735,0.3625662,272.7759,210.9658,35.4453,False
3,1.077779,-0.8544697,0.8124543,0.1294036,-1.466661,-4.628452,-2.847137,0.6358425,1.198213,0.4939041,-1.718862,-0.147222,0,0,-0.221786,-0.1407421,0.236445,-0.6786959,-4.480206,0.2472559,0.6983999,1.466288,0.4110072,0.0317267,-0.08700119,-0.246896,-0.9477077,0.1997417,0.07113117,0.8162696,1.52093,0.2144365,0.3469492,1.212152,0.364895,272.15,199.8194,47.19247,False
3,1.08889,-0.8213974,0.7891404,0.1422869,-1.470898,-4.635331,-2.838665,0.6342783,1.198695,0.4932353,-1.718306,0.05244711,0,0,-0.2357686,-0.1800863,0.2299166,-0.6772184,-4.486217,0.2549697,0.6989355,1.466584,0.4110835,0.02968901,-0.08060136,-0.2362296,-0.9499677,0.1991207,0.07122704,0.8168236,1.520772,0.2144828,0.3447129,1.216578,0.3675444,271.6212,181.1488,66.61263,False
3,1.100002,-0.8330355,0.7464745,0.1361356,-1.474172,-4.641242,-2.828639,0.632681,1.199287,0.4925284,-1.722794,-0.4108339,0,0,-0.252779,-0.2024887,0.2405591,-0.6751422,-4.492036,0.2628335,0.6993326,1.466892,0.4111292,0.01794678,-0.06462645,-0.2382729,-0.9526468,0.1991589,0.07149123,0.8174213,1.5206,0.2145438,0.342371,1.221065,0.3702799,271.2848,154.1104,94.48767,False
3,1.111113,-0.8596126,0.7230265,0.1405314,-1.4781,-4.647702,-2.817709,0.6311978,1.199746,0.4918566,-1.721913,0.08397655,0,0,-0.2611361,-0.1919331,0.2588051,-0.6721936,-4.496094,0.2691396,0.6997228,1.46721,0.4112959,0.003891647,-0.06570876,-0.2615889,-0.9564179,0.1985786,0.07227473,0.8179513,1.520413,0.2146006,0.340156,1.22539,0.3728569,271.4647,120.1836,129.2594,False
3,1.122224,-0.9245641,0.7037633,0.1460214,-1.482466,-4.654024,-2.804427,0.6294968,1.200316,0.4912601,-1.719887,0.1840077,0,0,-0.2659134,-0.133678,0.3135463,-0.6668939,-4.497727,0.2736052,0.7000125,1.467633,0.4113364,0.005955726,-0.07210243,-0.2690577,-0.9597564,0.1976394,0.07268805,0.818495,1.520221,0.2147093,0.3380794,1.229375,0.3750394,271.9675,99.65008,150.5449,False
3,1.133335,-0.8989247,0.6697709,0.1568316,-1.486556,-4.659417,-2.794961,0.62756,1.20091,0.4904921,-1.71878,0.09965857,0,0,-0.2785807,-0.1070654,0.3212798,-0.6632944,-4.500093,0.2789893,0.7002558,1.468082,0.4113538,0.01243655,-0.07422817,-0.2595238,-0.9623743,0.1967325,0.0727834,0.8190843,1.519988,0.2148185,0.3360775,1.233051,0.3766436,272.4715,90.60297,160.1605,False
3,1.144446,-0.8669289,0.648516,0.155855,-1.490438,-4.665011,-2.785826,0.6254083,1.201673,0.4897285,-1.716478,0.2099244,0,0,-0.3082721,-0.08256849,0.3323197,-0.6593571,-4.50212,0.2850765,0.7005167,1.468453,0.4113266,0.006182745,-0.06996447,-0.2434901,-0.964574,0.1960443,0.07334398,0.8195381,1.519763,0.2149856,0.3341168,1.23657,0.3776895,272.8706,86.1651,164.9054,False
3,1.155557,-0.8742691,0.5867426,0.160425,-1.493947,-4.668798,-2.775405,0.6233337,1.202518,0.4891016,-1.720181,-0.3400393,0,0,-0.3401266,-0.06123821,0.3390997,-0.6555211,-4.504171,0.2914729,0.7008782,1.468859,0.4113345,0.005179927,-0.06463501,-0.2360271,-0.9670673,0.1955475,0.07363587,0.8200448,1.519614,0.2150533,0.3320048,1.240272,0.3782644,273.1511,83.19658,168.017,False
3,1.166668,-0.9028924,0.5121939,0.1725342,-1.497397,-4.671175,-2.764241,0.6213044,1.203211,0.4883881,-1.721025,-0.07399623,0,0,-0.3549997,-0.05804293,0.3434966,-0.6519083,-4.507061,0.2981438,0.7011648,1.469168,0.4113011,-0.004388824,-0.06037229,-0.233816,-0.9696319,0.195163,0.07421431,0.8205634,1.519404,0.2151284,0.3298601,1.24421,0.3784797,273.5974,81.4286,169.8611,False
3,1.17778,-0.9337099,0.4663316,0.1727948,-1.500703,-4.674022,-2.752567,0.6191624,1.204011,0.4875779,-1.719569,0.1333217,0,0,-0.359349,-0.07077092,0.335996,-0.6488686,-4.510777,0.3052704,0.7014934,1.469521,0.4111927,-0.006561786,-0.06144811,-0.2391227,-0.9725779,0.1944157,0.07471951,0.8211535,1.519248,0.2151499,0.3277214,1.2483,0.3784853,274.1784,80.46125,170.8393,False
3,1.188891,-0.9272223,0.4109305,0.1709352,-1.503554,-4.675918,-2.742435,0.6169009,1.204812,0.4867315,-1.718577,0.08954568,0,0,-0.370293,-0.09718993,0.3060817,-0.6471907,-4.515166,0.3132652,0.701545,1.469796,0.4111226,-0.013065,-0.06358859,-0.2518483,-0.9758983,0.1937712,0.07546147,0.821699,1.51906,0.2152224,0.325743,1.25247,0.3783593,274.7881,79.46482,171.8474,False
3,1.200002,-0.9271764,0.3799688,0.1572407,-1.50595,-4.678329,-2.731985,0.6145437,1.205748,0.4860439,-1.718156,0.0379139,0,0,-0.4057099,-0.12678,0.2805995,-0.6458262,-4.520061,0.3228494,0.7016234,1.470125,0.4110737,-0.02381249,-0.05400669,-0.262413,-0.9791548,0.1937677,0.07610702,0.822107,1.518746,0.2154098,0.3239717,1.256728,0.3780918,275.4109,78.48311,172.8716,False
3,1.211113,-0.931378,0.3501469,0.1595259,-1.508939,-4.680305,-2.721346,0.6122676,1.2067,0.4853308,-1.719751,-0.1459201,0,0,-0.4228102,-0.08401644,0.2618212,-0.6435156,-4.52067,0.3285861,0.7017257,1.470503,0.4110012,-0.03864428,-0.03801962,-0.2527101,-0.9816459,0.1941725,0.07681914,0.8226761,1.518483,0.2155375,0.322276,1.261161,0.3776966,276.0421,77.99482,173.4052,False
3,1.222224,-0.9461722,0.2862943,0.177963,-1.511767,-4.680165,-2.710271,0.6097333,1.207818,0.4846184,-1.719729,0.003306891,0,0,-0.4238666,-0.03813273,0.2504031,-0.6408721,-4.520247,0.3330461,0.7017802,1.470883,0.4109147,-0.0577392,-0.02842412,-0.2429637,-0.9840364,0.1944046,0.07799067,0.8232663,1.51828,0.2156305,0.3206442,1.265712,0.3771992,276.7601,78.06004,173.3458,False
3,1.233335,-0.9546387,0.2628686,0.182357,-1.514765,-4.681342,-2.699479,0.6074119,1.208866,0.4839361,-1.719524,0.01868583,0,0,-0.4312316,-0.01577923,0.2559367,-0.6377275,-4.521241,0.3388281,0.7019474,1.47129,0.4108424,-0.05458739,-0.02203838,-0.2483265,-0.9870362,0.19459,0.07833581,0.8238753,1.518039,0.2157619,0.3189924,1.270322,0.3766942,277.4938,78.362,172.9702,False
3,1.244446,-0.9620358,0.2244534,0.1718997,-1.516736,-4.681721,-2.688436,0.6049519,1.21005,0.4831958,-1.719002,0.04757674,0,0,-0.4630865,0.008749247,0.2627323,-0.6344374,-4.521505,0.3452751,0.7019902,1.47169,0.4106736,-0.06740329,-0.01245427,-0.2514213,-0.9900125,0.1950746,0.07926526,0.8245482,1.517845,0.2158959,0.3173242,1.274956,0.3762413,278.1984,78.1116,173.1741,False
3,1.255558,-0.9683855,0.2041988,0.168812,-1.519087,-4.682505,-2.677549,0.6026003,1.211238,0.4825594,-1.719402,-0.03680677,0,0,-0.4906319,0.02149883,0.2779484,-0.6307985,-4.522635,0.3525232,0.7020967,1.472147,0.4105799,-0.06954509,-0.01459105,-0.2524685,-0.9928851,0.1949636,0.0801734,0.8250842,1.517548,0.2160442,0.3156163,1.279633,0.3757652,278.8554,77.53385,173.7684,False
3,1.266669,-0.9779424,0.1849908,0.165717,-1.521238,-4.682915,-2.666273,0.6002296,1.212481,0.4818356,-1.719244,0.0148257,0,0,-0.5094333,0.04577518,0.3197985,-0.6255968,-4.523497,0.359612,0.7022091,1.472576,0.4103992,-0.07073165,-0.008209988,-0.2663124,-0.9963083,0.1954728,0.08074305,0.8256971,1.517277,0.2161815,0.3139767,1.2843,0.3752791,279.5077,77.29588,174.0359,False
3,1.27778,-0.9938815,0.1668196,0.1615519,-1.523327,-4.683142,-2.65485,0.5978102,1.213727,0.4811912,-1.719481,-0.02178097,0,0,-0.4976338,0.04568595,0.3292981,-0.6217256,-4.525195,0.366044,0.702343,1.473001,0.4102726,-0.0752387,0.0002886318,-0.293976,-1.000469,0.1961651,0.08138887,0.8262291,1.517034,0.2163284,0.3123865,1.288962,0.3747562,280.1452,77.36738,173.9824,False
3,1.288891,-0.9938762,0.1657439,0.1594269,-1.525649,-4.683949,-2.643995,0.5954956,1.215022,0.48053,-1.719181,0.02770172,0,0,-0.4848771,0.02860869,0.3301541,-0.6184851,-4.527874,0.37307,0.7024254,1.473518,0.4101553,-0.09020375,0.003476873,-0.3002426,-1.003985,0.1966368,0.08258356,0.8268001,1.516751,0.2164795,0.3108853,1.293613,0.3742339,280.7748,77.43639,173.8889,False
3,1.300002,-0.993852,0.1540446,0.1626613,-1.527819,-4.684271,-2.633101,0.5932007,1.2164,0.4798203,-1.719083,0.008736986,0,0,-0.4796953,-0.0203768,0.3255466,-0.615873,-4.532966,0.3823804,0.7026497,1.474003,0.40996,-0.1051386,0.006666131,-0.3022452,-1.007296,0.1970796,0.08398811,0.8273636,1.516466,0.2166462,0.3094366,1.298288,0.3737048,281.4003,77.41636,173.8933,False
3,1.311113,-0.9895713,0.1444981,0.16803,-1.530236,-4.684467,-2.622222,0.5909373,1.217755,0.4791901,-1.71976,-0.06185032,0,0,-0.4829842,-0.04698393,0.3222051,-0.61313,-4.537351,0.3915854,0.7027633,1.474522,0.4098091,-0.1061547,0.005602807,-0.2969107,-1.010434,0.197381,0.08495697,0.8279454,1.516245,0.21682,0.3080304,1.303017,0.3731712,282.0245,77.41902,173.8632,False
3,1.322224,-0.9810351,0.1359841,0.1670039,-1.532401,-4.684617,-2.611653,0.5886647,1.219157,0.4785609,-1.719824,-0.0052448,0,0,-0.4818653,-0.05663468,0.3317231,-0.609849,-4.541543,0.4002912,0.702947,1.474981,0.4096789,-0.108164,0.003482997,-0.2830421,-1.013097,0.1976038,0.08611411,0.8284899,1.515995,0.2169201,0.3067068,1.307784,0.3726699,282.6602,77.43552,173.8213,False
3,1.333336,-0.9799278,0.1189406,0.1670856,-1.534352,-4.684272,-2.601172,0.5864824,1.220463,0.4779773,-1.719856,-0.00293625,0,0,-0.4785246,-0.05354571,0.3487762,-0.6058079,-4.545105,0.4083073,0.7031422,1.4754,0.4094603,-0.1027326,0.001357265,-0.2713743,-1.015786,0.1977673,0.08694235,0.8290865,1.515667,0.2169836,0.3054741,1.312576,0.3721946,283.3032,77.39552,173.8533,False
3,1.344447,-0.9831141,0.1146953,0.1713702,-1.536658,-4.68418,-2.590288,0.58431,1.221779,0.4774477,-1.720176,-0.02925153,0,0,-0.4741517,-0.04404166,0.3605214,-0.6018462,-4.548449,0.4161157,0.7032763,1.475779,0.4092281,-0.09840642,0.003493711,-0.2639564,-1.018448,0.1981707,0.08766993,0.8296019,1.515388,0.2170641,0.3043311,1.317382,0.3717423,283.9608,77.31998,173.9174,False
3,1.355558,-0.9820295,0.09978449,0.1682392,-1.538479,-4.683924,-2.579364,0.5823859,1.223145,0.4769361,-1.720266,-0.008000138,0,0,-0.4710395,-0.03864202,0.3477424,-0.5989583,-4.551244,0.4234839,0.7034153,1.476125,0.4089923,-0.1025721,0.007757045,-0.2532728,-1.020953,0.1985938,0.08870777,0.8302149,1.515138,0.2171605,0.3032793,1.32216,0.3713002,284.6428,77.29308,173.9386,False
3,1.366669,-0.9852278,0.1040412,0.167154,-1.540672,-4.684055,-2.568416,0.5803488,1.224409,0.4764359,-1.719861,0.03698498,0,0,-0.4710684,-0.02901396,0.3414117,-0.5957214,-4.553844,0.4308281,0.7035102,1.476493,0.4087758,-0.1152903,0.02480748,-0.2457176,-1.023306,0.1998288,0.08975439,0.8307532,1.514854,0.2172394,0.3023489,1.326841,0.370851,285.3334,77.28077,173.9268,False
3,1.37778,-0.9809787,0.1093588,0.1639288,-1.542845,-4.684334,-2.55767,0.5782739,1.225683,0.4758401,-1.719777,0.007370109,0,0,-0.4656431,0.007185936,0.3426731,-0.5916687,-4.554589,0.4362857,0.7036195,1.47687,0.4086127,-0.1238141,0.03332753,-0.2445879,-1.026022,0.2008568,0.09099861,0.8312241,1.514628,0.217418,0.3015003,1.331441,0.3704061,285.9749,77.23003,173.9306,False
3,1.388891,-0.9628747,0.1147266,0.1638918,-1.545137,-4.684594,-2.547694,0.57626,1.227008,0.4752777,-1.719786,-0.000788346,0,0,-0.4582769,0.0008401871,0.3329872,-0.5887147,-4.55765,0.443631,0.7036359,1.477303,0.4083991,-0.1301642,0.03226201,-0.2402722,-1.028551,0.2014213,0.09228119,0.8317871,1.514319,0.2175312,0.3007742,1.335969,0.3699723,286.5738,77.25997,173.8537,False
3,1.400002,-0.9415733,0.1190684,0.1734426,-1.547777,-4.684501,-2.537964,0.5744027,1.228399,0.474736,-1.720012,-0.02066757,0,0,-0.4636564,0.02971542,0.3182987,-0.5854619,-4.557927,0.4491869,0.7037022,1.4777,0.4082208,-0.1333517,0.02906311,-0.2381029,-1.030981,0.2018948,0.09370039,0.8323008,1.513966,0.217701,0.3000644,1.34049,0.3695766,287.1944,77.31004,173.7546,False
3,1.411114,-0.9256024,0.1254812,0.1734032,-1.550249,-4.684713,-2.528291,0.5723794,1.229782,0.4741766,-1.720788,-0.07076097,0,0,-0.4648569,0.03622708,0.2991753,-0.5827646,-4.559179,0.4554128,0.7037615,1.478136,0.4079697,-0.1376531,0.02905478,-0.242323,-1.033731,0.2025167,0.09504609,0.8328238,1.513659,0.2177925,0.2993262,1.345028,0.3692314,287.8315,77.31757,173.721,False
3,1.422225,-0.9053808,0.1340221,0.1701454,-1.552678,-4.685142,-2.518765,0.5704633,1.231134,0.4736409,-1.721028,-0.0214633,0,0,-0.4779029,0.03006539,0.2672773,-0.5810235,-4.560515,0.4623213,0.7037917,1.478467,0.4076679,-0.1407555,0.03012858,-0.2316432,-1.035925,0.2031948,0.09637607,0.8333142,1.513352,0.217896,0.2986163,1.349525,0.3689497,288.4562,77.2496,173.7737,False
3,1.433336,-0.8883559,0.1457117,0.1615426,-1.554985,-4.685803,-2.509344,0.5685102,1.232476,0.4730089,-1.720993,0.003273364,0,0,-0.480068,0.0354445,0.2598819,-0.5782388,-4.561933,0.4688578,0.7038329,1.478828,0.4073896,-0.1396672,0.03438911,-0.2284612,-1.038375,0.2040431,0.09752496,0.8337603,1.513101,0.2179401,0.2979556,1.353949,0.3687236,289.0607,77.10449,173.9199,False
3,1.444447,-0.8723996,0.1563445,0.1529586,-1.557371,-4.686656,-2.500051,0.5665986,1.233833,0.472404,-1.721012,-0.001905563,0,0,-0.4874875,0.04503414,0.2621313,-0.5752119,-4.56311,0.4755982,0.7038421,1.479176,0.4071352,-0.1417044,0.04718125,-0.2178003,-1.0404,0.2054168,0.09850048,0.8342451,1.512811,0.2180233,0.2972621,1.358314,0.3685407,289.6721,77.02734,174.0106,False
3,1.455558,-0.8617628,0.1616441,0.1422523,-1.559429,-4.68748,-2.490601,0.5648078,1.235301,0.4717705,-1.720998,0.001265611,0,0,-0.4744632,0.06615254,0.2856106,-0.5709546,-4.564405,0.4814023,0.7038537,1.479536,0.4067926,-0.1405938,0.04931694,-0.2124811,-1.042516,0.2063705,0.09956734,0.834721,1.512507,0.2181089,0.296556,1.362581,0.3684081,290.2733,77.00084,174.062,False
3,1.466669,-0.8436853,0.1743672,0.1304703,-1.561734,-4.688743,-2.481806,0.5629448,1.236739,0.471096,-1.721001,-0.0003535657,0,0,-0.4616388,0.08849996,0.2845881,-0.5673603,-4.564354,0.4861073,0.7039741,1.479801,0.4065113,-0.1405283,0.04932292,-0.2050243,-1.044484,0.2072515,0.1006957,0.8351558,1.512216,0.2181506,0.2958092,1.36675,0.3683191,290.8516,76.98931,174.118,False
3,1.47778,-0.8149471,0.1903994,0.1218156,-1.56404,-4.690132,-2.473581,0.5612893,1.238173,0.4704878,-1.720726,0.02500932,0,0,-0.4659526,0.07789309,0.2781783,-0.5644996,-4.566094,0.492692,0.704078,1.480109,0.4062786,-0.1393745,0.0408027,-0.1954463,-1.046438,0.2075716,0.1020252,0.8356656,1.511885,0.2181969,0.2950401,1.370823,0.3682746,291.3753,76.95586,174.2108,False
3,1.488891,-0.8032371,0.196785,0.1217905,-1.566643,-4.691163,-2.464983,0.5594683,1.239604,0.4698582,-1.721238,-0.04704538,0,0,-0.4638303,0.05762076,0.2822928,-0.5616404,-4.569099,0.5003387,0.7041307,1.480431,0.4059961,-0.1340014,0.03548059,-0.1901625,-1.048347,0.2080521,0.103095,0.8360978,1.511602,0.2182379,0.2942714,1.374846,0.3682546,291.8406,76.93956,174.3098,False
3,1.500003,-0.79687,0.2074319,0.1195894,-1.569192,-4.692362,-2.456147,0.5577693,1.241008,0.4692123,-1.721714,-0.04325778,0,0,-0.4415104,0.03200211,0.2798315,-0.559258,-4.57307,0.5076419,0.7042524,1.480749,0.4057472,-0.1372473,0.03760222,-0.195458,-1.050635,0.208872,0.1043621,0.8365179,1.511421,0.2182491,0.2935259,1.378827,0.3682682,292.3092,76.95574,174.3721,False
3,1.511114,-0.7873069,0.2212414,0.1109923,4.711451,-4.693951,-2.447785,0.5561036,1.242332,0.4686263,-1.721202,0.04700994,0,0,-0.4287797,0.0288182,0.273316,-0.556737,-4.575212,0.5136857,0.704231,1.481119,0.405478,-0.1361757,0.04292695,-0.1944072,-1.052706,0.2098498,0.1053941,0.8368887,1.511115,0.2183347,0.2928588,1.38272,0.368336,292.795,76.96041,174.4361,False
3,1.522225,-0.7798619,0.2298061,0.1173375,4.708473,-4.695169,-2.439353,0.5544225,1.243782,0.4680009,-1.720748,0.04102005,0,0,-0.4257204,0.01292229,0.2593605,-0.5545468,-4.578136,0.5207228,0.7042314,1.481531,0.4050291,-0.1328583,0.04293832,-0.1805869,-1.054204,0.210608,0.1064087,0.8372558,1.510879,0.218375,0.2921854,1.386584,0.368444,293.2907,76.88034,174.5955,False
3,1.533336,-0.7734709,0.2330061,0.1183859,4.705743,-4.696196,-2.431079,0.5527491,1.245148,0.4674504,-1.721056,-0.0285599,0,0,-0.4353607,0.0119295,0.2477242,-0.5525127,-4.580527,0.5274338,0.7041821,1.481911,0.40487,-0.1370141,0.03655414,-0.1688191,-1.055572,0.2109566,0.1078673,0.837535,1.510608,0.2184441,0.2915444,1.390419,0.3685811,293.7716,76.82672,174.7426,False
3,1.544447,-0.7659867,0.21813,0.1237809,4.70329,-4.696609,-2.422798,0.5510958,1.246702,0.4668307,-1.720905,0.01390621,0,0,-0.4342437,0.02042247,0.2520307,-0.5497505,-4.582549,0.5339345,0.7041579,1.482412,0.4045854,-0.1412377,0.03442697,-0.1645189,-1.057208,0.2115258,0.109298,0.8378415,1.510392,0.2184563,0.2909515,1.394219,0.3687649,294.2517,76.81712,174.8374,False
3,1.555558,-0.7542269,0.1947309,0.1291965,4.701377,-4.696571,-2.41493,0.5495416,1.248362,0.4662094,-1.720922,-0.001773925,0,0,-0.4244146,0.05116263,0.2745288,-0.5455619,-4.583481,0.5390264,0.7041731,1.482993,0.4041028,-0.1412625,0.03442036,-0.1677133,-1.059124,0.2121653,0.1104834,0.8381046,1.510232,0.2185149,0.2903751,1.398037,0.3689924,294.7229,76.73064,175.0136,False
3,1.566669,-0.7467269,0.1713449,0.1367638,4.699343,-4.696185,-2.407001,0.5478771,1.249945,0.4656115,-1.720811,0.01012244,0,0,-0.4200314,0.05318961,0.289422,-0.5420694,-4.586075,0.5456905,0.7041539,1.483509,0.4037449,-0.1466261,0.02589442,-0.1719205,-1.061126,0.2123961,0.1121465,0.8383938,1.510053,0.2185073,0.2898423,1.401855,0.3692327,295.2008,76.61216,175.2458,False
3,1.577781,-0.7359594,0.1052957,0.1360243,4.698928,-4.694385,-2.399207,0.5462289,1.251581,0.4650915,-1.721101,-0.02663143,0,0,-0.4284253,0.04669271,0.3075611,-0.5386147,-4.589973,0.5540528,0.7042031,1.484096,0.4032855,-0.1530075,0.02269609,-0.1707965,-1.06295,0.2127398,0.1138845,0.8387702,1.50982,0.2184939,0.2893591,1.405714,0.3694012,295.6501,76.45812,175.5473,False
3,1.588892,-0.7348365,0.07226443,0.1351141,4.698017,-4.693309,-2.391115,0.5446663,1.253117,0.4645817,-1.720956,0.01337986,0,0,-0.4397526,0.06560832,0.352515,-0.5333156,-4.593225,0.5621597,0.7042043,1.48462,0.4029145,-0.1497931,0.02589378,-0.1686967,-1.064676,0.2134269,0.1150765,0.8390036,1.509619,0.2184627,0.2889759,1.40959,0.3694095,296.107,76.35847,175.7774,False
3,1.600003,-0.7262463,0.03069553,0.1278597,4.697875,-4.691707,-2.383306,0.5429356,1.254844,0.4639504,-1.720966,-0.00107311,0,0,-0.428953,0.09107836,0.3643105,-0.5285591,-4.594789,0.56793,0.7041401,1.485208,0.4025092,-0.1519148,0.02589473,-0.1676165,-1.0665,0.2140203,0.1165349,0.8391809,1.509484,0.2184868,0.2886882,1.413456,0.3691961,296.6063,76.27589,175.9354,False
3,1.611114,-0.7176713,0.0008774772,0.1269386,4.697555,-4.690038,-2.375636,0.541253,1.256579,0.4633112,-1.720556,0.03737077,0,0,-0.4225171,0.09849879,0.3675026,-0.5244116,-4.597044,0.5742883,0.7041082,1.485778,0.4020822,-0.1497281,0.02270415,-0.1612411,-1.068034,0.2143779,0.1179423,0.8394005,1.509303,0.2184753,0.2885343,1.417233,0.3686656,297.1207,76.2775,175.9316,False
3,1.622225,-0.7005649,-0.03638823,0.1249882,4.697686,-4.68794,-2.3685,0.5396116,1.25843,0.462739,-1.720712,-0.0146583,0,0,-0.4374716,0.09962299,0.3633643,-0.520632,-4.599422,0.5818331,0.7040533,1.486385,0.4016745,-0.1463552,0.01313591,-0.1410241,-1.068938,0.2142561,0.119536,0.8395402,1.509021,0.2184362,0.2884433,1.420954,0.3678415,297.6117,76.36072,175.7435,False
3,1.633336,-0.686662,-0.07048011,0.1240804,4.698129,-4.685568,-2.361301,0.5379159,1.260269,0.4620001,-1.720789,-0.006917397,0,0,-0.4405547,0.1006026,0.3772424,-0.5162048,-4.602747,0.5896302,0.7040447,1.486934,0.40119,-0.14635,0.009937242,-0.1410287,-1.070609,0.2144715,0.1209922,0.8396908,1.508887,0.218375,0.288305,1.4247,0.366742,298.0779,76.48288,175.4632,False
3,1.644447,-0.6738409,-0.09284505,0.1209916,4.698493,-4.683445,-2.354293,0.5362725,1.262049,0.4613347,-1.721228,-0.04015473,0,0,-0.4330589,0.09522013,0.3835413,-0.5120396,-4.606327,0.5972688,0.7040074,1.487539,0.4007683,-0.1485178,0.006737843,-0.1452684,-1.072353,0.2146657,0.1225976,0.8398758,1.508723,0.2182984,0.2881341,1.428449,0.3654303,298.5002,76.59943,175.127,False
3,1.655559,-0.6695511,-0.1056118,0.1221144,4.698625,-4.681447,-2.347067,0.5346683,1.263827,0.4606359,-1.721082,0.01356226,0,0,-0.4255161,0.1015366,0.3941665,-0.5074355,-4.609297,0.6044545,0.7039002,1.488055,0.4003935,-0.1548593,0.003541321,-0.1398921,-1.073826,0.2147209,0.1244871,0.8400799,1.50858,0.2182076,0.2879595,1.432162,0.3639629,298.9051,76.71578,174.7715,False
3,1.66667,-0.6599424,-0.1162229,0.1274893,4.698693,-4.679144,-2.34007,0.5330628,1.265596,0.4599137,-1.721107,-0.00252749,0,0,-0.4148704,0.09831841,0.3940622,-0.5033007,-4.612797,0.6117316,0.7038403,1.488662,0.3999779,-0.1580739,0.006735444,-0.1419972,-1.075422,0.2151515,0.1261521,0.8402131,1.508435,0.2181184,0.2877837,1.435804,0.3623719,299.3106,76.84174,174.4047,False
3,1.677781,-0.6482016,-0.1257821,0.1296672,4.698812,-4.676867,-2.333305,0.5315121,1.267329,0.4592943,-1.720765,0.03116922,0,0,-0.4085137,0.09619743,0.3918678,-0.4992096,-4.616109,0.6191384,0.7038528,1.489225,0.3995979,-0.1601663,0.002477854,-0.1377145,-1.076802,0.2152263,0.1279241,0.840349,1.508338,0.2180433,0.2876236,1.439332,0.3607415,299.7029,76.98919,173.9817,False
3,1.688892,-0.6332612,-0.1353075,0.1350332,4.698968,-4.674493,-2.326853,0.5299782,1.269105,0.4585357,-1.72085,-0.008115782,0,0,-0.407533,0.08025675,0.3853667,-0.4957544,-4.62057,0.6275321,0.7037896,1.489823,0.3991642,-0.157989,0.001416981,-0.132406,-1.078093,0.2153722,0.1295338,0.8404505,1.508219,0.217958,0.2874598,1.442782,0.359161,300.0601,77.09487,173.5994,False
3,1.700003,-0.6204596,-0.1491686,0.1297662,4.699654,-4.672099,-2.320266,0.5285845,1.270965,0.4578159,-1.720989,-0.01263057,0,0,-0.4012967,0.05795835,0.3723907,-0.4928691,-4.625377,0.6361019,0.7037169,1.490635,0.3987882,-0.153623,0.004626229,-0.1207258,-1.078986,0.2157524,0.1308478,0.8405237,1.50815,0.2179785,0.2873032,1.446171,0.3576839,300.4011,77.14761,173.3003,False
3,1.711114,-0.6140643,-0.1534545,0.1233919,4.700262,-4.670002,-2.31355,0.5271747,1.272726,0.4569368,-1.721192,-0.01859282,0,0,-0.4067178,0.0548383,0.3617626,-0.4896158,-4.629189,0.6442189,0.7035484,1.491353,0.3983052,-0.1524551,0.01209304,-0.1090235,-1.07973,0.2163102,0.1322337,0.8406104,1.508017,0.2178981,0.2871689,1.449499,0.356341,300.7391,77.16782,173.0811,False
3,1.722225,-0.6012794,-0.155589,0.1180712,4.700857,-4.66794,-2.307276,0.5258109,1.27443,0.4561291,-1.720944,0.02279515,0,0,-0.4077411,0.0676129,0.3639851,-0.4855374,-4.632412,0.6516894,0.703491,1.492142,0.397681,-0.152334,0.01956065,-0.09518444,-1.08029,0.2169075,0.1336768,0.8407453,1.507899,0.2176433,0.2870515,1.452791,0.355104,301.0734,77.14961,172.9756,False
3,1.733337,-0.5906572,-0.1406711,0.1158601,4.700795,-4.666295,-2.300929,0.5245138,1.276109,0.4553225,-1.720664,0.02527136,0,0,-0.400206,0.08567117,0.3693691,-0.4811341,-4.63539,0.6585462,0.7034417,1.492773,0.3971448,-0.1565964,0.01530303,-0.09513693,-1.081293,0.2171299,0.1354627,0.8407409,1.507826,0.217618,0.2869757,1.456056,0.3539165,301.3965,77.1502,172.9067,False
3,1.744448,-0.5874829,-0.1278776,0.11686,4.700654,-4.664621,-2.294448,0.5232121,1.277775,0.4545252,-1.720973,-0.02854183,0,0,-0.3873692,0.1197464,0.3684104,-0.4763799,-4.636327,0.6633298,0.7033246,1.493482,0.3966563,-0.1640344,0.01317409,-0.09293918,-1.082234,0.2173605,0.1374479,0.8407531,1.507709,0.217464,0.2869508,1.459303,0.3527267,301.7411,77.17445,172.8276,False
3,1.755559,-0.5747223,-0.1140139,0.113601,4.700345,-4.663189,-2.288461,0.521876,1.279402,0.4539447,-1.720826,0.01367887,0,1.33,-0.3960026,0.1166558,0.3556756,-0.4729071,-4.639131,0.670642,0.7032344,1.494178,0.3961279,-0.1586399,0.007852465,-0.08552396,-1.08292,0.2173454,0.1389912,0.8407338,1.507608,0.2172174,0.2869955,1.4625,0.3515244,302.106,77.20935,172.69,False
3,1.76667,-0.5597978,-0.1192981,0.116816,4.70054,-4.661178,-2.28283,0.5205901,1.281088,0.4531879,-1.720574,0.02285732,0,3.14,-0.4046327,0.109291,0.3439778,-0.4697571,-4.642137,0.67804,0.7031665,1.494897,0.3955967,-0.1596301,-0.005989395,-0.07698116,-1.083528,0.2168597,0.1409702,0.8407269,1.50756,0.2170177,0.2870747,1.465672,0.350344,302.4673,77.22533,172.5288,False
3,1.777781,-0.5416906,-0.1192776,0.1104312,4.700686,-4.659642,-2.277444,0.5192789,1.283049,0.452445,-1.720947,-0.03440476,0,4.83,-0.3938322,0.116614,0.3609942,-0.4651525,-4.646111,0.6855932,0.7031758,1.495569,0.3950677,-0.1670529,-0.01664381,-0.0737093,-1.084303,0.2163175,0.1432413,0.8407181,1.507505,0.2169192,0.2871574,1.468845,0.3492213,302.8242,77.2478,172.3394,False
3,1.788892,-0.5267625,-0.1266918,0.1136569,4.701065,-4.657507,-2.272142,0.5180215,1.284807,0.4517014,-1.721239,-0.02651644,0,6.42,-0.3830562,0.1154252,0.3768822,-0.4607269,-4.650679,0.6935188,0.7031476,1.49627,0.3945293,-0.1658473,-0.01769578,-0.05773892,-1.084423,0.2160599,0.145166,0.8407177,1.507442,0.2166901,0.2872334,1.472,0.3482048,303.1935,77.26206,172.169,False
3,1.800003,-0.5022674,-0.1234619,0.1104274,4.701387,-4.655941,-2.267365,0.5170258,1.286574,0.4507744,-1.723211,-0.1775321,0,7.9,-0.357412,0.1185033,0.386296,-0.4562299,-4.655102,0.7005834,0.7032418,1.497078,0.3938947,-0.1593944,-0.01130095,-0.05141464,-1.084832,0.2162681,0.1465149,0.8407573,1.507386,0.2165229,0.287333,1.475201,0.3472436,303.486,77.21303,172.1404,True
3,1.811115,-0.4895043,-0.1095755,0.1124816,4.701108,-4.654533,-2.262371,0.5158936,1.288275,0.4500296,-1.726705,-0.3144371,0,9.77,-0.3489354,0.1121127,0.3829984,-0.4523986,-4.659513,0.708245,0.7032641,1.49776,0.393295,-0.1680007,-0.009178489,-0.0609289,-1.085821,0.2164122,0.1486052,0.8407722,1.507339,0.2163591,0.2875342,1.478598,0.3463021,303.7161,77.19445,172.1245,True
3,1.822226,-0.4820687,-0.09461521,0.1209208,4.700602,-4.652936,-2.257251,0.5148144,1.289927,0.4490693,-1.732078,-0.4841782,0,11.52,-0.3617665,0.101507,0.3798359,-0.4488423,-4.664341,0.7170031,0.7033074,1.498526,0.3927357,-0.1671011,-0.003866687,-0.08012019,-1.087399,0.2168026,0.1502342,0.8407279,1.507329,0.2162485,0.2880925,1.482159,0.345338,303.9684,77.16776,172.1359,True
3,1.833337,-0.4831475,-0.08827025,0.1187678,4.700442,-4.651118,-2.251803,0.5139936,1.291619,0.4486194,-1.737902,-0.5235007,0,13.15,-0.3712984,0.1025475,0.3863106,-0.4447117,-4.669216,0.7258014,0.7033467,1.499321,0.3922,-0.1617773,-0.01132026,-0.08122519,-1.088311,0.2165848,0.1518361,0.8406475,1.507291,0.2160904,0.2891605,1.485915,0.3443274,304.3244,77.216,172.0458,True
3,1.844448,-0.4788616,-0.1031873,0.1167096,4.70093,-4.649168,-2.246646,0.5130172,1.293425,0.4478655,-1.744602,-0.6029252,0,14.68,-0.3614394,0.1076482,0.4192928,-0.4394967,-4.675591,0.7352389,0.7035031,1.500076,0.3916299,-0.1597118,-0.02943648,-0.08868561,-1.089661,0.2157653,0.1539169,0.8406702,1.507232,0.2158837,0.2907211,1.489965,0.343318,304.8549,77.28615,171.8542,True
3,1.855559,-0.4745815,-0.1170555,0.1157319,4.70147,-4.646794,-2.241429,0.5120421,1.295201,0.4471054,-1.751746,-0.6427019,0,16.11,-0.3431959,0.1117722,0.4340937,-0.4347099,-4.681678,0.7438278,0.7036511,1.500805,0.3910351,-0.1501394,-0.0368894,-0.09089454,-1.09079,0.2152994,0.1554293,0.8406154,1.507115,0.2156236,0.2927892,1.494301,0.3423357,305.5309,77.33894,171.6317,True
3,1.86667,-0.4745535,-0.133035,0.1158114,4.702279,-4.644538,-2.236126,0.5110764,1.296966,0.4463797,-1.759881,-0.7327198,0,18.17,-0.3335924,0.1074709,0.437187,-0.4303546,-4.687935,0.7528634,0.7038385,1.501474,0.3904421,-0.1321044,-0.0571369,-0.09955858,-1.092384,0.2140946,0.1567989,0.840585,1.507039,0.2153358,0.2953624,1.498891,0.3414315,306.3138,77.42677,171.3429,True
3,1.877781,-0.4798723,-0.1363094,0.1041069,4.703237,-4.642994,-2.230676,0.5101692,1.298813,0.4453197,-1.767919,-0.7231369,0,20.1,-0.3315489,0.08938639,0.4317303,-0.4268206,-4.694878,0.7629253,0.7040222,1.502213,0.3899345,-0.1320795,-0.06139588,-0.09635913,-1.093432,0.2133827,0.1586826,0.8404918,1.506873,0.2150228,0.2982944,1.50374,0.3405494,307.2692,77.52416,171.1085,True
3,1.888893,-0.4883695,-0.1501619,0.1063106,4.7042,-4.640591,-2.224804,0.5092072,1.300635,0.4445255,-1.775892,-0.717506,0,21.91,-0.3230875,0.07661249,0.4273212,-0.4231502,-4.702049,0.7728333,0.7042393,1.502956,0.3893766,-0.1190125,-0.0528509,-0.06452138,-1.093142,0.2129442,0.1597463,0.8403957,1.506796,0.2148132,0.3014771,1.508705,0.3396295,308.3481,77.59647,170.9037,True
3,1.900004,-0.4958056,-0.1586845,0.1106226,4.704971,-4.638101,-2.218968,0.5082304,1.302571,0.4437528,-1.783674,-0.7002289,0,23.6,-0.3048948,0.07222866,0.4388776,-0.4188471,-4.710317,0.7832418,0.7045395,1.503749,0.388773,-0.1049932,-0.03898429,-0.04441324,-1.092967,0.2129629,0.1605567,0.84033,1.506671,0.2146192,0.3047645,1.513656,0.3386196,309.4733,77.67647,170.6937,True
3,1.911115,-0.4936541,-0.1671927,0.1117293,4.705889,-4.635868,-2.213618,0.5074395,1.304481,0.4430196,-1.790962,-0.6553922,0,25.98,-0.2920727,0.06468765,0.4461917,-0.4147788,1.564271,0.7939996,0.7047547,1.50446,0.3882258,-0.09861113,-0.02833178,-0.04554188,-1.093526,0.2131227,0.1613793,0.8402687,1.506594,0.214427,0.3080047,1.518507,0.3374735,310.5606,77.79646,170.4374,True
3,1.922226,-0.5011047,-0.1736452,0.1021779,4.707104,-4.633923,-2.207795,0.5066428,1.306325,0.4424353,-1.798218,-0.6533608,0,28.21,-0.2824541,0.04971047,0.4534848,-0.4110046,1.554933,0.8053895,0.7051352,1.505075,0.3877554,-0.08497651,-0.02302362,-0.07016703,-1.095108,0.2134225,0.16168,0.8403412,1.506602,0.2142034,0.3110999,1.523187,0.3362072,311.5431,77.8757,170.121,True
3,1.933337,-0.5085685,-0.1704605,0.1021647,4.707866,-4.631948,-2.2019,0.5058841,1.308052,0.4418478,-1.805024,-0.6132389,0,30.3,-0.275995,0.05068301,0.4630404,-0.4068037,1.545432,0.817126,0.7055595,1.505816,0.3873017,-0.08188011,-0.04006901,-0.08189367,-1.096455,0.2126075,0.1628611,0.8402696,1.506572,0.214025,0.3139625,1.527663,0.3348599,312.4095,77.92417,169.7837,True
3,1.944448,-0.5288158,-0.1651432,0.1074745,4.708405,-4.629868,-2.195307,0.5050876,1.30978,0.441262,-1.810022,-0.4488192,0,32.25,-0.2653223,0.04424231,0.4671766,-0.4029565,1.536022,0.8283957,0.7059177,1.506416,0.3867984,-0.08414094,-0.07417078,-0.09676053,-1.098338,0.210678,0.1647551,0.8402694,1.506454,0.2137349,0.3165767,1.531796,0.3334947,313.1772,78.01207,169.404,True
3,1.955559,-0.5373361,-0.164092,0.1096094,4.709058,-4.627679,-2.189104,0.5041663,1.311377,0.440681,-1.814558,-0.4084405,0,34.08,-0.2588586,0.04738353,0.4756643,-0.3987157,1.526948,0.8394449,0.7062885,1.506717,0.3862069,-0.0767938,-0.08589628,-0.1085372,-1.100124,0.2095814,0.1659852,0.8401998,1.506359,0.2134473,0.3188908,1.535553,0.332188,313.8403,78.12512,168.9966,True
3,1.966671,-0.5533205,-0.163087,0.1032206,4.709962,-4.625939,-2.182406,0.5033857,1.313061,0.4401424,-1.817898,-0.2996925,0,36.85,-0.2343447,0.04945672,0.4765494,-0.3947076,1.517798,0.8496125,0.7066398,1.50724,0.3857563,-0.0628707,-0.09228101,-0.1001313,-1.101135,0.2083608,0.1667445,0.8401796,1.506268,0.2131865,0.3208809,1.538973,0.3310117,314.3956,78.18266,168.6685,True
3,1.977782,-0.5586492,-0.1652445,0.1000388,4.711009,-4.623981,-2.175905,0.5026945,1.314796,0.4396033,-1.821722,-0.3451823,0,39.44,-0.2174308,0.04418311,0.4667905,-0.3910783,1.509114,0.8600492,0.7070215,1.507712,0.3852351,-0.06065588,-0.09227205,-0.09056402,-1.101949,0.2074333,0.1677602,0.8401493,1.506223,0.2129974,0.322537,1.54219,0.329993,314.85,78.17592,168.4699,True
3,1.988893,-0.5565125,-0.1684427,0.09899186,4.712025,-4.621935,-2.169824,0.5019097,1.316583,0.4390531,-1.82431,-0.2319435,0,41.86,-0.2111647,0.04427117,0.4507616,-0.3878015,1.501022,0.8696696,0.7073597,1.508156,0.3847775,-0.04875109,-0.07947075,-0.06937272,-1.102094,0.206954,0.1681371,0.8400871,1.506172,0.2128031,0.3239193,1.545232,0.3291162,315.2514,78.14625,168.3691,True
3,2.000004,-0.555445,-0.1705877,0.09580658,-1.570075,-4.620043,-2.163717,0.5010962,1.318259,0.4386246,-1.827076,-0.2495637,0,44.13,-0.2059892,0.02200258,0.4293432,-0.3851655,1.490238,0.8813732,0.7076639,1.508794,0.3846476,-0.03480415,-0.06880329,-0.0577865,-1.102419,0.2066443,0.1682433,0.8400533,1.506106,0.2125993,0.3251161,1.548187,0.3283481,315.5517,78.12798,168.3138,True
3,2.011115,-0.5543835,-0.1738152,0.08836658,-1.568838,-4.618272,-2.157515,0.5004352,1.319844,0.4382749,-1.829764,-0.2423664,0,48.3,-0.2059903,0.001736939,0.4313845,-0.3822701,1.477829,0.8950431,0.7080014,1.509187,0.3841927,-0.02733404,-0.06454039,-0.05679402,-1.103203,0.2060814,0.1685326,0.8400352,1.505997,0.2123697,0.3262461,1.551127,0.3276408,315.8114,78.10246,168.2937,True
3,2.022226,-0.5597095,-0.1749059,0.08517906,-1.567652,-4.616465,-2.151097,0.4996039,1.32148,0.4378824,-1.831188,-0.1278581,0,52.2,-0.194319,0.003884166,0.4249128,-0.3793716,1.468478,0.9055004,0.708257,1.509543,0.3837693,-0.02840868,-0.06028007,-0.05785342,-1.103969,0.2056307,0.169078,0.8400226,1.505907,0.2121511,0.3273558,1.554066,0.3269447,316.1443,78.07255,168.262,True
3,2.033337,-0.5639616,-0.1813334,0.07988633,-1.566162,-4.614626,-2.144691,0.4988341,1.322996,0.4375536,-1.831718,-0.04757717,0,55.84,-0.1805835,0.02528816,0.4047236,-0.3759323,1.46135,0.9137364,0.7084987,1.50988,0.3832388,-0.03378942,-0.05815548,-0.06313162,-1.104903,0.2051121,0.1699938,0.8399762,1.505785,0.2119479,0.3284714,1.556899,0.3262427,316.5458,78.05276,168.1717,True
3,2.044448,-0.5703493,-0.1878049,0.06607233,-1.564375,-4.613123,-2.138086,0.4979447,1.324607,0.4372487,-1.831352,0.0332694,0,59.26,-0.1838141,0.04132775,0.3963283,-0.3726369,1.453994,0.9227322,0.7086264,1.510206,0.3828022,-0.03273348,-0.06241754,-0.06420269,-1.105786,0.2043224,0.1706777,0.8399699,1.505683,0.2116864,0.329569,1.559574,0.3255252,316.9724,78.04817,168.0366,True
3,2.055559,-0.5714039,-0.2006719,0.05016445,-1.562193,-4.611582,-2.13164,0.497179,1.326181,0.4369237,-1.830529,0.07385615,0,62.45,-0.1870008,0.05094389,0.3932247,-0.3693,1.445745,0.9325302,0.7088304,1.510513,0.3823509,-0.02091181,-0.07093147,-0.05258039,-1.106152,0.2031598,0.1709936,0.8399624,1.505633,0.2114301,0.3305434,1.562147,0.3247715,317.403,78.03756,167.8967,True
3,2.06667,-0.5713956,-0.2081769,0.04061437,-1.560069,-4.610103,-2.125283,0.4963177,1.327753,0.4366443,-1.828946,0.1427437,0,67.37,-0.1816942,0.07015523,0.3858464,-0.3656946,1.43909,0.940581,0.7088593,1.510776,0.3819602,-0.02518082,-0.06880318,-0.05360997,-1.106892,0.2024831,0.1716937,0.839936,1.505512,0.2112055,0.3313508,1.564575,0.3239643,317.8036,78.04054,167.742,True
3,2.077781,-0.5703209,-0.2199509,0.03001783,-1.557632,-4.608586,-2.118967,0.4955318,1.329251,0.436419,-1.827069,0.168576,0,71.97,-0.1753715,0.06165987,0.3793455,-0.3631444,1.430698,0.9501289,0.7089391,1.51086,0.3816516,-0.03268524,-0.06028219,-0.05887369,-1.107726,0.2022968,0.1724072,0.8399326,1.505399,0.2110205,0.3319123,1.566907,0.3230855,318.1425,78.07404,167.5627,True
3,2.088892,-0.5660565,-0.2263819,0.02046416,-1.555336,-4.607213,-2.1128,0.4945836,1.330509,0.436254,-1.824596,0.2225537,1.25,76.28,-0.1786542,0.05534172,0.3707918,-0.3607353,1.422916,0.9595907,0.7088108,1.51093,0.3814085,-0.03701106,-0.05496188,-0.06629635,-1.108762,0.2019973,0.1730959,0.8399049,1.505304,0.2108436,0.3322403,1.569088,0.3221246,318.4011,78.12505,167.3659,True
3,2.100003,-0.5649971,-0.2253518,0.01300139,-1.553147,-4.60604,-2.106578,0.4935866,1.331692,0.4362085,-1.821447,0.2834512,2.43,80.31,-0.1766571,0.05756284,0.3537455,-0.3582511,1.416302,0.9676403,0.7087127,1.511036,0.3811123,-0.0509386,-0.03791649,-0.07792265,-1.109715,0.2020483,0.1739156,0.8398899,1.505144,0.2106988,0.332321,1.571104,0.3210948,318.5963,78.18031,167.1417,True
3,2.111114,-0.5596913,-0.2136305,0.012946,-1.551509,-4.604804,-2.100521,0.4925839,1.332716,0.436022,-1.817851,0.3234346,3.75,83.43,-0.1630996,0.06844069,0.3153448,-0.3560572,1.413324,0.9718655,0.7085732,1.511147,0.3809657,-0.06273481,-0.0304636,-0.08313283,-1.110943,0.2025425,0.1749582,0.8398687,1.505051,0.2105138,0.3321847,1.572877,0.3200198,318.7455,78.24954,166.8855,True
3,2.122225,-0.5480015,-0.1965492,0.0160508,-1.550232,-4.603734,-2.09487,0.4915492,1.333674,0.4360559,-1.813471,0.3943613,5.01,86.42,-0.1412656,0.07308718,0.2470169,-0.3549562,1.413735,0.972376,0.708212,1.511104,0.3808525,-0.07122888,-0.01554677,-0.0798746,-1.111659,0.2030178,0.1758267,0.8398079,1.504941,0.2103422,0.33181,1.574356,0.3189499,318.8863,78.33529,166.5807,True
3,2.133336,-0.5373784,-0.1805431,0.01916611,-1.549014,-4.6026,-2.089129,0.4906104,1.334734,0.4359095,-1.808759,0.4238146,6.19,89.22,-0.1287966,0.06156174,0.2127436,-0.3539533,1.410978,0.9762656,0.7079017,1.511242,0.3806963,-0.06685352,-0.002751786,-0.06606978,-1.111804,0.2034549,0.1762869,0.839748,1.504844,0.2101729,0.3311551,1.575582,0.3179469,318.974,78.40978,166.2808,True
3,2.144447,-0.5203694,-0.1570236,0.02969313,-1.548475,-4.601535,-2.083876,0.4896028,1.335606,0.4359303,-1.803727,0.4524373,7.29,91.84,-0.1102099,0.02891006,0.1474022,-0.3548326,1.410832,0.9770386,0.7075282,1.511261,0.3805828,-0.06133068,-0.0006025657,-0.043748,-1.111497,0.2034666,0.1767521,0.8396525,1.50477,0.2100766,0.3302059,1.576591,0.3170583,318.9903,78.45038,166.0413,True
3,2.155558,-0.4937833,-0.1293016,0.02528739,-1.548002,-4.601076,-2.079245,0.4887811,1.336413,0.4357181,-1.797691,0.5435997,8.33,94.3,-0.1074378,0.01644918,0.09616052,-0.355173,1.411782,0.9771853,0.707183,1.511351,0.3802986,-0.07613765,0.0153872,-0.03191867,-1.111481,0.2041945,0.1777372,0.8394253,1.504682,0.2099965,0.32895,1.577445,0.3163356,318.9218,78.46394,165.8694,True
3,2.166669,-0.4608071,-0.1037035,0.02302137,-1.547665,-4.600542,-2.075039,0.4880058,1.337154,0.4354868,-1.7916,0.5474775,9.62,97.76,-0.1065659,0.01766724,0.07165814,-0.3549871,1.412164,0.9779776,0.7068382,1.511402,0.38008,-0.08580912,0.02922818,-0.04143329,-1.11212,0.2052406,0.1785711,0.8392929,1.504604,0.2099359,0.3274088,1.578232,0.3157673,318.7706,78.45215,165.7952,True
3,2.17778,-0.4374072,-0.08342718,0.0218423,-1.547541,-4.600244,-2.070971,0.4871867,1.337978,0.4354174,-1.785185,0.5768279,10.82,100,-0.110899,0.03374434,0.05794549,-0.353956,1.412988,0.9785442,0.7066275,1.511639,0.3798027,-0.07310382,0.04306889,-0.05008974,-1.112994,0.2064676,0.1783974,0.8392364,1.504602,0.2098708,0.3256492,1.578891,0.3153732,318.593,78.41612,165.7949,True
3,2.188891,-0.4182691,-0.06104124,0.01852813,-1.54764,-4.600128,-2.067021,0.4864272,1.338706,0.4354217,-1.777961,0.6498752,11.95,100,-0.1224896,0.05607145,0.06883515,-0.3521082,1.412287,0.9810216,0.7062956,1.511727,0.3795171,-0.07100733,0.04945236,-0.05437657,-1.113646,0.2073873,0.1786254,0.839139,1.504527,0.2098553,0.3237217,1.57936,0.3151089,318.3991,78.37083,165.8994,True
3,2.200002,-0.3874537,-0.0194771,0.01084689,-1.548659,-4.600874,-2.063861,0.4858101,1.339385,0.4352396,-1.769905,0.7252206,13.01,100,-0.1359099,0.09951028,0.1118083,-0.3485332,1.410617,0.9846307,0.7058384,1.511681,0.3793881,-0.07534848,0.05157389,-0.06286673,-1.114534,0.2082255,0.1793381,0.8390706,1.504482,0.2097874,0.3216249,1.579641,0.3149145,318.1812,78.31973,166.0281,True
3,2.211113,-0.370453,0.003949899,0.004329298,-1.549151,-4.601334,-2.060304,0.4850377,1.340003,0.4346194,-1.761239,0.779865,14,100,-0.1301841,0.1023726,0.1618502,-0.3457422,1.40394,0.9921513,0.7054901,1.511624,0.3791332,-0.06686212,0.04624294,-0.0671969,-1.115335,0.2087295,0.1795375,0.8389264,1.504457,0.2097561,0.3193167,1.57981,0.3147674,317.9228,78.28265,166.1026,True
3,2.222224,-0.3353993,0.05614287,-0.00979919,-1.550965,-4.602994,-2.057741,0.484354,1.340693,0.434448,-1.752762,0.7618773,15.13,100,-0.1333533,0.07461459,0.1723532,-0.3446024,1.398072,0.9992319,0.7052125,1.511659,0.3788865,-0.05303155,0.04624251,-0.06944809,-1.116073,0.2094155,0.1792696,0.8388215,1.504473,0.2098081,0.3168085,1.579857,0.3146811,317.6071,78.25278,166.1623,True
3,2.233335,-0.3279545,0.06464264,-0.01516954,-1.551544,-4.603603,-2.054402,0.4835748,1.34133,0.4340296,-1.742595,0.9161497,16.19,100,-0.1419225,0.05759681,0.1712361,-0.3437182,1.394252,1.004741,0.7048845,1.511595,0.3787813,-0.05831511,0.06329238,-0.06515027,-1.116332,0.2109387,0.1793692,0.8386346,1.504418,0.2098169,0.3140833,1.579777,0.3146545,317.2896,78.20734,166.3356,True
3,2.244446,-0.3109718,0.09334554,-0.03343226,-1.552893,-4.605455,-2.051561,0.4828988,1.341979,0.4338641,-1.733224,0.8417717,17.18,100,-0.1494345,0.07579589,0.1596921,-0.3418316,1.392912,1.007938,0.7045313,1.511614,0.3786001,-0.06359474,0.0792762,-0.05979044,-1.116531,0.2126071,0.1795354,0.8384851,1.504393,0.2097771,0.3110998,1.5796,0.3145905,316.9428,78.15173,166.5733,True
3,2.255557,-0.3056818,0.1103727,-0.03884962,-1.554112,-4.606748,-2.048232,0.4822308,1.342739,0.4339068,-1.721786,1.031169,18.11,100,-0.1451826,0.08540143,0.155446,-0.3399808,1.391466,1.010651,0.7041065,1.511661,0.378475,-0.06251957,0.07395197,-0.05979265,-1.117038,0.2133886,0.1796968,0.8382601,1.504417,0.2097218,0.3078484,1.579301,0.3145526,316.5423,78.13715,166.7167,True
3,2.266668,-0.2940187,0.1391246,-0.04539084,-1.556036,-4.608582,-2.045396,0.4816345,1.343386,0.4337041,-1.711136,0.9571982,19.39,100,-0.1368616,0.1068848,0.1246204,-0.3381277,1.393922,1.009505,0.7037162,1.511604,0.3783355,-0.04656798,0.03985921,-0.06309992,-1.118018,0.212734,0.179913,0.8380841,1.504462,0.2096934,0.3043652,1.578858,0.3144945,316.0547,78.09676,166.8945,True
3,2.277779,-0.2887707,0.1817586,-0.04454111,-1.558974,-4.6106,-2.042273,0.4810799,1.344094,0.4339762,-1.699227,1.072872,20.58,100,-0.1423794,0.1166481,0.09915403,-0.3366928,1.395787,1.009645,0.7033772,1.511583,0.3782091,-0.04225582,0.03879875,-0.05674661,-1.11838,0.2132835,0.180076,0.8379515,1.504438,0.2097213,0.3006958,1.578285,0.314487,315.4784,78.12853,166.9488,True
3,2.28889,-0.2899056,0.2211893,-0.04153974,-1.562149,-4.612577,-2.038928,0.4804453,1.344808,0.4342582,-1.687847,1.023238,21.7,100,-0.1509538,0.1039025,0.0959456,-0.3355551,1.394468,1.012867,0.7030234,1.511542,0.3780761,-0.0399491,0.04414243,-0.036532,-1.117994,0.2140247,0.1801253,0.8377692,1.504429,0.2097638,0.2968982,1.577654,0.3146021,314.8227,78.1319,167.0221,True
3,2.300001,-0.2995218,0.2371514,-0.04161381,-1.564789,-4.614429,-2.035258,0.4797766,1.345442,0.4341655,-1.675477,1.113948,22.74,100,-0.1616192,0.1039261,0.09496145,-0.3341527,1.393327,1.016151,0.7026643,1.511374,0.3779089,-0.02928782,0.05906189,-0.0355718,-1.118118,0.2154278,0.1794965,0.8375297,1.504392,0.2099159,0.293045,1.576966,0.3149049,314.1594,78.1189,167.1301,True
3,2.311112,-0.3176388,0.2403408,-0.03629191,-1.567186,-4.615807,-2.030987,0.4791134,1.346362,0.4348278,-1.662821,1.139172,23.72,100,-0.1338167,0.1155232,0.1054624,-0.3318661,1.392431,1.017573,0.7022595,1.511154,0.377867,-0.01759778,0.06118485,-0.03887488,-1.118614,0.2162812,0.1789162,0.8373296,1.504431,0.2100153,0.2891591,1.576299,0.3155328,313.491,78.07796,167.2324,True
3,2.322223,-0.3325474,0.2371181,-0.03626789,-1.569317,-4.617332,-2.026701,0.4784635,1.347096,0.4347687,-1.649876,1.165413,24.35,100,-0.1040764,0.09419038,0.0997643,-0.3310767,1.390585,1.019451,0.7020023,1.511035,0.3777986,-0.001572208,0.06331982,-0.03369061,-1.11871,0.2171964,0.1779708,0.8371373,1.50447,0.2100916,0.2852578,1.575704,0.3165182,312.8901,77.94023,167.5539,True
3,2.333334,-0.347453,0.2317789,-0.03090878,4.711892,-4.618432,-2.022282,0.4777862,1.347843,0.4347167,-1.636497,1.2047,24.94,100,-0.1009422,0.06861806,0.09851322,-0.3306874,1.387498,1.023476,0.7018355,1.511041,0.3775666,-0.0004565939,0.06119698,-0.0283794,-1.11884,0.2179337,0.1776246,0.8368965,1.504553,0.2101068,0.2813844,1.57517,0.3177455,312.3354,77.75037,168.0496,True
3,2.344445,-0.3740599,0.218969,-0.02656966,4.71013,-4.619402,-2.017226,0.4771241,1.348738,0.4347334,-1.623557,1.164186,25.49,100,-0.1095511,0.02709036,0.09831741,-0.3311593,1.382674,1.029554,0.701636,1.511029,0.3775234,-0.0004285499,0.05161195,-0.02517571,-1.118962,0.2182085,0.1774957,0.8367152,1.504607,0.2101331,0.277584,1.574756,0.3191387,311.7774,77.53203,168.5937,True
3,2.355556,-0.3889513,0.2051162,-0.0222288,4.708529,-4.620273,-2.012406,0.4764881,1.349484,0.4344599,-1.610441,1.180625,26,100,-0.1010966,0.01006057,0.09386617,-0.3311279,1.380336,1.03257,0.7014675,1.511057,0.3774722,0.008076849,0.04947998,-0.02631441,-1.11923,0.2188133,0.1769521,0.8365154,1.504702,0.210216,0.2739343,1.574381,0.3204959,311.3065,77.26462,169.3086,True
3,2.366668,-0.4112682,0.1763348,-0.0178122,4.707697,-4.620687,-2.007067,0.4758272,1.350544,0.4344935,-1.596701,1.237353,26.4,100,-0.08070659,0.01736817,0.1107968,-0.3297952,1.376316,1.036591,0.7014182,1.511109,0.3773685,0.01550565,0.04308554,-0.02957028,-1.119627,0.2191425,0.1763745,0.8363519,1.504757,0.2102468,0.2704476,1.574021,0.3216344,310.8838,76.99164,169.9984,True
3,2.377779,-0.4324985,0.134767,-0.0143938,4.707504,-4.620757,-2.001608,0.475247,1.351786,0.4344459,-1.583691,1.170194,26.77,100,-0.07081335,0.03417564,0.1449047,-0.3277158,1.37083,1.042252,0.7014112,1.511144,0.3773563,0.02400207,0.0377531,-0.03284077,-1.120119,0.2194623,0.1756618,0.836277,1.504764,0.2103069,0.2671111,1.573715,0.3224299,310.4639,76.7489,170.5641,True
3,2.38889,-0.4356658,0.1198631,-0.01112213,4.706746,-4.621111,-1.996626,0.4745987,1.352886,0.4344523,-1.570065,1.227126,27.12,100,-0.0631381,0.04145502,0.1704585,-0.3257083,1.364463,1.04875,0.7014318,1.511218,0.3772731,0.02499585,0.02389169,-0.04136079,-1.120906,0.2193071,0.1754107,0.8361114,1.504841,0.2103374,0.2639378,1.573411,0.3228037,310.0577,76.56378,170.9626,True
3,2.400001,-0.464361,0.07933891,-0.009840496,4.707141,-4.621049,-1.990379,0.4741004,1.354298,0.4344356,-1.556806,1.19319,27.45,100,-0.07041194,0.03279392,0.1949724,-0.3241376,1.356046,1.057679,0.7016292,1.511351,0.3771794,0.03033156,0.01217432,-0.0403325,-1.121366,0.2191124,0.1749833,0.8360004,1.504905,0.2103372,0.2608718,1.573225,0.3227512,309.5914,76.44775,171.1385,True
3,2.411112,-0.4803094,0.06014031,-0.008673619,4.707046,-4.621161,-1.984427,0.4735994,1.355589,0.4345725,-1.544212,1.132775,27.76,100,-0.08628828,0.01674196,0.2120398,-0.3230526,1.347407,1.06742,0.7016978,1.511561,0.3770733,0.04955914,-0.002746388,-0.03410343,-1.121607,0.2187268,0.174118,0.8358506,1.504986,0.210362,0.2579336,1.573174,0.3223174,309.1076,76.40812,171.1234,True
3,2.422223,-0.5047513,0.02707776,-0.007430613,4.707842,-4.620842,-1.977905,0.4731005,1.3572,0.434654,-1.529975,1.283354,28.01,100,-0.08997443,0.01734802,0.2845111,-0.3202899,1.331792,1.083443,0.7019377,1.51169,0.3769977,0.06130302,-0.005930722,-0.03099968,-1.121857,0.218396,0.1730964,0.8357435,1.505001,0.2103741,0.2551287,1.573179,0.3216446,308.6688,76.40829,170.9738,True
3,2.433334,-0.5377128,-0.003904343,-0.01151848,4.70895,-4.620599,-1.971031,0.4726597,1.358781,0.4347367,-1.517155,1.152598,28.24,100,-0.06837294,0.02666979,0.3195558,-0.3174978,1.319401,1.0952,0.7021605,1.511897,0.3768938,0.06451599,-0.006993465,-0.02889692,-1.122145,0.218394,0.1723606,0.8355936,1.505008,0.2103398,0.2524465,1.573299,0.3208305,308.1907,76.44009,170.7603,True
3,2.444445,-0.5685695,-0.0231134,-0.007145029,4.709778,-4.620171,-1.963604,0.4722737,1.360441,0.4348435,-1.503698,1.211977,28.46,100,-0.03827135,0.03705785,0.3513405,-0.3145822,1.306603,1.1067,0.7024944,1.512071,0.3768189,0.06659982,-0.0155203,-0.03423478,-1.122772,0.218012,0.171715,0.8355025,1.505031,0.2103076,0.2499062,1.573519,0.3200257,307.7385,76.4915,170.5058,True
3,2.455556,-0.5994651,-0.02206755,0.0003204681,4.70978,-4.619928,-1.955981,0.4719255,1.362098,0.4352281,-1.490398,1.197241,28.66,100,-0.03280404,0.03373225,0.3693898,-0.3123409,1.293291,1.119546,0.702965,1.512162,0.3767893,0.07717098,-0.04003487,-0.04389411,-1.123794,0.2167183,0.1710799,0.8353683,1.505099,0.2103467,0.2474706,1.573923,0.3192842,307.3042,76.52582,170.3281,True
3,2.466667,-0.6186774,-0.002948221,-0.004025696,4.709276,-4.620325,-1.948498,0.4716148,1.363718,0.4353771,-1.47697,1.208966,28.85,100,-0.03278834,0.009172738,0.3788251,-0.3110354,1.27901,1.133632,0.7035155,1.512357,0.3766997,0.1048677,-0.05068783,-0.04412835,-1.12443,0.2157925,0.1693725,0.8353204,1.505099,0.2103286,0.2451806,1.574476,0.3186423,306.9066,76.56682,170.1927,True
3,2.477778,-0.6623712,0.009818316,0.00871844,4.708538,-4.620051,-1.93985,0.4715372,1.365435,0.4355395,-1.464042,1.163424,28.87,100,-0.0349232,-0.008950889,0.3829838,-0.3098353,1.265494,1.14701,0.7041286,1.512484,0.3767097,0.1165028,-0.06241244,-0.05273953,-1.12537,0.2148251,0.1681768,0.8353578,1.505193,0.2102957,0.2430545,1.575206,0.3181523,306.5231,76.58858,170.0564,True
3,2.488889,-0.6836874,0.01619283,0.01082712,4.70811,-4.62009,-1.93173,0.4713523,1.367135,0.4356177,-1.45162,1.117657,28.89,100,-0.02726582,-0.05074084,0.4188802,-0.3093336,1.2454,1.166154,0.7049891,1.512626,0.3766909,0.1166355,-0.07198764,-0.03781588,-1.125398,0.2136071,0.167458,0.8354403,1.505231,0.2102854,0.2411011,1.576123,0.3179241,306.1902,76.58246,169.9327,True
3,2.5,-0.7071521,0.03213472,0.01182592,4.707236,-4.620235,-1.923188,0.4712608,1.36897,0.4357288,-1.438057,1.222445,28.91,100,-0.02507833,-0.06039569,0.4283904,-0.308254,1.229053,1.181931,0.7056637,1.512728,0.3766692,0.1273912,-0.07836941,-0.02618628,-1.125443,0.2124269,0.1662137,0.8354816,1.505168,0.2101941,0.2393123,1.577199,0.3180056,305.9299,76.5109,169.9662,True
3,2.511111,-0.7199572,0.0384903,0.0096661,4.706717,-4.620454,-1.914697,0.4711651,1.370898,0.435854,-1.426149,1.070114,28.93,100,-0.01219267,-0.0647698,0.4421088,-0.3070582,1.211701,1.198141,0.7065691,1.512911,0.3766079,0.1337104,-0.09542324,-0.0347478,-1.126406,0.2107289,0.1651927,0.8354665,1.505143,0.2100887,0.2377114,1.578461,0.3183505,305.6826,76.33506,170.2235,True
3,2.522222,-0.7487146,0.0363235,0.01288803,4.706279,-4.620335,-1.905375,0.4712487,1.372977,0.4360347,-1.413561,1.133953,29.1,100,-0.00451237,-0.07564431,0.4739324,-0.3059663,1.191154,1.217582,0.7075499,1.513165,0.3765347,0.154947,-0.130579,-0.04235504,-1.127476,0.2080477,0.1639668,0.8355762,1.505052,0.2099476,0.2362711,1.579901,0.3188502,305.5301,76.17843,170.5474,True
3,2.533333,-0.7731873,0.01923984,0.01299379,4.706481,-4.620061,-1.896139,0.4713126,1.374931,0.4361012,-1.401384,1.095571,29.26,100,-0.0001156926,-0.09283996,0.4961629,-0.305357,1.169764,1.23791,0.7084619,1.513372,0.3764665,0.1591813,-0.1444338,-0.0455744,-1.128358,0.205958,0.1629868,0.8355975,1.504979,0.2098475,0.2349419,1.581533,0.3194226,305.4102,76.02267,170.8699,True
3,2.544444,-0.7880776,0.005353481,0.01094054,4.706824,-4.61988,-1.886941,0.4713334,1.376897,0.4363,-1.388444,1.16575,29.41,100,0.01079845,-0.1197492,0.5363915,-0.3051439,1.144436,1.261589,0.7096052,1.513694,0.3762956,0.1590879,-0.162553,-0.05621158,-1.129737,0.2034844,0.1622917,0.8357563,1.504843,0.2096694,0.2337042,1.583325,0.3199888,305.3012,75.88258,171.1591,True
3,2.555555,-0.8157455,-0.009619057,0.009963103,4.707375,-4.61963,-1.877134,0.4713652,1.378866,0.4364908,-1.376392,1.084001,29.55,100,0.02062809,-0.1434432,0.573441,-0.3052313,1.118373,1.285871,0.7106239,1.513837,0.3761623,0.1600798,-0.1828002,-0.06472285,-1.131065,0.2007942,0.161627,0.8358926,1.504683,0.209537,0.2326009,1.585243,0.3204705,305.1658,75.73537,171.4496,True
3,2.566666,-0.8200074,-0.01179985,0.001453489,4.707655,-4.619816,-1.867947,0.4713514,1.380857,0.4367871,-1.364432,1.076391,29.68,100,0.02190042,-0.1489542,0.6021634,-0.3049277,1.092498,1.310392,0.7115278,1.514077,0.3760388,0.1578464,-0.1977244,-0.07640918,-1.132713,0.1980703,0.1611207,0.8360436,1.504552,0.2093439,0.2316759,1.587186,0.3207733,305.0879,75.65341,171.6603,True
3,2.577777,-0.8274375,-0.0278096,-0.001663264,4.70846,-4.619666,-1.858603,0.4713441,1.38303,0.4375119,-1.351843,1.133864,29.76,100,0.01775402,-0.1148818,0.6066823,-0.3033447,1.069969,1.3318,0.7124897,1.514346,0.3759081,0.1491895,-0.1966704,-0.09232189,-1.134688,0.1961183,0.1605314,0.8362219,1.504419,0.2091918,0.2308778,1.589114,0.3208653,305.054,75.64425,171.7074,True
3,2.588888,-0.8338118,-0.03848971,-0.004802736,4.709291,-4.619582,-1.849172,0.4713231,1.385106,0.4378357,-1.340426,1.026289,29.84,100,0.02295351,-0.08598107,0.5833886,-0.302044,1.051295,1.349235,0.7133992,1.514545,0.3757606,0.1460967,-0.1987907,-0.0805741,-1.135509,0.1937877,0.1600091,0.8363299,1.504294,0.2089922,0.2301297,1.591052,0.3207616,305.002,75.68555,171.6063,True
3,2.599999,-0.8380358,-0.06093152,-0.01533785,4.710827,-4.619601,-1.839772,0.4713742,1.387426,0.4384696,-1.328361,1.086489,29.92,100,0.02612871,-0.07210618,0.5770565,-0.3012195,1.030734,1.368439,0.7142252,1.514768,0.3756642,0.1430911,-0.2115566,-0.05923036,-1.135896,0.1907309,0.1597447,0.8364752,1.504219,0.2087715,0.2293559,1.593,0.3205704,304.925,75.80649,171.3083,True
3,2.61111,-0.8327249,-0.05884837,-0.02386074,4.711512,-4.619781,-1.830701,0.4716017,1.389529,0.4388363,-1.316264,1.088708,29.98,100,0.02714548,-0.07633698,0.5716954,-0.3010565,1.009608,1.388261,0.7151622,1.514993,0.3755479,0.1293196,-0.2051601,-0.05059259,-1.136509,0.1885218,0.1596752,0.8367279,1.504081,0.2085834,0.2285073,1.594962,0.3204166,304.8034,75.9304,170.9776,True
3,2.622221,-0.8199912,-0.04186675,-0.03886718,4.711766,-4.620634,-1.821881,0.4719377,1.391729,0.4390383,-1.304298,1.076832,30.04,100,0.03247815,-0.08595154,0.5737225,-0.3013047,0.9876018,1.408688,0.716136,1.515309,0.3754654,0.1113659,-0.1848967,-0.03234226,-1.136482,0.1871572,0.1596613,0.8369367,1.504023,0.2083409,0.227575,1.596925,0.3203292,304.6575,76.02204,170.7755,True
3,2.633332,-0.8104202,-0.03333788,-0.04104532,4.711972,-4.62113,-1.813263,0.4720816,1.39384,0.4392917,-1.292634,1.049332,30.1,100,0.02819467,-0.09233391,0.5737202,-0.3015763,0.9656529,1.429563,0.7170774,1.515536,0.3753004,0.1017262,-0.1912829,-0.03758422,-1.137523,0.1848963,0.1598211,0.837077,1.503836,0.2080927,0.226604,1.598873,0.3203399,304.4558,76.13232,170.6103,True
3,2.644443,-0.7891497,-0.01522345,-0.045394,4.711755,-4.621665,-1.80521,0.472351,1.396125,0.4395802,-1.280897,1.05623,30.16,100,0.003748596,-0.09978563,0.581327,-0.3020397,0.9426314,1.452251,0.7180381,1.515882,0.3750861,0.1026606,-0.2083403,-0.05249272,-1.13905,0.1819256,0.1598925,0.8372734,1.503678,0.2078757,0.225683,1.600735,0.3204675,304.2451,76.17635,170.579,True
3,2.655554,-0.7795395,-0.02908038,-0.05065694,-1.570541,-4.622214,-1.796829,0.4724524,1.398391,0.4398487,-1.269067,1.064644,30.22,100,-0.009913862,-0.09564453,0.6049014,-0.3021202,0.9168712,1.477563,0.7189078,1.516221,0.3748729,0.1004072,-0.2136648,-0.06632505,-1.140697,0.1795769,0.159791,0.8376787,1.503592,0.2076769,0.2247726,1.602562,0.3207117,304.0565,76.20429,170.6105,True
3,2.666665,-0.7699027,-0.06216032,-0.06328004,-1.568542,-4.622812,-1.788374,0.4726062,1.400731,0.4402063,-1.257554,1.035435,30.26,100,-0.02659494,-0.0724203,0.6435419,-0.3014709,0.8877026,1.506206,0.7199184,1.516496,0.3744559,0.08866123,-0.2094065,-0.06942135,-1.141927,0.1773467,0.160121,0.837908,1.503446,0.2074537,0.2238132,1.604385,0.3210546,303.8934,76.18443,170.6867,True
3,2.677776,-0.7559949,-0.09842277,-0.0769568,-1.566114,-4.623584,-1.780303,0.4726113,1.403118,0.4404912,-1.245165,1.115886,30.47,100,-0.0264861,-0.06077307,0.6542659,-0.3013782,0.8620786,1.530923,0.7207187,1.516804,0.3741527,0.06412429,-0.1955409,-0.07348567,-1.14315,0.1760413,0.160786,0.8381311,1.503272,0.207238,0.2227694,1.606219,0.3214704,303.7321,76.14088,170.8072,True
3,2.688887,-0.7463487,-0.1346645,-0.08637457,-1.563371,-4.624334,-1.772153,0.472667,1.405585,0.4407969,-1.232941,1.100013,30.67,100,-0.04553568,-0.03842601,0.6641468,-0.3008919,0.8360106,1.55692,0.7212418,1.517123,0.3738365,0.04812267,-0.1912787,-0.07548469,-1.14444,0.1740978,0.1616102,0.8383102,1.503172,0.2070329,0.2216178,1.608037,0.3218741,303.5703,76.171,170.9092,True
3,2.699998,-0.7228183,-0.1933334,-0.1105981,-1.55896,-4.62549,-1.764799,0.4725672,1.408131,0.4410393,-1.221223,1.054059,30.85,100,-0.07348064,-0.0296582,0.630325,-0.3011902,0.8160413,1.577582,0.7216984,1.517437,0.3735666,0.02578616,-0.1763419,-0.07211256,-1.145423,0.1729069,0.1624299,0.838472,1.50306,0.2068493,0.2203897,1.60981,0.322175,303.3766,76.31062,170.9215,True
3,2.711109,-0.7067554,-0.2444755,-0.1199445,-1.554401,-4.62633,-1.757422,0.4725887,1.410578,0.4409256,-1.209092,1.09217,31.02,100,-0.08110747,-0.02310348,0.6069904,-0.3013841,0.795791,1.598038,0.7222543,1.517714,0.3732915,0.01311926,-0.1528898,-0.05817586,-1.145817,0.1720051,0.1630923,0.8386728,1.502959,0.2066476,0.2190744,1.611539,0.3223054,303.1654,76.51146,170.8431,True
3,2.72222,-0.6810744,-0.3137772,-0.1409213,-1.548093,-4.627482,-1.750731,0.4724585,1.413099,0.4411016,-1.197764,1.018303,31.34,100,-0.09626579,-0.02074194,0.5751646,-0.3017798,0.7778456,1.616654,0.7226857,1.518189,0.3729713,0.001455843,-0.1358201,-0.05276749,-1.14641,0.1713399,0.1635732,0.8389002,1.50282,0.2064347,0.2176882,1.613218,0.322226,302.9198,76.76918,170.6782,True
3,2.733331,-0.6543477,-0.3724089,-0.1576902,-1.541791,-4.628605,-1.744196,0.4723968,1.415487,0.4413083,-1.185674,1.088602,31.64,100,-0.1071698,-0.03332475,0.5464098,-0.3029101,0.7602727,1.634882,0.7229952,1.518542,0.3726599,-0.01875854,-0.135791,-0.05047068,-1.147259,0.1701649,0.1647791,0.8390778,1.502637,0.2062256,0.2162391,1.614778,0.3218707,302.6986,77.15154,170.4074,True
3,2.744442,-0.6276676,-0.4075678,-0.1692474,-1.535981,-4.629866,-1.737867,0.4723086,1.417843,0.4416003,-1.174176,1.033905,31.92,100,-0.1200835,-0.03639832,0.5305105,-0.3038725,0.7425015,1.653557,0.7233287,1.518946,0.3723719,-0.04017641,-0.1294104,-0.06307149,-1.148556,0.1690549,0.1664004,0.839317,1.502501,0.2059977,0.2147701,1.616133,0.3211687,302.4569,77.59059,170.0608,True
3,2.755553,-0.5892988,-0.4181553,-0.1702818,-1.530716,-4.630928,-1.732543,0.4720903,1.419974,0.4418244,-1.162192,1.078791,32.18,100,-0.1255348,-0.0352205,0.5135245,-0.3047498,0.7249014,1.671824,0.7234627,1.519442,0.3719866,-0.06055477,-0.1166337,-0.07675158,-1.149998,0.1684127,0.1681632,0.8394673,1.502252,0.2057681,0.2132585,1.617223,0.3201215,302.1966,78.2285,169.3955,True
3,2.766664,-0.5658898,-0.4085038,-0.1671517,-1.526367,-4.632065,-1.726777,0.4719746,1.422056,0.441839,-1.150182,1.080654,32.43,100,-0.1458808,0.006524414,0.4894499,-0.3038177,0.708946,1.689348,0.7236043,1.519808,0.3716123,-0.0745066,-0.1049253,-0.08835708,-1.151487,0.167821,0.1697081,0.8396558,1.502113,0.2055984,0.2116945,1.618013,0.318833,301.8685,78.94118,168.5038,True
3,2.777775,-0.5329455,-0.3582811,-0.1482429,-1.523878,-4.632756,-1.721885,0.4716288,1.42393,0.44209,-1.13894,1.010509,32.66,100,-0.1499419,0.07572567,0.4963129,-0.3015535,0.6885827,1.710575,0.7237806,1.52022,0.3711855,-0.08414499,-0.07298282,-0.0946916,-1.152719,0.1682038,0.1706974,0.8397359,1.501933,0.2055066,0.2100137,1.618566,0.3174751,301.483,79.64269,167.5293,True
3,2.788886,-0.5191397,-0.3369142,-0.1430362,-1.520635,-4.633822,-1.716269,0.4714403,1.425987,0.4424734,-1.126321,1.137013,32.88,100,-0.1444476,0.1129173,0.5092945,-0.3000541,0.6667426,1.733005,0.7240036,1.520496,0.3707964,-0.07333934,-0.04633958,-0.07776014,-1.152886,0.1686094,0.1709089,0.8397111,1.501869,0.2054112,0.208175,1.618872,0.3162016,301.0971,80.24319,166.6786,True
3,2.799997,-0.5021334,-0.3134097,-0.1357053,-1.517797,-4.634681,-1.711228,0.471284,1.427792,0.4425666,-1.114824,1.03322,33.08,100,-0.1443635,0.1032564,0.5209535,-0.3004419,0.645844,1.754453,0.7242229,1.520819,0.3704989,-0.0729481,-0.02500193,-0.03304052,-1.151781,0.1687531,0.1716503,0.8397524,1.501914,0.2053759,0.2061369,1.619014,0.3151264,300.6331,80.71906,165.9984,True
3,2.811108,-0.4861982,-0.2920838,-0.1358113,-1.514912,-4.635767,-1.7062,0.471204,1.429574,0.4422989,-1.101929,1.162068,33.27,100,-0.1400867,0.06374529,0.5323905,-0.3024035,0.6255511,1.775158,0.7244356,1.521164,0.3701301,-0.08546041,-0.001543101,-0.002066275,-1.150877,0.1693023,0.1728029,0.8398728,1.501912,0.2052524,0.2038901,1.619038,0.3143975,300.1316,81.06543,165.4625,True
3,2.822219,-0.4649624,-0.2547871,-0.1413344,-1.513138,-4.637333,-1.701689,0.471098,1.431239,0.4422605,-1.090285,1.046703,33.45,100,-0.1372896,0.01177227,0.4958134,-0.3048872,0.6124617,1.789059,0.7245684,1.521478,0.3698323,-0.08440617,0.01123808,-0.003149835,-1.150848,0.169851,0.1735196,0.839923,1.501885,0.2051094,0.2015094,1.619013,0.3140669,299.5405,81.40963,165.0769,True
3,2.83333,-0.4352276,-0.204664,-0.1394607,-1.512208,-4.638592,-1.697664,0.4710215,1.43281,0.4422152,-1.078388,1.071008,33.37,100,-0.1419057,-0.006089434,0.4552599,-0.3064164,0.6008149,1.801826,0.7246721,1.521789,0.3695116,-0.08665563,0.006961748,-0.01697172,-1.151544,0.1697878,0.1744858,0.8401343,1.501769,0.2050366,0.1991441,1.618923,0.3140648,298.9761,81.66428,165.008,True
3,2.844441,-0.4224701,-0.1865133,-0.1342296,-1.510434,-4.639649,-1.693319,0.4708251,1.434481,0.4420912,-1.067051,1.019605,33.29,100,-0.1507067,-0.0133166,0.4222576,-0.3076537,0.5900148,1.814107,0.7246916,1.522097,0.3692117,-0.09215984,-0.002642736,-0.03715675,-1.152685,0.1696363,0.1757396,0.8402671,1.501745,0.2049584,0.1968575,1.618809,0.3142334,298.4517,81.86481,165.1121,True
3,2.855552,-0.4150317,-0.1725915,-0.1225859,-1.508899,-4.640464,-1.688952,0.4706416,1.436015,0.4420779,-1.055765,1.015491,33.23,100,-0.162531,-0.003611043,0.4075096,-0.3083642,0.5761272,1.829632,0.7246332,1.522575,0.3689184,-0.1008127,-0.0005277246,-0.05199414,-1.153625,0.1698133,0.1770853,0.8403929,1.501725,0.2048047,0.1946761,1.618683,0.3145315,297.9838,82.03176,165.1684,True
3,2.866663,-0.4086545,-0.1672566,-0.1226178,-1.506875,-4.641613,-1.684446,0.4704642,1.437544,0.4417052,-1.043738,1.083233,33.17,98.77,-0.1721273,0.01028019,0.4044809,-0.3089858,0.5614366,1.846007,0.7246587,1.522985,0.3685591,-0.106111,0.004801266,-0.04875587,-1.15401,0.1701524,0.1783122,0.8404851,1.501705,0.2047114,0.1925718,1.618557,0.3149151,297.5735,82.08604,165.2981,True
3,2.877774,-0.3958929,-0.1522884,-0.1152367,-1.505604,-4.642478,-1.680449,0.4702519,1.438984,0.4415729,-1.032013,1.055038,32.78,97.02,-0.1763134,0.02621974,0.4078128,-0.3096617,0.5462895,1.862261,0.7245357,1.523161,0.3681016,-0.1028543,0.01439284,-0.04133639,-1.154094,0.1707161,0.1791255,0.840542,1.50173,0.2045386,0.191298,1.618689,0.3152463,297.1855,81.36742,165.8281,True
3,2.888885,-0.3799445,-0.1309172,-0.1078965,-1.504711,-4.643364,-1.676735,0.4699878,1.440466,0.4414597,-1.020351,1.049793,32.42,95.39,-0.1890925,0.02623367,0.4100474,-0.3107792,0.5313622,1.879123,0.7245148,1.523442,0.3677211,-0.09847832,0.0101394,-0.02858625,-1.15399,0.1706042,0.1800691,0.8404855,1.50183,0.2044544,0.1905627,1.61912,0.3153949,297.1965,80.95152,166.1655,True
3,2.899997,-0.3671942,-0.1095391,-0.09842359,-1.504114,-4.644119,-1.673006,0.4697056,1.441834,0.4412341,-1.009363,0.9881512,32.08,93.86,-0.2018093,0.02514952,0.4165527,-0.3121534,0.5154625,1.896766,0.7245239,1.523698,0.3673167,-0.0791042,0.03146952,-0.005337637,-1.153135,0.171629,0.1800206,0.8405049,1.50186,0.2044003,0.1897163,1.62002,0.3152707,297.5204,80.90357,166.2927,True
3,2.911108,-0.3544621,-0.08501531,-0.09642329,-1.503607,-4.645104,-1.669255,0.469496,1.442857,0.4401031,-0.9982657,0.9986169,31.77,92.43,-0.2019477,0.01885614,0.4015988,-0.3134551,0.5031394,1.910808,0.7244982,1.523933,0.3669765,-0.07374908,0.04638433,-0.002203895,-1.152915,0.1727049,0.1802063,0.8405545,1.501877,0.2043536,0.1883941,1.620968,0.3149504,297.7798,81.1757,166.0936,True
3,2.922219,-0.3608875,-0.06796785,-0.09437134,-1.503323,-4.646094,-1.664908,0.4692655,1.444127,0.4398129,-0.9868605,1.026737,31.48,91.09,-0.1968106,0.006205842,0.3791144,-0.314995,0.4926207,1.922667,0.7244806,1.524109,0.3667467,-0.06952941,0.05277814,-0.006509487,-1.153068,0.1737622,0.1804952,0.8405604,1.501923,0.2042911,0.1869789,1.621803,0.3146683,297.8992,81.31392,165.9304,True
3,2.93333,-0.3811592,-0.04449001,-0.07956527,-1.503603,-4.646591,-1.659958,0.4689459,1.445272,0.4396608,-0.9754786,1.024373,30.88,88.96,-0.1882513,-0.006665915,0.3864245,-0.3172507,0.4793544,1.936993,0.7244064,1.524203,0.366396,-0.07162289,0.05171657,-0.002230666,-1.152899,0.1743086,0.1811762,0.8405602,1.501993,0.2042248,0.1857359,1.62251,0.3144316,298.0303,81.01965,166.2094,True
3,2.944441,-0.4099353,-0.02743101,-0.05620287,-1.503007,-4.646426,-1.654505,0.4687318,1.44624,0.4388096,-0.9635764,1.071996,30.31,86.97,-0.1788532,-0.02146471,0.366012,-0.3191463,0.4699449,1.94757,0.7242879,1.524419,0.3660655,-0.06425993,0.04745545,-0.01294459,-1.153265,0.1748774,0.1814089,0.8404822,1.502082,0.2041018,0.1847365,1.62303,0.3140815,298.1866,80.64536,166.6074,True
3,2.955552,-0.4312507,-0.01998296,-0.04983202,-1.503025,-4.64675,-1.64893,0.4684433,1.447366,0.4385667,-0.9516715,1.071941,29.78,85.1,-0.1790148,-0.03311438,0.3499593,-0.3213738,0.4610874,1.958034,0.7240279,1.524695,0.3656723,-0.06539004,0.05491732,-0.02040219,-1.153638,0.1760864,0.1816795,0.8403727,1.502181,0.2040532,0.183909,1.623505,0.3136887,298.2632,80.53846,166.5572,True
3,2.966663,-0.4450935,-0.02752185,-0.0615053,-1.502381,-4.647761,-1.643391,0.4681615,1.448538,0.4383421,-0.9399659,1.053851,29.29,83.35,-0.1727025,-0.01812302,0.3361574,-0.3222787,0.4511836,1.969122,0.7238746,1.524857,0.3654361,-0.05887565,0.07410253,-0.006623123,-1.152951,0.1775584,0.1814968,0.8403113,1.502285,0.2040582,0.1830638,1.62402,0.3133011,298.3069,80.26554,166.6495,True
3,2.977774,-0.4471776,-0.05198929,-0.05499053,-1.500992,-4.648188,-1.638408,0.4678056,1.449803,0.4380965,-0.9288185,1.00304,28.58,82.52,-0.1569845,-0.004066862,0.2988405,-0.322691,0.4445613,1.976529,0.7237657,1.525024,0.3652787,-0.04808424,0.08584392,0.009246957,-1.152116,0.1790407,0.1810957,0.8402438,1.502361,0.2042363,0.1823257,1.624561,0.312735,298.238,79.96338,166.7871,True
3,2.988885,-0.4546131,-0.07019718,-0.07194016,-1.499501,-4.649459,-1.632997,0.4675616,1.451033,0.4377353,-0.9179314,0.9796458,27.93,81.75,-0.153993,0.002491362,0.2722281,-0.3233259,0.4381019,1.984338,0.7236642,1.525092,0.3651042,-0.04585168,0.09224618,0.02093975,-1.1513,0.1802646,0.1810515,0.8401599,1.502449,0.2043309,0.1814368,1.625219,0.3120663,298.3305,79.98613,166.6401,True
3,2.999996,-0.4674075,-0.07029314,-0.0868414,-1.498673,-4.650792,-1.627293,0.4673586,1.452246,0.437434,-0.9088378,0.8177248,27.32,81.02,-0.1551197,-0.02625972,0.2699296,-0.3257983,0.430951,1.992724,0.7235518,1.525263,0.3650665,-0.04265583,0.09445033,0.01981869,-1.151161,0.1826301,0.180324,0.8405819,1.50291,0.2043135,0.1806351,1.625957,0.3113827,298.1043,80.06171,166.1984,False
3,3.011107,-0.4769797,-0.08203045,-0.08677274,-1.497352,-4.651697,-1.621545,0.4671501,1.453462,0.4373596,-0.900223,0.7761633,26.75,80.34,-0.1510095,-0.06349581,0.2590035,-0.3287193,0.4260711,1.998712,0.7233287,1.525242,0.3648469,-0.03208688,0.09763901,0.01013321,-1.151209,0.183944,0.1797322,0.8404268,1.503089,0.2044449,0.1796817,1.626818,0.3106062,298.1779,80.26591,165.8631,False
3,3.022218,-0.4716561,-0.06692214,-0.04956573,-1.497184,-4.650959,-1.616625,0.466729,1.45465,0.4373949,-0.8927726,0.6707155,26.21,79.71,-0.1436263,-0.07838976,0.25352,-0.3310565,0.4205441,2.005257,0.723194,1.525313,0.3647356,-0.03227693,0.117909,-0.01225247,-1.151637,0.1870165,0.1787522,0.8402933,1.50296,0.204396,0.1788486,1.627682,0.3098309,297.8683,80.41523,165.4157,False
3,3.033329,-0.4876655,-0.0380173,-0.01562206,-1.497819,-4.650052,-1.610794,0.4662345,1.455829,0.4374547,-0.8865865,0.5566821,25.42,78.71,-0.1223863,-0.0762555,0.2448307,-0.3327076,0.4151312,2.010988,0.7229173,1.525465,0.3646736,-0.03870311,0.1328811,-0.01435949,-1.151652,0.1901406,0.1783721,0.8402836,1.502814,0.2043951,0.1779496,1.628629,0.3090443,297.7256,80.66052,165.0132,False
3,3.04444,-0.4994096,-0.0220417,-0.01250759,-1.498118,-4.650191,-1.604841,0.4657922,1.456955,0.4374933,-0.8820672,0.4056706,24.68,77.78,-0.1086382,-0.07940224,0.2329812,-0.3345335,0.4104232,2.016151,0.7227994,1.525604,0.3646052,-0.033338,0.1233065,-0.009080602,-1.151468,0.1914026,0.1781735,0.8401936,1.50287,0.2044501,0.1773906,1.629337,0.3085363,297.06,81.27621,164.2194,False
3,3.055551,-0.5196849,0.003588475,0.008680772,-1.499003,-4.649514,-1.598414,0.4654187,1.457963,0.437654,-0.8767355,0.4816182,23.99,76.91,-0.09700662,-0.08576278,0.2232489,-0.3365335,0.4064703,2.020538,0.7226679,1.525572,0.3645,-0.02696759,0.1083821,-0.01126393,-1.151674,0.1920282,0.1780398,0.83996,1.502802,0.2046344,0.1769247,1.629935,0.3082237,296.4881,81.66601,163.7897,False
3,3.066662,-0.5335221,0.001497008,0.02148216,-1.499008,-4.648804,-1.592073,0.4651213,1.459271,0.4376078,-0.8727632,0.3569582,23.34,76.09,-0.09277838,-0.09748232,0.2220724,-0.3389299,0.4019127,2.025709,0.722589,1.525683,0.3643961,-0.02282051,0.08387372,-0.02406934,-1.152394,0.1923246,0.1780494,0.839794,1.502871,0.2046473,0.1762927,1.630689,0.3079216,295.963,81.0117,164.2709,False
3,3.077773,-0.5271095,-0.01451518,0.0141021,-1.498203,-4.648842,-1.586484,0.4649831,1.460568,0.4376755,-0.8690006,0.3393022,22.73,75.32,-0.09371974,-0.1242593,0.2432103,-0.3425858,0.3956828,2.032565,0.7225956,1.525678,0.3642256,-0.0218075,0.07643551,-0.03046159,-1.152717,0.1934933,0.1777426,0.8396881,1.502895,0.2048006,0.1755095,1.631498,0.3076112,295.3805,80.21119,164.8102,False
3,3.088884,-0.5185208,-0.05179517,0.01215041,-1.496384,-4.648757,-1.58104,0.4647788,1.46208,0.437608,-0.8663018,0.2424553,22.04,74.02,-0.1052503,-0.1340011,0.2698743,-0.3460277,0.3876404,2.041765,0.7225411,1.525708,0.3640521,-0.009006072,0.07856739,-0.02844767,-1.152802,0.1945588,0.1769633,0.8395336,1.502953,0.2048936,0.1744924,1.632619,0.3072556,295.1775,79.99397,164.938,False
3,3.099995,-0.5131093,-0.1008125,0.007058106,-1.493638,-4.648863,-1.575556,0.4644703,1.463519,0.4375257,-0.8647763,0.136184,21.39,72.8,-0.1082824,-0.1255811,0.2859474,-0.3487377,0.3789297,2.051065,0.7225159,1.525865,0.3639004,-0.01102281,0.08605965,-0.01564225,-1.152108,0.1962071,0.1764576,0.8394535,1.503122,0.2050476,0.1729182,1.634168,0.3068067,295.0701,80.18136,164.9449,False
3,3.111106,-0.5141442,-0.1221892,-0.006683771,-1.49155,-4.649388,-1.569774,0.4641723,1.464958,0.4373984,-0.8629398,0.1656514,20.78,71.66,-0.1081297,-0.119308,0.304098,-0.3515218,0.3699586,2.06077,0.722382,1.526154,0.3637061,-0.02040306,0.1073804,0.007858135,-1.150919,0.1980811,0.1762597,0.8393344,1.503204,0.2052066,0.170346,1.635461,0.3070394,294.9192,84.06435,162.5064,False
3,3.122217,-0.5141636,-0.1169386,-0.02269513,-1.490543,-4.650242,-1.563947,0.4637725,1.46635,0.4372454,-0.8611118,0.1646625,20.21,70.6,-0.1166003,-0.121466,0.3094773,-0.3545711,0.3628032,2.068878,0.722167,1.526281,0.3634312,-0.03522238,0.1126997,0.01864358,-1.150047,0.1992674,0.1766584,0.8390716,1.503075,0.2052786,0.1682443,1.636519,0.3077397,294.2409,84.94536,162.3974,False
3,3.133328,-0.5163572,-0.08610673,-0.03456503,-1.490702,-4.651067,-1.558025,0.4634561,1.467705,0.437072,-0.8592774,0.1654254,19.44,69.38,-0.1337138,-0.1021818,0.2980014,-0.356242,0.3570005,2.076597,0.7217993,1.526462,0.3632689,-0.04386117,0.1105656,0.004870335,-1.15028,0.2007243,0.1767497,0.8391402,1.503097,0.2053058,0.1667169,1.637547,0.3085981,293.627,85.04057,162.8736,False
3,3.144439,-0.5186082,-0.01680746,-0.02319217,-1.493294,-4.650894,-1.552141,0.4632019,1.469048,0.4372101,-0.8579022,0.1236118,18.72,68.24,-0.1580983,-0.07448506,0.3058375,-0.3579544,0.347656,2.087977,0.7215501,1.526718,0.3630378,-0.05474442,0.1062814,-0.02166471,-1.151202,0.202021,0.1771633,0.8390861,1.503087,0.2053659,0.16586,1.638874,0.3093767,293.2171,85.09669,163.2413,False
3,3.15555,-0.5038358,0.06423604,-0.01187957,-1.496742,-4.650451,-1.547036,0.463024,1.470434,0.4371724,-0.856683,0.1098794,18.05,67.18,-0.1781895,-0.05217031,0.3189242,-0.3599278,0.3379638,2.09965,0.7213309,1.527051,0.3628905,-0.05708458,0.1019986,-0.04507309,-1.15216,0.2032728,0.1774115,0.839148,1.503131,0.2053399,0.1656116,1.640798,0.3099588,293.0889,85.11993,163.4672,False
3,3.166661,-0.4857684,0.08770514,-0.01200602,-1.498499,-4.650536,-1.542187,0.4628528,1.471871,0.437058,-0.8556768,0.09052567,17.42,66.18,-0.1803031,-0.05218025,0.3210717,-0.3622826,0.3299035,2.109281,0.7211586,1.52732,0.3626451,-0.06773247,0.09347182,-0.04496915,-1.152456,0.2041427,0.1780717,0.8391219,1.503124,0.2053761,0.1659406,1.643431,0.310341,293.2113,84.987,163.6426,False
3,3.177772,-0.4676494,0.08026253,-0.01624926,-1.498938,-4.650975,-1.537553,0.4626636,1.473353,0.4370677,-0.8556001,0.005821641,16.83,65.25,-0.1781211,-0.06183039,0.3305765,-0.3652706,0.3221766,2.118433,0.7210914,1.527614,0.3625097,-0.06978763,0.08921017,-0.03642253,-1.15234,0.2049609,0.1785631,0.839016,1.503086,0.2053871,0.1668058,1.646769,0.3106173,293.5406,84.52608,163.9722,False
3,3.188883,-0.4473884,0.0653275,-0.02790555,-1.499184,-4.651657,-1.533288,0.462464,1.474758,0.4368069,-0.8552124,0.03500244,16.16,63.87,-0.1769949,-0.08857153,0.3463726,-0.3692228,0.314472,2.12766,0.7209852,1.527981,0.3622034,-0.07395212,0.08814989,-0.02572848,-1.152049,0.2059122,0.179064,0.8389392,1.503089,0.2053785,0.1681109,1.650641,0.3108308,294.1363,83.97193,164.4169,False
3,3.199994,-0.4356582,0.0524976,-0.04062928,-1.499251,-4.652476,-1.528748,0.4622693,1.476219,0.4367826,-0.8547623,0.0404034,15.53,62.57,-0.1951815,-0.1301368,0.3451989,-0.3742157,0.3090826,2.135037,0.7209919,1.527801,0.3611715,-0.07392917,0.08388115,-0.0225251,-1.152027,0.2066309,0.1796438,0.8388983,1.503106,0.2053268,0.1696948,1.654743,0.3109673,294.9648,83.73512,164.6163,False
3,3.211105,-0.4228348,0.02473005,-0.05967634,-1.49857,-4.653846,-1.524462,0.4619916,1.477628,0.4365406,-0.8545029,0.02295054,14.94,61.37,-0.2015288,-0.1344389,0.3526762,-0.3777971,0.3019532,2.144182,0.7207287,1.528164,0.3607945,-0.07927886,0.07535248,-0.02566133,-1.152242,0.2071697,0.1804103,0.8388119,1.503103,0.2052758,0.1713486,1.65878,0.3110198,295.8821,83.73223,164.5943,False
3,3.222216,-0.399326,-0.01683533,-0.07333583,-1.49713,-4.655219,-1.520729,0.4616243,1.479156,0.43678,-0.853671,0.07552851,14.39,60.23,-0.1970699,-0.1196808,0.3708662,-0.381305,0.2921734,2.154996,0.7204658,1.528346,0.360198,-0.08905382,0.07638666,-0.04688474,-1.1534,0.2081521,0.1813461,0.8386635,1.503137,0.2051857,0.1728548,1.662518,0.3109833,296.7321,83.75723,164.5241,False
3,3.233327,-0.3726336,-0.0530733,-0.08598655,-1.495315,-4.656953,-1.517315,0.4611044,1.480767,0.4362659,-0.8533993,0.0238527,13.55,59.09,-0.1991554,-0.1068967,0.3698991,-0.3842531,0.2850974,2.163552,0.7200925,1.529207,0.3601305,-0.1126114,0.07955106,-0.06052823,-1.154294,0.2091206,0.1829794,0.8385687,1.50319,0.2051773,0.1740294,1.665853,0.3108999,297.3799,83.82799,164.3826,False
3,3.244438,-0.3448819,-0.08607289,-0.09009785,-1.493311,-4.658145,-1.514243,0.460631,1.482211,0.4361179,-0.8534984,-0.009508378,12.76,58.03,-0.2174583,-0.09282549,0.3424414,-0.3863421,0.2796259,2.171635,0.7195622,1.529713,0.3597221,-0.1328298,0.08913729,-0.05822448,-1.154609,0.2106117,0.1844854,0.8384784,1.503245,0.2051487,0.1747606,1.668738,0.3107976,297.826,84.06143,164.093,False
3,3.255549,-0.3256713,-0.102041,-0.09004711,-1.49147,-4.65928,-1.511156,0.4600841,1.483727,0.4359076,-0.8534297,0.006067627,12.03,57.04,-0.2325915,-0.05100915,0.3034427,-0.3871347,0.273645,2.180089,0.7189946,1.530154,0.3591111,-0.1359279,0.09232551,-0.04647517,-1.154436,0.2115663,0.1856865,0.8383471,1.50342,0.2051232,0.1749862,1.671203,0.3107276,298.0827,84.38163,163.7612,False
3,3.26666,-0.3022044,-0.1179747,-0.08891802,-1.489723,-4.660356,-1.508497,0.4595925,1.485231,0.4357529,-0.8533008,0.01142103,11.34,56.11,-0.239076,0.01737525,0.2751939,-0.3864343,0.2654797,2.190518,0.7184736,1.53064,0.3586595,-0.1410544,0.09979294,-0.02406172,-1.15371,0.2127872,0.1868415,0.8380545,1.503603,0.2050846,0.1747063,1.673315,0.3106163,298.183,84.68602,163.5834,False
3,3.277771,-0.2829602,-0.147836,-0.09414801,-1.486464,-4.662041,-1.50586,0.4592105,1.486702,0.4354739,-0.8528688,0.03912405,10.69,55.24,-0.2367972,0.04926906,0.2838918,-0.3871698,0.2564833,2.201278,0.7179673,1.531257,0.3585999,-0.1344553,0.09980139,-0.0006839689,-1.152844,0.2137149,0.1877262,0.8378118,1.503695,0.2049565,0.1741334,1.675025,0.3104549,298.1364,84.97253,163.4105,False
3,3.288882,-0.2733352,-0.1712576,-0.09510553,-1.483909,-4.663344,-1.502856,0.4588336,1.488161,0.4352252,-0.8528762,-0.001289262,9.43,53.96,-0.2417547,0.03722179,0.3339234,-0.3904807,0.2448838,2.21498,0.7175628,1.531805,0.3581774,-0.1362284,0.08384624,0.03983421,-1.150907,0.2136437,0.1892709,0.837417,1.503781,0.2049749,0.1733684,1.676483,0.3102221,297.9552,85.25312,163.2092,False
3,3.299993,-0.2732593,-0.2160649,-0.1087409,-1.480181,-4.665345,-1.49961,0.4584556,1.489698,0.434823,-0.8526068,0.02440536,8.25,52.76,-0.2373016,-0.006702222,0.3676772,-0.3949979,0.236818,2.224844,0.7171768,1.532549,0.3578293,-0.1520185,0.1136838,0.0623217,-1.149126,0.21562,0.1907817,0.8371489,1.503853,0.2049267,0.1725845,1.677778,0.3099294,297.7354,85.60386,162.9346,False
3,3.311104,-0.2700141,-0.248031,-0.1117806,-1.476542,-4.666974,-1.496398,0.4580381,1.491296,0.4345753,-0.8518733,0.06664923,7.15,51.64,-0.2332545,-0.04280701,0.3503468,-0.3981639,0.2330189,2.230828,0.7167152,1.533082,0.3574324,-0.1616489,0.1424377,0.05706714,-1.148122,0.2182317,0.1917862,0.8368555,1.503936,0.2049565,0.1719131,1.678993,0.309555,297.5484,86.10993,162.5274,False
3,3.322215,-0.2581744,-0.3119205,-0.1104061,-1.470903,-4.66854,-1.493775,0.4575587,1.493032,0.4342465,-0.8513758,0.04475869,6.13,50.58,-0.2313135,-0.0437739,0.3279473,-0.4004835,0.2277591,2.238046,0.7160953,1.533446,0.3564172,-0.1820686,0.1530648,0.03699757,-1.148044,0.220367,0.1936579,0.8366641,1.504071,0.2048957,0.1713928,1.680306,0.3090913,297.4008,86.59825,162.1165,False
3,3.333326,-0.2217949,-0.3949113,-0.1036293,-1.463988,-4.670041,-1.492302,0.4569823,1.494957,0.4338274,-0.8511553,0.01970742,5.29,49.95,-0.2463459,-0.006290115,0.3027568,-0.4013693,0.221089,2.247347,0.7154058,1.5344,0.3561933,-0.2323867,0.1189372,0.008694381,-1.148998,0.2204478,0.197961,0.8366168,1.504224,0.2048764,0.1710341,1.681856,0.308515,297.3447,87.18071,161.6044,False
3,3.344437,-0.2014864,-0.4300016,-0.09920627,-1.458419,-4.671532,-1.490443,0.4563715,1.496709,0.4335599,-0.8515612,-0.03736126,4.5,49.36,-0.2486666,0.007755235,0.2762299,-0.4022641,0.2157637,2.255164,0.7146893,1.535214,0.355746,-0.2462654,0.1029463,0.005630165,-1.148853,0.2209689,0.2009121,0.8364617,1.504363,0.2048151,0.1708588,1.683696,0.307832,297.4091,87.78025,161.0452,False
3,3.355548,-0.1694359,-0.4756908,-0.087277,-1.451756,-4.672593,-1.489508,0.4557343,1.498334,0.4332018,-0.8525498,-0.09020265,3.77,48.81,-0.2714158,0.0251897,0.2243283,-0.4022982,0.2132747,2.261078,0.7138891,1.536236,0.3553317,-0.259153,0.1125216,-0.007054187,-1.149053,0.222723,0.2033148,0.836365,1.50449,0.2047706,0.1708428,1.685766,0.306964,297.6451,88.45756,160.4542,False
3,3.366659,-0.1513093,-0.4841428,-0.07978881,-1.446333,-4.673738,-1.488178,0.4551355,1.499948,0.4327486,-0.8520113,0.04980897,3.08,48.3,-0.3281466,0.07675289,0.1793,-0.4005224,0.2085515,2.271012,0.7130554,1.536905,0.3548136,-0.2828465,0.127409,-0.03668908,-1.149988,0.2249844,0.2062522,0.8362099,1.504618,0.2047181,0.170905,1.687905,0.3058437,298.0388,89.19005,159.7605,False
3,3.37777,-0.1193528,-0.4808447,-0.07129627,-1.441206,-4.674623,-1.487879,0.4546105,1.501347,0.4322181,-0.8525386,-0.04894448,2.43,47.83,-0.3600149,0.1343431,0.175723,-0.3995626,0.1985822,2.284974,0.7124444,1.537239,0.3537345,-0.2745383,0.134839,-0.06020156,-1.151008,0.2270059,0.2082856,0.8360732,1.504696,0.2046676,0.1709823,1.689936,0.3045406,298.4535,89.81572,159.0371,False
3,3.388881,-0.09592587,-0.4776351,-0.0766474,-1.436153,-4.67607,-1.487266,0.4542372,1.502621,0.4317148,-0.8519468,0.05435338,1.91,47.83,-0.388292,0.2097353,0.2190842,-0.3984542,0.1826629,2.304933,0.7119006,1.537717,0.3530402,-0.2543335,0.1007425,-0.06461559,-1.151864,0.2271214,0.2102632,0.8358642,1.50492,0.2046361,0.1710105,1.691668,0.3030868,298.8524,90.40593,158.3174,False
3,3.399992,-0.08527985,-0.4722518,-0.06922124,-1.431135,-4.677032,-1.486537,0.4538735,1.503717,0.431109,-0.8525961,-0.06004807,1.42,47.83,-0.3514027,0.2112134,0.3018949,-0.4009517,0.1672995,2.321613,0.7114823,1.538504,0.3526735,-0.2430995,0.09333989,0.001346216,-1.1495,0.2275429,0.2124148,0.8355429,1.505038,0.2045906,0.1708877,1.693086,0.3015421,299.1017,90.96164,157.6105,False
3,3.411103,-0.08315918,-0.4647864,-0.06819779,-1.426297,-4.678219,-1.485502,0.4533755,1.504891,0.4305165,-0.8521524,0.04088865,0.97,47.83,-0.3129783,0.178003,0.3194613,-0.4030993,0.158449,2.331939,0.7111917,1.539048,0.3521237,-0.2384761,0.131722,0.042825,-1.147072,0.2300738,0.213855,0.8353167,1.505131,0.2045603,0.1706385,1.694083,0.299988,299.2563,91.52946,156.8997,False
3,3.422215,-0.07044212,-0.4263388,-0.05347762,-1.422922,-4.678599,-1.4851,0.4529271,1.505727,0.4298873,-0.8516555,0.04489267,0.54,47.83,-0.275118,0.1057987,0.276026,-0.404711,0.1580931,2.334177,0.7105469,1.539651,0.351711,-0.2255256,0.1775366,0.06292084,-1.144972,0.2335227,0.2145967,0.8351436,1.505267,0.2044761,0.1702568,1.694666,0.2985035,299.2949,92.16933,156.1424,False
3,3.433326,-0.05772315,-0.3921765,-0.04299535,-1.419756,-4.678959,-1.484771,0.4524095,1.506713,0.4293354,-0.8511282,0.04764195,0.14,47.83,-0.2785404,0.08996054,0.2503939,-0.4060857,0.1535733,2.341382,0.7100816,1.540025,0.3507943,-0.2255333,0.1636782,0.06186105,-1.144301,0.2345746,0.2166652,0.8351432,1.505349,0.204452,0.1697102,1.694966,0.2970974,299.2307,92.81504,155.4316,False
3,3.444437,-0.03440849,-0.3260426,-0.03480795,-1.418608,-4.679131,-1.485213,0.4518439,1.507326,0.4287987,-0.8514291,-0.02795459,0,48.15,-0.2820921,0.09882321,0.2046514,-0.405364,0.1498814,2.34818,0.7095076,1.540488,0.3504605,-0.2535313,0.1316888,0.02697639,-1.144982,0.2351699,0.2200751,0.8350899,1.505356,0.2043767,0.1689721,1.695178,0.2957733,299.0847,93.43676,154.7657,False
3,3.455548,0.006950197,-0.2257807,-0.02466619,-1.419257,-4.679028,-1.486586,0.451309,1.507787,0.4282308,-0.8513721,0.005356623,0,48.45,-0.2762576,0.1131672,0.1290775,-0.4036473,0.1487206,2.351865,0.7089924,1.540871,0.349941,-0.2399874,0.118876,-0.00722006,-1.145913,0.2363883,0.2219462,0.8350582,1.505336,0.2042279,0.168173,1.695336,0.2945645,298.9141,93.88368,154.271,False
3,3.466659,0.02709913,-0.1745405,-0.01107744,-1.419013,-4.67871,-1.48762,0.4508917,1.508263,0.4276621,-0.8519165,-0.04999596,0,48.73,-0.2733498,0.1176895,0.09284246,-0.4022343,0.1465985,2.356939,0.7085251,1.541164,0.3496161,-0.2156696,0.1007417,-0.02872732,-1.14674,0.2371144,0.2231263,0.8348582,1.505366,0.2041564,0.1673359,1.695544,0.2934864,298.7562,94.24117,153.8527,False
3,3.47777,0.05468737,-0.1136223,0.01844311,-1.419511,-4.677409,-1.489177,0.4505089,1.50855,0.427079,-0.8526244,-0.06445275,0,48.99,-0.2444855,0.07378269,0.1157451,-0.4042327,0.1439618,2.361147,0.7081921,1.541655,0.3495588,-0.1932925,0.07197696,-0.02783391,-1.147012,0.2369336,0.2246203,0.8347712,1.505466,0.2041152,0.166551,1.695753,0.29263,298.6641,94.3735,153.6214,False
3,3.488881,0.07271177,-0.06663769,0.03418513,-1.420036,-4.676456,-1.490597,0.4500874,1.508808,0.4264653,-0.8520417,0.05358167,0,49.31,-0.2221388,0.03535941,0.121677,-0.405698,0.142679,2.364081,0.7078233,1.541989,0.3492126,-0.2080556,0.061325,-0.01064967,-1.146489,0.2370288,0.2274699,0.8347034,1.505625,0.2040265,0.1658329,1.695907,0.2920591,298.6159,94.26286,153.6634,False
3,3.499992,0.08225155,-0.03679771,0.03620028,-1.42023,-4.675362,-1.491995,0.4496645,1.509039,0.4263475,-0.8520699,-0.003286369,0,49.61,-0.2095203,0.006656442,0.108597,-0.4069395,0.1429382,2.36585,0.7074184,1.542484,0.3488362,-0.2078675,0.08477163,0.0117042,-1.145241,0.2385841,0.229258,0.834592,1.505742,0.2040455,0.1651911,1.695964,0.2917058,298.5472,94.11011,153.8736,False
3,3.511103,0.08755585,-0.02827688,0.03402248,-1.420064,-4.675137,-1.49311,0.449202,1.509263,0.4258204,-0.8517508,0.02908715,0,49.89,-0.2086432,0.001484878,0.08618134,-0.4072037,0.1431718,2.367898,0.7070274,1.542851,0.3484595,-0.2024652,0.09648852,0.02016106,-1.144583,0.2399667,0.2307259,0.8344342,1.505799,0.2039573,0.1646264,1.695902,0.2914419,298.4716,93.86752,154.2497,False
3,3.522214,0.09927852,-0.02827067,0.03403871,-1.419494,-4.674406,-1.494731,0.448751,1.509216,0.42519,-0.8514515,0.02691183,0,50.15,-0.2129164,0.03991006,0.07689834,-0.4062008,0.1384842,2.374985,0.7065908,1.543244,0.3478312,-0.2068347,0.08900806,0.008489087,-1.14477,0.24056,0.2330404,0.8344165,1.50584,0.2037601,0.1640674,1.695753,0.2911649,298.3994,93.69337,154.5142,False
3,3.533325,0.1152827,-0.03888125,0.03728522,-1.418588,-4.673841,-1.49665,0.4483822,1.509234,0.4246731,-0.8510909,0.03266395,0,50.39,-0.2236677,0.09977045,0.05077167,-0.4039685,0.1333791,2.382644,0.706309,1.543289,0.3471479,-0.212183,0.07727911,0.006414745,-1.144661,0.2409344,0.2354983,0.8344094,1.505845,0.2035649,0.1634796,1.695536,0.2908654,298.3323,93.63136,154.5856,False
