loc,t,aDotUA,bDotUA,gDotUA,aUA,bUA,gUA,xUA,yUA,zUA,qE,qDotE,emgA,emgB,aDotSH,bDotSH,gDotSH,aSH,bSH,gSH,xSH,ySH,zSH,aDotUB,bDotUB,gDotUB,aUB,bUB,gUB,xUB,yUB,zUB,xHand,yHand,zHand,aHand,bHand,gHand,enable
1,0,-0.0751193,-0.1552772,0.01230508,-1.470807,-4.043834,3.023246,0.6228592,1.18766,0.4910796,-1.559121,-0.01685826,0,0,-0.1559625,0.1011686,0.146075,-0.7435285,-4.217328,0.102789,0.6525145,1.458986,0.4145188,-0.1664299,-0.009020597,-0.0023252,-0.8632078,0.360216,0.03712287,0.798704,1.525425,0.2328875,0.4298883,1.048929,0.2848073,299.6679,217.7826,17.28691,False
1,0.01111111,-0.07411076,-0.138264,0.006893162,-1.470903,-4.04266,3.024008,0.6225815,1.188024,0.4907119,-1.558973,0.01365907,0,0,-0.1462421,0.09996419,0.1619622,-0.741186,-4.216154,0.1032113,0.6523113,1.459391,0.414149,-0.1675074,-0.007960632,-0.003379505,-0.8632323,0.3600971,0.03911811,0.7988436,1.525457,0.2326274,0.4295348,1.048981,0.2830043,299.3107,218.3459,16.4383,False
1,0.02222222,-0.06993786,-0.1084669,-0.001784064,-1.470683,-4.042358,3.024591,0.6222936,1.188345,0.4903471,-1.559196,-0.02053916,0,0,-0.1313573,0.08718286,0.1596011,-0.7394858,-4.215567,0.1037373,0.6521862,1.459745,0.4137819,-0.1568774,-0.003701538,-0.005610488,-0.8633542,0.3602438,0.04047605,0.7988779,1.525438,0.2323689,0.429178,1.049105,0.2806838,298.5547,219.1842,14.99373,False
1,0.03333334,-0.06786615,-0.0914422,-0.005068708,-1.470609,-4.041688,3.025331,0.6220053,1.188645,0.4899852,-1.558921,0.02534504,0,0,-0.1239159,0.08718348,0.1584763,-0.7376552,-4.214365,0.104099,0.6520939,1.460219,0.4135516,-0.1579335,-0.0004981458,-0.004533254,-0.8632849,0.3605017,0.04211816,0.7989209,1.525422,0.2321506,0.4288711,1.049252,0.2774715,297.3769,220.9692,12.29368,False
1,0.04444445,-0.06684075,-0.07652752,-0.005146455,-1.4706,-4.041275,3.025959,0.6217511,1.188883,0.4897373,-1.559147,-0.02092208,0,0,-0.1100423,0.07541816,0.1625245,-0.7356855,-4.213909,0.1045227,0.6519238,1.460573,0.4132385,-0.1556801,0.009103194,0.009288225,-0.8626815,0.3610511,0.04350939,0.798959,1.525389,0.2319202,0.4301719,1.049249,0.2734878,296.9233,225.2147,6.259403,False
1,0.05555556,-0.05937152,-0.08075267,-0.0008669198,-1.47087,-4.040088,3.026298,0.6214974,1.189135,0.4894791,-1.558976,0.0157797,0,0,-0.09411612,0.05305789,0.1590222,-0.7339144,-4.214318,0.1054159,0.6518579,1.460894,0.4128611,-0.1482576,0.008036733,0.006031755,-0.8626314,0.3611782,0.04490089,0.7990489,1.525447,0.2316446,0.4330199,1.049028,0.2685968,296.675,228.4799,0.2124049,False
1,0.06666667,-0.05510523,-0.08073945,-0.0008660797,-1.47103,-4.039178,3.026603,0.6211585,1.189385,0.4892125,-1.559085,-0.01008076,0,0,-0.08026494,0.04664269,0.1599187,-0.7321056,-4.214177,0.1057387,0.6517835,1.461179,0.4125516,-0.1547448,0.01122412,-0.004564974,-0.863016,0.3614887,0.0466418,0.7991457,1.525416,0.231385,0.4370141,1.048758,0.2632831,296.7848,229.816,356.0437,False
1,0.07777778,-0.0401768,-0.0871028,-0.002970232,-1.471059,-4.03789,3.026495,0.6208584,1.18947,0.4889023,-1.559299,-0.0194972,0,0.04,-0.06110542,0.02531336,0.160657,-0.7302798,-4.214972,0.1063648,0.6517189,1.461425,0.4120812,-0.1526383,0.01015688,-0.007780537,-0.8632562,0.3616025,0.04817445,0.7991853,1.525378,0.2309813,0.4410423,1.048622,0.2582934,296.7428,229.0116,354.3184,False
1,0.08888889,-0.03591488,-0.0881745,-0.005098378,-1.471057,-4.036735,3.02668,0.6206201,1.189718,0.4887023,-1.559351,-0.004607127,0,0.55,-0.04821566,0.03372515,0.1723356,-0.7278792,-4.214357,0.1060955,0.6515319,1.461506,0.4117327,-0.1483679,0.009091794,-0.006752722,-0.8632945,0.3616927,0.04963386,0.7992219,1.525363,0.2307122,0.4449642,1.048472,0.2539461,297.2,229.272,351.8116,False
1,0.1,-0.02738491,-0.09135294,-0.007214984,-1.471058,-4.035629,3.026623,0.6204234,1.18981,0.4884815,-1.559677,-0.02980648,0,1.02,-0.04413543,0.0413707,0.1489197,-0.7269673,-4.213327,0.1055834,0.6513758,1.461627,0.4113431,-0.140823,0.01336481,0.002768066,-0.8628274,0.3621477,0.05061045,0.7992208,1.525265,0.2304406,0.4475106,1.048418,0.2510293,297.2755,227.5698,352.2074,False
1,0.1111111,-0.01463043,-0.08284773,-0.01685324,-1.470649,-4.034856,3.026288,0.6202191,1.189839,0.4881649,-1.55937,0.02816681,0,1.47,-0.04426667,0.06175705,0.1309751,-0.7259862,-4.211414,0.1047142,0.6512414,1.461874,0.4110019,-0.1353851,0.02828997,0.01442833,-0.8621739,0.3632252,0.0511785,0.7992396,1.525291,0.2301524,0.4486939,1.048419,0.2495012,297.3893,227.4538,351.6525,False
1,0.1222222,-0.002933044,-0.07749424,-0.01901755,-1.470439,-4.034173,3.025933,0.6200835,1.189862,0.4879711,-1.559517,-0.01374615,0,1.96,-0.04754205,0.1044998,0.1153628,-0.7250515,-4.207628,0.102487,0.6510671,1.461927,0.4107218,-0.1278655,0.03468406,0.02074679,-0.8617164,0.3639845,0.05180061,0.7993177,1.525227,0.2299371,0.4486617,1.048458,0.2495685,297.5699,227.6887,351.5547,False
1,0.1333333,0.006652051,-0.07856184,-0.02433899,-1.470198,-4.033174,3.025537,0.6200217,1.18999,0.4877717,-1.559781,-0.02404798,0,2.41,-0.04542714,0.1151664,0.1122335,-0.7237215,-4.205667,0.1014576,0.6509696,1.462066,0.4103622,-0.1171589,0.03149144,0.02705134,-0.8611091,0.3642194,0.052619,0.7993671,1.525215,0.2296467,0.447971,1.048372,0.2500808,297.6417,229.6006,349.8744,False
1,0.1444445,0.009850145,-0.07855714,-0.02540384,-1.470027,-4.032281,3.025217,0.619878,1.190101,0.4875734,-1.55975,0.002985684,0,2.84,-0.03170452,0.1142094,0.09719501,-0.7230338,-4.203813,0.09996361,0.6509046,1.462121,0.4100621,-0.1150264,0.03042494,0.02703695,-0.8607448,0.3645784,0.05355191,0.7994446,1.52515,0.2294202,0.4474129,1.048239,0.250517,297.7505,230.9979,348.5316,False
1,0.1555556,0.009795775,-0.06046876,-0.02869846,-1.469583,-4.032046,3.025085,0.6199528,1.190299,0.4874811,-1.559662,0.007997578,0,3.24,-0.02212304,0.1067377,0.09812236,-0.7217705,-4.202566,0.09902645,0.6509259,1.462284,0.4097767,-0.1108903,0.03253762,0.01314802,-0.861066,0.3651171,0.054292,0.7995389,1.52512,0.2291911,0.4471774,1.048162,0.2506927,297.8029,231.5604,347.9816,False
1,0.1666667,0.005508835,-0.04980987,-0.02555362,-1.46948,-4.031885,3.025095,0.6199969,1.190342,0.487345,-1.559507,0.01400559,0,3.61,-0.01253214,0.08966604,0.1000319,-0.7205966,-4.202188,0.09846079,0.6510348,1.462271,0.4095206,-0.1002368,0.02720837,0.01305673,-0.8609222,0.3652352,0.05493462,0.7995889,1.525069,0.2289712,0.4472065,1.048165,0.2506315,297.8142,231.4785,348.09,False
1,0.1777778,0.001130675,-0.01149215,-0.02788126,-1.468996,-4.032911,3.02539,0.620082,1.190347,0.4872911,-1.559305,0.01826139,0,3.92,-0.006247737,0.06736408,0.09127863,-0.719812,-4.202171,0.09847624,0.6511153,1.462296,0.4092691,-0.08316527,0.02508053,0.01610029,-0.8606245,0.3655352,0.05510586,0.7996819,1.525056,0.2287514,0.4473452,1.048214,0.2504529,297.8186,231.0975,348.5002,False
1,0.1888889,0.002113707,0.0162164,-0.02696088,-1.468602,-4.034075,3.025454,0.6202294,1.190365,0.4872208,-1.559113,0.01742726,0,4.22,0.00109642,0.06107192,0.07838046,-0.71938,-4.201422,0.09762456,0.6511829,1.462277,0.409044,-0.07677356,0.02507981,0.01604581,-0.8603635,0.3659121,0.05550401,0.7997236,1.525004,0.2285726,0.4474935,1.048273,0.250291,297.8132,230.7184,348.9045,False
1,0.2,-0.001215614,0.06202741,-0.0250705,-1.468085,-4.036403,3.025785,0.6204723,1.190285,0.4870961,-1.558914,0.01801315,0,4.5,0.01258194,0.04742047,0.05260785,-0.7196735,-4.201169,0.09691909,0.6513458,1.462245,0.4088211,-0.06079883,0.02294089,0.01483141,-0.8603256,0.3660519,0.05545421,0.7997268,1.524984,0.2283792,0.4475662,1.048298,0.2501953,297.8158,230.5089,349.1229,False
1,0.2111111,-0.004583975,0.1195285,-0.02643274,-1.467445,-4.039481,3.026323,0.6206852,1.190171,0.4870877,-1.559136,-0.02039357,0,4.76,0.02300848,0.02630218,0.02784201,-0.7202929,-4.201687,0.09665464,0.6514336,1.462039,0.4086211,-0.04804322,0.0186757,0.01152476,-0.860306,0.3661484,0.05550001,0.7996168,1.524969,0.2282603,0.4475282,1.048294,0.2502027,297.8324,230.5332,349.0739,False
1,0.2222222,-0.0175311,0.1770658,-0.0171403,-1.467159,-4.043428,3.027368,0.6209972,1.190116,0.4871125,-1.55901,0.01169134,0,5,0.04834802,-0.001232065,0.003967373,-0.7211387,-4.202969,0.09616994,0.6515887,1.461899,0.4085178,-0.04167145,0.0154768,0.009339427,-0.8602831,0.3662129,0.05569069,0.7996002,1.524941,0.2280791,0.4474255,1.048267,0.2502871,297.849,230.7337,348.8405,False
1,0.2333333,-0.02410878,0.2399003,-0.01746644,-1.46643,-4.048165,3.028323,0.6214139,1.190025,0.487143,-1.558864,0.01322169,0,5.22,0.06934015,-0.03508463,-0.02843892,-0.7225779,-4.20502,0.09632094,0.6517942,1.461712,0.4083996,-0.03307781,0.01122475,0.0177883,-0.8597605,0.3661838,0.05587631,0.7995965,1.524941,0.2279315,0.4472672,1.048217,0.2504212,297.8713,231.0382,348.4767,False
1,0.2444444,-0.03384313,0.2910518,-0.009207552,-1.466048,-4.053147,3.029534,0.6217954,1.189922,0.4872391,-1.55846,0.03692472,0,5.43,0.08071906,-0.07742659,-0.064037,-0.7247441,-4.208147,0.09733427,0.6520091,1.461469,0.408289,-0.02975755,0.01230182,0.03160477,-0.8589392,0.3663464,0.05600308,0.7995734,1.524955,0.2277663,0.4470489,1.048159,0.2506121,297.905,231.4348,347.9811,False
1,0.2555556,-0.04356302,0.3336561,-0.00516652,-1.465534,-4.058169,3.030994,0.6222205,1.189837,0.487421,-1.558637,-0.01651209,0,5.63,0.07944774,-0.08149703,-0.08749799,-0.7265551,-4.209368,0.09751058,0.6522034,1.461338,0.4082012,-0.0253894,0.004855257,0.04329011,-0.8580583,0.3660085,0.05633065,0.7995458,1.524987,0.2275224,0.4467723,1.048114,0.2508346,297.9649,231.9197,347.3844,False
1,0.2666667,-0.05109136,0.3570658,-0.006351765,-1.4649,-4.062827,3.032331,0.622559,1.189731,0.4875152,-1.558489,0.01372696,0,5.81,0.07940909,-0.07079448,-0.09380579,-0.7278233,-4.209781,0.09692388,0.6523956,1.461124,0.408123,-0.02428712,0.003794298,0.04754257,-0.8574212,0.3659824,0.05660203,0.7995167,1.524997,0.2275112,0.4464774,1.048067,0.251081,298.0264,232.4295,346.743,False
1,0.2777778,-0.05647925,0.37729,-0.00538359,-1.464432,-4.067522,3.033665,0.6228956,1.189521,0.4877348,-1.558293,0.01786177,0,5.77,0.07630352,-0.05382269,-0.08405793,-0.7283953,-4.209589,0.09618752,0.6525087,1.460971,0.4080703,-0.01685115,-0.005796572,0.04535336,-0.8569967,0.3654405,0.05689231,0.799473,1.524993,0.2273898,0.4461704,1.04802,0.2513469,298.0897,232.9578,346.0702,False
1,0.2888889,-0.06394692,0.3804349,-0.01072297,-1.463663,-4.071792,3.035092,0.6231313,1.189455,0.4878104,-1.558436,-0.01317359,0,5.73,0.07857557,-0.03369678,-0.07006647,-0.7286824,-4.209058,0.09480987,0.6526467,1.460838,0.4079883,-0.00949249,-0.008995632,0.03463958,-0.8569514,0.3653125,0.05685769,0.7995647,1.525027,0.22718,0.4457983,1.047965,0.2517163,298.2002,233.9487,345.1398,False
1,0.3,-0.07775365,0.3632815,-0.02447803,-1.462513,-4.0751,3.036764,0.6235433,1.189373,0.4879026,-1.558536,-0.008920702,0,5.69,0.09258588,-0.004015118,-0.05396654,-0.7286212,-4.207579,0.09228199,0.6528392,1.460665,0.4079432,-0.001087481,-0.01859621,0.02178818,-0.8572289,0.364609,0.0570308,0.7995311,1.52504,0.2270505,0.4454316,1.0479,0.2520466,298.2821,234.6549,344.3071,False
1,0.3111111,-0.08094811,0.3610985,-0.03192297,-1.461536,-4.078893,3.038197,0.6238136,1.189178,0.4879107,-1.558473,0.005811409,0,5.65,0.1023477,0.007538296,-0.03478236,-0.7283964,-4.206977,0.09036612,0.6531936,1.460447,0.4079351,0.001038969,-0.02605103,0.0217751,-0.856969,0.3639215,0.05747395,0.7994888,1.525025,0.2268453,0.4451172,1.047838,0.2523182,298.3546,235.1814,343.6272,False
1,0.3222222,-0.101211,0.3684385,-0.04260372,-1.460297,-4.083107,3.040409,0.6241621,1.189069,0.4879768,-1.558193,0.02559954,0,5.4,0.1077118,-0.01488867,-0.02862309,-0.7286856,-4.208346,0.0898753,0.6535242,1.460204,0.4079721,0.01707457,-0.03137466,0.02802713,-0.8564731,0.3631533,0.05719325,0.7994554,1.52505,0.226737,0.4448483,1.047802,0.2525126,298.4346,235.5711,343.1048,False
1,0.3333333,-0.1215149,0.3863936,-0.05972686,-1.458686,-4.087804,3.042991,0.6243961,1.188952,0.4882126,-1.558537,-0.03156665,0,5.16,0.1086498,-0.0510323,-0.03850804,-0.7296007,-4.210951,0.09067291,0.6538458,1.460099,0.4081161,0.03947393,-0.02817282,0.03101684,-0.8560518,0.363059,0.05601853,0.799456,1.525082,0.2265949,0.4446664,1.04779,0.2526327,298.4924,235.7844,342.7788,False
1,0.3444445,-0.1354379,0.4108268,-0.06517427,-1.457251,-4.093087,3.045542,0.6246288,1.188835,0.4884574,-1.55794,0.05495631,0,4.94,0.09601519,-0.05649307,-0.02033664,-0.7293668,-4.212206,0.09092911,0.6542372,1.459996,0.4083204,0.05758531,-0.02285583,0.03084375,-0.855794,0.3628223,0.05495779,0.7994971,1.525091,0.2264688,0.4444823,1.047767,0.2527295,298.5561,235.9465,342.4861,False
1,0.3555556,-0.1461018,0.4150733,-0.06199579,-1.456203,-4.097816,3.048054,0.6246434,1.188781,0.4887366,-1.557678,0.02355554,0,4.73,0.08435843,-0.08427305,-0.008738907,-0.7291666,-4.214854,0.09240557,0.6547222,1.459957,0.4083943,0.07571239,-0.03137956,0.03281838,-0.8554009,0.3619564,0.05405951,0.79951,1.525063,0.226392,0.4442255,1.047748,0.2528611,298.6523,236.1659,342.09,False
1,0.3666667,-0.1492365,0.3916509,-0.05654777,-1.455495,-4.10123,3.050276,0.6248165,1.188788,0.4889147,-1.557907,-0.02106736,0,4.53,0.07578479,-0.1162048,-0.01105737,-0.7296326,-4.218322,0.09436485,0.6551427,1.459902,0.4085305,0.08942201,-0.05269736,0.01780136,-0.8557301,0.3603214,0.05374206,0.799551,1.525069,0.2263553,0.4438422,1.047726,0.2530611,298.7985,236.5049,341.4969,False
1,0.3777778,-0.1597262,0.3362194,-0.0573168,-1.454708,-4.102954,3.052585,0.624706,1.188815,0.4890883,-1.558058,-0.01350067,0,4.13,0.08112898,-0.1652876,-0.001910843,-0.7297658,-4.223464,0.09722508,0.6555974,1.459816,0.408731,0.09020649,-0.06337807,-0.01309107,-0.8569472,0.359001,0.0535551,0.7996258,1.525058,0.2262912,0.4433509,1.047693,0.2533414,299.0072,236.9199,340.8008,False
1,0.3888889,-0.1670624,0.2946389,-0.06029277,-1.453739,-4.104689,3.054876,0.6246241,1.188862,0.4892757,-1.558329,-0.02446498,0,3.76,0.09607275,-0.1930608,0.005198125,-0.7297498,-4.228099,0.09908344,0.6561014,1.459703,0.4088748,0.09217697,-0.07297598,-0.03014176,-0.8578004,0.357747,0.05339052,0.7997695,1.525097,0.2262228,0.4428164,1.047674,0.2536505,299.2383,237.457,340.0406,False
1,0.4,-0.188182,0.228428,-0.07911068,-1.452191,-4.104655,3.057746,0.6244646,1.188926,0.489465,-1.558174,0.01433099,0,3.41,0.1194594,-0.2133034,0.001646221,-0.7300997,-4.232631,0.1002704,0.6565603,1.459575,0.4089987,0.09733856,-0.07938486,-0.04829347,-0.8590495,0.3563722,0.05304324,0.7998151,1.52511,0.2261913,0.4422867,1.047691,0.2539141,299.4067,238.3132,339.282,False
1,0.4111111,-0.2093646,0.180318,-0.09910147,-1.450196,-4.104987,3.060935,0.6246572,1.189137,0.4896033,-1.55827,-0.008813806,0,3.08,0.1225654,-0.2249511,-0.006991677,-0.7307101,-4.236623,0.1018824,0.6570967,1.459476,0.4091289,0.1004862,-0.07831825,-0.05364484,-0.8597323,0.3554949,0.05240888,0.7998316,1.525144,0.2261417,0.4418264,1.047689,0.2542967,299.6907,238.3164,339.4047,False
1,0.4222222,-0.2284663,0.1545675,-0.1234491,-1.4481,-4.105839,3.064081,0.624513,1.18917,0.4897926,-1.557613,0.06019856,0,2.77,0.1129942,-0.2270808,-0.005870499,-0.731108,-4.24046,0.1036811,0.6575931,1.459366,0.409272,0.1092168,-0.08255929,-0.03028339,-0.8593594,0.354087,0.051913,0.7998885,1.525182,0.2260897,0.4413758,1.04776,0.254625,299.7981,238.3674,339.4311,False
1,0.4333333,-0.2455133,0.1522857,-0.1426049,-1.445736,-4.107243,3.067572,0.6244535,1.189281,0.4899812,-1.557418,0.01746501,0,2.41,0.09384921,-0.2142915,-0.003480472,-0.7313339,-4.243335,0.1054503,0.6579977,1.459239,0.4095075,0.115753,-0.0953289,-0.01435015,-0.8590729,0.3521363,0.05166506,0.7998797,1.525081,0.2260661,0.4407777,1.047903,0.2550764,299.637,237.0949,340.9035,False
1,0.4444444,-0.260499,0.1766333,-0.1640219,-1.443196,-4.109936,3.071138,0.6243218,1.189402,0.4901829,-1.557694,-0.02517145,0,2.07,0.08648032,-0.1908974,0.003156465,-0.7312785,-4.24539,0.1061296,0.6583902,1.459132,0.4096684,0.1210936,-0.09958759,-0.01226343,-0.859254,0.3505494,0.05126612,0.7999409,1.52508,0.2261279,0.4400931,1.048386,0.2557603,299.7586,236.7302,341.3529,False
1,0.4555556,-0.2702344,0.2244753,-0.1770528,-1.440495,-4.113875,3.075,0.6242489,1.189468,0.4904802,-1.557625,0.006621717,0,1.76,0.0800942,-0.1599695,0.0002623796,-0.7314276,-4.246567,0.1063251,0.6587693,1.459038,0.4098918,0.1242502,-0.1038532,-0.01654949,-0.8596418,0.3488666,0.05086877,0.8000138,1.525068,0.2261088,0.4390064,1.049021,0.2567308,299.9297,237.0149,341.1228,False
1,0.4666667,-0.2778173,0.2670698,-0.1762081,-1.438263,-4.118215,3.078929,0.6241509,1.189534,0.4908135,-1.557866,-0.02194321,0,1.46,0.07688987,-0.1482233,-0.002816014,-0.731769,-4.248479,0.1069041,0.6592287,1.458884,0.4100709,0.1241718,-0.1027926,-0.02507496,-0.8603017,0.3475132,0.05041444,0.8001739,1.525094,0.2261443,0.43724,1.04945,0.2582502,299.8741,236.1973,342.6111,False
1,0.4777778,-0.2939643,0.3267054,-0.171181,-1.436321,-4.123752,3.083355,0.624058,1.1896,0.4912522,-1.557913,-0.004035892,0,1.07,0.06195465,-0.1257936,-0.00783162,-0.7320178,-4.249442,0.1074498,0.659725,1.458803,0.4102244,0.1262842,-0.096403,-0.02723041,-0.8607411,0.3464051,0.04965837,0.8003002,1.525074,0.2261868,0.434805,1.049723,0.2604457,299.7933,235.0011,344.8434,False
1,0.4888889,-0.3154814,0.3980819,-0.1587657,-1.434537,-4.130456,3.088533,0.6240077,1.189606,0.4918032,-1.558043,-0.01175496,0,0.71,0.04267082,-0.1107494,-0.02246524,-0.7328572,-4.250749,0.10856,0.6602912,1.458726,0.4103456,0.1230791,-0.09321705,-0.02827563,-0.8612003,0.3450081,0.04931855,0.8005793,1.525147,0.2261775,0.4315595,1.049798,0.263414,299.4803,232.3568,349.1952,False
1,0.5,-0.3390694,0.4502444,-0.1526388,-1.432705,-4.137175,3.093973,0.6238232,1.189734,0.4922769,-1.557858,0.01713025,0,0.37,0.0331476,-0.1054616,-0.01595381,-0.7329696,-4.252208,0.1095086,0.6607918,1.45865,0.4105225,0.1283471,-0.09641959,-0.0347124,-0.8618543,0.3434879,0.04869244,0.8007841,1.525118,0.2262201,0.428253,1.049963,0.2668715,299.5989,231.5372,351.5627,False
1,0.5111111,-0.3658005,0.484244,-0.1549345,-1.43061,-4.143432,3.099656,0.6236789,1.189858,0.4928186,-1.557403,0.0415534,0,0.05,0.03105032,-0.1054909,-0.0116703,-0.7329834,-4.253957,0.110543,0.6612672,1.458641,0.4106507,0.1303542,-0.1006931,-0.04857494,-0.8629164,0.3418798,0.0481907,0.8010092,1.525043,0.2262304,0.4251921,1.050582,0.2700184,299.5735,232.5269,351.6872,False
1,0.5222223,-0.3999856,0.5149853,-0.1646698,-1.428251,-4.150097,3.106115,0.6235547,1.190024,0.4932752,-1.557292,0.009906761,0,0,0.031142,-0.1226357,0.0009718388,-0.73283,-4.256893,0.1123196,0.6617399,1.45867,0.4108913,0.1324081,-0.09857026,-0.0571168,-0.8638613,0.340582,0.04751346,0.8012027,1.525004,0.2262771,0.4224272,1.051626,0.2726265,299.4207,233.2052,351.8151,False
1,0.5333334,-0.4224355,0.5393693,-0.1754346,-1.42577,-4.156756,3.1124,0.623452,1.190232,0.493726,-1.557201,0.008369142,0,0,0.03329209,-0.1599822,0.008110728,-0.7328455,-4.261442,0.115252,0.662384,1.458672,0.4111538,0.1313192,-0.0964475,-0.05924115,-0.8646496,0.3392151,0.04706471,0.8013868,1.524921,0.2263408,0.4199283,1.053102,0.2745972,299.1544,233.4565,352.1182,False
1,0.5444446,-0.451305,0.5743878,-0.1862593,-1.423153,-4.164348,3.119409,0.6233077,1.190482,0.4941983,-1.556724,0.04378152,0,0,0.03328517,-0.204766,0.01307706,-0.7329792,-4.267077,0.119059,0.6630507,1.458692,0.411433,0.1324042,-0.09645379,-0.05712841,-0.8653809,0.3377137,0.04653262,0.8016384,1.52481,0.2264061,0.4177266,1.054976,0.2759851,298.7585,233.454,352.4474,False
1,0.5555557,-0.4812512,0.6136874,-0.1939258,-1.420548,-4.172673,3.12694,0.6232122,1.190469,0.4939532,-1.557114,-0.03587632,0,0,0.03766464,-0.2432698,0.03083616,-0.7326441,-4.273122,0.122853,0.6637899,1.45865,0.4117296,0.1301273,-0.1092512,-0.07307658,-0.866779,0.3356459,0.04649746,0.8019528,1.52474,0.2264469,0.4157338,1.057185,0.276893,298.279,233.3109,352.728,False
1,0.5666668,-0.5004803,0.6338581,-0.1972195,-1.418187,-4.180459,3.134168,0.6231267,1.190723,0.4943423,-1.556848,0.0248567,0,0,0.04095405,-0.2593649,0.04452913,-0.7321514,-4.278142,0.1260956,0.6644645,1.458744,0.4120088,0.1300537,-0.1092599,-0.08159536,-0.867994,0.3340996,0.04600478,0.8021359,1.524706,0.2264998,0.4138764,1.05964,0.2775219,297.7277,233.055,352.974,False
1,0.577778,-0.5347201,0.6849002,-0.1974699,-1.415974,-4.190162,-3.140483,0.6229068,1.190994,0.4948111,-1.556685,0.01486479,0,0,0.0422599,-0.2681283,0.07427791,-0.7307442,-4.283336,0.1294334,0.6651657,1.458811,0.4123099,0.1308666,-0.1178111,-0.1092958,-0.8702731,0.3321297,0.04579518,0.802428,1.524617,0.2265227,0.4119053,1.062221,0.2780212,297.1344,232.8055,353.2139,False
1,0.5888891,-0.5805468,0.6890067,-0.2017268,-1.413776,-4.198036,-3.131276,0.6226914,1.191149,0.4952116,-1.557178,-0.04504006,0,0,0.03818525,-0.2800366,0.09872355,-0.729295,-4.28874,0.1332526,0.6659437,1.458954,0.412632,0.1286782,-0.1178159,-0.115668,-0.8718039,0.330549,0.04547188,0.8028228,1.524499,0.2265997,0.4096724,1.064818,0.2784872,296.5297,232.6138,353.5177,False
1,0.6000003,-0.5901319,0.6879613,-0.1921362,-1.411976,-4.205724,-3.123229,0.6223176,1.191317,0.4955719,-1.556505,0.06222731,0,0,0.03609784,-0.2768845,0.1040945,-0.7284097,-4.293459,0.1365128,0.6665862,1.459001,0.4129195,0.1276133,-0.1156851,-0.1156603,-0.8731472,0.329025,0.04506681,0.8031268,1.524423,0.226686,0.4073775,1.067438,0.2792558,295.9779,232.3945,353.8175,False
1,0.6111114,-0.5943572,0.679484,-0.1814406,-1.410395,-4.213102,-3.115376,0.6219169,1.191542,0.4958847,-1.555799,0.064096,0,0,0.02858998,-0.27576,0.09777552,-0.7279378,-4.298128,0.1399041,0.6671999,1.459026,0.413187,0.1286954,-0.1199543,-0.1135402,-0.8743861,0.3270202,0.0448953,0.803521,1.524356,0.2267439,0.4048353,1.070066,0.2804509,295.4836,232.2704,354.1072,False
1,0.6222225,-0.6103688,0.6880051,-0.1708359,-1.40907,-4.221162,-3.106608,0.6215096,1.191819,0.4960968,-1.557201,-0.1284615,0,0,0.01374806,-0.2630145,0.10439,-0.727002,-4.302203,0.1432536,0.6678077,1.45908,0.4134619,0.121277,-0.1242101,-0.1092054,-0.8754876,0.3250818,0.04502846,0.8038741,1.524241,0.2268274,0.4020481,1.072723,0.2820292,295.0174,232.2627,354.53,False
1,0.6333337,-0.5966319,0.7363303,-0.1061051,-1.410259,-4.231088,-3.098881,0.621044,1.191806,0.4963977,-1.557778,-0.05131515,0,0,0.0128554,-0.2279892,0.1206614,-0.7253151,-4.304653,0.1449878,0.6683438,1.459035,0.4136667,0.1169409,-0.1135639,-0.1176985,-0.8770876,0.3240042,0.04455895,0.80422,1.524135,0.2268975,0.399096,1.075404,0.2838826,294.5308,232.3606,355.0335,False
1,0.6444448,-0.6577575,0.8715261,-0.08975098,-1.410426,-4.245665,-3.087305,0.6208561,1.191882,0.4968286,-1.557219,0.05153115,0,0,0.01507819,-0.2014297,0.1293802,-0.7238259,-4.307098,0.1466728,0.6689304,1.459161,0.4139965,0.1179626,-0.1093185,-0.123042,-0.8787595,0.3225552,0.04407212,0.8045518,1.524034,0.2269597,0.396085,1.078077,0.2858733,294.0462,232.5595,355.5285,False
1,0.655556,-0.7314039,0.9191979,-0.09955397,-1.409413,-4.257504,-3.074921,0.6202636,1.191898,0.4972198,-1.558647,-0.1309666,0,0,-0.01253805,-0.1705498,0.1351877,-0.7222877,-4.308714,0.1489298,0.6694509,1.459224,0.4142745,0.125505,-0.1146377,-0.1135173,-0.8797652,0.3207427,0.04357837,0.8049165,1.523911,0.2270606,0.3929877,1.080753,0.2878529,293.6018,232.8792,355.8635,False
1,0.6666671,-0.7475471,0.9702593,-0.1030163,-1.408976,-4.269877,-3.06416,0.6198695,1.191843,0.4973974,-1.555893,0.2532745,0,0,-0.02210829,-0.1641568,0.1363864,-0.7210109,-4.311576,0.1516399,0.670091,1.459294,0.414526,0.1297928,-0.1188986,-0.1103563,-0.8809156,0.3188415,0.04322337,0.8052857,1.523772,0.2271543,0.3897985,1.083426,0.2898703,293.0938,233.4001,355.8627,False
1,0.6777782,-0.7688468,0.972399,-0.08918053,-1.409243,-4.28077,-3.053334,0.6191508,1.191807,0.4973075,-1.55465,0.1113918,0,0,-0.06998622,-0.1673602,0.1442225,-0.7194471,-4.31506,0.1567233,0.6706903,1.459319,0.4147487,0.1274899,-0.114654,-0.1295154,-0.8830137,0.3175023,0.04273814,0.8057203,1.523656,0.2272725,0.3862889,1.086179,0.2920614,292.6462,233.8335,355.8933,False
1,0.6888894,-0.7815875,0.9553678,-0.07737893,-1.40967,-4.290611,-3.042643,0.6184198,1.191997,0.4972243,-1.55669,-0.1870972,0,0,-0.08274882,-0.1588365,0.1465354,-0.7179307,-4.317607,0.1599961,0.6713916,1.459293,0.4149158,0.1263559,-0.1146585,-0.136964,-0.8848704,0.3160215,0.04236184,0.8061514,1.523578,0.2273574,0.3824162,1.089158,0.294403,292.2082,234.048,356.2787,False
1,0.7000005,-0.8112539,0.9074225,-0.06220537,-1.410285,-4.298918,-3.031394,0.6173887,1.192182,0.4972484,-1.556981,-0.02462227,0,0,-0.08279848,-0.1630547,0.141175,-0.7168835,-4.320817,0.1633367,0.6719882,1.459335,0.4151874,0.1304904,-0.123194,-0.1508432,-0.8870888,0.3140019,0.04206383,0.8066157,1.52345,0.2274799,0.3784291,1.092429,0.2968915,291.6372,234.386,356.7403,False
1,0.7111117,-0.8291229,0.8243201,-0.05111277,-1.410832,-4.305068,-3.020533,0.6161745,1.192356,0.4969425,-1.557206,-0.02025915,0,0,-0.09249623,-0.1714711,0.129476,-0.7161677,-4.324403,0.1673395,0.6726063,1.459436,0.4154685,0.1197251,-0.1264006,-0.1635234,-0.8893195,0.3121471,0.04224359,0.8070998,1.523321,0.2276154,0.3744447,1.095945,0.2993077,290.982,234.9776,357.094,False
1,0.7222228,-0.8362567,0.715627,-0.05374452,-1.410578,-4.309525,-3.010398,0.615127,1.192582,0.4964912,-1.556667,0.04961342,0,0,-0.1159999,-0.1788457,0.1221599,-0.7153789,-4.328105,0.1721651,0.6732533,1.459548,0.415781,0.1207053,-0.117887,-0.173128,-0.8916509,0.3109745,0.04160364,0.8075669,1.523161,0.2277749,0.370682,1.099663,0.3014723,290.2927,235.524,357.4445,False
1,0.7333339,-0.8690028,0.627175,-0.04262158,-1.410951,-4.313658,-2.999098,0.6137598,1.19283,0.4960692,-1.556907,-0.02224964,0,0,-0.1373315,-0.1798605,0.1191304,-0.7145789,-4.331428,0.1768643,0.6738782,1.459674,0.4160688,0.1249666,-0.1168243,-0.1731673,-0.8935779,0.3094633,0.04100442,0.8080784,1.523063,0.2279184,0.3671494,1.103525,0.3031571,289.5801,235.9285,357.7928,False
1,0.7444451,-0.9060009,0.531251,-0.02932012,-1.411541,-4.316565,-2.987326,0.6125195,1.193022,0.4954174,-1.557641,-0.06667268,0,0,-0.1501877,-0.1861824,0.1117315,-0.7139876,-4.335226,0.18183,0.6745269,1.45978,0.4163921,0.1259777,-0.1178995,-0.1795723,-0.8958991,0.3077683,0.04059004,0.8086261,1.522799,0.2281311,0.3639429,1.107456,0.304146,288.8293,236.1421,358.2172,False
1,0.7555562,-0.9365829,0.4310715,-0.02133572,-1.411747,-4.31827,-2.975783,0.6109416,1.193289,0.4947968,-1.556725,0.08445675,0,0,-0.1703634,-0.2022146,0.1213635,-0.7128105,-4.339891,0.1879268,0.6751755,1.459923,0.4166679,0.1151939,-0.1243077,-0.1943866,-0.8986667,0.3057655,0.04088059,0.8092102,1.522589,0.2282643,0.3612468,1.111349,0.3043614,288.0656,235.9817,358.7681,False
1,0.7666674,-0.9545082,0.3682804,0.001367807,-1.412851,-4.320397,-2.964141,0.6095058,1.193467,0.4941094,-1.556215,0.04603475,0,0,-0.1776824,-0.2172667,0.1394141,-0.7112568,-4.344939,0.1938914,0.675854,1.459908,0.4170306,0.1150593,-0.124321,-0.2093001,-0.9015823,0.3041506,0.04059856,0.8097285,1.522396,0.2284598,0.3588926,1.115168,0.3037745,287.3692,235.6893,359.1468,False
1,0.7777785,-0.9744603,0.2767189,0.02208668,-1.413746,-4.32028,-2.952627,0.6077139,1.19364,0.4932606,-1.556527,-0.02851231,0,0,-0.1796763,-0.2152626,0.1554275,-0.709473,-4.349152,0.1991704,0.676469,1.46006,0.4173508,0.1117741,-0.1126172,-0.2210039,-0.9045405,0.3031591,0.03985713,0.8102623,1.522235,0.2287419,0.3568391,1.11894,0.30245,286.735,235.2661,359.4544,False
1,0.7888896,-0.9868665,0.1800009,0.04409072,-1.414777,-4.32034,-2.941372,0.6058813,1.193912,0.4923832,-1.556839,-0.02812974,0,0,-0.183865,-0.2110587,0.1629604,-0.7078746,-4.353118,0.2042916,0.6770748,1.460197,0.4176543,0.1022028,-0.1115468,-0.2187876,-0.906948,0.3017457,0.03994315,0.8107859,1.52207,0.2290077,0.3549827,1.122702,0.3005268,286.136,234.5511,359.8369,False
1,0.8000008,-0.9930776,0.09471484,0.0624598,-1.415645,-4.317359,-2.930447,0.6039013,1.194276,0.4912572,-1.556921,-0.007085034,0,0,-0.18914,-0.1993797,0.1684273,-0.7062298,-4.356612,0.2093205,0.6775981,1.46037,0.417948,0.09694295,-0.1094078,-0.2112857,-0.9091095,0.3003961,0.03985953,0.8113358,1.52191,0.2292042,0.3532739,1.126486,0.2982442,285.5173,233.816,0.1409486,False
1,0.8111119,-0.9928854,0.03189441,0.06811273,-1.416206,-4.315591,-2.919688,0.6019595,1.194609,0.4900601,-1.557458,-0.04881025,0,0,-0.2029274,-0.1855634,0.1739823,-0.7044636,-4.359841,0.2145035,0.6780368,1.460416,0.4181085,0.08213456,-0.103004,-0.1994398,-0.9109614,0.2992857,0.04015301,0.8118799,1.521689,0.2294388,0.3515795,1.1303,0.2956972,284.8875,233.0163,0.5068503,False
1,0.8222231,-0.9960067,0.006316695,0.06824681,-1.41677,-4.31481,-2.908615,0.6001221,1.194928,0.4889507,-1.557582,-0.01078871,0,0,-0.2275135,-0.1502609,0.1595592,-0.703311,-4.361008,0.2187209,0.678445,1.460539,0.4183021,0.07149109,-0.1008736,-0.1982843,-0.9132342,0.2980361,0.04046114,0.8124628,1.521514,0.229692,0.349896,1.134155,0.2930287,284.2604,232.2055,0.9344901,False
1,0.8333342,-1.003399,-0.01281727,0.078998,-1.417805,-4.313828,-2.897332,0.5981654,1.1953,0.4877737,-1.558108,-0.04794461,0,0,-0.2702217,-0.1127899,0.1431744,-0.7022814,-4.361361,0.2233785,0.6787188,1.460663,0.4184763,0.06397773,-0.09768052,-0.204614,-0.915811,0.2969498,0.04063531,0.8130417,1.521287,0.2299805,0.3482794,1.138038,0.2902255,283.636,231.3662,1.482384,False
1,0.8444453,-1.008699,-0.0180393,0.1003346,-1.419436,-4.313107,-2.8861,0.5961556,1.195567,0.4864004,-1.558133,-0.001807763,0,0,-0.2947083,-0.09784961,0.1424374,-0.7008843,-4.363067,0.2286571,0.6790859,1.460772,0.4186761,0.05212659,-0.08810805,-0.2194323,-0.9188156,0.2962201,0.0408939,0.8136362,1.521073,0.2303007,0.3467344,1.141921,0.2873846,283.0008,230.2357,2.261736,False
1,0.8555565,-0.9238106,0.1062199,0.1806143,-1.42505,-4.316747,-2.877975,0.5941385,1.19594,0.4852026,-1.558001,0.01214131,0,0,-0.329769,-0.06696968,0.1493762,-0.6989306,-4.363299,0.2336455,0.6792583,1.460876,0.4188221,0.0424547,-0.06467818,-0.2289539,-0.9216572,0.2964672,0.0406196,0.814208,1.520881,0.2306561,0.345202,1.145798,0.2846785,282.3781,229.013,3.075267,False
1,0.8666676,-0.9453679,0.1847155,0.1269528,-1.425666,-4.321286,-2.866239,0.5923136,1.196255,0.4843214,-1.558193,-0.01761333,0,0,-0.3541829,-0.05422556,0.1582156,-0.6968715,-4.364438,0.239166,0.6794415,1.461059,0.4189756,0.02323774,-0.04338337,-0.2341309,-0.9244658,0.2967232,0.04080335,0.8148124,1.520698,0.2309918,0.3435238,1.149699,0.2821544,281.7664,228.024,3.73121,False
1,0.8777788,-1.026361,0.1951347,0.1279972,-1.42775,-4.323416,-2.851841,0.5905487,1.196411,0.4831784,-1.561958,-0.3440186,0,0,-0.3679041,-0.04474618,0.1733266,-0.6945146,-4.365764,0.2448153,0.6795825,1.461163,0.4191017,0.009389699,-0.03378816,-0.2340067,-0.9269569,0.2967798,0.04112134,0.8153926,1.520478,0.2313762,0.3415715,1.153673,0.2798414,281.1852,227.5175,3.945282,False
1,0.8888899,-1.002954,0.215743,0.1822156,-1.432458,-4.324881,-2.841202,0.5884933,1.196769,0.481627,-1.558751,0.2959732,0,0,-0.3774478,-0.02770975,0.1767424,-0.6924011,-4.366072,0.2495555,0.6795806,1.461277,0.4192188,-0.004396737,-0.01886687,-0.2275039,-0.9292408,0.2971755,0.04132693,0.8159094,1.520302,0.2317262,0.3393451,1.157651,0.2780699,280.4744,227.2487,3.938641,False
1,0.900001,-0.9829118,0.2829148,0.1818544,-1.436016,-4.329571,-2.830396,0.5867401,1.197031,0.4803941,-1.555355,0.3074515,0,0,-0.3837916,-0.01068665,0.1801316,-0.6902541,-4.36629,0.2541516,0.6796341,1.461433,0.4193418,-0.02253312,-0.005016852,-0.2305518,-0.9319391,0.2978114,0.04177195,0.8164049,1.520113,0.2321026,0.3368383,1.161522,0.27702,279.8013,226.0942,5.024392,False
1,0.9111122,-1.013911,0.3245241,0.2093415,-1.440364,-4.333486,-2.817525,0.5848529,1.197264,0.4789114,-1.558907,-0.3268725,0,0,-0.3954717,0.02448574,0.180513,-0.6879062,-4.364772,0.2577716,0.6795336,1.461545,0.4194033,-0.04697032,0.02801504,-0.222901,-0.9340861,0.2996458,0.04213627,0.8169048,1.519912,0.2324429,0.3340056,1.165495,0.2764396,279.2647,226.1632,5.263248,False
1,0.9222233,-1.000149,0.3566181,0.2262127,-1.444869,-4.337224,-2.806472,0.5830699,1.19768,0.4775517,-1.561198,-0.2041274,0,0,-0.4167791,0.08209568,0.1726414,-0.6855371,-4.361327,0.2604215,0.6795526,1.461809,0.4194856,-0.04992564,0.04188775,-0.1962634,-0.9354902,0.300846,0.04205584,0.8174121,1.519701,0.2328539,0.3310389,1.169733,0.2760344,278.6968,227.433,4.533072,True
1,0.9333345,-0.9958959,0.3598771,0.2357967,-1.44908,-4.340165,-2.795296,0.5811692,1.198074,0.4763196,-1.562,-0.06895345,0,0,-0.4315357,0.1032921,0.1889161,-0.6825399,-4.359573,0.2642889,0.6794691,1.462035,0.4195845,-0.0605256,0.04189632,-0.1897758,-0.9373342,0.3014943,0.04271497,0.8179197,1.519482,0.2333131,0.32816,1.174261,0.2757659,278.0559,228.2216,4.241638,True
1,0.9444456,-0.9873399,0.3492884,0.2433048,-1.452986,-4.342381,-2.784339,0.5792862,1.198537,0.4749036,-1.567692,-0.5162131,0,0,-0.4356169,0.1052497,0.210279,-0.6792318,-4.35925,0.2689878,0.6794368,1.462277,0.4196615,-0.06909914,0.04508933,-0.1950258,-0.9396708,0.3023533,0.04329687,0.818472,1.519288,0.2337167,0.3253387,1.179272,0.2754392,277.3982,229.1323,3.778223,True
1,0.9555568,-0.9733729,0.313242,0.2669264,-1.457381,-4.343211,-2.773896,0.5772842,1.199062,0.4734998,-1.572776,-0.4560555,0,0,-0.4428048,0.09966946,0.2433201,-0.675302,-4.359519,0.2744015,0.6793401,1.462495,0.4197493,-0.07569265,0.05785348,-0.2173484,-0.9427798,0.3038458,0.04348276,0.8189727,1.51904,0.2341681,0.3228303,1.184853,0.2750188,276.6082,229.6382,3.624188,True
1,0.9666679,-0.9754421,0.2994832,0.2829849,-1.461841,-4.344703,-2.763057,0.575397,1.199434,0.4719908,-1.578648,-0.5287515,0,0,-0.4447373,0.1218804,0.2637542,-0.6713568,-4.357865,0.2780279,0.6792706,1.46265,0.4197447,-0.08860658,0.06423695,-0.2321529,-0.945795,0.3051927,0.04404975,0.8194226,1.518847,0.2346504,0.3207037,1.190983,0.2744161,275.6406,229.4741,4.047257,True
1,0.977779,-0.9754239,0.2930976,0.2830203,-1.465929,-4.346449,-2.751977,0.573561,1.199808,0.4705908,-1.58524,-0.5936927,0,0,-0.4373048,0.1304313,0.2595021,-0.6682217,-4.356297,0.2813915,0.6791871,1.462828,0.4198241,-0.09710616,0.08021358,-0.2299568,-0.9481503,0.3069478,0.04434483,0.8198841,1.518644,0.2351236,0.3189716,1.197593,0.2735147,274.5155,228.4142,5.288312,True
1,0.9888902,-0.9978439,0.3111791,0.2893196,-1.47057,-4.34898,-2.739866,0.5718918,1.200145,0.4691083,-1.59144,-0.5572875,0,0,-0.4439256,0.1050685,0.2348573,-0.6663703,-4.356664,0.2867021,0.6789781,1.463038,0.4199235,-0.09689111,0.08769186,-0.2054607,-0.9495741,0.3085126,0.04459863,0.8203088,1.518447,0.2356195,0.3176411,1.20454,0.2722421,273.2534,225.81,7.946254,True
1,1.000001,-1.012813,0.3314227,0.2977419,-1.475649,-4.351624,-2.727697,0.5701206,1.200517,0.4675934,-1.597896,-0.580965,0,0,-0.4525388,0.08917391,0.2252077,-0.664179,-4.356976,0.292189,0.6787789,1.463179,0.4200704,-0.1063826,0.09089428,-0.1947259,-0.9513956,0.3098983,0.04530916,0.8207471,1.518233,0.2361052,0.3166729,1.211634,0.2706439,271.9465,217.3799,16.26325,True
1,1.011112,-1.018317,0.3986174,0.3155157,-1.482192,-4.35615,-2.715818,0.5684547,1.200901,0.4661138,-1.603742,-0.5249843,0,0,-0.4558726,0.09144458,0.2082093,-0.6621247,-4.356116,0.2966892,0.6786146,1.463282,0.4201882,-0.114814,0.1068866,-0.1850771,-0.9531144,0.3122061,0.04552434,0.8211701,1.518066,0.236696,0.3159924,1.218713,0.26888,270.8904,180.0051,53.36255,True
1,1.022224,-1.012028,0.4337981,0.3163921,-1.487867,-4.360153,-2.704376,0.566766,1.201336,0.4646361,-1.610386,-0.5984918,0,0,-0.4593869,0.08429322,0.1708937,-0.6612187,-4.355203,0.301154,0.6783639,1.463442,0.420243,-0.1168656,0.1111559,-0.1765369,-0.9547086,0.3139855,0.04583327,0.8215941,1.517886,0.2372184,0.3154222,1.225724,0.2671205,271.1357,103.8549,129.175,True
1,1.033335,-0.9748676,0.4797357,0.3150663,-1.493825,-4.365001,-2.694418,0.5651653,1.201756,0.4632785,-1.617443,-0.6357979,0,0,-0.4723021,0.07803911,0.1549737,-0.6598732,-4.354918,0.3064617,0.6781537,1.46357,0.4203033,-0.1233146,0.1132806,-0.1828727,-0.9568663,0.3156734,0.04643061,0.8220152,1.517709,0.2377079,0.3147715,1.232673,0.2655292,272.1406,80.99102,151.7035,True
1,1.044446,-0.9409883,0.5479084,0.2965792,-1.499731,-4.371275,-2.684555,0.5635738,1.202162,0.4620762,-1.624219,-0.6100531,0,0,-0.4839591,0.0876013,0.1594126,-0.6575984,-4.353899,0.3112809,0.6779137,1.463619,0.420337,-0.1255485,0.1175293,-0.1945767,-0.959391,0.3175179,0.04681171,0.8223997,1.517526,0.2381828,0.3139406,1.239541,0.2643468,273.2117,72.48409,159.9683,True
1,1.055557,-0.886862,0.6183904,0.2993832,-1.506805,-4.377998,-2.676102,0.5620396,1.202421,0.4608231,-1.631743,-0.6790472,0,0.04,-0.4677967,0.1066139,0.1764811,-0.6545661,-4.352369,0.3144472,0.6775751,1.463656,0.4204786,-0.1288622,0.1239147,-0.208403,-0.9621298,0.3197082,0.04700266,0.8227344,1.517357,0.23873,0.3129443,1.246245,0.2637016,274.3081,68.30244,164.0892,True
1,1.066668,-0.8881613,0.6993413,0.2968256,-1.514248,-4.385626,-2.66556,0.5605145,1.202645,0.4596281,-1.637144,-0.4852574,0,1.97,-0.4422649,0.1151536,0.1699546,-0.6524447,-4.350957,0.3172762,0.6771616,1.463767,0.4205072,-0.1415453,0.1356422,-0.197647,-0.9638534,0.3220563,0.04763889,0.8230203,1.517093,0.2392879,0.3118072,1.252622,0.2637047,275.4474,65.87212,166.5839,True
1,1.077779,-0.8840321,0.7462866,0.3082961,-1.522165,-4.392655,-2.655452,0.5588972,1.202912,0.458457,-1.642778,-0.5088885,0,3.78,-0.4391936,0.1163355,0.1550231,-0.650884,-4.349467,0.3208856,0.6767647,1.463814,0.4205844,-0.1477618,0.1484446,-0.1784328,-0.9652377,0.3246612,0.04799629,0.8233113,1.516915,0.2398112,0.3103952,1.258553,0.2643977,276.5524,63.99256,168.6528,True
1,1.08889,-0.8799005,0.7975309,0.3261412,-1.530752,-4.399841,-2.645603,0.5573496,1.20316,0.4573467,-1.644423,-0.1441813,0,4.67,-0.4470464,0.1178063,0.1039791,-0.6509224,-4.347251,0.3239376,0.676379,1.463877,0.4207439,-0.1508548,0.1537836,-0.1666909,-0.9666502,0.3270387,0.04844663,0.8236359,1.516713,0.2403688,0.3086388,1.263906,0.2657508,277.6035,61.89655,171.1274,True
1,1.100002,-0.8756476,0.8050658,0.3356876,-1.538727,-4.406071,-2.635811,0.555705,1.203507,0.4563055,-1.647646,-0.2919019,0,5.5,-0.4621073,0.1008955,0.08905904,-0.6501554,-4.34676,0.3291694,0.675925,1.464055,0.4207687,-0.1517856,0.1559283,-0.1517663,-0.9677698,0.3292845,0.04885888,0.8238736,1.51649,0.2409067,0.3064014,1.268751,0.2676071,278.441,59.64386,173.9573,True
1,1.111113,-0.8777029,0.7816188,0.3347496,-1.545646,-4.411016,-2.626085,0.554056,1.203869,0.4552824,-1.650625,-0.2680826,0,6.27,-0.4759444,0.09770888,0.09127246,-0.6488265,-4.345595,0.3339159,0.6754737,1.464111,0.4205451,-0.1454254,0.1559231,-0.1550195,-0.9694897,0.3314345,0.04904291,0.8241645,1.51633,0.2415061,0.3037997,1.273206,0.2697943,279.1009,57.31908,177.0171,True
1,1.122224,-0.8797607,0.7538421,0.3221162,-1.552045,-4.415825,-2.616294,0.5525084,1.204365,0.4542036,-1.652945,-0.2086575,0,7,-0.482168,0.116748,0.1085278,-0.6464941,-4.34367,0.3378073,0.6750686,1.464276,0.4205277,-0.1487481,0.1750891,-0.168861,-0.9717678,0.3347218,0.04898033,0.8244981,1.516221,0.2420607,0.3010509,1.277371,0.272152,279.6667,54.99871,180.1498,True
1,1.133335,-0.8775666,0.7292628,0.3073317,-1.558205,-4.420567,-2.606706,0.5508584,1.204817,0.4531512,-1.654919,-0.1776244,0,7.68,-0.4787467,0.148527,0.1311276,-0.6435965,-4.340578,0.340467,0.6745654,1.464535,0.4205744,-0.1552012,0.1857389,-0.1762723,-0.9738429,0.3377784,0.04915237,0.8247755,1.516004,0.2425644,0.2983593,1.281353,0.2744589,280.212,53.00782,182.9735,True
1,1.144446,-0.8699042,0.6568389,0.3045041,-1.563561,-4.423159,-2.597273,0.5492092,1.205329,0.4521158,-1.656532,-0.1450302,0,8.57,-0.4668952,0.1654432,0.1450165,-0.6408764,-4.338111,0.3432927,0.6741408,1.464735,0.4205227,-0.1712261,0.1995861,-0.1814752,-0.9760006,0.3411207,0.04972601,0.825098,1.515885,0.2431445,0.2959403,1.285232,0.2764803,280.7671,51.53082,185.2204,True
1,1.155557,-0.8515334,0.5695891,0.3145401,-1.568645,-4.424152,-2.58853,0.5473191,1.20609,0.4509676,-1.658166,-0.1473359,0,9.4,-0.4689776,0.1611328,0.1513909,-0.638577,-4.336624,0.3473207,0.6736099,1.464993,0.4205713,-0.1786498,0.2038547,-0.178217,-0.9777354,0.3441465,0.05021523,0.825317,1.515815,0.2438285,0.2938712,1.289124,0.2780485,281.3311,50.64356,186.7039,True
1,1.166668,-0.8235199,0.4620562,0.3118992,4.710636,-4.423933,-2.580422,0.5453657,1.206961,0.449801,-1.659548,-0.1244074,0,10.18,-0.4816398,0.1717077,0.1643758,-0.6356497,-4.334109,0.3511026,0.6731221,1.465208,0.4205134,-0.1796554,0.2070505,-0.1718215,-0.9793045,0.3470221,0.05057662,0.8255681,1.515665,0.2443991,0.2921536,1.29309,0.2791075,281.9472,50.21509,187.5208,True
1,1.17778,-0.7966897,0.3906654,0.2941534,4.70719,-4.424277,-2.572459,0.5434384,1.207741,0.4486928,-1.661273,-0.1561244,0,10.91,-0.483825,0.1248387,0.1640165,-0.6340219,-4.335576,0.3576868,0.6725575,1.465461,0.4204719,-0.1849481,0.2049209,-0.167509,-0.9808976,0.349705,0.05132977,0.825748,1.515528,0.2449238,0.2908014,1.297158,0.2795796,282.6012,49.92187,188.0485,True
1,1.188891,-0.7559877,0.3096524,0.2625996,4.705067,-4.424115,-2.565437,0.5415399,1.208589,0.4476147,-1.662803,-0.1380882,0,11.45,-0.4996653,0.160981,0.1761599,-0.6308703,-4.332164,0.3609947,0.6719915,1.465636,0.4203935,-0.1828204,0.2027905,-0.1675234,-0.9825664,0.3524165,0.05184083,0.825956,1.515371,0.2454572,0.2897107,1.301365,0.2793657,283.2844,49.79758,188.2643,True
1,1.200002,-0.7238845,0.2574036,0.2340977,4.702916,-4.424283,-2.558529,0.5397663,1.209447,0.4464378,-1.663645,-0.07551415,0,11.96,-0.4985269,0.1651767,0.1836406,-0.6281236,-4.330583,0.3650259,0.6714677,1.465779,0.4203005,-0.1881791,0.2049193,-0.1717329,-0.9843885,0.3553349,0.05235988,0.8260676,1.515223,0.2459788,0.2888876,1.305589,0.2784839,283.9815,50.16402,187.8002,True
1,1.211113,-0.6887035,0.2456943,0.2170998,4.700014,-4.425213,-2.552006,0.5378859,1.210315,0.4453576,-1.665065,-0.1290998,0,12.43,-0.4910317,0.1896618,0.1848397,-0.6251946,-4.327315,0.3675144,0.6708018,1.466028,0.4201419,-0.1849782,0.2059865,-0.1706969,-0.986095,0.3582492,0.05276974,0.826248,1.515067,0.2464249,0.2882803,1.309677,0.2771174,284.652,50.9587,186.6983,True
1,1.222224,-0.6663172,0.243555,0.2022043,4.696882,-4.426426,-2.545522,0.5359576,1.211018,0.4442992,-1.665599,-0.04756756,0,12.87,-0.4953187,0.2259391,0.1777122,-0.6222577,-4.322656,0.3694164,0.6699908,1.466242,0.4199908,-0.191291,0.2049228,-0.1621201,-0.9875379,0.3608968,0.05361795,0.8263757,1.51494,0.2469161,0.2878174,1.313477,0.2754799,285.2672,51.91438,185.3257,True
1,1.233335,-0.6375537,0.2414801,0.1968881,4.693583,-4.427435,-2.539338,0.5340338,1.211853,0.4433622,-1.666192,-0.05382798,0,13.28,-0.5146886,0.2474756,0.152481,-0.6201496,-4.31773,0.371813,0.6692305,1.466419,0.4199283,-0.1933615,0.2070647,-0.1557086,-0.9888999,0.3639086,0.05414819,0.8265119,1.514843,0.2475369,0.2873127,1.31695,0.273785,285.78,52.7079,184.069,True
1,1.244446,-0.6289828,0.2244762,0.201232,4.690488,-4.427581,-2.532523,0.5320846,1.212662,0.4422929,-1.6664,-0.01849614,0,14.14,-0.5319239,0.246596,0.1313131,-0.61841,-4.314064,0.375469,0.6684928,1.46661,0.4197342,-0.1922536,0.2059979,-0.1514596,-0.9903859,0.3666334,0.05471598,0.8267044,1.514681,0.2480516,0.2865311,1.320132,0.2722772,286.2115,53.25667,183.0727,True
1,1.255558,-0.6555274,0.191306,0.1833268,4.688413,-4.427711,-2.524263,0.5301933,1.213662,0.4414496,-1.666785,-0.03507335,0,14.95,-0.5479723,0.2424194,0.1239572,-0.6164035,-4.310667,0.3793425,0.6676978,1.466801,0.4195015,-0.1878186,0.2006855,-0.1323213,-0.9910884,0.3690808,0.0552518,0.8267862,1.514566,0.248538,0.2853734,1.323034,0.2711615,286.5681,53.50245,182.5074,True
1,1.266669,-0.6213233,0.1519794,0.1824533,4.68652,-4.426888,-2.518499,0.5280604,1.214522,0.4404087,-1.666267,0.04775229,0,15.7,-0.5458138,0.2349187,0.1281416,-0.6140381,-4.308115,0.3831418,0.6670322,1.466955,0.4192562,-0.1952364,0.198563,-0.1279917,-0.9922699,0.3717352,0.05618764,0.8269775,1.514518,0.2489684,0.2838522,1.325715,0.2705313,286.8471,53.39249,182.519,True
1,1.27778,-0.5636844,0.1115807,0.1645137,4.685659,-4.426191,-2.514234,0.5260724,1.215464,0.439213,-1.664877,0.1267082,0,16.41,-0.5288233,0.2349514,0.1216012,-0.612029,-4.304606,0.3855629,0.6661782,1.467229,0.4189782,-0.2101431,0.1953708,-0.1267863,-0.9935306,0.3743422,0.05766569,0.8270027,1.514304,0.2493761,0.282075,1.328268,0.2703116,287.0611,53.00544,183.0494,True
1,1.288891,-0.5401153,0.06470082,0.1498184,4.68525,-4.42496,-2.508835,0.5240439,1.21639,0.4381404,-1.667384,-0.2301335,0,19,-0.525694,0.2328753,0.1141016,-0.6101382,-4.301181,0.3886077,0.6653786,1.467509,0.4187369,-0.2292809,0.1953803,-0.1223487,-0.9945713,0.3770979,0.05941326,0.8270834,1.514191,0.2498097,0.2801767,1.33089,0.2703683,287.2095,52.62273,183.7204,True
1,1.300002,-0.527199,0.02107432,0.1521761,4.684488,-4.422901,-2.50333,0.522216,1.217392,0.4370658,-1.669159,-0.1601833,0,21.42,-0.5245697,0.2466824,0.1195266,-0.6074782,-4.296877,0.3909994,0.6644512,1.467712,0.4184523,-0.2398203,0.2028525,-0.1105393,-0.9952238,0.3802159,0.06064817,0.8272182,1.514146,0.2502236,0.2783521,1.33358,0.2705043,287.5228,52.35828,184.3691,True
1,1.311113,-0.5035934,-0.03962993,0.1428962,4.684996,-4.420029,-2.498425,0.5201658,1.21841,0.4360089,-1.668034,0.103869,0,23.69,-0.5267558,0.2360795,0.1141333,-0.6055709,-4.293832,0.3944701,0.6635026,1.468023,0.4181478,-0.247244,0.20925,-0.1072827,-0.9961543,0.3833495,0.06191477,0.8272938,1.514083,0.2506967,0.2767486,1.336181,0.270493,287.9713,52.31654,184.7828,True
1,1.322224,-0.4639916,-0.1066972,0.1304468,4.686285,-4.416561,-2.494493,0.5181192,1.21939,0.434988,-1.667652,0.03373523,0,25.81,-0.5395986,0.2297481,0.1077974,-0.6037855,-4.290784,0.3984062,0.662629,1.468225,0.4177561,-0.2579152,0.2262936,-0.1103953,-0.9972596,0.3870811,0.06300187,0.8274348,1.514013,0.2511384,0.2753622,1.338669,0.2701438,288.3767,52.28422,185.0415,True
1,1.333336,-0.4329095,-0.1759644,0.1094896,4.688373,-4.412869,-2.490532,0.5160846,1.220241,0.4340515,-1.668138,-0.04471593,0,27.8,-0.5481071,0.2254839,0.1099665,-0.6016054,-4.287691,0.4023056,0.6616036,1.468523,0.4172845,-0.2644279,0.2390677,-0.125271,-0.9990508,0.3909334,0.06397978,0.8275435,1.513946,0.2516158,0.2742215,1.341099,0.2693347,288.6937,52.19457,185.2151,True
1,1.344447,-0.4125309,-0.220726,0.09907846,4.68992,-4.409133,-2.486612,0.5141208,1.220956,0.4331582,-1.669029,-0.08108932,0,33.45,-0.5610831,0.2128826,0.08866557,-0.6005881,-4.284824,0.406605,0.6605145,1.468704,0.4167938,-0.2774248,0.2582213,-0.1475304,-1.001106,0.3952148,0.06534811,0.8276734,1.513841,0.2521486,0.2732936,1.343488,0.2679657,288.9887,52.36005,184.9879,True
1,1.355558,-0.3997188,-0.2313645,0.0948671,4.69101,-4.40621,-2.482495,0.5121791,1.22165,0.4322777,-1.668876,0.01446507,0,38.74,-0.5763831,0.2228654,0.04199978,-0.6005124,-4.279499,0.4092091,0.6592305,1.468835,0.4162424,-0.2817515,0.2678029,-0.1549572,-1.002882,0.3993101,0.06644214,0.8277377,1.51378,0.2527106,0.2726107,1.345716,0.2660475,289.2943,52.81498,184.2907,True
1,1.366669,-0.378432,-0.2249512,0.08630288,4.691764,-4.404191,-2.478962,0.510347,1.222344,0.4314651,-1.668653,0.0201094,0,43.68,-0.5722811,0.2667286,0.01781721,-0.5992832,-4.271858,0.4090818,0.6578782,1.468977,0.41574,-0.2997388,0.3051006,-0.14205,-1.003685,0.4049321,0.06734495,0.8277111,1.513715,0.253309,0.2721316,1.347676,0.2636802,289.5671,53.42372,183.2435,True
1,1.37778,-0.3582505,-0.2035656,0.09044296,4.691772,-4.402353,-2.475746,0.5084813,1.222891,0.4306796,-1.668212,0.03992531,0,48.31,-0.5638174,0.3723542,-0.002714723,-0.5969321,-4.258487,0.4038665,0.6563771,1.469164,0.4152281,-0.3154709,0.3456147,-0.115308,-1.00361,0.4111688,0.06795935,0.8276676,1.513705,0.2540319,0.2717362,1.349361,0.2610497,289.7618,53.9682,182.1097,True
1,1.388891,-0.3136776,-0.1437896,0.08904514,4.690704,-4.402199,-2.47385,0.5067312,1.223303,0.4299147,-1.66855,-0.03138221,0,54.29,-0.5850395,0.5002661,-0.008969411,-0.5934657,-4.242306,0.3976907,0.6551055,1.469283,0.4146137,-0.3217688,0.3679946,-0.104611,-1.004045,0.4168862,0.06869571,0.8275895,1.513712,0.2546294,0.271244,1.350861,0.2583942,289.845,54.45691,180.9797,True
1,1.400002,-0.2903353,-0.1117763,0.08779897,4.690188,-4.401389,-2.471319,0.5049412,1.223849,0.4290276,-1.668349,0.01807893,0,61.49,-0.6062188,0.5545577,-0.0008953512,-0.5901027,-4.229105,0.3941811,0.6538191,1.469369,0.4140141,-0.2991813,0.3701457,-0.08137955,-1.0039,0.4217964,0.06847786,0.8275915,1.513704,0.2552075,0.2705616,1.352211,0.2559896,289.8838,54.93163,179.9092,True
1,1.411114,-0.2724044,-0.05105926,0.07681993,4.688897,-4.402256,-2.468975,0.503407,1.224209,0.4281745,-1.668547,-0.01943462,0,68.22,-0.6047142,0.5861254,0.04729445,-0.5852749,-4.218476,0.39191,0.6527352,1.469459,0.4132996,-0.2830327,0.3733528,-0.06234997,-1.003636,0.4266915,0.06848026,0.8275216,1.513605,0.2557642,0.2696025,1.353402,0.2540533,289.9529,55.25075,179.1059,True
1,1.422225,-0.2650372,-0.01594313,0.06598586,4.68806,-4.402595,-2.466429,0.5017404,1.224711,0.4272292,-1.666457,0.1898622,0,74.52,-0.5853656,0.5667285,0.07148063,-0.5816695,-4.210327,0.3909853,0.651608,1.469491,0.4128106,-0.2787893,0.3776086,-0.06451682,-1.004103,0.4317861,0.06868106,0.8274262,1.513499,0.2563405,0.2682866,1.354365,0.2527394,290.0793,55.37505,178.7081,True
1,1.433336,-0.2502552,0.02659932,0.04445,4.687188,-4.404064,-2.464193,0.5002178,1.225042,0.4262862,-1.664433,0.181604,0,80.42,-0.5449108,0.4824634,0.07898172,-0.579694,-4.206953,0.3927891,0.6505766,1.469423,0.4124217,-0.2681462,0.374414,-0.06567789,-1.004633,0.436647,0.06871009,0.8273934,1.513366,0.2568512,0.2665647,1.355103,0.2519875,290.1732,55.26196,178.8159,True
1,1.444447,-0.2418645,0.07450479,0.03675006,4.685575,-4.405429,-2.461971,0.4986079,1.22537,0.4253457,-1.661755,0.2413075,0,86.99,-0.5135454,0.3400906,0.02748641,-0.5814682,-4.207536,0.3980462,0.6493765,1.469217,0.4121652,-0.2607771,0.3744004,-0.07533242,-1.005493,0.4415469,0.06871568,0.8271025,1.513334,0.2573862,0.2645029,1.355588,0.2517423,290.2114,55.0223,179.2573,True
1,1.455558,-0.2313062,0.106466,0.03125144,4.68403,-4.407093,-2.459816,0.4970376,1.22571,0.4244416,-1.659039,0.2439515,0,93.14,-0.4845032,0.2128412,-0.04942281,-0.5848739,-4.208342,0.4031381,0.6482221,1.469112,0.4119086,-0.2554898,0.365874,-0.07856247,-1.006158,0.446075,0.06903899,0.8269271,1.513314,0.2578998,0.2621275,1.355888,0.2518096,290.1999,54.67202,179.9733,True
1,1.466669,-0.2122761,0.1565676,0.02671719,4.681803,-4.409564,-2.45818,0.4954323,1.226098,0.4235151,-1.655547,0.3143827,0,98.9,-0.4671534,0.1442266,-0.1300364,-0.5885479,-4.205866,0.4058956,0.6469818,1.468961,0.4115281,-0.251217,0.3648163,-0.07752586,-1.006595,0.4509568,0.06903499,0.8269393,1.51338,0.2584105,0.2595647,1.355969,0.2520488,290.1675,54.32507,180.7352,True
1,1.47778,-0.1888864,0.1725975,0.02342233,4.680255,-4.411312,-2.456932,0.4938487,1.226583,0.4224911,-1.651566,0.3583213,0,100,-0.4663536,0.1476786,-0.1619763,-0.5905043,-4.200979,0.4069939,0.6458408,1.468854,0.4111605,-0.2275747,0.3605725,-0.05429775,-1.006101,0.4555485,0.06833351,0.8267521,1.513434,0.2589457,0.2568449,1.355874,0.2523118,290.1057,53.83617,181.6197,True
1,1.488891,-0.1728662,0.1599048,0.03200382,4.67892,-4.411931,-2.455554,0.4923477,1.227097,0.4215517,-1.647456,0.3691543,0,100,-0.4672843,0.1955348,-0.1509281,-0.5898784,-4.193518,0.4061664,0.6448072,1.468664,0.4107077,-0.1985843,0.3424778,-0.02897459,-1.005359,0.4592213,0.06758144,0.8265501,1.513462,0.2594645,0.2540134,1.355635,0.2524844,289.9949,53.3301,182.4758,True
1,1.500003,-0.1707055,0.1481931,0.033131,4.677831,-4.412539,-2.453651,0.4908049,1.227588,0.4206226,-1.642661,0.4313758,0,100,-0.4605982,0.2251062,-0.1198506,-0.5887147,-4.187504,0.4060029,0.6437886,1.468618,0.4102585,-0.1867265,0.3318371,-0.01414964,-1.004713,0.4631136,0.06708689,0.8263209,1.513514,0.2598813,0.25107,1.355277,0.2525068,289.8521,52.82198,183.2958,True
1,1.511114,-0.1781234,0.1332131,0.0246903,4.677223,-4.413261,-2.451452,0.4894254,1.228148,0.4196513,-1.636655,0.5409417,0,100,-0.4406669,0.249958,-0.03351898,-0.5849729,-4.183415,0.4068136,0.6429863,1.468689,0.4097881,-0.1771042,0.3201207,-0.009965123,-1.004506,0.4667967,0.06678196,0.826117,1.513516,0.2602408,0.2481239,1.354742,0.2522888,289.6792,52.26509,184.1595,True
1,1.522225,-0.1855681,0.1267269,0.01087963,4.676702,-4.414456,-2.44918,0.4879728,1.228679,0.4187582,-1.629589,0.6365505,0,100,-0.4296952,0.2442979,0.00576758,-0.5827588,-4.180316,0.408702,0.6421095,1.468662,0.4093332,-0.1824125,0.3158534,-0.007793472,-1.004391,0.4706246,0.06695693,0.825843,1.513532,0.2606411,0.245292,1.353983,0.251737,289.4564,51.65231,185.0122,True
1,1.533336,-0.1940745,0.1213816,0.01197679,4.675822,-4.415244,-2.446752,0.486532,1.22929,0.4178236,-1.622127,0.6717083,0,100,-0.4241822,0.2441103,0.02809227,-0.5807827,-4.176607,0.410151,0.6412542,1.46872,0.4088855,-0.1824576,0.3126585,-0.01311483,-1.004457,0.4747041,0.06676784,0.825579,1.513585,0.2610912,0.2425694,1.353036,0.2507993,289.1664,51.10316,185.6936,True
1,1.544447,-0.1982869,0.1054172,0.01845761,4.675004,-4.415398,-2.444451,0.4850988,1.229919,0.4168196,-1.614276,0.7065252,0,100,-0.4305164,0.260049,0.03360055,-0.5789494,-4.171216,0.4107399,0.6403645,1.468609,0.4084771,-0.1676655,0.2977297,-0.02706366,-1.0048,0.4780851,0.06623388,0.8253111,1.513641,0.2614832,0.2399511,1.351949,0.2495101,288.8015,50.71848,186.087,True
1,1.555558,-0.2078335,0.09155209,0.02066509,4.674423,-4.415627,-2.441844,0.4836985,1.230575,0.4158702,-1.6057,0.7719236,0,100,-0.4177397,0.2728353,0.03145932,-0.5773835,-4.165418,0.4101715,0.6396564,1.468672,0.4081321,-0.151692,0.2881375,-0.02719467,-1.004829,0.4814757,0.0655846,0.8250631,1.513756,0.261827,0.2373433,1.350776,0.2479862,288.4014,50.43016,186.2539,True
1,1.566669,-0.223751,0.07019689,0.01972088,4.674176,-4.415635,-2.438856,0.4823813,1.231303,0.415035,-1.596778,0.8026721,0.32,100,-0.401763,0.2578899,0.03333201,-0.5760593,-4.161751,0.4110818,0.6388807,1.468661,0.4077203,-0.1356458,0.275355,-0.01985921,-1.004453,0.4845522,0.06484398,0.8247423,1.513756,0.2621143,0.2346892,1.34956,0.2463422,287.9917,49.96441,186.5692,True
1,1.577781,-0.230131,0.0659118,0.01868086,4.673662,-4.415971,-2.436089,0.4810066,1.231964,0.4141283,-1.586756,0.9025705,1.4,100,-0.3772127,0.2066282,0.04549703,-0.5749786,-4.161569,0.4142848,0.6382039,1.468738,0.4074678,-0.1271362,0.2551133,-0.02097963,-1.004517,0.4871536,0.0646019,0.8245087,1.513767,0.2622931,0.2320035,1.348275,0.2446422,287.5999,49.37434,187.051,True
1,1.588892,-0.2481864,0.04673352,0.02944459,4.673185,-4.415336,-2.432602,0.4797703,1.232636,0.413337,-1.576041,0.964698,2.4,100,-0.3559272,0.1490366,0.05123661,-0.5744396,-4.162257,0.4183176,0.6375216,1.468719,0.4072452,-0.1240052,0.2401905,-0.02845335,-1.004981,0.48979,0.06443199,0.8242393,1.513825,0.2625494,0.229306,1.346886,0.2429461,287.185,48.77954,187.5581,True
1,1.600003,-0.2620166,0.03926056,0.03481606,4.672643,-4.415132,-2.429219,0.4785544,1.233303,0.4125278,-1.565283,0.9675832,6.02,100,-0.3388975,0.1127737,0.0539976,-0.5738266,-4.16284,0.4219449,0.6368479,1.468751,0.4069746,-0.1176056,0.2252795,-0.02743565,-1.005163,0.4922363,0.06419816,0.8240206,1.513906,0.2627752,0.2266015,1.345392,0.2413108,286.7404,48.18686,188.0678,True
1,1.611114,-0.2811287,0.01901477,0.04451849,4.672327,-4.414201,-2.425357,0.4772041,1.233912,0.4118137,-1.553156,1.092612,9.4,100,-0.3006193,0.07652786,0.05126102,-0.573361,-4.163672,0.4248972,0.6363637,1.468899,0.4066885,-0.1143248,0.2167637,-0.01786429,-1.004861,0.4947792,0.06399203,0.8237067,1.514014,0.263067,0.2238652,1.343776,0.2397821,286.3128,47.492,188.7011,True
1,1.622225,-0.3012723,-0.008701988,0.05427441,4.672194,-4.412663,-2.421504,0.4758209,1.234548,0.4110544,-1.54111,1.083511,12.57,100,-0.2943397,0.07982033,0.03844917,-0.5729461,-4.16186,0.4266083,0.6355992,1.468896,0.4063959,-0.1035456,0.2114498,-0.00411992,-1.004486,0.4974042,0.06339628,0.8234794,1.514035,0.2632291,0.2211475,1.342025,0.2383594,285.8697,46.54002,189.6378,True
1,1.633336,-0.3193007,-0.03534202,0.06294449,4.6723,-4.41103,-2.417286,0.4745072,1.235209,0.4103596,-1.528094,1.172058,15.54,100,-0.2900427,0.111777,0.03866872,-0.5715868,-4.158149,0.4265963,0.6349703,1.468988,0.406086,-0.09920675,0.2029331,0.004372503,-1.004049,0.4997306,0.06308043,0.8231803,1.514187,0.263485,0.2184118,1.340159,0.2370083,285.4327,45.54542,190.6515,True
1,1.644447,-0.3266827,-0.05982901,0.0716038,4.672416,-4.409222,-2.413439,0.4732218,1.235776,0.4095423,-1.515049,1.173742,20.14,100,-0.2876718,0.1275429,0.06541134,-0.5693119,-4.156184,0.4280952,0.6343931,1.469032,0.4057312,-0.0884413,0.1773724,0.01707876,-1.003429,0.5009511,0.06304847,0.8228203,1.51419,0.2636137,0.2156234,1.338197,0.2356627,285.0038,44.44061,191.7925,True
1,1.655559,-0.3266419,-0.07367211,0.07274133,4.672641,-4.407701,-2.409748,0.4719252,1.236418,0.4088304,-1.501273,1.240309,24.45,100,-0.2810505,0.1401135,0.09102564,-0.5668416,-4.154268,0.4293921,0.6338465,1.469073,0.4053769,-0.08417267,0.1656555,0.01811588,-1.003109,0.502657,0.06293689,0.8225524,1.51424,0.2636905,0.2128139,1.336137,0.2342368,284.5667,43.19723,193.0853,True
1,1.66667,-0.3372897,-0.07262692,0.07701255,4.67235,-4.406368,-2.405734,0.4705812,1.236965,0.4080124,-1.487841,1.208138,28.48,100,-0.2745805,0.1496199,0.100635,-0.5647899,-4.151966,0.4304595,0.6332968,1.469157,0.4049919,-0.08748471,0.162455,0.005364531,-1.003391,0.5048222,0.06286019,0.8223629,1.514246,0.2638054,0.2100532,1.333971,0.2326796,284.0951,41.87061,194.4459,True
1,1.677781,-0.345798,-0.07689624,0.080235,4.672286,-4.404934,-2.40146,0.4692689,1.237534,0.4073262,-1.47393,1.252044,32.25,100,-0.2638264,0.1441794,0.1132851,-0.5626072,-4.150796,0.4320683,0.6327546,1.469158,0.4046102,-0.09073855,0.1613846,-0.0009971005,-1.003506,0.5069503,0.062853,0.8220882,1.514286,0.2639325,0.2073839,1.331676,0.2309551,283.6162,40.5243,195.7805,True
1,1.688892,-0.3575478,-0.06631204,0.0748668,4.671959,-4.404182,-2.396971,0.4680422,1.237966,0.4066563,-1.459235,1.323093,35.77,100,-0.2616849,0.1292308,0.1174046,-0.5609517,-4.150247,0.434617,0.6321269,1.469202,0.4042397,-0.08857227,0.1603239,0.003247254,-1.003172,0.5090711,0.06265353,0.8218437,1.514294,0.2641132,0.204762,1.329253,0.2290775,283.1152,39.1573,197.0476,True
1,1.700003,-0.3682367,-0.05572807,0.0684263,4.671781,-4.403533,-2.392427,0.4668385,1.238567,0.4059706,-1.444475,1.328615,39.27,100,-0.2596118,0.1356747,0.1110512,-0.5591754,-4.148048,0.4357805,0.6316258,1.46907,0.4038565,-0.0852778,0.1635287,0.01386722,-1.002542,0.5113533,0.06224899,0.8215244,1.514391,0.2642131,0.2021242,1.326727,0.2270937,282.5959,37.58184,198.4639,True
1,1.711114,-0.3671948,-0.04828475,0.06519105,4.671521,-4.402875,-2.38828,0.4656085,1.239079,0.4053366,-1.429696,1.330209,42.55,100,-0.252259,0.1496248,0.09724934,-0.5577394,-4.144836,0.4356929,0.63106,1.468979,0.4035542,-0.08093885,0.1677962,0.02234678,-1.001909,0.5136985,0.06176536,0.8212613,1.51443,0.2643931,0.1995009,1.324109,0.2250947,282.0402,35.83592,200.0191,True
1,1.722225,-0.371475,-0.04191893,0.06303084,4.671244,-4.402163,-2.383978,0.4644236,1.239636,0.4046695,-1.415064,1.316773,45.62,100,-0.2331475,0.1656606,0.08762889,-0.5561048,-4.14123,0.4345909,0.6306072,1.468833,0.4032319,-0.07445967,0.167803,0.03186898,-1.001216,0.5158803,0.06120663,0.8210654,1.514445,0.2644928,0.1968972,1.321434,0.2231905,281.4658,33.87846,201.7916,True
1,1.733337,-0.3640227,-0.04084851,0.05982564,4.671138,-4.401468,-2.380162,0.4632785,1.240153,0.4040291,-1.400978,1.26721,48.49,100,-0.211942,0.1518563,0.0788181,-0.5550347,-4.139698,0.4351214,0.6301068,1.468806,0.4029477,-0.06592932,0.158217,0.03286751,-1.00072,0.5175571,0.06075709,0.8208091,1.514504,0.2645595,0.1942872,1.318791,0.2214462,280.8914,31.65602,203.8785,True
1,1.744448,-0.3629752,-0.03659885,0.0576725,4.670946,-4.400817,-2.376057,0.4621815,1.240614,0.4033558,-1.386441,1.308808,51.18,100,-0.2121427,0.1168639,0.05936541,-0.5548733,-4.139315,0.4372053,0.6295848,1.468706,0.4025288,-0.06908801,0.157145,0.03716373,-1.000005,0.519384,0.06069664,0.8205647,1.514544,0.2645233,0.1916994,1.316195,0.2199043,280.3888,29.27914,206.183,True
1,1.755559,-0.3651659,-0.01642858,0.04798619,4.670464,-4.400867,-2.371942,0.4610504,1.241101,0.4030466,-1.372519,1.252214,53.25,100,-0.2218276,0.1063029,0.04976365,-0.5543934,-4.137853,0.4388596,0.6291811,1.468574,0.4021628,-0.07339787,0.1539449,0.03187746,-0.9997389,0.5213094,0.06062739,0.8203107,1.514573,0.2645731,0.1891522,1.313666,0.218546,279.9575,26.71014,208.7548,True
1,1.76667,-0.3619874,-0.01110952,0.04476108,4.670129,-4.400619,-2.367962,0.4599653,1.241562,0.4024842,-1.358049,1.303011,55.18,100,-0.2099306,0.1306477,0.0679699,-0.5521803,-4.134967,0.4384085,0.628705,1.468513,0.4018102,-0.06919809,0.1550008,0.02544922,-0.999519,0.5233578,0.06019516,0.8200399,1.514655,0.2646973,0.1866952,1.311169,0.2173345,279.5976,24.17401,211.3455,True
1,1.777781,-0.3609437,-0.003665149,0.04259658,4.669683,-4.400359,-2.363961,0.4589151,1.242097,0.4019477,-1.343916,1.271841,56.99,100,-0.1969542,0.1571046,0.08831707,-0.5496098,-4.131805,0.4375925,0.6283445,1.468411,0.4014649,-0.06814159,0.1443513,0.02439071,-0.9990849,0.5249311,0.06002259,0.8198695,1.514718,0.2646766,0.1843186,1.308695,0.2162291,279.2607,21.5363,214.0087,True
1,1.788892,-0.3577269,-0.01112371,0.04050309,4.669666,-4.399847,-2.360054,0.4578936,1.242626,0.4014204,-1.330277,1.227278,58.68,100,-0.1915686,0.1698412,0.09370253,-0.5475368,-4.12878,0.4369821,0.627918,1.468396,0.401031,-0.06171581,0.1400942,0.02753049,-0.9986145,0.5266437,0.05951552,0.8196101,1.514755,0.2645814,0.1819703,1.306269,0.2152657,278.9297,18.6761,216.8473,True
1,1.800003,-0.3534552,-0.01322908,0.0426527,4.669294,-4.399241,-2.356328,0.456914,1.243118,0.4011149,-1.316737,1.218696,59.05,100,-0.1863027,0.1730958,0.08621863,-0.5461621,-4.12571,0.4362718,0.6275121,1.46836,0.400697,-0.05315351,0.1368932,0.0317081,-0.9981623,0.5281827,0.05894241,0.8193791,1.51475,0.2645614,0.179636,1.303906,0.214397,278.6518,15.57415,220.0039,True
1,1.811115,-0.3566585,-0.01111902,0.04051279,4.669077,-4.398973,-2.352328,0.4559278,1.243614,0.4006536,-1.303638,1.178798,59.4,100,-0.1831075,0.150698,0.08920797,-0.5448311,-4.124999,0.437589,0.6271847,1.468234,0.4003539,-0.04460843,0.1187819,0.03484257,-0.9976537,0.5289689,0.05875253,0.8191649,1.514791,0.264514,0.1773506,1.301623,0.2135646,278.4098,12.24157,223.4458,True
1,1.822226,-0.3587761,-0.015411,0.03627902,4.669064,-4.398534,-2.348345,0.4548515,1.24412,0.4003596,-1.290928,1.143712,59.73,100,-0.1723888,0.1335594,0.09962626,-0.5432103,-4.124526,0.4387731,0.6267869,1.468075,0.4000385,-0.04248787,0.1166478,0.03375778,-0.9972942,0.5303335,0.0584183,0.8189033,1.514839,0.2644696,0.1751972,1.299407,0.2127205,278.1844,8.906139,226.8736,True
1,1.833337,-0.3640833,-0.02291141,0.03099417,4.669312,-4.398058,-2.344091,0.4538103,1.244626,0.3999789,-1.278138,1.151585,60.04,100,-0.1522012,0.1271734,0.09515475,-0.5417493,-4.123239,0.4388101,0.6263448,1.468112,0.399714,-0.04465467,0.1187796,0.02951195,-0.9970252,0.532088,0.05798873,0.8186711,1.514874,0.2644281,0.1732096,1.297255,0.2118623,277.9928,5.551259,230.2546,True
1,1.844448,-0.3715203,-0.02930545,0.03422521,4.669335,-4.397363,-2.339632,0.4527867,1.245229,0.3996711,-1.265973,1.0946,60.32,100,-0.1404369,0.1207182,0.1013962,-0.5400614,-4.122328,0.439188,0.6259826,1.46806,0.3993692,-0.0446877,0.1091884,0.02526047,-0.9968175,0.5331565,0.05780791,0.8183702,1.514988,0.2644773,0.1712926,1.295208,0.2109589,277.819,2.231641,233.5622,True
1,1.855559,-0.3746607,-0.0485122,0.03006632,4.670002,-4.396402,-2.335371,0.4518297,1.245723,0.3990552,-1.253997,1.078281,59.41,100,-0.1436617,0.1303338,0.09830102,-0.5384374,-4.119978,0.4390932,0.625608,1.467974,0.3990331,-0.03937333,0.09533773,0.02415927,-0.9965751,0.5338349,0.05770564,0.8181416,1.515051,0.264396,0.1694123,1.293288,0.2100283,277.654,358.9819,236.7648,True
1,1.86667,-0.3703014,-0.0826106,0.02597994,4.671302,-4.394904,-2.331292,0.4507971,1.246434,0.3986483,-1.242467,1.037743,58.56,100,-0.1370974,0.1408257,0.1175069,-0.5358291,-4.118162,0.4388381,0.625265,1.467991,0.3987169,-0.03722005,0.08788541,0.02734145,-0.9961133,0.5347305,0.05762574,0.8178592,1.515082,0.2643077,0.1675733,1.29152,0.2090808,277.5102,355.6286,240.0731,True
1,1.877781,-0.3670063,-0.1177933,0.01977265,4.672978,-4.393182,-2.327197,0.4497976,1.247259,0.398514,-1.23182,0.9577721,57.77,100,-0.1274136,0.1353827,0.1301661,-0.5335377,-4.117515,0.4394541,0.625066,1.468045,0.3983529,-0.02976601,0.07936434,0.02728176,-0.9957634,0.535477,0.05731735,0.8176512,1.515055,0.2641134,0.1658099,1.289947,0.2081203,277.4125,352.2677,243.4313,True
1,1.888893,-0.3637607,-0.1348339,0.01879415,4.674355,-4.391643,-2.323141,0.4487972,1.24796,0.3981433,-1.221606,0.9190956,57.02,100,-0.1295673,0.1322038,0.1280264,-0.5317762,-4.116223,0.4399049,0.6247656,1.468083,0.3979943,-0.02969607,0.07191257,0.03581347,-0.9949953,0.5360737,0.05741429,0.8173873,1.51515,0.2640512,0.1641812,1.28856,0.2070842,277.3318,349.4153,246.3331,True
1,1.900004,-0.3690606,-0.141262,0.01563619,4.675516,-4.390384,-2.318914,0.4477946,1.248665,0.3978226,-1.211503,0.9094454,55.03,100,-0.1379804,0.1353085,0.140901,-0.5293224,-4.114929,0.4406517,0.6245341,1.467961,0.3976102,-0.0350012,0.06765411,0.03799844,-0.9944142,0.5367957,0.05754266,0.8171337,1.515234,0.2639325,0.162731,1.287354,0.2059533,277.2079,346.674,249.0359,True
1,1.911115,-0.3807518,-0.1519936,0.007175501,4.677145,-4.389155,-2.314321,0.4467962,1.249291,0.397521,-1.201704,0.8819079,53.16,100,-0.138834,0.1575005,0.1634561,-0.5260239,-4.112626,0.4402155,0.6242556,1.467958,0.3971577,-0.02969089,0.06338104,0.03688716,-0.9940637,0.5372925,0.05749498,0.8169407,1.515286,0.2637472,0.1614642,1.286319,0.2047681,277.0634,344.0834,251.4859,True
1,1.922226,-0.3903291,-0.1552353,0.002937483,4.678448,-4.388074,-2.30974,0.4458014,1.249846,0.3972762,-1.191955,0.877627,51.41,100,-0.1376548,0.1744501,0.1753062,-0.522803,-4.110102,0.4395449,0.6239963,1.467865,0.3967693,-0.02545917,0.06124695,0.03365466,-0.9937698,0.5379928,0.05723825,0.8166963,1.515345,0.2636008,0.1602749,1.285438,0.2035384,276.9555,341.981,253.4209,True
1,1.933337,-0.4020135,-0.164802,0.01364635,4.679699,-4.386235,-2.304803,0.444751,1.250493,0.396929,-1.182367,0.8633835,49.78,100,-0.1429456,0.1904176,0.1776087,-0.519897,-4.107062,0.4386463,0.6237407,1.467888,0.3963778,-0.02114188,0.05486191,0.04001593,-0.9930453,0.5384431,0.05709471,0.8164352,1.515402,0.2633953,0.1590957,1.284675,0.2023125,276.8632,340.1654,255.0575,True
1,1.944448,-0.4202445,-0.1254591,0.01025402,4.679765,-4.386158,-2.299531,0.4437041,1.251094,0.3967392,-1.173473,0.8001596,48.25,100,-0.1438989,0.1967095,0.1904589,-0.5165212,-4.104884,0.4384485,0.6234895,1.467748,0.3960183,-0.01357312,0.04741349,0.05274075,-0.9919705,0.5386493,0.05691122,0.8161988,1.515495,0.2632406,0.1579043,1.28399,0.2011429,276.7545,338.4814,256.5655,True
1,1.955559,-0.4448577,-0.08716479,0.01326399,4.679327,-4.38624,-2.293777,0.4427,1.251647,0.3965404,-1.164576,0.8012159,45.68,100,-0.1277256,0.2029028,0.2127463,-0.5126628,-4.103175,0.4378074,0.6232457,1.467688,0.395649,-0.003954757,0.0506098,0.05584735,-0.9912089,0.5394121,0.05615541,0.8159491,1.515537,0.2630832,0.1566837,1.283365,0.200076,276.6766,336.7331,258.1696,True
1,1.966671,-0.5078346,-0.04253327,0.02904519,4.677949,-4.3863,-2.28602,0.4416508,1.252217,0.396462,-1.15584,0.7865382,43.28,100,-0.09466305,0.2092311,0.2167817,-0.5092677,-4.100534,0.4353997,0.6230612,1.467626,0.3953547,-0.004012842,0.05166978,0.04945325,-0.9909143,0.5401425,0.05580974,0.8156339,1.515543,0.2628958,0.1553926,1.282835,0.1990863,276.641,334.6628,260.1288,True
1,1.977782,-0.5387442,-0.03620522,0.03435478,4.67768,-4.385761,-2.278938,0.4406018,1.252891,0.3962049,-1.147248,0.7736854,41.03,100,-0.07878805,0.1954498,0.2058853,-0.5069188,-4.099152,0.4344889,0.6228141,1.467659,0.3950403,0.005582795,0.04847307,0.0504347,-0.9902895,0.540612,0.05520147,0.8153262,1.5156,0.2626531,0.1539746,1.282448,0.1982745,276.6406,332.4189,262.2235,True
1,1.988893,-0.5663688,-0.0607734,0.03662406,4.678663,-4.384329,-2.271704,0.4394849,1.254034,0.3957801,-1.137396,0.8891824,38.92,100,-0.075992,0.1094432,0.1700172,-0.5070893,-4.10299,0.4387654,0.6225768,1.46779,0.3948541,0.0140513,0.04633693,0.04503602,-0.9898826,0.5411214,0.05455672,0.8150717,1.515695,0.2624834,0.1524375,1.282253,0.1977335,276.6981,330.3461,264.1804,True
1,2.000004,-0.5663318,-0.075782,0.01645992,4.679964,-4.383953,-2.265558,0.4384282,1.25508,0.3953831,-1.130199,0.6454561,36.46,100,-0.07520299,0.06598006,0.1430297,-0.5066409,-4.104806,0.4412791,0.6223644,1.467839,0.3946073,0.01398606,0.03354558,0.03864737,-0.9897707,0.5410005,0.05456577,0.8149666,1.515736,0.2622402,0.150754,1.282399,0.1974628,276.8336,328.2709,266.2646,True
1,2.011115,-0.5736805,-0.1163951,-0.004631523,4.6824,-4.382856,-2.25896,0.4371799,1.256357,0.3951082,-1.123493,0.6041097,34.16,100,-0.06868411,0.05838916,0.1588951,-0.5043089,-4.105913,0.4427561,0.6221867,1.467898,0.3943403,0.01498459,0.02821286,0.0311828,-0.9897052,0.5411746,0.05425498,0.8147779,1.515802,0.2620263,0.1490533,1.282994,0.1973396,276.9436,326.818,267.9355,False
1,2.022226,-0.5746493,-0.1505852,-0.02043759,4.685131,-4.381543,-2.252475,0.4359306,1.25743,0.3943248,-1.118758,0.4246092,32.01,100,-0.05369128,0.02310982,0.1723315,-0.5025119,-4.109528,0.4459732,0.6221417,1.468062,0.3940892,0.01830007,0.02503179,0.04500279,-0.9887087,0.5413643,0.05392582,0.8146111,1.515872,0.2617519,0.1474499,1.28415,0.1971639,276.9604,325.9539,269.0958,False
1,2.033337,-0.5713232,-0.1964324,-0.02978907,4.688495,-4.379674,-2.246087,0.4345772,1.258854,0.3940949,-1.113436,0.4802549,30,100,-0.06108863,-0.001469273,0.1828485,-0.5007558,-4.113157,0.4501368,0.622026,1.46819,0.3937161,0.01400654,0.012245,0.04185944,-0.9882991,0.5409527,0.0541679,0.8144658,1.515917,0.2614999,0.1460629,1.285817,0.1968832,276.8488,326.561,268.66,False
1,2.044448,-0.5722899,-0.2316467,-0.03918448,4.691664,-4.377808,-2.239627,0.4333308,1.26033,0.3946702,-1.109178,0.3828619,28.11,100,-0.07994886,-0.01453676,0.2212589,-0.4975786,-4.11756,0.4554522,0.6220131,1.468353,0.3933644,0.008579865,0.005844795,0.03126022,-0.9883689,0.5407776,0.05442196,0.8144056,1.515933,0.2612181,0.1448299,1.287946,0.1964093,276.6712,328.4707,266.8271,False
1,2.055559,-0.5679888,-0.2454941,-0.04124535,4.694528,-4.376225,-2.233396,0.4320406,1.261665,0.3944743,-1.105583,0.3234225,25.78,100,-0.08819017,-0.004126757,0.2533756,-0.4938374,-4.120391,0.4592001,0.6218851,1.468516,0.392926,0.000961395,0.004761546,0.01429088,-0.9887475,0.5407856,0.05479001,0.8142923,1.516003,0.2609522,0.1437396,1.29042,0.1956414,276.467,331.4651,263.8463,False
1,2.06667,-0.5615141,-0.2742774,-0.04748906,4.698042,-4.374307,-2.22743,0.4308385,1.263042,0.3945897,-1.102323,0.2935168,23.6,100,-0.08680594,0.03182911,0.286683,-0.4891652,-4.121192,0.4607748,0.6215765,1.468672,0.3925538,-0.01405374,0.00262802,0.003773955,-0.9890858,0.540853,0.05550001,0.8140609,1.516114,0.2607796,0.142911,1.293118,0.1946906,276.1902,334.0551,261.0056,False
1,2.077781,-0.5465231,-0.2997769,-0.04310487,4.701495,-4.372099,-2.22191,0.4296958,1.264311,0.3940063,-1.099782,0.2283817,21.56,100,-0.09304065,0.05514741,0.3029065,-0.4851752,-4.122099,0.4628443,0.6213527,1.468916,0.3921964,-0.02147063,0.002632419,0.008100864,-0.9888631,0.5408742,0.05593491,0.8138736,1.516217,0.2605183,0.142355,1.295957,0.1937817,275.9024,336.6357,258.0087,False
1,2.088892,-0.519825,-0.3220745,-0.04406844,4.705202,-4.369906,-2.21708,0.4284949,1.265718,0.3936212,-1.097693,0.1877973,19.65,100,-0.1165057,0.06265678,0.2988988,-0.4820125,-4.123417,0.4661022,0.6211293,1.46918,0.3917527,-0.02569707,0.001570281,0.01240513,-0.9885271,0.5408021,0.05643345,0.8137572,1.516214,0.2602508,0.1418337,1.298896,0.1929127,275.6786,340.2651,254.0789,False
1,2.100003,-0.4889202,-0.3263096,-0.05364771,4.70879,-4.368303,-2.212737,0.4272819,1.2669,0.3926673,-1.096083,0.1444194,17.86,100,-0.1346682,0.06272645,0.2937264,-0.4789631,-4.124944,0.4696543,0.6208985,1.469439,0.3913028,-0.0363207,-0.005885985,0.01570075,-0.9883012,0.5403705,0.05739405,0.8136657,1.516307,0.2599819,0.1413464,1.301819,0.1921049,275.5046,344.7032,249.4873,False
1,2.111114,-0.4420892,-0.3167156,-0.07928945,4.712319,-4.367788,-2.209584,0.4260972,1.26802,0.3921499,-1.094961,0.1003344,16.11,100,-0.1546913,0.06467074,0.3194785,-0.4747186,-4.127857,0.4746342,0.6205925,1.469598,0.3907268,-0.04908628,-0.005871177,0.01794561,-0.9880674,0.5404706,0.05833574,0.8136047,1.516263,0.2596753,0.1408138,1.304642,0.1912007,275.4061,349.4623,244.7245,False
1,2.122225,-0.4240324,-0.3007623,-0.09536163,-1.567686,-4.367398,-2.205349,0.4249409,1.269189,0.391813,-1.09384,0.1007174,14.47,100,-0.1619233,0.0815334,0.3431223,-0.4697933,-4.129694,0.4781637,0.6203122,1.469775,0.3900862,-0.063941,-0.0005387738,0.02446709,-0.9875593,0.5406058,0.05947211,0.8134755,1.516284,0.2593796,0.1402182,1.307272,0.1901249,275.3231,354.034,240.1488,False
1,2.133336,-0.4145806,-0.2571183,-0.1073112,-1.565623,-4.367868,-2.201122,0.423684,1.269989,0.3913696,-1.093532,0.0263873,12.93,100,-0.1650501,0.08467701,0.3506332,-0.4656351,-4.131742,0.4818694,0.6199085,1.469914,0.3894529,-0.07136238,0.003726482,0.02879344,-0.9870884,0.5407678,0.06041674,0.8134032,1.516335,0.2591064,0.1395186,1.309606,0.1888336,275.2358,358.4492,235.6599,False
1,2.144447,-0.4136004,-0.2284145,-0.1213066,-1.563415,-4.36844,-2.196648,0.4224588,1.270833,0.3908908,-1.091183,0.2136993,11.49,100,-0.1620155,0.09763093,0.3294072,-0.4622736,-4.131656,0.4834444,0.6191686,1.469875,0.3887472,-0.07988359,0.01011944,0.02886496,-0.9867443,0.5411382,0.06139412,0.813307,1.516353,0.2588565,0.1387948,1.311504,0.1875361,275.0888,2.216365,231.6208,False
1,2.155558,-0.4041238,-0.1911071,-0.1225703,-1.561972,-4.36915,-2.192565,0.4211119,1.271413,0.390568,-1.089877,0.1168885,10.23,99.35,-0.1579739,0.09463517,0.3037803,-0.4596627,-4.132403,0.4857185,0.6184904,1.470042,0.3880956,-0.0969612,0.02396557,0.02581438,-0.9864764,0.5419788,0.0626988,0.8131979,1.516336,0.2585964,0.1379358,1.313026,0.1863954,274.8961,4.220315,229.2829,False
1,2.166669,-0.3732888,-0.1707473,-0.1163012,-1.560275,-4.369179,-2.18945,0.4197062,1.272147,0.390214,-1.088653,0.1104116,9.05,97.82,-0.1490118,0.08136169,0.2311515,-0.4593655,-4.131565,0.4863132,0.6175867,1.470185,0.3873742,-0.1267539,0.04101719,0.02926872,-0.9859257,0.5431948,0.06440455,0.8130147,1.516374,0.2584031,0.1368168,1.314294,0.1855262,274.7305,5.185152,228.0912,False
1,2.17778,-0.3243126,-0.1567132,-0.1078786,-1.558614,-4.369086,-2.187589,0.4183264,1.272879,0.3898656,-1.088193,0.04070624,7.95,96.39,-0.1581674,0.06705019,0.1576045,-0.4597415,-4.130356,0.4872991,0.6165729,1.470429,0.3866742,-0.1576174,0.05807017,0.03273325,-0.9853131,0.5446045,0.06637103,0.8129336,1.516336,0.2582405,0.1354493,1.315442,0.1849821,274.576,5.50794,227.7009,False
1,2.188891,-0.2912915,-0.1544517,-0.1015159,-1.556769,-4.368869,-2.185519,0.4170775,1.273444,0.389549,-1.088447,-0.02397139,6.91,95.05,-0.1669651,0.08545084,0.1226691,-0.4588887,-4.12737,0.4867904,0.6156127,1.470631,0.3858964,-0.1778659,0.06552897,0.03184488,-0.9849195,0.5457754,0.06840915,0.8128142,1.516375,0.2580276,0.1338976,1.316563,0.1847809,274.4857,5.79908,227.466,False
1,2.200002,-0.2497775,-0.1425873,-0.09520043,-1.555289,-4.36874,-2.18407,0.415902,1.273794,0.3890152,-1.089044,-0.0548679,5.94,93.79,-0.162802,0.1431178,0.1039213,-0.4566027,-4.120966,0.482699,0.6145904,1.470936,0.3851602,-0.1960317,0.06765436,0.02561685,-0.9847879,0.546658,0.07061505,0.8125566,1.516462,0.2579632,0.1322717,1.317703,0.1848295,274.459,6.344497,227.112,False
1,2.211113,-0.2040014,-0.1307001,-0.0888947,-1.554002,-4.368752,-2.183394,0.4147498,1.274049,0.3886228,-1.088194,0.07774279,5.43,91.74,-0.1605117,0.2240082,0.1130738,-0.4527757,-4.112098,0.476455,0.613566,1.471078,0.3842115,-0.2088348,0.07830711,0.02359398,-0.9844849,0.5481036,0.07256182,0.8123437,1.516553,0.2577999,0.1307329,1.318797,0.1850187,274.4946,7.911524,225.8043,False
1,2.222224,-0.1497363,-0.1081426,-0.0837089,-1.553238,-4.369061,-2.183415,0.4136637,1.274546,0.3884916,-1.088043,0.0125688,4.96,89.83,-0.1698989,0.2867508,0.1285774,-0.4485115,-4.103297,0.470718,0.6126876,1.471208,0.383291,-0.2193563,0.11348,0.03751042,-0.9833722,0.5510264,0.07371017,0.8119701,1.516633,0.2576513,0.1293689,1.319768,0.1852111,274.5735,9.996848,223.9893,False
1,2.233335,-0.09436045,-0.1026847,-0.09015893,-1.551756,-4.369519,-2.184195,0.4127142,1.274804,0.3879766,-1.088177,-0.01269136,4.52,88.04,-0.1993822,0.3706981,0.1593287,-0.4428107,-4.091514,0.4633906,0.6118249,1.471365,0.3823102,-0.215895,0.15825,0.0662038,-0.9814612,0.5547446,0.07397676,0.8116304,1.516636,0.2576253,0.1281749,1.320549,0.1852604,274.6819,12.28493,221.9225,False
1,2.244446,-0.05494985,-0.1069328,-0.1093362,-1.54946,-4.370229,-2.184584,0.411952,1.27504,0.3874869,-1.088252,-0.007254077,4.11,86.37,-0.2087216,0.3779314,0.189292,-0.4381379,-4.085328,0.4605974,0.6110408,1.471453,0.3814464,-0.2050368,0.1806399,0.08845731,-0.9794862,0.5579579,0.07410032,0.8112857,1.51669,0.257565,0.1271291,1.321076,0.1851278,274.7379,13.90728,220.3612,False
1,2.255557,-0.01982687,-0.09837776,-0.1232507,-1.547709,-4.371192,-2.185311,0.411233,1.275046,0.3867676,-1.088368,-0.01098091,4.01,83.2,-0.2065402,0.3437652,0.1985835,-0.4348393,-4.082321,0.4599258,0.6101981,1.4715,0.3805559,-0.2027653,0.1987583,0.1033325,-0.9776555,0.561117,0.0744516,0.8109057,1.516789,0.2575307,0.1261637,1.321342,0.1848525,274.7159,14.65319,219.5784,False
1,2.266668,-0.002838633,-0.08133784,-0.1340012,-1.546357,-4.372493,-2.185811,0.4104285,1.274992,0.3862245,-1.087362,0.09153136,3.91,80.23,-0.2045762,0.2586104,0.18936,-0.4332601,-4.084341,0.4639687,0.6093969,1.471406,0.3798585,-0.2135347,0.2051365,0.09063685,-0.9770115,0.5639638,0.0756881,0.8106759,1.516866,0.2574928,0.1252609,1.321272,0.1844331,274.6544,15.74027,218.4994,False
1,2.277779,0.0194454,-0.05251563,-0.1341491,-1.545907,-4.373677,-2.18665,0.4095675,1.274613,0.3856714,-1.087028,0.02936604,3.82,77.45,-0.1983722,0.1969284,0.1749601,-0.4319999,-4.085776,0.4673054,0.6085045,1.471362,0.3791466,-0.2265475,0.2061802,0.06624541,-0.9769998,0.5667024,0.07723966,0.8104404,1.516894,0.2573447,0.1244088,1.320855,0.1838847,274.5153,16.55245,217.7077,False
1,2.28889,0.04806248,-0.002328768,-0.128033,-1.54654,-4.375628,-2.188092,0.4087333,1.274045,0.3850894,-1.086298,0.06629826,3.74,74.85,-0.1781017,0.1136465,0.06224972,-0.4355515,-4.085515,0.4683275,0.6074016,1.470996,0.3784356,-0.2310524,0.2082928,0.03965258,-0.9772032,0.5696879,0.07832117,0.8100834,1.516922,0.2573655,0.1235294,1.320133,0.183224,274.3515,16.66221,217.5822,False
1,2.300001,0.0702848,0.04999871,-0.1155239,-1.547962,-4.377468,-2.189524,0.4079641,1.273661,0.3848009,-1.086127,0.01472607,3.66,72.41,-0.1796847,0.1162791,0.0004856866,-0.4367051,-4.08004,0.465463,0.60639,1.47065,0.3777704,-0.2238066,0.226383,0.01613031,-0.9775602,0.5734742,0.07843169,0.8097043,1.516991,0.257318,0.1225406,1.319184,0.1825378,274.1639,15.79057,218.3622,False
1,2.311112,0.1063135,0.1184005,-0.09352681,-1.550853,-4.379867,-2.191944,0.4073113,1.27301,0.3842144,-1.086336,-0.01946499,5.13,69.18,-0.171689,0.188231,-0.07144402,-0.4374141,-4.066718,0.4549673,0.6053672,1.470132,0.3769555,-0.1939707,0.2285107,0.01692639,-0.9770834,0.5765711,0.07785033,0.8092864,1.517015,0.2573519,0.1214296,1.318049,0.1819325,274.0261,14.28869,219.7644,False
1,2.322223,0.1328251,0.1632955,-0.07885922,-1.553166,-4.38195,-2.194279,0.4068878,1.272446,0.3836112,-1.085951,0.03511286,6.51,66.17,-0.1569517,0.225703,-0.09683358,-0.4374162,-4.056908,0.4473176,0.6045046,1.469815,0.3763406,-0.1479719,0.2157377,0.03782659,-0.9757929,0.5787447,0.07661621,0.8088346,1.517136,0.2572963,0.1202091,1.316755,0.1815365,273.9309,11.75919,222.2087,False
1,2.333334,0.1423521,0.1846573,-0.07364871,-1.555069,-4.384086,-2.196155,0.4065214,1.271799,0.3830178,-1.086503,-0.05107743,7.79,63.34,-0.1133907,0.2119054,-0.1090307,-0.437968,-4.051192,0.4418741,0.6037697,1.469274,0.3757925,-0.09016752,0.1965886,0.06820746,-0.9740282,0.5805584,0.0747757,0.8083011,1.51721,0.2571397,0.1189141,1.315387,0.1814558,273.8701,7.592713,226.3625,False
1,2.344445,0.1411494,0.2304377,-0.07708205,-1.557663,-4.387199,-2.197554,0.4063827,1.270932,0.382159,-1.08607,0.03976764,8.99,60.7,-0.09872904,0.1694729,-0.1339861,-0.4397401,-4.048371,0.4399254,0.6031764,1.468894,0.3752759,-0.06556264,0.1784859,0.07971929,-0.9726381,0.5820714,0.07378421,0.8078188,1.517304,0.2569928,0.1176032,1.313963,0.1816987,273.9392,3.369373,230.7559,False
1,2.355556,0.1399564,0.2741386,-0.07198139,-1.561042,-4.390427,-2.199043,0.4062452,1.269997,0.3816173,-1.085184,0.08039398,12.39,57.39,-0.07961327,0.08313349,-0.1305757,-0.4418019,-4.051437,0.4429982,0.6025382,1.468501,0.3748679,-0.03779039,0.1582597,0.08800793,-0.9712985,0.5834617,0.07250775,0.8072678,1.517395,0.256819,0.1163893,1.312485,0.1821752,274.0457,359.6696,234.7828,False
1,2.366668,0.1420317,0.29662,-0.05185428,-1.564349,-4.392621,-2.20065,0.4060052,1.268984,0.3810887,-1.084348,0.07559825,15.57,54.29,-0.04994285,0.009677291,-0.1409953,-0.4442904,-4.054198,0.4450078,0.601782,1.468192,0.374599,-0.03147139,0.1380162,0.08051221,-0.9706141,0.5845415,0.07211174,0.8065468,1.517454,0.256629,0.1152793,1.310995,0.1827433,274.1538,356.7295,238.106,False
1,2.377779,0.1494851,0.2998933,-0.04122233,-1.567088,-4.394715,-2.202563,0.4057561,1.268161,0.3806267,-1.084157,0.01670417,18.54,51.39,-0.0299862,-0.03592752,-0.1692288,-0.4477296,-4.055542,0.445851,0.6010939,1.467916,0.3742707,-0.003819868,0.1401293,0.07493319,-0.9698876,0.5863332,0.07022809,0.8059767,1.517523,0.2564826,0.1142663,1.309547,0.183323,274.2924,354.1145,241.053,False
1,2.38889,0.1889733,0.2809938,-0.01024741,-1.569555,-4.395281,-2.206013,0.4055861,1.267539,0.3807395,-1.084095,0.005460652,21.33,48.68,-0.00273969,-0.08670911,-0.2167436,-0.4524769,-4.056863,0.4462225,0.6003007,1.467633,0.374007,0.01733336,0.1284045,0.05770609,-0.9697427,0.5877886,0.06844244,0.8053355,1.517681,0.256299,0.1133483,1.308177,0.1839192,274.4748,351.8757,243.5203,False
1,2.400001,0.2167202,0.2662037,-0.001664527,4.71159,-4.396542,-2.209305,0.4053568,1.266808,0.3803155,-1.084245,-0.01386059,23.93,46.14,0.0132308,-0.08138791,-0.2179007,-0.4549111,-4.055748,0.4446616,0.5995111,1.467352,0.373661,0.007722035,0.1166828,0.0546122,-0.9691126,0.5888451,0.06806054,0.8047004,1.517817,0.2560482,0.1124966,1.306898,0.1844546,274.6844,350.2289,245.384,False
1,2.411112,0.2594765,0.2194978,0.006010752,4.710686,-4.39678,-2.213639,0.4052626,1.266035,0.3800263,-1.085597,-0.1235552,27.34,43.51,0.02508286,-0.05487137,-0.2050027,-0.456403,-4.053435,0.4419188,0.5987924,1.467162,0.3733182,0.002526723,0.1113729,0.06958133,-0.9677006,0.5900685,0.06756653,0.8040516,1.518062,0.25582,0.111777,1.305698,0.1849,274.8405,348.5603,247.2131,False
1,2.422223,0.2797668,0.2035544,0.002887644,4.709397,-4.397818,-2.217356,0.4050941,1.265007,0.3792715,-1.08532,0.02616841,30.53,41.05,0.02840438,-0.01766454,-0.195135,-0.4574432,-4.049413,0.4378114,0.5980916,1.467001,0.372911,-0.001530223,0.1071327,0.09199513,-0.965798,0.5912338,0.06701285,0.8032876,1.518223,0.2555549,0.1113236,1.304477,0.1852718,274.9762,347.6075,248.2726,False
1,2.433334,0.2968603,0.1865389,-0.001294959,4.70831,-4.398838,-2.221241,0.4050395,1.264132,0.3790421,-1.085993,-0.06215729,33.52,38.75,0.01489848,0.03533994,-0.1605068,-0.4570884,-4.044188,0.4334345,0.5973488,1.466981,0.3725388,-0.009926885,0.1082103,0.1059197,-0.9641325,0.5925704,0.0666259,0.802593,1.518355,0.2554586,0.1109712,1.303164,0.185451,275.101,347.4829,248.5325,False
1,2.444445,0.3128884,0.1705745,-0.005472939,4.707238,-4.399601,-2.225248,0.4049847,1.263119,0.3787942,-1.085134,0.0788958,36.32,36.59,0.003372014,0.05649576,-0.1400029,-0.4574352,-4.040663,0.4306715,0.5965773,1.466848,0.3720918,-0.02918013,0.1177945,0.09756289,-0.9632164,0.594506,0.06648448,0.8018926,1.518566,0.2553177,0.1107594,1.301588,0.1853857,275.1902,348.0967,248.0474,False
1,2.455556,0.3214973,0.1429304,-7.987954E-06,4.706598,-4.399864,-2.229122,0.4048361,1.262254,0.3786225,-1.084907,0.0197563,38.8,34.83,-0.01126167,0.09783046,-0.1118459,-0.4566389,-4.035415,0.426567,0.5957906,1.46672,0.3715804,-0.04417044,0.1348487,0.08809106,-0.9624893,0.5972269,0.06580698,0.8012588,1.518594,0.2549469,0.1105156,1.299683,0.1850169,275.2545,347.6847,248.4918,False
1,2.466667,0.3483545,0.0695305,0.005685052,4.707669,-4.398639,-2.233827,0.4046673,1.261289,0.3782372,-1.084775,0.01181778,41.06,33.4,-0.01014496,0.1404434,-0.1115094,-0.4565755,-4.02813,0.4199978,0.5949785,1.466432,0.3711979,-0.05279982,0.1529493,0.07643282,-0.9619061,0.5999734,0.06511962,0.8005015,1.518874,0.2548845,0.1103096,1.29743,0.1845119,275.2483,345.2855,250.7589,False
1,2.477778,0.3634159,0.02055826,0.004864782,4.708747,-4.397772,-2.23832,0.4044462,1.260563,0.3781006,-1.084417,0.03247919,43.17,32.06,-0.000665009,0.160803,-0.1274106,-0.4574432,-4.02125,0.4134384,0.5941404,1.466161,0.3707893,-0.05489112,0.1550803,0.07965077,-0.96073,0.6019976,0.06450203,0.7997178,1.518954,0.2547958,0.1100998,1.294883,0.1839816,275.2313,341.4824,254.3967,False
1,2.488889,0.3881577,-0.0592747,0.003133342,4.711358,-4.39576,-2.243422,0.4042207,1.259866,0.3779035,-1.085011,-0.05466636,45.14,30.8,-0.001853764,0.1619932,-0.1423054,-0.4585788,-4.015596,0.4084203,0.5932796,1.465995,0.3705144,-0.05804611,0.1561683,0.08286672,-0.959701,0.6043786,0.06373663,0.7990087,1.519097,0.2546687,0.1098418,1.292154,0.1834545,275.2275,336.9206,258.8926,False
1,2.5,0.4010727,-0.1040177,-0.004095018,-1.569766,-4.394371,-2.248251,0.4040697,1.259084,0.3777933,-1.084648,0.03353837,46.99,29.62,0.0001583546,0.1578473,-0.1562109,-0.4599764,-4.010139,0.4034324,0.5923504,1.465725,0.3701692,-0.07082616,0.1646922,0.08297941,-0.9586027,0.6068375,0.06349562,0.7982643,1.519155,0.2546613,0.1096255,1.289275,0.1828597,275.2033,332.585,263.2608,False
1,2.511111,0.4193267,-0.1540971,-0.0166302,-1.566661,-4.392663,-2.253561,0.403848,1.258345,0.377533,-1.084983,-0.03107995,48.44,29.07,-0.0001101345,0.1357093,-0.185153,-0.4624494,-4.005823,0.3995892,0.5914391,1.46545,0.3698401,-0.072917,0.1689715,0.08618151,-0.9575278,0.6094601,0.06274008,0.7975496,1.51929,0.2546637,0.1094498,1.286339,0.1821851,275.1822,327.6287,268.2084,False
1,2.522222,0.4311478,-0.1925076,-0.03455049,-1.563486,-4.39138,-2.258618,0.4036579,1.257656,0.3775597,-1.084527,0.04183391,49.8,28.56,-0.003324941,0.1378647,-0.1872387,-0.4637293,-4.000564,0.3950898,0.5906041,1.465269,0.3694615,-0.06863559,0.1860108,0.08825465,-0.956372,0.6124389,0.06163966,0.7967566,1.519449,0.2546775,0.1093998,1.283372,0.1814153,275.137,322.8325,272.9583,False
1,2.533333,0.442932,-0.2159525,-0.04295832,-1.560564,-4.389963,-2.26394,0.4034939,1.256879,0.3773031,-1.084735,-0.01962338,51.06,28.07,-0.008910477,0.146651,-0.2190827,-0.4661581,-3.993664,0.3891933,0.5897176,1.465011,0.3690331,-0.06544215,0.1945326,0.08821907,-0.9552503,0.6153586,0.06059517,0.7960554,1.519581,0.2548442,0.1094457,1.280416,0.1805815,275.1166,318.2053,277.4779,False
1,2.544444,0.4525479,-0.2265823,-0.04397343,-1.558188,-4.38856,-2.269177,0.4033535,1.256068,0.3770225,-1.084315,0.03851669,52.24,27.62,-0.006824613,0.1616264,-0.2264365,-0.4677826,-3.986564,0.3828217,0.5889252,1.464729,0.3686752,-0.06122867,0.1902599,0.08285844,-0.9544135,0.6175591,0.05984443,0.7954358,1.519691,0.2548406,0.1095387,1.277481,0.179694,275.0695,313.7545,281.784,False
1,2.555555,0.4631935,-0.2233324,-0.039735,-1.556196,-4.387264,-2.27469,0.4033119,1.255287,0.3767405,-1.084344,-0.003221598,53.35,27.19,-0.005734414,0.1839992,-0.2262663,-0.4690194,-3.978629,0.375747,0.5881588,1.464478,0.368382,-0.05277707,0.175337,0.07534081,-0.9537265,0.6192097,0.05916212,0.7948012,1.519849,0.2547696,0.1096545,1.274576,0.178844,275.0381,309.1476,286.2021,False
1,2.566666,0.4684525,-0.1998396,-0.03240803,-1.554998,-4.386491,-2.280011,0.4034658,1.254412,0.3761761,-1.084107,0.02170161,54.39,27.31,-0.008985758,0.1691297,-0.2306175,-0.4709673,-3.973615,0.3714923,0.5874416,1.464201,0.3680968,-0.04212744,0.1540252,0.07526327,-0.9528396,0.6202911,0.05865879,0.7942418,1.520043,0.2547331,0.1097485,1.271703,0.1780427,275.0642,305.1685,290.059,False
1,2.577777,0.4769152,-0.180646,-0.03357463,-1.55365,-4.385858,-2.285524,0.403485,1.253599,0.3758731,-1.084204,-0.009248016,55.36,27.41,-0.02508536,0.1330069,-0.2403658,-0.4736879,-3.970469,0.3695219,0.5868134,1.464039,0.3678195,-0.0218917,0.1433787,0.07401933,-0.9520375,0.6219879,0.05718659,0.7937217,1.520068,0.2545533,0.1098356,1.268853,0.177293,275.1616,301.6351,293.5261,False
1,2.588888,0.4799584,-0.1294863,-0.03064516,-1.553656,-4.386184,-2.290922,0.4036764,1.252743,0.3756378,-1.083895,0.02826563,56.27,27.51,-0.0175027,0.1094208,-0.2225105,-0.4752991,-3.967851,0.3671594,0.5862284,1.463846,0.3675814,-0.01230855,0.1305939,0.07394547,-0.9511517,0.6232501,0.05633012,0.7931247,1.520202,0.2545078,0.1099737,1.266008,0.1765972,275.309,298.5426,296.6066,False
1,2.599999,0.4830548,-0.09537672,-0.02868926,-1.553501,-4.386365,-2.296391,0.4036629,1.252,0.3755288,-1.08393,-0.003513725,57.12,27.61,-0.004600316,0.1103748,-0.2098142,-0.4764209,-3.963767,0.3629303,0.5854948,1.463482,0.3673637,-0.01124504,0.123134,0.07394027,-0.9503016,0.6245239,0.05570694,0.7924894,1.520224,0.2544169,0.11016,1.263169,0.1759297,275.4929,295.7532,299.4016,False
1,2.61111,0.4690193,-0.03363223,-0.02900095,-1.554529,-4.387715,-2.301165,0.4039005,1.251016,0.3754382,-1.083731,0.01817895,58.16,27.95,0.01892251,0.1091935,-0.199373,-0.4778388,-3.959954,0.3585739,0.584908,1.463266,0.3671672,-0.00918375,0.1241938,0.06646343,-0.9497455,0.6262875,0.05474101,0.7919557,1.520274,0.2543604,0.1103578,1.260341,0.1753337,275.6835,292.8762,302.1961,False
1,2.622221,0.4604325,-0.01020623,-0.02592165,-1.554735,-4.388166,-2.306088,0.4040029,1.250088,0.3750341,-1.083681,0.004382164,59.13,28.27,0.02739717,0.1007204,-0.2058883,-0.4797125,-3.956388,0.3545602,0.5841848,1.46291,0.3670123,0.008935459,0.1124725,0.0673716,-0.9489695,0.6273082,0.05342567,0.7914997,1.520318,0.2542422,0.1105196,1.257551,0.1749116,275.9344,290.291,304.6453,False
1,2.633332,0.4464969,0.02069028,-0.01649164,-1.555546,-4.388867,-2.310657,0.4041861,1.249161,0.3746438,-1.082939,0.06773839,60.04,28.57,0.03150876,0.08058085,-0.2210066,-0.4826484,-3.954072,0.3520787,0.5836192,1.462742,0.3668659,0.02071338,0.08689904,0.07368387,-0.9478946,0.6272663,0.05276654,0.7909596,1.520328,0.2541432,0.1105616,1.254824,0.1747231,276.1968,288.1526,306.6729,False
1,2.644443,0.4304401,0.04730184,-0.01129399,-1.556612,-4.389763,-2.314918,0.404461,1.248273,0.3745794,-1.082971,-0.003510715,60.89,28.85,0.03993957,0.05827128,-0.2308349,-0.485261,-3.95251,0.3497276,0.5829785,1.462487,0.3668973,0.0153558,0.0709175,0.07055106,-0.947207,0.6275694,0.05258252,0.7904618,1.520408,0.2540183,0.1104928,1.252169,0.1748247,276.4844,286.8903,307.9622,False
1,2.655554,0.4250804,0.06006996,-0.01135338,-1.557287,-4.390553,-2.31963,0.404584,1.247529,0.3746872,-1.082649,0.02959994,61.69,29.11,0.04528241,0.05717631,-0.2276873,-0.4872259,-3.949447,0.3464975,0.5825632,1.462302,0.3667231,0.01533377,0.06878711,0.06842173,-0.9465039,0.6284841,0.05193404,0.7899442,1.52054,0.253938,0.1102992,1.249598,0.1750762,276.7546,286.1784,308.8974,False
1,2.666665,0.41013,0.07283036,-0.007149894,-1.558232,-4.391348,-2.32371,0.4048095,1.246696,0.3746715,-1.082349,0.02714207,62.2,29.54,0.05808146,0.06247938,-0.2266837,-0.4892232,-3.945922,0.3423174,0.5821431,1.461973,0.3664775,0.01745661,0.06878273,0.0673392,-0.9457151,0.6293517,0.05113003,0.789288,1.520563,0.2538333,0.1101131,1.247109,0.1754026,277.0454,285.5664,309.7549,False
1,2.677776,0.3877815,0.0663612,-0.007094461,-1.558504,-4.39151,-2.327419,0.4050442,1.245991,0.3749311,-1.082822,-0.04345196,62.67,29.94,0.0581505,0.06671005,-0.2213022,-0.4908046,-3.942508,0.3383245,0.5815507,1.461548,0.3663814,0.02282439,0.07093997,0.07154402,-0.944774,0.6307938,0.04981443,0.7888733,1.520503,0.2534196,0.11003,1.24473,0.1758053,277.352,284.7253,310.7387,False
1,2.688887,0.3707554,0.06100538,-0.002795853,-1.558927,-4.391774,-2.331017,0.4052603,1.245264,0.3749914,-1.082301,0.04807946,63.11,30.31,0.06677103,0.066608,-0.2096599,-0.4924696,-3.939552,0.3347354,0.5811151,1.461339,0.366209,0.0239261,0.06987898,0.07579882,-0.94373,0.6316688,0.04905037,0.788396,1.520649,0.2533982,0.1100105,1.242479,0.1762694,277.6092,283.924,311.6225,False
1,2.699998,0.3516029,0.05133088,-0.008065272,-1.558895,-4.392179,-2.334327,0.4055146,1.244537,0.3750162,-1.081937,0.0328607,63.52,30.66,0.07215397,0.06123932,-0.2043981,-0.493962,-3.937225,0.3314059,0.580663,1.46103,0.3661492,0.02178228,0.06028952,0.074765,-0.9428634,0.6320144,0.04870655,0.7879885,1.520702,0.2532558,0.1100603,1.240351,0.1767643,277.845,283.3794,312.2601,False
1,2.711109,0.3356583,0.03955886,-0.009060539,-1.55883,-4.392309,-2.337529,0.40571,1.243839,0.3750789,-1.081916,0.001818477,63.5,31.1,0.08603099,0.04627017,-0.1993114,-0.4959126,-3.935724,0.3286626,0.5802698,1.460853,0.36604,0.03022573,0.0570854,0.06616984,-0.9424144,0.6326513,0.04769935,0.7875279,1.52083,0.2531395,0.1101958,1.238364,0.1772482,278.0562,282.7906,312.9478,False
1,2.72222,0.3239466,0.03633004,-0.007974323,-1.55896,-4.392544,-2.340695,0.4059344,1.243125,0.3749785,-1.081769,0.01359039,63.48,31.51,0.08598787,0.03030918,-0.2015709,-0.498181,-3.93439,0.3266636,0.5800813,1.460726,0.3659246,0.03026122,0.04750496,0.0704403,-0.9414674,0.632871,0.04718376,0.7870805,1.520905,0.2530427,0.110355,1.236524,0.177638,278.2269,282.3835,313.4726,False
1,2.733331,0.3048101,0.02348864,-0.007896863,-1.558732,-4.392452,-2.343336,0.406086,1.242597,0.3750572,-1.081788,-0.001779474,63.46,31.89,0.08387953,0.01962417,-0.197378,-0.5001875,-3.933276,0.3248801,0.5797366,1.460554,0.3658793,0.03132474,0.05069695,0.07042779,-0.9406455,0.6335973,0.04641996,0.7866788,1.520955,0.2529328,0.1105361,1.234808,0.1779026,278.3531,281.9632,313.9786,False
1,2.744442,0.2899637,0.002141535,-0.006707884,-1.558196,-4.391934,-2.346108,0.4061617,1.24222,0.3750386,-1.081905,-0.01055009,63.44,32.25,0.08402044,0.03017225,-0.1834325,-0.5012155,-3.930844,0.3215716,0.5792452,1.460319,0.3658905,0.02914595,0.04110399,0.06513089,-0.9400697,0.6337684,0.04604339,0.7863669,1.520975,0.2528381,0.1107312,1.233194,0.178031,278.4593,281.5883,314.3955,False
1,2.755553,0.2836155,-0.01066092,-0.005571645,-1.557777,-4.391545,-2.349229,0.4062772,1.241849,0.3750696,-1.081541,0.03348474,63.42,32.59,0.08523548,0.04177946,-0.169474,-0.5019718,-3.928446,0.3181213,0.5789149,1.460124,0.3658514,0.03020306,0.03150995,0.06406973,-0.9393203,0.6336788,0.04566815,0.7859695,1.52106,0.2527146,0.1109433,1.231653,0.1780236,278.5688,281.2263,314.7635,False
1,2.766664,0.2761772,-0.01708055,-0.006599557,-1.557424,-4.391346,-2.352059,0.4064056,1.241446,0.3751218,-1.081787,-0.02266463,62.92,32.98,0.07691522,0.04691801,-0.1459281,-0.5026402,-3.926663,0.3160387,0.5786419,1.460101,0.365824,0.03332925,0.01871905,0.05659571,-0.9389811,0.6333467,0.04538772,0.7856569,1.521127,0.252636,0.1111588,1.230204,0.1779016,278.7129,280.4993,315.4502,False
1,2.777775,0.259147,-0.02139409,-0.007624928,-1.557223,-4.391148,-2.354383,0.40648,1.241165,0.3754001,-1.082309,-0.04744694,62.45,33.34,0.0716999,0.04150968,-0.134188,-0.5032597,-3.925442,0.3140634,0.5783534,1.460018,0.3658144,0.01940004,0.009119721,0.04820677,-0.9387488,0.6330082,0.04590304,0.7854136,1.521165,0.2525856,0.1113803,1.228873,0.1776767,278.8525,279.5948,316.2985,False
1,2.788886,0.236794,-0.0278644,-0.009709414,-1.556715,-4.390916,-2.356278,0.4065628,1.240847,0.3754821,-1.082185,0.01186518,62.01,33.68,0.05898931,0.03505016,-0.1245475,-0.5043069,-3.924434,0.3129494,0.5781267,1.459976,0.3658438,0.02361239,0.0069836,0.04284378,-0.938466,0.6329898,0.04550037,0.785111,1.521223,0.2525196,0.1116654,1.227623,0.177419,278.9474,278.8459,316.9553,False
1,2.799997,0.2250843,-0.03217378,-0.01287653,-1.556241,-4.390781,-2.358407,0.4066995,1.240428,0.3755028,-1.08177,0.03788403,61.6,34,0.05586649,0.03394447,-0.1181198,-0.5049758,-3.922999,0.3108367,0.5778186,1.459783,0.3658595,0.02783687,0.002719101,0.03961254,-0.9381422,0.6328482,0.04519837,0.7848316,1.521351,0.2524989,0.1119878,1.226423,0.177198,279.0309,278.1964,317.4636,False
1,2.811108,0.2069816,-0.03544637,-0.01711061,-1.555667,-4.390657,-2.360046,0.4067786,1.240185,0.3755646,-1.081444,0.02951627,60.69,34.26,0.05162685,0.02965967,-0.1149262,-0.5060896,-3.921901,0.3094566,0.5776103,1.45974,0.365911,0.02574326,-0.002603941,0.04389922,-0.9374913,0.6325485,0.04517387,0.7845981,1.521393,0.2523987,0.1122742,1.225291,0.1770779,279.1392,277.5309,317.9868,False
1,2.822219,0.1920672,-0.03977123,-0.02027233,-1.55506,-4.390417,-2.36155,0.406942,1.240078,0.3760889,-1.081819,-0.03432973,59.84,34.5,0.05487115,0.02427891,-0.1085883,-0.5067719,-3.921154,0.3080998,0.5776284,1.459807,0.3658431,0.02891721,-0.0026132,0.04173551,-0.9371744,0.6323693,0.04490063,0.7844632,1.521427,0.2523358,0.1124744,1.224245,0.1770525,279.2321,276.9685,318.5044,False
1,2.83333,0.1750277,-0.04298461,-0.01492058,-1.554726,-4.390078,-2.362841,0.4070889,1.239787,0.3761904,-1.081542,0.02572939,59.04,34.73,0.06338753,0.02000993,-0.108696,-0.5079075,-3.920236,0.30626,0.5774897,1.459746,0.3658817,0.02675463,-0.001521013,0.03749231,-0.9369123,0.6329541,0.04422152,0.7842975,1.521307,0.2520144,0.1126247,1.223263,0.1771148,279.2963,276.5958,318.9002,False
1,2.844441,0.1643726,-0.04301819,-0.01491621,-1.554243,-4.389865,-2.364308,0.4071732,1.239531,0.3763094,-1.081541,-5.075567E-05,58.29,34.94,0.06759636,0.001910666,-0.1110057,-0.5093045,-3.920674,0.305957,0.5774686,1.459733,0.3658671,0.02461447,-0.006858695,0.03644888,-0.9365725,0.6324261,0.04431127,0.784076,1.521329,0.2519071,0.1127536,1.222367,0.1772684,279.3995,276.0423,319.4497,False
1,2.855552,0.145229,-0.05050807,-0.01059835,-1.553805,-4.389226,-2.365404,0.4071701,1.23935,0.3765907,-1.081513,0.002761743,57.6,35.14,0.06444774,-0.01623047,-0.105788,-0.5102723,-3.921603,0.305797,0.5771322,1.459519,0.3659596,0.02461132,-0.01005753,0.03538814,-0.9361869,0.6321031,0.04412964,0.7838459,1.52144,0.2519352,0.1129433,1.221583,0.1775738,279.5062,275.4628,320.008,False
1,2.866663,0.1292455,-0.04840381,-0.006338909,-1.553532,-4.388844,-2.366303,0.4072126,1.239133,0.3767264,-1.08186,-0.03163525,56.46,35.22,0.06125016,-0.01623209,-0.1057649,-0.5115235,-3.921254,0.3049546,0.5769855,1.459485,0.3660166,0.02568495,-0.01857909,0.03645155,-0.9357666,0.6314597,0.04418451,0.7836701,1.521492,0.2518556,0.1130926,1.220923,0.1779235,279.5646,275.3337,320.2152,False
1,2.877774,0.1185931,-0.0462892,-0.003147617,-1.553277,-4.388464,-2.367388,0.4072462,1.238825,0.3765736,-1.081681,0.01676868,55.4,35.3,0.06134772,-0.01522038,-0.09722423,-0.5120646,-3.920777,0.3034464,0.5766937,1.459338,0.3660424,0.02251527,-0.01751475,0.03967752,-0.9351797,0.6311648,0.04425827,0.783305,1.521593,0.2518775,0.1131908,1.220357,0.1782511,279.5764,275.3302,320.3064,False
1,2.888885,0.1153894,-0.04308645,3.353506E-05,-1.553072,-4.388131,-2.368592,0.4072636,1.238649,0.3766713,-1.081623,0.005237368,54.4,35.36,0.05935078,-0.006823432,-0.08222935,-0.5124987,-3.920228,0.3024038,0.5765497,1.459368,0.3660955,0.02146984,-0.01005716,0.04181078,-0.9346316,0.6313051,0.04395414,0.7831175,1.521673,0.2518451,0.113254,1.219867,0.1785177,279.5912,275.3001,320.3901,False
1,2.899997,0.10899,-0.04204824,-0.002096571,-1.552733,-4.387901,-2.369573,0.4072198,1.238514,0.3768654,-1.081963,-0.0310312,53.46,35.42,0.05514799,-0.003663078,-0.07682354,-0.5128614,-3.91976,0.3013732,0.5762821,1.459185,0.3660932,0.02037704,-0.01113035,0.03862663,-0.9343104,0.6309789,0.0439331,0.7829319,1.521658,0.2517931,0.1132858,1.219439,0.1786763,279.5984,275.376,320.3858,False
1,2.911108,0.1036655,-0.04314063,-0.004218534,-1.552294,-4.387595,-2.370554,0.407164,1.238392,0.3768997,-1.082252,-0.02609013,52.59,35.48,0.04657891,-0.01214398,-0.08108411,-0.5140753,-3.920029,0.3013939,0.5760692,1.459211,0.3660316,0.01497089,-0.005785608,0.02907452,-0.9344196,0.6316085,0.04350327,0.7828068,1.521556,0.2515917,0.1133191,1.219031,0.1786815,279.5875,275.4814,320.3427,False
1,2.922219,0.0973026,-0.05386315,-0.01374882,-1.551207,-4.387232,-2.371464,0.4070422,1.238271,0.3767374,-1.082165,0.008250797,51,35.32,0.03906868,-0.01848134,-0.086399,-0.5153238,-3.920061,0.3012509,0.5761056,1.459437,0.3658798,0.01176591,0.002738113,0.02803122,-0.9341187,0.6320074,0.04325693,0.782613,1.521616,0.251507,0.1134173,1.218611,0.1785878,279.5909,275.3098,320.4633,False
1,2.93333,0.09517404,-0.05494586,-0.01587267,-1.550575,-4.386934,-2.372454,0.4069943,1.23819,0.3767016,-1.08225,-0.007749836,49.51,35.17,0.03050435,-0.01310507,-0.09160991,-0.5164759,-3.919274,0.3005409,0.5759119,1.459453,0.3658509,0.008541429,0.002734746,0.0248698,-0.9338492,0.6319898,0.04326811,0.7824299,1.521719,0.2515094,0.1135295,1.218177,0.178449,279.6146,274.9214,320.7378,False
1,2.944441,0.09413594,-0.06561053,-0.01794944,-1.549602,-4.386371,-2.373443,0.4069753,1.238219,0.3765171,-1.082282,-0.002827759,48.12,35.03,0.01887672,0.0102888,-0.08490585,-0.5166511,-3.917399,0.2988812,0.5755665,1.459354,0.365797,0.003197557,0.0006011012,0.02279267,-0.9335977,0.6318585,0.04345373,0.78229,1.521764,0.25139,0.1135878,1.217736,0.1782684,279.6338,274.5291,321.0658,False
1,2.955552,0.09841641,-0.06986476,-0.01899494,-1.548805,-4.385884,-2.374835,0.4068736,1.238239,0.3762827,-1.082451,-0.01541822,46.82,34.89,0.01587626,0.03145142,-0.06550265,-0.515996,-3.915238,0.2967779,0.5754246,1.459308,0.3656709,-0.002130793,0.0006286316,0.02069572,-0.9336425,0.6323827,0.04311871,0.7821846,1.521684,0.2511048,0.1135774,1.21728,0.1780331,279.6448,274.0513,321.5202,False
1,2.966663,0.09417541,-0.07735664,-0.02321501,-1.547746,-4.385361,-2.375782,0.4068224,1.238233,0.3760726,-1.082535,-0.007423879,44.75,34.58,-0.0008424819,0.0460785,-0.02901962,-0.5149451,-3.914001,0.296294,0.5753309,1.459364,0.3654282,0.001131349,-0.004699865,0.02812705,-0.9331141,0.631918,0.04326491,0.7820834,1.521748,0.2509611,0.1135871,1.216815,0.1777897,279.6916,273.615,321.9379,False
1,2.977774,0.08777969,-0.07525724,-0.0253498,-1.546992,-4.385034,-2.376599,0.4067518,1.238157,0.3759155,-1.082991,-0.04162509,42.81,34.29,-0.0219265,0.04801515,-0.001130801,-0.5139198,-3.912931,0.2965997,0.5754698,1.459511,0.3651295,0.004461013,-0.006826357,0.04301847,-0.9320371,0.6315146,0.04334242,0.7818848,1.521964,0.250978,0.1136185,1.216362,0.1775088,279.7581,273.1496,322.4129,False
1,2.988885,0.07603247,-0.06570518,-0.02539267,-1.546509,-4.384949,-2.377033,0.4066142,1.238122,0.3757098,-1.082626,0.03377896,41,34.02,-0.03364164,0.03628862,0.001005296,-0.5138969,-3.913059,0.2974831,0.5753751,1.459397,0.3649743,0.009786548,0.001693799,0.04296618,-0.9315226,0.6318642,0.04286704,0.7817143,1.522063,0.2509742,0.1136678,1.216023,0.1772825,279.712,272.2262,323.3962,False
1,2.999996,0.06965052,-0.07107164,-0.02855184,-1.545577,-4.384445,-2.377548,0.4064965,1.238147,0.3756876,-1.08249,0.01210412,39.31,33.77,-0.0336993,0.04062925,-0.008524189,-0.5138202,-3.911773,0.2964221,0.5748572,1.459107,0.3648629,0.005555043,0.01873946,0.04618645,-0.9308595,0.6327447,0.04246091,0.7816548,1.522085,0.2508719,0.1137569,1.215882,0.1771516,279.6288,271.8488,323.8169,False
1,3.011107,0.06540607,-0.07640538,-0.02745654,-1.544665,-4.38389,-2.378134,0.406354,1.238157,0.3754525,-1.082172,0.0290691,37.72,33.53,-0.02431651,0.04827269,-0.03304977,-0.5148413,-3.909583,0.2944766,0.5746112,1.459119,0.3647616,-0.001919787,0.02406112,0.04411998,-0.9304025,0.6331775,0.04247502,0.7815408,1.522098,0.2508309,0.1138201,1.215793,0.1770766,279.5646,271.73,323.948,False
1,3.022218,0.0622516,-0.09132688,-0.02737471,-1.543413,-4.382954,-2.378734,0.4061325,1.238368,0.3755565,-1.082296,-0.01156303,35.67,33.09,-0.01067049,0.04527022,-0.05766784,-0.5157403,-3.908104,0.2926327,0.5742785,1.459053,0.3645275,-0.0210867,0.02086388,0.04536007,-0.9299465,0.6332203,0.04340234,0.7814555,1.522156,0.2506759,0.1139499,1.215685,0.1772188,279.5436,274.097,321.5184,False
1,3.033329,0.0590794,-0.09877127,-0.02307552,-1.542426,-4.382115,-2.379305,0.406033,1.23841,0.3751552,-1.082469,-0.015624,33.74,32.68,-0.01712282,0.04106679,-0.06404004,-0.5165159,-3.907087,0.292205,0.5740694,1.458977,0.3641887,-0.02209776,0.0176574,0.05069977,-0.9292051,0.6330011,0.04365906,0.7813722,1.522182,0.2505488,0.1138096,1.215692,0.1771091,279.5536,272.5682,323.1401,False
1,3.04444,0.06017106,-0.1072848,-0.02196675,-1.541246,-4.381194,-2.380036,0.4058212,1.238449,0.3748987,-1.082559,-0.008053849,31.94,32.29,-0.03080438,0.04304437,-0.0436715,-0.5161904,-3.906131,0.2923405,0.5740157,1.45921,0.3638051,-0.03485114,0.02192342,0.05400786,-0.9284946,0.6334214,0.04420182,0.7812601,1.52225,0.2504265,0.1136874,1.215683,0.1768972,279.5147,271.985,323.7401,False
1,3.055551,0.05484115,-0.1094176,-0.01982925,-1.540238,-4.380513,-2.380315,0.4057128,1.238634,0.3749642,-1.082596,-0.003278701,30.25,31.93,-0.05172886,0.07470719,-0.004850142,-0.5140455,-3.903402,0.290994,0.5737494,1.459164,0.363441,-0.0380221,0.02831335,0.05723868,-0.9275753,0.6339685,0.04444976,0.7810774,1.52228,0.2501948,0.1136438,1.215701,0.1766749,279.5047,271.4745,324.2491,False
1,3.066662,0.04951649,-0.1094171,-0.01663037,-1.539336,-4.379668,-2.380704,0.4055198,1.238711,0.3747292,-1.082802,-0.01873927,28.23,31.42,-0.06835841,0.1212393,0.03828837,-0.5115528,-3.898888,0.28839,0.5735584,1.459323,0.3630743,-0.04654316,0.03470647,0.05731025,-0.9269084,0.6347166,0.04484976,0.7809521,1.522332,0.2500675,0.1136482,1.215666,0.1763892,279.4537,270.963,324.8336,False
1,3.077773,0.04527733,-0.1147338,-0.01127481,-1.538309,-4.378563,-2.381175,0.40528,1.238778,0.3742528,-1.082422,0.03492757,26.34,30.93,-0.07668184,0.1466703,0.05669313,-0.5095197,-3.894716,0.285624,0.5733089,1.459305,0.3627262,-0.04761532,0.04006598,0.05517758,-0.9264461,0.6360782,0.04440741,0.7808292,1.522179,0.2497509,0.113699,1.215829,0.1763947,279.4081,271.8651,324.0396,False
1,3.088884,0.04208846,-0.1168685,-0.01019667,-1.537307,-4.377614,-2.381567,0.4050769,1.238882,0.3740067,-1.082537,-0.01078967,24.57,30.48,-0.07564024,0.1456169,0.05454021,-0.5087075,-3.892107,0.2842003,0.5731103,1.45941,0.3624437,-0.05195395,0.04645503,0.04668982,-0.9261441,0.6370499,0.04455549,0.7806854,1.522301,0.2497346,0.1137251,1.215711,0.1762645,279.374,271.0197,324.8443,False
1,3.099995,0.03465424,-0.1243416,-0.009089351,-1.536136,-4.376502,-2.381751,0.4048511,1.238955,0.3736641,-1.082684,-0.01328019,22.91,30.05,-0.07144953,0.135035,0.04590344,-0.5080427,-3.88988,0.2826884,0.5727283,1.45947,0.3621986,-0.05315401,0.04643603,0.03178558,-0.9262714,0.6376252,0.04485536,0.780576,1.522345,0.2496445,0.1137429,1.215629,0.1759695,279.3415,269.6975,326.1816,False
1,3.111106,0.03358889,-0.1243448,-0.00908874,-1.535108,-4.375578,-2.382118,0.4046628,1.239074,0.3734176,-1.082668,0.001552739,21.36,29.65,-0.06107115,0.09582607,0.01885276,-0.5088443,-3.89008,0.2832479,0.5725115,1.45954,0.3619945,-0.05212555,0.04323337,0.02752026,-0.9260482,0.638018,0.04511981,0.7804478,1.522401,0.2495198,0.1136479,1.215632,0.17556,279.2137,268.9245,327.0901,False
1,3.122217,0.03144159,-0.1211712,-0.01123172,-1.534078,-4.374727,-2.382351,0.4043856,1.239319,0.3731899,-1.082497,0.01566246,19.34,29.17,-0.05713689,0.05881543,-0.01345266,-0.5101887,-3.890188,0.2840421,0.5725312,1.459754,0.3616982,-0.05216853,0.04109786,0.02219667,-0.9259396,0.6384733,0.04535656,0.7803204,1.522405,0.2494256,0.1135565,1.215632,0.1750084,279.2031,268.9262,327.0679,False
1,3.133328,0.0325005,-0.1158145,-0.006998856,-1.533427,-4.373944,-2.382891,0.4040566,1.239416,0.3728294,-1.082716,-0.02009051,17.45,28.72,-0.05507875,0.0471423,-0.01996385,-0.510578,-3.889702,0.2842536,0.5723699,1.459819,0.3614967,-0.05751005,0.04109097,0.02118238,-0.9256637,0.6389198,0.04597655,0.7802032,1.522433,0.2493165,0.1135149,1.215631,0.1743733,279.1634,268.5272,327.4008,False
1,3.144439,0.03672242,-0.1030238,-0.008132756,-1.532852,-4.373509,-2.383454,0.4038864,1.239512,0.3726034,-1.082655,0.005806754,15.68,28.3,-0.04860382,0.04599379,-0.01043152,-0.5100662,-3.888785,0.28373,0.5720736,1.459785,0.3613014,-0.05642221,0.03792427,0.02437726,-0.925164,0.6397442,0.04614433,0.7801299,1.522346,0.2490337,0.1135123,1.215658,0.1737442,279.0997,267.649,328.1729,False
1,3.15555,0.0366638,-0.0817171,-0.007176884,-1.53264,-4.373281,-2.383938,0.4037817,1.239547,0.3722291,-1.082985,-0.03024035,14.03,27.91,-0.05051946,0.05220826,0.01203273,-0.5087122,-3.887761,0.2832155,0.5719347,1.459862,0.3610358,-0.05008161,0.02939212,0.01900246,-0.9251236,0.6397457,0.04651637,0.7800684,1.522443,0.2488956,0.113469,1.215702,0.1732178,279.0627,266.1984,329.5623,False
1,3.166661,0.03662954,-0.06998803,-0.005106982,-1.532404,-4.373013,-2.384354,0.4036642,1.239643,0.372009,-1.083068,-0.007335757,12.2,27.36,-0.05786715,0.06383061,0.0239066,-0.5079197,-3.886119,0.2827329,0.5718048,1.459974,0.3608134,-0.047932,0.02619738,0.02111305,-0.9248535,0.6399854,0.0468719,0.7799793,1.522522,0.2488866,0.1134407,1.215762,0.1728579,279.0518,265.0488,330.705,False
1,3.177772,0.04188965,-0.04760643,-0.005228963,-1.532404,-4.373142,-2.385013,0.4036464,1.23958,0.371511,-1.082999,0.006362704,10.49,26.85,-0.06415788,0.07332969,0.03681505,-0.5068858,-3.884003,0.2820716,0.5719423,1.460204,0.3605039,-0.0500635,0.02512521,0.02113324,-0.9246122,0.6401628,0.04740906,0.7799343,1.522585,0.2487702,0.1134532,1.215776,0.172739,279.0524,264.6337,331.1736,False
1,3.188883,0.0471751,-0.03482908,-0.009559302,-1.53225,-4.373344,-2.385707,0.4036107,1.239726,0.3712618,-1.082921,0.007070655,8.88,26.36,-0.06412239,0.07435618,0.04108387,-0.5061796,-3.882818,0.2817675,0.5719009,1.460278,0.3602989,-0.04794297,0.02514741,0.01897078,-0.9246367,0.6409553,0.0472514,0.7799091,1.52253,0.2485967,0.1134418,1.215742,0.1727259,279.0756,264.8894,330.9942,False
1,3.199994,0.05885135,-0.02203952,-0.01602976,-1.532015,-4.373799,-2.386719,0.4036217,1.239797,0.370729,-1.08317,-0.02284592,7.38,25.91,-0.05881023,0.07223934,0.03994587,-0.5056751,-3.881231,0.2808761,0.5717586,1.460353,0.3600869,-0.04699586,0.0208704,0.006181887,-0.9249872,0.6410339,0.04769881,0.7799019,1.522608,0.2484674,0.1134134,1.2157,0.1727301,279.1124,265.2756,330.6858,False
1,3.211105,0.05986491,-0.005035948,-0.02464409,-1.531901,-4.374533,-2.387436,0.4035819,1.239862,0.3703482,-1.083224,-0.004673285,5.98,25.48,-0.04399316,0.05205361,0.03112837,-0.5056714,-3.88147,0.2810767,0.5717427,1.460391,0.3598545,-0.04489148,0.01447506,0.002974465,-0.9250383,0.6409744,0.04810095,0.7798265,1.522709,0.2484572,0.1134026,1.215645,0.172696,279.135,265.4973,330.5499,False
1,3.222216,0.0576997,0.005588319,-0.02895916,-1.531842,-4.375152,-2.387984,0.4035277,1.239928,0.3702114,-1.083518,-0.02696756,4.7,24.87,-0.03767507,0.02761094,0.02342336,-0.5056469,-3.8823,0.2817872,0.5714828,1.460281,0.3597717,-0.04810832,0.008079782,0.0008821767,-0.9250873,0.6407883,0.04886288,0.7797619,1.522763,0.2483733,0.1133941,1.215622,0.1726281,279.1542,265.4238,330.6878,False
1,3.233327,0.05342002,0.01087976,-0.03324541,-1.531669,-4.375757,-2.388404,0.4034772,1.239989,0.3700728,-1.083222,0.02732079,3.5,24.3,-0.03460532,0.01279999,0.01048976,-0.5060688,-3.882853,0.2825404,0.5713989,1.460311,0.3595531,-0.04804901,0.01874437,0.00618628,-0.9249638,0.6416267,0.04876115,0.7797116,1.522623,0.2482479,0.1133955,1.215587,0.1725262,279.1627,265.1886,330.9844,False
1,3.244438,0.04701212,0.01617334,-0.03646614,-1.531522,-4.376377,-2.388694,0.403437,1.239874,0.3701184,-1.082981,0.02167348,2.38,23.76,-0.03138342,0.02132397,0.01161154,-0.5054967,-3.881599,0.2815377,0.5711757,1.460283,0.3593597,-0.04696804,0.02410031,0.007228371,-0.9249169,0.6426569,0.04857393,0.7796752,1.522567,0.2480462,0.1133199,1.215564,0.1723754,279.1584,265.8219,330.3593,False
1,3.255549,0.03740459,0.02145328,-0.03968783,-1.531331,-4.377047,-2.388775,0.403471,1.239795,0.3699207,-1.08283,0.01373344,1.34,23.25,-0.02462761,0.06684029,0.04709207,-0.5031814,-3.877738,0.2780396,0.5710777,1.460279,0.3592432,-0.0470311,0.01130158,0.0008477541,-0.9251614,0.6421337,0.04944371,0.7796308,1.522637,0.2479343,0.1132808,1.215542,0.1723539,279.178,265.6908,330.4457,False
1,3.26666,0.03203081,0.03852025,-0.03231601,-1.531884,-4.377842,-2.388909,0.4034759,1.239787,0.3700356,-1.082705,0.01129176,0.36,22.78,-0.03072007,0.0750761,0.08129817,-0.5011302,-3.877036,0.2780143,0.5710531,1.460401,0.359194,-0.04707965,-0.003614258,-0.003393713,-0.9252818,0.6415052,0.05045811,0.7795877,1.522691,0.2478461,0.1131562,1.215483,0.1722754,279.1899,266.5189,329.5293,False
1,3.277771,0.02132594,0.05337002,-0.03771699,-1.532087,-4.37902,-2.388719,0.4035379,1.239704,0.3697753,-1.082525,0.01640571,0,22.09,-0.04635617,0.07370718,0.1208562,-0.4981459,-3.876935,0.2788822,0.5711992,1.460548,0.3590112,-0.04602893,-0.01321218,-0.004465444,-0.9254799,0.6407476,0.0514347,0.7795967,1.522726,0.2477183,0.1131239,1.215418,0.1723346,279.1971,266.7721,329.2133,False
1,3.288882,0.006358479,0.07035284,-0.04099244,-1.532613,-4.380411,-2.38825,0.4036503,1.239703,0.370019,-1.082613,-0.008170635,0,21.44,-0.04613802,0.07242595,0.146409,-0.4957208,-3.876898,0.2793677,0.5713229,1.460675,0.3588004,-0.02779583,-0.007879935,0.009213137,-0.924893,0.6408464,0.05109487,0.7795445,1.522801,0.2476673,0.1130256,1.21538,0.1723237,279.1959,268.0118,327.9148,False
1,3.299993,-0.006487077,0.09051606,-0.04961703,-1.533101,-4.38228,-2.387767,0.4037526,1.239711,0.3702526,-1.082375,0.021918,0,20.83,-0.02153686,0.07549395,0.1590043,-0.4934012,-3.876137,0.2783262,0.5717137,1.460877,0.3586557,-0.02349021,-0.01534162,0.01450475,-0.9246245,0.6401541,0.0516568,0.7796111,1.522829,0.2475381,0.1129589,1.215319,0.1723397,279.2379,268.0752,327.7974,False
1,3.311104,-0.0268114,0.1181215,-0.05614255,-1.533966,-4.384446,-2.386791,0.4039092,1.23972,0.37058,-1.082153,0.02013942,0,20.26,-0.001366124,0.06806221,0.1523706,-0.4919913,-3.876056,0.277699,0.5718925,1.461014,0.3587081,-0.01714554,-0.02812847,0.01020495,-0.9245973,0.639268,0.05230315,0.7795918,1.522919,0.2473886,0.1128998,1.215312,0.1723797,279.2807,268.2002,327.632,False
1,3.322215,-0.04182222,0.1489531,-0.05949398,-1.535197,-4.386968,-2.385727,0.4041649,1.239742,0.3710179,-1.082229,-0.006958121,0,19.65,0.02195072,0.05536781,0.1382301,-0.4907343,-3.876399,0.2767946,0.5719395,1.460915,0.3587894,-0.01618884,-0.04199227,-0.001508573,-0.9250532,0.6380523,0.05318732,0.7795753,1.522913,0.2472281,0.112818,1.215347,0.17251,279.3306,268.4646,327.2486,False
