loc,t,aDotUA,bDotUA,gDotUA,aUA,bUA,gUA,xUA,yUA,zUA,qE,qDotE,emgA,emgB,aDotSH,bDotSH,gDotSH,aSH,bSH,gSH,xSH,ySH,zSH,aDotUB,bDotUB,gDotUB,aUB,bUB,gUB,xUB,yUB,zUB,xHand,yHand,zHand,aHand,bHand,gHand,enable
3,0,-0.1582973,-0.7432881,-0.03356054,-1.293427,-4.150352,3.105952,0.6208651,1.230663,0.4670384,-1.396206,-0.008334151,1.2,5.4,-0.1474308,0.1378064,0.04697311,-0.6857288,-4.62642,-0.03271054,0.6766313,1.431556,0.393137,-0.08124103,0.122004,-0.008610304,-0.8780857,0.1104112,-0.07878695,0.7441399,1.488084,0.1974442,0.423728,1.04752,0.2932591,307.8791,226.0196,3.55022,True
3,0.01111111,-0.1509351,-0.6995678,-0.03072541,-1.293321,-4.143695,3.105519,0.6201565,1.230639,0.4667664,-1.396153,0.004901167,0.7,4.1,-0.1442893,0.1431888,0.03846394,-0.6856095,-4.623631,-0.03335236,0.6763142,1.431638,0.3932133,-0.08872091,0.1252107,-0.01389324,-0.8785071,0.1123432,-0.07882638,0.7442303,1.488145,0.1976938,0.4245072,1.047361,0.2913746,307.9199,225.5537,3.541793,True
3,0.02222222,-0.1340273,-0.6323695,-0.02380927,-1.293541,-4.138354,3.104998,0.619506,1.230631,0.4663908,-1.396206,-0.004854076,0.7,4.1,-0.1474454,0.1602947,0.03331495,-0.6854918,-4.619843,-0.03456091,0.6759452,1.431727,0.3932695,-0.09404226,0.126291,-0.01385342,-0.8786929,0.1142391,-0.07885141,0.7442794,1.488125,0.1978917,0.4253427,1.047198,0.28949,307.992,225.0741,3.502384,True
3,0.03333334,-0.1224037,-0.5779204,-0.0114642,-1.293998,-4.133371,3.104655,0.6189114,1.230483,0.4661493,-1.396489,-0.02592329,0.7,4.1,-0.165443,0.179539,0.0357765,-0.6850758,-4.615752,-0.03518222,0.675616,1.431837,0.3934202,-0.09400599,0.1263076,-0.00746303,-0.8786684,0.1160888,-0.07891133,0.7443647,1.488166,0.1981792,0.4261401,1.047016,0.2875946,308.0503,224.5961,3.449916,True
3,0.04444445,-0.1054974,-0.4946327,0.01025081,-1.295006,-4.130303,3.104527,0.618356,1.230348,0.4658794,-1.396904,-0.03777412,0.7,4.1,-0.1717342,0.1912526,0.04019739,-0.6845677,-4.611668,-0.03618836,0.675272,1.431856,0.3934746,-0.09823561,0.1305858,-0.004248035,-0.8787169,0.1181852,-0.07900267,0.7444563,1.488171,0.1984258,0.4268453,1.046845,0.2857883,308.0863,224.1914,3.320167,True
3,0.05555556,-0.09920125,-0.4327163,0.02574038,-1.295796,-4.127392,3.104586,0.6178266,1.230318,0.4657137,-1.396775,0.01210745,1.1,5.7,-0.1757842,0.2135762,0.05001523,-0.6837884,-4.606443,-0.03820944,0.6748754,1.431838,0.393553,-0.1034911,0.1433906,0.002147063,-0.8786988,0.1208015,-0.07930974,0.7445954,1.488152,0.1986234,0.4274054,1.046696,0.2841614,308.0865,223.8795,3.167628,True
3,0.06666667,-0.09825931,-0.3355076,0.06230662,-1.297611,-4.126674,3.105572,0.6174414,1.230145,0.4656632,-1.396961,-0.01725262,1.1,5.7,-0.1661514,0.2177674,0.0520947,-0.6832334,-4.602434,-0.0398116,0.6745545,1.431862,0.3935115,-0.1108694,0.1508807,0.01070169,-0.8784485,0.1232817,-0.07947778,0.744669,1.488172,0.1988101,0.4278098,1.046558,0.2827811,308.0598,223.6514,3.017039,True
3,0.07777778,-0.1004275,-0.304531,0.07594757,-1.299046,-4.123974,3.106159,0.6169168,1.229979,0.4655006,-1.396735,0.02075353,1.1,5.7,-0.1493275,0.2028943,0.03689542,-0.6834124,-4.599663,-0.04082999,0.6742914,1.431863,0.3935883,-0.1076816,0.1540625,0.008547372,-0.8785385,0.1256202,-0.07985275,0.7447387,1.488149,0.1990149,0.4280188,1.046439,0.2816895,308.0431,223.5488,2.843041,True
3,0.08888889,-0.09939613,-0.2778322,0.08426812,-1.300278,-4.121748,3.106577,0.6164789,1.229855,0.4653738,-1.396292,0.04018605,1.1,5.7,-0.1337251,0.1646247,0.01724363,-0.6838705,-4.598861,-0.04046593,0.6740621,1.431861,0.3936696,-0.1012997,0.1455247,0.00958645,-0.8785385,0.1273031,-0.08006128,0.7448274,1.48817,0.199265,0.4280591,1.046373,0.2809236,308.0468,223.5114,2.690236,True
3,0.1,-0.1004705,-0.275712,0.08319116,-1.301263,-4.118677,3.106916,0.6159928,1.229764,0.4651325,-1.396068,0.02016653,1.1,5.7,-0.1254412,0.1369801,0.006276609,-0.6841975,-4.597858,-0.04017458,0.6737503,1.431778,0.3937659,-0.1056076,0.1401951,0.004293764,-0.8788331,0.1290176,-0.07983278,0.7449578,1.488204,0.1994724,0.4278879,1.046376,0.2804504,308.0276,223.6232,2.539404,True
3,0.1111111,-0.08880109,-0.2832448,0.06935052,-1.301547,-4.114976,3.106682,0.6155654,1.229777,0.4648268,-1.396325,-0.02367789,2.4,10.5,-0.1162567,0.1062604,-0.01963999,-0.6852532,-4.597565,-0.03935886,0.6734674,1.431661,0.3938694,-0.1013611,0.1433704,0.001063694,-0.8790445,0.1311667,-0.08020695,0.7450863,1.488142,0.199671,0.4275803,1.04643,0.2801179,308.0023,223.7058,2.560176,True
3,0.1222222,-0.07823643,-0.2759264,0.04901502,-1.301507,-4.111712,3.106351,0.6152117,1.229705,0.4644914,-1.396185,0.01308625,2.4,10.5,-0.117645,0.1001381,-0.05057563,-0.6869395,-4.596295,-0.0389996,0.6731769,1.431605,0.3939683,-0.1066935,0.1465752,-0.001038535,-0.8792799,0.1333951,-0.08026368,0.7451888,1.488135,0.1999292,0.4272632,1.046534,0.2798193,307.9659,223.7401,2.662009,True
3,0.1333333,-0.07085959,-0.2589456,0.03714401,-1.301594,-4.109363,3.106229,0.614828,1.229696,0.4643664,-1.396533,-0.0319902,2.4,10.5,-0.1293197,0.1130062,-0.05355204,-0.6876511,-4.593605,-0.03934581,0.6728719,1.431602,0.3940058,-0.104525,0.1593532,-1.333561E-05,-0.8794003,0.1361982,-0.08094119,0.7453002,1.488122,0.2001882,0.427025,1.046659,0.2794137,307.9368,223.7189,2.805578,True
3,0.1444445,-0.06351615,-0.2281309,0.02624973,-1.301674,-4.107524,3.106236,0.6144991,1.229609,0.4642208,-1.396727,-0.01755377,2.4,10.5,-0.13018,0.1353008,-0.04376591,-0.6879259,-4.590085,-0.0405927,0.6725616,1.431575,0.3940637,-0.1044748,0.1625597,0.006372499,-0.8792591,0.138654,-0.08137049,0.7453597,1.488201,0.2004445,0.4269782,1.046785,0.2788264,307.9011,223.5776,2.973843,True
3,0.1555556,-0.06148101,-0.1919174,0.02597545,-1.301993,-4.106358,3.106621,0.6142724,1.229472,0.4642556,-1.396696,0.002878646,2.7,14,-0.1320962,0.1458197,-0.02660648,-0.6876415,-4.587028,-0.04146116,0.6723456,1.431548,0.394125,-0.101233,0.1646946,0.01274323,-0.8790227,0.1411041,-0.08191936,0.7455041,1.488235,0.2006745,0.4271272,1.046865,0.2780576,307.8505,223.3653,3.041043,True
3,0.1666667,-0.06044948,-0.1641506,0.03535381,-1.302662,-4.105367,3.10696,0.6139287,1.22946,0.4643652,-1.396612,0.007587157,2.7,14,-0.1317883,0.1583908,-0.0009365876,-0.6869384,-4.583411,-0.04283189,0.6720532,1.431635,0.3941987,-0.1001556,0.1636303,0.01380104,-0.8790455,0.143414,-0.08239075,0.745589,1.488259,0.2009692,0.4273992,1.046884,0.2772037,307.8061,223.163,2.945267,True
3,0.1777778,-0.06047741,-0.1481578,0.03950504,-1.303351,-4.103942,3.10731,0.6136052,1.229377,0.4643369,-1.396335,0.02524939,2.7,14,-0.1317401,0.1433718,0.01172007,-0.6864692,-4.581603,-0.042842,0.6717879,1.431628,0.3942502,-0.09808826,0.1550853,0.007420339,-0.8792016,0.1451844,-0.082501,0.745612,1.488225,0.2012196,0.4277039,1.046832,0.2763694,307.7634,222.9833,2.786177,True
3,0.1888889,-0.05624285,-0.1364292,0.03939822,-1.30373,-4.102773,3.107428,0.6132601,1.229369,0.4643981,-1.396347,-0.00135076,2.7,14,-0.1233059,0.1220062,0.01357825,-0.6864313,-4.580647,-0.04254506,0.6715351,1.43167,0.3944097,-0.09490784,0.1508116,0.005274529,-0.8793651,0.1471056,-0.08290128,0.7457317,1.488191,0.2014863,0.4279879,1.046737,0.2756795,307.7503,222.8638,2.58039,True
3,0.2,-0.04776447,-0.1354428,0.02764821,-1.303773,-4.100993,3.107221,0.6128695,1.229356,0.4643464,-1.396188,0.01457241,2.7,14,-0.1161012,0.09009393,0.003651305,-0.6867493,-4.580817,-0.04143506,0.671259,1.431638,0.3945251,-0.09811866,0.1540038,0.00209869,-0.8794983,0.1493689,-0.08314629,0.7457986,1.488166,0.2017179,0.4281611,1.046633,0.2751725,307.7793,222.8219,2.390741,True
3,0.2111111,-0.04035759,-0.1280355,0.01797573,-1.303621,-4.099771,3.107056,0.6125458,1.229348,0.4643357,-1.396433,-0.02258812,4,15,-0.1109272,0.08378884,-0.009238496,-0.6873699,-4.579614,-0.04130004,0.6710218,1.43157,0.3946605,-0.101271,0.1582773,0.006369552,-0.879469,0.1517622,-0.08349809,0.7459204,1.488131,0.2019284,0.4281935,1.046535,0.2748103,307.824,222.8024,2.301828,True
3,0.2222222,-0.03084753,-0.1206838,0.001912467,-1.303186,-4.098406,3.106775,0.6121637,1.22937,0.4642711,-1.396578,-0.01302468,4,15,-0.1185018,0.09998526,-0.03033476,-0.6884586,-4.577092,-0.04168966,0.6706613,1.431476,0.3947587,-0.1012867,0.1529522,0.006384835,-0.8794573,0.1537526,-0.08359263,0.7460222,1.488176,0.2021728,0.4281083,1.046471,0.2745847,307.8613,222.7594,2.296899,True
3,0.2333333,-0.02345386,-0.1122181,-0.00989124,-1.302747,-4.097529,3.106604,0.6118517,1.229387,0.4643636,-1.396626,-0.004393641,4,15,-0.1290863,0.1203173,-0.03432401,-0.6890737,-4.573866,-0.04240685,0.6703585,1.431523,0.3948526,-0.1034541,0.143359,0.004286121,-0.8796101,0.1552261,-0.08331433,0.7461193,1.488178,0.2024119,0.4279327,1.046431,0.2744494,307.8783,222.6865,2.364647,True
3,0.2444444,-0.02242151,-0.1047948,-0.0142049,-1.302574,-4.096463,3.106553,0.6115893,1.229398,0.4644725,-1.396633,-0.0006247563,4,15,-0.1436681,0.1382787,-0.008462117,-0.6882365,-4.57056,-0.04282443,0.6700859,1.431488,0.3949909,-0.0992308,0.1337526,0.002148238,-0.8797507,0.1566565,-0.08327731,0.7461914,1.488162,0.2026868,0.4277018,1.046409,0.2743918,307.8803,222.6152,2.442234,True
3,0.2555556,-0.02032292,-0.09950145,-0.019577,-1.30219,-4.095488,3.106456,0.6112591,1.229433,0.4645293,-1.396574,0.005316444,5.7,13.5,-0.1369604,0.1304691,0.02870213,-0.686695,-4.568491,-0.0431757,0.669888,1.431555,0.3950696,-0.09382608,0.1337672,0.01276337,-0.8793838,0.1587682,-0.08383258,0.746263,1.488205,0.2030613,0.4274344,1.04639,0.2743903,307.8811,222.5304,2.525852,True
3,0.2666667,-0.02459744,-0.09738986,-0.02063518,-1.302086,-4.094396,3.10667,0.6108922,1.229487,0.4647439,-1.396332,0.02205675,5.7,13.5,-0.1263568,0.1069152,0.03585576,-0.6861688,-4.567808,-0.04265585,0.6697056,1.431503,0.3951285,-0.09595067,0.136967,0.01170221,-0.8794802,0.160915,-0.08411621,0.7463634,1.488198,0.2034116,0.4271894,1.046387,0.2744792,307.873,222.4625,2.583681,True
3,0.2777778,-0.02247312,-0.1006293,-0.02593685,-1.301798,-4.092937,3.106409,0.6105904,1.229576,0.4648185,-1.396326,0.0002855389,5.7,13.5,-0.1106706,0.07499841,0.02158636,-0.6864052,-4.568077,-0.04175916,0.6694481,1.431487,0.3952045,-0.09703036,0.1422846,0.007430279,-0.8797976,0.1631326,-0.0844057,0.7464787,1.488197,0.2036514,0.4269751,1.046387,0.2746196,307.8752,222.4322,2.632756,True
3,0.2888889,-0.01717447,-0.1006552,-0.03341027,-1.301243,-4.091969,3.106173,0.6102955,1.229621,0.4649916,-1.395958,0.03367111,5.7,13.5,-0.1023736,0.06445602,0.003306412,-0.6870258,-4.567532,-0.04130509,0.6692349,1.431442,0.3952203,-0.09705536,0.1454675,0.002095062,-0.8800959,0.1652483,-0.08469918,0.7466208,1.488182,0.20385,0.4267611,1.046373,0.2747541,307.8972,222.3858,2.685395,True
3,0.3,-0.007639175,-0.0846817,-0.03568891,-1.300804,-4.091303,3.105845,0.6101938,1.229739,0.4649773,-1.396276,-0.0293335,5.7,13.5,-0.1068851,0.07219879,-0.02748023,-0.6884197,-4.565938,-0.04122067,0.669062,1.431479,0.3953125,-0.09502726,0.1369117,-0.01068783,-0.8807777,0.1667714,-0.08468719,0.7467653,1.488226,0.2040739,0.426563,1.046368,0.2748644,307.9359,222.3487,2.717384,True
3,0.3111111,-0.001333401,-0.06020247,-0.04227599,-1.300146,-4.09151,3.105744,0.6099894,1.229885,0.4650338,-1.396393,-0.01053972,6.4,12.2,-0.118622,0.07869408,-0.03264411,-0.6889502,-4.564295,-0.04074477,0.6688489,1.43152,0.3953865,-0.09613233,0.1251866,-0.01279163,-0.8811026,0.1679283,-0.08436921,0.7468884,1.488159,0.2041843,0.4264149,1.046383,0.2749225,307.9618,222.2705,2.782507,True
3,0.3222222,0.002843091,-0.03252375,-0.04568435,-1.299528,-4.091983,3.105767,0.6098361,1.229947,0.4650583,-1.396524,-0.01195479,6.4,12.2,-0.1334226,0.08936593,-0.02602681,-0.6891568,-4.56222,-0.04033304,0.668601,1.43158,0.3955016,-0.09615187,0.1145369,-0.01171389,-0.8814073,0.1691242,-0.08405309,0.7470271,1.488179,0.2043977,0.4263206,1.04641,0.2749524,307.9693,222.1791,2.834274,True
3,0.3333333,0.009133978,0.01013076,-0.04388598,-1.299003,-4.093746,3.105922,0.6097649,1.229995,0.4651489,-1.396485,0.003618425,6.4,12.2,-0.1331684,0.0944922,-0.002544828,-0.688457,-4.560293,-0.04044383,0.6683805,1.431654,0.3955824,-0.09295292,0.1187878,-0.01175307,-0.8817737,0.1709868,-0.08419584,0.7471246,1.488222,0.204632,0.4262751,1.046452,0.2749625,307.9859,222.1164,2.857568,True
3,0.3444445,0.005863946,0.04531115,-0.03986024,-1.29876,-4.095435,3.106449,0.6096489,1.229934,0.4652786,-1.396368,0.01062087,6.4,12.2,-0.13189,0.0975049,0.01878023,-0.6875488,-4.558283,-0.04053198,0.6681902,1.431752,0.3956974,-0.0929589,0.1219793,-0.01389014,-0.8821162,0.1728629,-0.08437507,0.7472457,1.488229,0.2048712,0.4261731,1.046493,0.2749738,308.006,222.0507,2.847273,True
3,0.3555556,0.001570199,0.06664864,-0.03360539,-1.29858,-4.096856,3.106984,0.6094812,1.230017,0.4654453,-1.396516,-0.01358188,6.4,12.2,-0.1135567,0.094008,0.04308508,-0.6862615,-4.556728,-0.04123026,0.6681044,1.431856,0.3957679,-0.08869279,0.1251633,-0.0149947,-0.8825141,0.1747363,-0.08476149,0.7473603,1.488192,0.2052259,0.4259664,1.046533,0.2750358,308.0085,222.0055,2.824244,True
3,0.3666667,-0.0005635321,0.07521156,-0.0283296,-1.298429,-4.098069,3.107373,0.6093578,1.230016,0.4657509,-1.396097,0.03832998,7.1,12.7,-0.1071354,0.08645506,0.05041497,-0.6855616,-4.555595,-0.04109763,0.667933,1.431935,0.3958559,-0.08975268,0.1251673,-0.01499022,-0.8828161,0.1765211,-0.08494898,0.7474855,1.48821,0.2054191,0.4256282,1.046585,0.2752348,307.9789,222.0134,2.785541,True
3,0.3777778,-0.007982919,0.06454242,-0.02609368,-1.29827,-4.098185,3.107704,0.6092303,1.230108,0.4659104,-1.395947,0.01342181,7.1,12.7,-0.09456912,0.06732754,0.03735057,-0.6855876,-4.555447,-0.04062253,0.6679009,1.431857,0.3959599,-0.08443785,0.118765,-0.01394218,-0.8829678,0.1779438,-0.08505071,0.7476082,1.488189,0.2056561,0.4251435,1.04664,0.2755893,307.9505,222.0851,2.766059,True
3,0.3888889,-0.01330066,0.0378153,-0.03865966,-1.297551,-4.098128,3.107905,0.6090742,1.230153,0.4660716,-1.396025,-0.007221942,7.1,12.7,-0.09260466,0.05676772,0.02552297,-0.6857235,-4.554932,-0.0400361,0.667802,1.431906,0.3960516,-0.07700745,0.1123505,-0.01717753,-0.883419,0.1792792,-0.08542542,0.747762,1.488132,0.2057614,0.4245798,1.046736,0.2760991,307.9445,222.168,2.80246,True
3,0.4,-0.01647288,0.02817809,-0.04284511,-1.296873,-4.097682,3.108163,0.6088864,1.230243,0.4661734,-1.395804,0.02025834,7.1,12.7,-0.0908666,0.04212465,-0.007644442,-0.6868894,-4.555138,-0.03882489,0.6676922,1.431808,0.3961537,-0.07388598,0.1080575,-0.02677652,-0.8841003,0.1805196,-0.08548348,0.7479218,1.488124,0.205936,0.4240253,1.046881,0.2767406,307.925,222.2536,2.902641,True
3,0.4111111,-0.01543159,0.009932968,-0.06296131,-1.295477,-4.097229,3.108115,0.60874,1.230329,0.4661634,-1.395877,-0.006803311,8.9,13.5,-0.09099562,0.03903819,-0.01938127,-0.6873837,-4.554391,-0.03838334,0.6676338,1.431793,0.3962128,-0.06751773,0.09632032,-0.02679534,-0.8844582,0.1813048,-0.08551597,0.7480459,1.488139,0.206172,0.4235303,1.047049,0.2773819,307.9178,222.314,3.078572,True
3,0.4222222,-0.01330952,0.001342186,-0.07142596,-1.294495,-4.09676,3.108067,0.6086162,1.230437,0.4662106,-1.395747,0.01194742,8.9,13.5,-0.08890437,0.03800379,-0.02367148,-0.6877955,-4.553722,-0.03806563,0.6674739,1.431756,0.3963177,-0.06859656,0.08035568,-0.02249079,-0.8845397,0.1818179,-0.08503793,0.7480737,1.488121,0.2063825,0.4231048,1.047201,0.2779162,307.9117,222.2984,3.282902,True
3,0.4333333,-0.01227987,0.01092759,-0.07362177,-1.293692,-4.097382,3.108414,0.6085252,1.230539,0.4664209,-1.396052,-0.02797845,8.9,13.5,-0.08458129,0.03471825,-0.01521839,-0.6877054,-4.553179,-0.03768,0.6674221,1.431785,0.396461,-0.06322342,0.0846124,-0.01827081,-0.884668,0.1832051,-0.08550505,0.7482023,1.488099,0.2065635,0.4227532,1.047321,0.2782671,307.9189,222.2437,3.461591,True
3,0.4444444,-0.01870264,0.03010199,-0.07054715,-1.292919,-4.098238,3.108986,0.6084982,1.230507,0.466502,-1.396087,-0.002886615,8.9,13.5,-0.08024225,0.03569676,-0.007791118,-0.6875083,-4.552514,-0.03748293,0.667359,1.43177,0.3965604,-0.05891401,0.089935,-0.01298224,-0.884716,0.1846891,-0.08596657,0.7483739,1.488102,0.2067704,0.4224988,1.047408,0.2784323,307.9253,222.1177,3.623963,True
3,0.4555556,-0.01980277,0.05571993,-0.06220693,-1.292434,-4.099596,3.109627,0.6084797,1.230488,0.4666142,-1.395982,0.009517786,8.9,13.5,-0.07482206,0.02809896,0.005942685,-0.6870093,-4.552327,-0.03698784,0.6673521,1.431743,0.3966372,-0.05144733,0.08778501,-0.01089957,-0.8848858,0.1856881,-0.0862763,0.7485206,1.487929,0.2069633,0.4223723,1.047483,0.2784781,307.9287,221.9935,3.677827,True
3,0.4666667,-0.02299722,0.06857603,-0.05162727,-1.292277,-4.10085,3.110382,0.6084623,1.230462,0.4667759,-1.395814,0.01527016,11.7,17.4,-0.06733825,0.02161833,0.01221069,-0.6866572,-4.552238,-0.03655508,0.667348,1.431704,0.3967135,-0.04938274,0.08882526,-0.02263463,-0.8856225,0.1869998,-0.08671093,0.7486623,1.487896,0.2071142,0.4223011,1.047558,0.2784938,307.9142,221.9066,3.635349,True
3,0.4777778,-0.0230265,0.09741192,-0.04011442,-1.292194,-4.102829,3.111156,0.6085002,1.230392,0.4668763,-1.395883,-0.006339707,11.7,17.4,-0.06115238,0.02177745,-0.01021716,-0.6875126,-4.551846,-0.03646373,0.6673722,1.431628,0.396769,-0.04193896,0.1058322,-0.03123734,-0.8863735,0.1891364,-0.08785635,0.7487856,1.48788,0.2073202,0.4221857,1.047617,0.2785161,307.887,221.8532,3.594611,True
3,0.4888889,-0.01770814,0.1156205,-0.0296103,-1.29213,-4.10489,3.111725,0.6085855,1.230296,0.4669518,-1.395769,0.01044646,11.7,17.4,-0.06361353,0.01246117,-0.04010184,-0.6888927,-4.552093,-0.03543469,0.6674023,1.431567,0.3968525,-0.03983866,0.09517405,-0.03229416,-0.8867879,0.1900528,-0.08807872,0.7489323,1.487854,0.207478,0.4219979,1.04768,0.2786054,307.8616,221.8457,3.553384,True
3,0.5,-0.01988289,0.1401526,-0.02338845,-1.291983,-4.107176,3.112713,0.6086637,1.230312,0.4669633,-1.395956,-0.01714349,11.7,17.4,-0.06271423,0.009396657,-0.05611343,-0.6899686,-4.552141,-0.03474653,0.6673949,1.431524,0.3969307,-0.03565232,0.08236255,-0.03868793,-0.8874558,0.1904867,-0.08807393,0.7490295,1.487844,0.2076228,0.421733,1.047767,0.278789,307.8375,221.89,3.521238,True
3,0.5111111,-0.01136061,0.1508886,-0.01603857,-1.291935,-4.109406,3.113139,0.608794,1.230281,0.4670377,-1.396209,-0.02296703,11.8,17.6,-0.05523834,0.01148148,-0.05509884,-0.6904922,-4.551805,-0.03460884,0.6674507,1.431452,0.3970292,-0.02612305,0.06741793,-0.04298089,-0.8881136,0.1907883,-0.08840097,0.749157,1.487905,0.2077866,0.4213738,1.047879,0.2790733,307.7974,221.9756,3.516598,True
3,0.5222223,-0.01246246,0.171158,-0.01191459,-1.291938,-4.112077,3.114079,0.6089947,1.230277,0.4670937,-1.395871,0.03102134,11.8,17.6,-0.0465819,0.007027131,-0.03817158,-0.6902892,-4.552011,-0.0341641,0.6675557,1.431426,0.3970718,-0.02293919,0.05782686,-0.04084861,-0.8884481,0.191181,-0.08845503,0.7492484,1.487921,0.2079167,0.4209476,1.048013,0.2794618,307.7502,222.0869,3.546811,True
3,0.5333334,-0.01567661,0.1957269,-0.0003625695,-1.292242,-4.11509,3.115148,0.6092548,1.230194,0.4671495,-1.396367,-0.04558653,11.8,17.6,-0.03795391,0.007963769,-0.02758844,-0.6902269,-4.551687,-0.03427755,0.6676363,1.431388,0.3971319,-0.01654418,0.05675181,-0.03982139,-0.8888982,0.1920274,-0.08899086,0.7493165,1.487942,0.2080419,0.4204618,1.048178,0.2799242,307.7281,222.2166,3.597196,True
3,0.5444446,-0.02313585,0.2053363,0.005989999,-1.292535,-4.117746,3.11641,0.6094569,1.23011,0.467241,-1.396016,0.03247216,11.8,17.6,-0.02719254,-0.002885388,-0.01073528,-0.6897758,-4.552242,-0.03396356,0.6677159,1.431315,0.3971944,-0.008014007,0.0599262,-0.03988356,-0.8894106,0.1929784,-0.08979221,0.7494321,1.487931,0.2081897,0.419988,1.048384,0.280464,307.6792,222.3478,3.662924,True
3,0.5555557,-0.03058454,0.2192428,0.01763589,-1.293062,-4.120631,3.117742,0.6096741,1.229983,0.4673619,-1.395924,0.008121691,11.8,17.6,-0.006899481,-0.01374645,0.0007029407,-0.6892905,-4.553135,-0.03389032,0.66789,1.431283,0.3972526,-0.001625424,0.05245242,-0.03671345,-0.8897195,0.1932643,-0.09008249,0.7495834,1.487875,0.2082748,0.4195269,1.048613,0.2810482,307.6227,222.5187,3.707183,True
3,0.5666668,-0.03161517,0.2150305,0.02406295,-1.293453,-4.123075,3.118776,0.609863,1.229899,0.4674907,-1.395642,0.02572251,11.7,19.6,0.001297755,-0.03061439,-0.02509207,-0.6904591,-4.554559,-0.03313798,0.6680701,1.431144,0.3973217,0.004770518,0.03859722,-0.03140299,-0.8899507,0.1932716,-0.09040713,0.7497139,1.487833,0.2083127,0.4190719,1.048849,0.2816336,307.5499,222.7164,3.737275,True
3,0.577778,-0.03266443,0.207561,0.02412077,-1.293696,-4.125077,3.119756,0.6100715,1.229783,0.4675312,-1.395639,0.0001192617,11.7,19.6,0.002127733,-0.040049,-0.04435675,-0.6915132,-4.555868,-0.03209163,0.6681066,1.430965,0.3974161,0.006909341,0.03221314,-0.02714607,-0.8901871,0.1935452,-0.09066173,0.749759,1.487888,0.2083793,0.4186204,1.049078,0.2821726,307.4805,222.9004,3.762549,True
3,0.5888891,-0.0273139,0.1969166,0.02311609,-1.293884,-4.127084,3.120408,0.610268,1.229733,0.4676268,-1.395855,-0.01974166,11.7,19.6,0.00187923,-0.04945374,-0.06574326,-0.692914,-4.557261,-0.03105512,0.6682435,1.430875,0.3974814,0.009008346,0.02155312,-0.02820231,-0.8905179,0.193384,-0.09073603,0.7498856,1.487895,0.2083721,0.4181885,1.049307,0.2826487,307.4098,223.0787,3.765538,True
3,0.6000003,-0.02303622,0.1830395,0.01893732,-1.293911,-4.128613,3.121,0.6104467,1.229674,0.4676194,-1.395837,0.001857048,11.7,19.6,0.006969407,-0.05354806,-0.08820058,-0.694546,-4.558377,-0.03038986,0.6683768,1.430789,0.3975863,0.007886959,0.01621277,-0.03457657,-0.8911192,0.1932378,-0.09066758,0.7500364,1.487882,0.2084227,0.4178128,1.049535,0.2830567,307.3344,223.2191,3.78894,True
3,0.6111114,-0.01983346,0.1723794,0.01685944,-1.293849,-4.130297,3.121757,0.6107506,1.229581,0.4675014,-1.39617,-0.03047366,12.2,22,0.007971033,-0.05028438,-0.09670426,-0.6958702,-4.559122,-0.02995657,0.6685047,1.430745,0.3976107,0.01425005,0.01512134,-0.03887782,-0.8916919,0.1933288,-0.09112059,0.7501941,1.487872,0.2084227,0.4175167,1.049747,0.2833771,307.2643,223.3182,3.827886,True
3,0.6222225,-0.01446565,0.161765,0.02010563,-1.294045,-4.131873,3.122134,0.6109653,1.229536,0.4674425,-1.396128,0.004065441,12.2,22,0.006969135,-0.05674931,-0.087161,-0.6964326,-4.560393,-0.02909956,0.6687433,1.430787,0.3975956,0.01846021,0.01189329,-0.04529672,-0.8924721,0.1931494,-0.09132832,0.7503433,1.487864,0.2084322,0.417317,1.049941,0.2836285,307.1992,223.3905,3.849113,True
3,0.6333337,-0.01341051,0.1542733,0.01482419,-1.293924,-4.133444,3.122813,0.6113025,1.229473,0.4674511,-1.395985,0.01298918,12.2,22,0.008209623,-0.06118599,-0.06696381,-0.6964411,-4.561609,-0.02839755,0.6690199,1.430761,0.3976107,0.02267753,0.005481886,-0.04957084,-0.8931187,0.19286,-0.09153923,0.7505046,1.487849,0.2084787,0.4171914,1.050087,0.2837945,307.1431,223.449,3.879306,True
3,0.6444448,-0.01442667,0.1425845,0.01916891,-1.294204,-4.134731,3.123286,0.611488,1.229475,0.4674199,-1.396307,-0.02949286,12.2,22,0.01690273,-0.05924483,-0.04998285,-0.6963868,-4.562533,-0.02816373,0.6691834,1.430745,0.3975968,0.02479642,0.000149101,-0.0495746,-0.8936557,0.1925054,-0.09168918,0.7506902,1.487809,0.2084327,0.4171349,1.050184,0.2838731,307.1071,223.511,3.892447,True
3,0.655556,-0.01119698,0.1298167,0.02031511,-1.294449,-4.135821,3.123648,0.6116537,1.229424,0.4674015,-1.396023,0.02622681,12.2,22,0.02666475,-0.05624296,-0.0330075,-0.6962073,-4.563295,-0.02821539,0.6693463,1.43076,0.3976793,0.02477641,-0.009434342,-0.04848906,-0.8941014,0.191984,-0.09158025,0.7506995,1.487832,0.2083507,0.4171568,1.050247,0.2839041,307.0751,223.5629,3.867412,True
3,0.6666671,-0.01008708,0.1127697,0.01936327,-1.294532,-4.1366,3.123863,0.6118229,1.229437,0.4673581,-1.3961,-0.007380951,11.3,24.5,0.02150217,-0.04672813,-0.02116058,-0.6960928,-4.563558,-0.0280857,0.6694688,1.430742,0.3975453,0.02585951,-0.01901169,-0.04208481,-0.8942767,0.1912465,-0.09144256,0.7508112,1.487833,0.2082922,0.4172487,1.050289,0.2839352,307.0619,223.602,3.82101,True
3,0.6777782,-0.006863557,0.101043,0.01731043,-1.294714,-4.137357,3.123966,0.6119823,1.229442,0.4672999,-1.396158,-0.005144365,11.3,24.5,0.01313606,-0.03612438,-0.01033755,-0.695868,-4.563648,-0.0278777,0.6696587,1.430796,0.3974555,0.02694304,-0.02965951,-0.03674087,-0.8943651,0.1902974,-0.091315,0.751007,1.48779,0.2081187,0.4173272,1.050315,0.2839522,307.0682,223.6612,3.75204,True
3,0.6888894,-0.0004364569,0.07865583,0.01212505,-1.294695,-4.137599,3.123838,0.6121881,1.229445,0.4673178,-1.396206,-0.004441797,11.3,24.5,0.008895112,-0.04147176,-0.005016373,-0.6957657,-4.564614,-0.02708275,0.6698791,1.430747,0.3973725,0.0301171,-0.04244894,-0.03460215,-0.894559,0.189057,-0.09089395,0.7511253,1.487731,0.2079854,0.4173775,1.05033,0.283964,307.0701,223.716,3.705389,True
3,0.7000005,0.0038504,0.05943919,0.00586585,-1.294714,-4.137583,3.123669,0.6122912,1.229482,0.4673288,-1.39629,-0.007617183,11.3,24.5,0.01420073,-0.05003577,-0.003009682,-0.6957465,-4.565883,-0.02650937,0.6699132,1.430739,0.3972991,0.02690542,-0.05203194,-0.03349518,-0.8947896,0.1878232,-0.09034801,0.7511939,1.487684,0.2078514,0.4174194,1.050351,0.2839819,307.0749,223.7558,3.690135,True
3,0.7111117,0.002780167,0.05514644,0.001640535,-1.294606,-4.138103,3.123837,0.6124921,1.229489,0.4673102,-1.396354,-0.005813519,11.3,24.5,0.01515479,-0.05957166,-0.009492641,-0.6960784,-4.567395,-0.02555037,0.6700616,1.430833,0.3972163,0.02584432,-0.05522218,-0.03134825,-0.894959,0.1868744,-0.08996424,0.7513144,1.487692,0.2077644,0.417478,1.050384,0.2840172,307.0658,223.7871,3.692066,True
3,0.7222228,0.002785195,0.04767806,-0.000434929,-1.294562,-4.138468,3.123989,0.6127586,1.229507,0.4672496,-1.396291,0.005775145,6.1,26.5,0.0193195,-0.0627137,-0.01808304,-0.6965503,-4.568542,-0.02500815,0.670251,1.430924,0.3971601,0.01622092,-0.0584056,-0.03554193,-0.8954815,0.185823,-0.08915731,0.7513818,1.487662,0.2076185,0.4175996,1.050421,0.2840845,307.0477,223.7883,3.714358,True
3,0.7333339,0.008108445,0.04768939,-0.000453922,-1.294533,-4.138998,3.123907,0.6130151,1.229617,0.4671769,-1.396061,0.02091433,6.1,26.5,0.02257387,-0.05529152,-0.01591937,-0.6966462,-4.569099,-0.02494237,0.670392,1.430976,0.3970766,0.01303521,-0.06371666,-0.03231425,-0.8956482,0.1846824,-0.08853573,0.7515123,1.487606,0.2074752,0.4177423,1.050436,0.2841541,307.0427,223.7872,3.724653,True
3,0.7444451,0.01236151,0.05625952,0.003734556,-1.294755,-4.140069,3.123942,0.6132253,1.229708,0.4671261,-1.395997,0.005707159,6.1,26.5,0.03114168,-0.05003006,-0.01382331,-0.6967047,-4.569732,-0.02509523,0.6705741,1.43103,0.3969626,0.01306734,-0.06370254,-0.02699024,-0.8957196,0.183822,-0.08812879,0.7516714,1.487555,0.2073131,0.4178871,1.050434,0.284226,307.0506,223.8097,3.724715,True
3,0.7555562,0.0166086,0.06160832,0.005808319,-1.294814,-4.140908,3.123954,0.6135976,1.229763,0.4670563,-1.396262,-0.02429242,6.1,26.5,0.03437361,-0.05008321,-0.009596951,-0.6967064,-4.570634,-0.02481347,0.6709613,1.431102,0.3969831,0.008795962,-0.06794166,-0.02695895,-0.896028,0.1828498,-0.08748111,0.751878,1.487667,0.2070932,0.4180503,1.050437,0.2842931,307.0784,223.855,3.724395,True
3,0.7666674,0.02294797,0.08936574,0.01091803,-1.29511,-4.143034,3.124075,0.613871,1.229866,0.4670799,-1.396296,-0.002942468,3.2,27.5,0.03652325,-0.05225262,-0.006441272,-0.6967032,-4.571682,-0.02448723,0.6711149,1.431211,0.3969133,-0.001796171,-0.06683059,-0.01836897,-0.8958703,0.1819819,-0.08657297,0.7519459,1.487688,0.2068462,0.4182208,1.050469,0.2843499,307.1175,223.9073,3.700992,True
3,0.7777785,0.02188061,0.09578095,0.01513558,-1.295373,-4.144284,3.124223,0.6141856,1.229912,0.4670191,-1.396224,0.006574898,3.2,27.5,0.0281069,-0.04802299,0.00219979,-0.6963319,-4.572318,-0.02406459,0.6712874,1.431317,0.3968079,-0.006066937,-0.06682019,-0.01940744,-0.8960823,0.181033,-0.08574899,0.7520404,1.487674,0.2066329,0.4183689,1.050534,0.2844092,307.1312,223.9795,3.657495,True
3,0.7888896,0.02398759,0.1032402,0.01401333,-1.29549,-4.145817,3.124301,0.6144429,1.230067,0.4670827,-1.396421,-0.01806737,3.2,27.5,0.02293918,-0.04814086,0.01929314,-0.6955569,-4.573095,-0.02353755,0.6714653,1.431407,0.3967097,-0.001812406,-0.07641555,-0.01621897,-0.8960477,0.1794434,-0.08484192,0.7521445,1.487616,0.2064426,0.418524,1.050638,0.284499,307.1232,224.0415,3.620103,True
3,0.8000008,0.02292834,0.09575388,0.01087785,-1.295534,-4.146612,3.124311,0.614562,1.230088,0.4670882,-1.396141,0.02577225,3.2,27.5,0.02522307,-0.04400679,0.03316065,-0.6946526,-4.573545,-0.02357164,0.671473,1.431484,0.3966219,0.0002481639,-0.08176204,-0.02474217,-0.8964898,0.1780447,-0.08404191,0.7521882,1.487611,0.206255,0.4186096,1.050772,0.2846515,307.0991,224.1378,3.547114,True
3,0.8111119,0.02399472,0.08934256,0.007720324,-1.295471,-4.147449,3.124295,0.6147548,1.230181,0.467082,-1.396224,-0.007924045,3.2,27.5,0.02966332,-0.03990811,0.05019785,-0.6935478,-4.573833,-0.0238273,0.6716053,1.431623,0.3964379,0.003422119,-0.08390567,-0.02795535,-0.8968546,0.1767848,-0.083468,0.7522695,1.487568,0.2061076,0.4186436,1.050921,0.2848631,307.0763,224.2333,3.521921,True
3,0.8222231,0.01973148,0.08504773,0.003501775,-1.295295,-4.14841,3.124447,0.6149424,1.230289,0.4670541,-1.396083,0.01297458,6,29.4,0.0381185,-0.04631055,0.0458071,-0.6930946,-4.575084,-0.02366805,0.6717958,1.431778,0.3963096,0.002401516,-0.08175568,-0.02155944,-0.8967609,0.1757987,-0.08281579,0.7523316,1.487516,0.205904,0.4186215,1.051082,0.2851345,307.057,224.2989,3.530494,True
3,0.8333342,0.01973146,0.07326771,-0.004936797,-1.294968,-4.14879,3.124321,0.6150436,1.230391,0.4670246,-1.396089,-0.000574266,6,29.4,0.04233222,-0.05485305,0.04569372,-0.6926019,-4.576488,-0.0231695,0.6719761,1.431811,0.3961639,0.003472891,-0.07856168,-0.0226384,-0.8969771,0.1748604,-0.08236465,0.7523925,1.487505,0.2056775,0.4185227,1.05121,0.2854151,307.0314,224.3519,3.579516,True
3,0.8444453,0.01651912,0.063595,-0.01657557,-1.294394,-4.149306,3.12437,0.6151652,1.230512,0.4670224,-1.395951,0.01257711,6,29.4,0.04962362,-0.06651064,0.03380673,-0.6926227,-4.578357,-0.02262169,0.6720111,1.43176,0.3960702,0.004543375,-0.08175284,-0.02050374,-0.896991,0.1736168,-0.08166477,0.7523695,1.487463,0.205471,0.4184217,1.051321,0.2857021,307.0214,224.4106,3.636723,True
3,0.8555565,0.01863265,0.06463142,-0.02085308,-1.29401,-4.150037,3.124289,0.6153089,1.230625,0.4669807,-1.396054,-0.00953908,6,29.4,0.04521424,-0.0642096,0.01682061,-0.6930083,-4.579268,-0.02227708,0.672103,1.431791,0.3960087,0.006660338,-0.09134087,-0.02049742,-0.8970565,0.1719469,-0.08092361,0.7523704,1.487464,0.2051964,0.4183282,1.051417,0.2859699,307.0304,224.4631,3.694831,True
3,0.8666676,0.01860983,0.06459124,-0.02724185,-1.293537,-4.150849,3.124296,0.6154401,1.230811,0.4670539,-1.395929,0.01152844,11.4,30.4,0.03559527,-0.06413136,0.01371335,-0.6929939,-4.580264,-0.02153991,0.6722263,1.431912,0.3960199,0.005597904,-0.104111,-0.0151381,-0.8969271,0.1699303,-0.07968551,0.7523938,1.487414,0.2049999,0.4182596,1.051494,0.2861949,307.0435,224.4701,3.768403,True
3,0.8777788,0.01325839,0.06666977,-0.03150155,-1.293025,-4.151555,3.124588,0.6155991,1.230904,0.4670074,-1.395732,0.01737726,11.4,30.4,0.03135721,-0.06842503,0.01904689,-0.692522,-4.581846,-0.02046666,0.6725153,1.432043,0.3959215,0.004521184,-0.1009179,-0.01833351,-0.8971598,0.1686459,-0.07891799,0.7524661,1.487271,0.2048061,0.4182258,1.05155,0.2863893,307.0534,224.454,3.826166,True
3,0.8888899,0.011086,0.07408006,-0.03793698,-1.292412,-4.152711,3.124858,0.6157361,1.231082,0.4670446,-1.394946,0.07101083,11.4,30.4,0.03667116,-0.07807084,0.0231775,-0.6920959,-4.583538,-0.01970952,0.672648,1.432187,0.3958042,0.006639861,-0.09241159,-0.02369247,-0.8975657,0.1676841,-0.07848363,0.7525024,1.487267,0.2045825,0.4182334,1.051571,0.2865859,307.0559,224.4532,3.843016,True
3,0.900001,0.00361016,0.07614996,-0.04218492,-1.291846,-4.153447,3.125252,0.6158628,1.231174,0.4670115,-1.393448,0.1352308,11.4,30.4,0.04735801,-0.09314234,0.03467009,-0.6912671,-4.585956,-0.01873587,0.67286,1.432312,0.3956766,0.009827856,-0.08710234,-0.02691535,-0.8978198,0.1666111,-0.07803036,0.7525537,1.487235,0.2043803,0.4182774,1.051531,0.2868313,307.0592,224.4554,3.848953,True
3,0.9111122,-0.001730647,0.07931435,-0.04538538,-1.291226,-4.154514,3.125643,0.6159593,1.231263,0.4668903,-1.391999,0.1299639,11.4,30.4,0.05156319,-0.0941836,0.02929662,-0.6910887,-4.587591,-0.01817608,0.6730151,1.432346,0.3954134,0.01513291,-0.08393224,-0.03121816,-0.8982453,0.1654139,-0.07759999,0.752557,1.487283,0.2041168,0.4183115,1.051383,0.2871186,307.0859,224.469,3.863429,True
3,0.9222233,-0.004932377,0.0857245,-0.04222176,-1.290877,-4.155775,3.126152,0.6160461,1.231417,0.4668667,-1.389885,0.1907048,18,31.8,0.04828179,-0.09516286,0.02079925,-0.6911122,-4.589371,-0.0172184,0.6731125,1.432464,0.3952887,0.006637275,-0.08389987,-0.02690072,-0.8983327,0.1642907,-0.07664631,0.7526093,1.487315,0.2038851,0.4183242,1.051122,0.2874856,307.1433,224.4971,3.871032,True
3,0.9333345,-0.001786586,0.1070487,-0.04025219,-1.290491,-4.157613,3.126627,0.6161381,1.231525,0.4668074,-1.387773,0.1897339,18,31.8,0.03661621,-0.08122184,0.0178326,-0.6909848,-4.589915,-0.01694969,0.6731962,1.432586,0.3952415,-0.006179281,-0.08920023,-0.03000193,-0.898656,0.1627366,-0.0752138,0.7526392,1.487321,0.2036602,0.4182884,1.050721,0.2879097,307.2314,224.5593,3.893073,True
3,0.9444456,-0.004986525,0.1198831,-0.03287601,-1.290279,-4.159494,3.127277,0.6162397,1.231655,0.4667885,-1.385286,0.2240406,18,31.8,0.0206573,-0.07473487,0.01696748,-0.6908682,-4.590787,-0.01596831,0.6732616,1.432659,0.3952079,-0.01151369,-0.09451371,-0.02995937,-0.8989692,0.1611278,-0.07399087,0.7526451,1.487371,0.2035685,0.4182029,1.05019,0.2883802,307.3629,224.6582,3.897682,True
3,0.9555568,-0.005009521,0.1284034,-0.03293665,-1.289882,-4.161201,3.127833,0.6163605,1.231728,0.466758,-1.382814,0.2221039,18,31.8,0.01217406,-0.07151382,0.01920541,-0.6905673,-4.591879,-0.01501863,0.6733436,1.4327,0.3951378,-0.0125585,-0.09237455,-0.02782362,-0.8990794,0.1599305,-0.07311096,0.7526181,1.487255,0.2034426,0.4180986,1.049578,0.2889218,307.5312,224.803,3.853482,True
3,0.9666679,-0.01035892,0.1518968,-0.02349752,-1.289876,-4.163866,3.128809,0.6164688,1.231802,0.46681,-1.379943,0.2587561,22.3,33.1,0.005886395,-0.07050166,0.02992316,-0.6899377,-4.592924,-0.01407427,0.6733857,1.432863,0.3951855,-0.009360179,-0.0753508,-0.03427142,-0.899675,0.1596103,-0.07295517,0.7526034,1.487269,0.2034042,0.417962,1.048918,0.2895473,307.7085,224.9774,3.792328,True
3,0.977779,-0.01570993,0.1646966,-0.01931449,-1.289676,-4.166185,3.129923,0.6164795,1.231938,0.4667597,-1.377199,0.2468027,22.3,33.1,0.008072674,-0.07057075,0.03629551,-0.6892927,-4.594249,-0.01315122,0.6734624,1.432956,0.3951178,-0.01253745,-0.06895505,-0.03425659,-0.8999311,0.1587793,-0.07223052,0.7525979,1.487198,0.2033067,0.4178066,1.048249,0.2902595,307.8857,225.1701,3.747174,True
3,0.9888902,-0.0135851,0.1753949,-0.01407277,-1.289613,-4.168628,3.130638,0.6165551,1.231996,0.4667876,-1.374625,0.2318776,22.3,33.1,0.002677258,-0.07154609,0.02994655,-0.6891558,-4.595376,-0.0121022,0.6735308,1.433062,0.3950508,-0.00830362,-0.06578342,-0.03961858,-0.9005106,0.1578127,-0.07165874,0.7525864,1.487114,0.2031453,0.4176297,1.047599,0.2910299,308.0623,225.3595,3.719164,True
3,1.000001,-0.01040826,0.1860711,-0.01097012,-1.289456,-4.171039,3.131369,0.6166668,1.232102,0.4667697,-1.372302,0.2093319,22.3,33.1,-0.004871711,-0.07143299,0.0204324,-0.6891882,-4.59677,-0.01070378,0.6736869,1.433128,0.3950124,-0.01257984,-0.0700268,-0.03958375,-0.9009197,0.1567032,-0.07062411,0.7526911,1.487104,0.2029965,0.417367,1.04702,0.2918278,308.2488,225.6041,3.645945,True
3,1.011112,-0.009342454,0.1903575,-0.007808281,-1.289457,-4.173418,3.132098,0.6167272,1.232154,0.4666562,-1.370938,0.1219747,22.3,33.1,-0.006009948,-0.07456972,0.01402798,-0.6891637,-4.598276,-0.009502159,0.6737638,1.433252,0.3949165,-0.01153292,-0.07642701,-0.04064761,-0.9013868,0.1551844,-0.06965631,0.7527207,1.486992,0.2028084,0.4169818,1.046572,0.292593,308.4288,225.8358,3.615753,True
3,1.022224,-0.005081125,0.2032118,0.0006043799,-1.289633,-4.176208,3.132777,0.6167456,1.232137,0.466465,-1.369429,0.1361364,23.1,34.6,-0.004023694,-0.08301132,0.003283225,-0.6895207,-4.600212,-0.008011853,0.6738696,1.433327,0.3949122,-0.01479023,-0.07430153,-0.05021692,-0.9021937,0.1542443,-0.06875589,0.7527816,1.487,0.2026691,0.4165534,1.046306,0.2933293,308.5299,226.0357,3.630693,True
3,1.033335,0.0002560541,0.2053705,0.003770199,-1.289821,-4.178566,3.133179,0.6167991,1.232115,0.4663324,-1.368086,0.1208376,23.1,34.6,0.008812547,-0.09382613,0.01478418,-0.6889694,-4.602344,-0.006881075,0.673967,1.433306,0.3948629,-0.01479755,-0.07749833,-0.05021135,-0.9026923,0.1529516,-0.0677921,0.7528387,1.486939,0.2025499,0.4161106,1.046216,0.2940061,308.5656,226.2221,3.674767,True
3,1.044446,-0.0007918403,0.2064631,0.008024136,-1.289934,-4.180963,3.133831,0.6168228,1.232161,0.4663205,-1.367097,0.08878978,23.1,34.6,0.01938905,-0.1023732,0.01141899,-0.6888756,-4.604569,-0.005734318,0.6740396,1.433319,0.3948548,-0.01270451,-0.06899304,-0.05876285,-0.903617,0.1524005,-0.06735134,0.7528604,1.486827,0.2025092,0.4156139,1.046247,0.2945547,308.5469,226.4063,3.724091,True
3,1.055557,-0.00502377,0.2043622,0.01444469,-1.290274,-4.183133,3.134604,0.6169609,1.232148,0.4662633,-1.366268,0.07448959,23.1,34.6,0.02886253,-0.1055322,0.0006584558,-0.689151,-4.60667,-0.004779575,0.6741164,1.433398,0.3948231,-0.01375591,-0.05408231,-0.06197761,-0.9043493,0.1522375,-0.0670323,0.752784,1.486815,0.2024961,0.4150709,1.046347,0.294957,308.4773,226.582,3.760877,True
3,1.066668,-0.01565122,0.2022438,0.01982357,-1.290642,-4.185404,3.135758,0.6170101,1.232097,0.46627,-1.365174,0.098916,25.9,36.8,0.0297645,-0.09254788,-0.02374164,-0.6902663,-4.607571,-0.004437625,0.6740823,1.433382,0.3948205,-0.01586295,-0.04023356,-0.06412472,-0.9051536,0.1521945,-0.06678409,0.7527382,1.486724,0.2024102,0.4145925,1.046489,0.295264,308.3816,226.7064,3.786239,True
3,1.077779,-0.02201488,0.1958476,0.02202616,-1.290984,-4.187361,3.136687,0.6170444,1.232068,0.4662528,-1.364227,0.08536265,25.9,36.8,0.02330917,-0.07318804,-0.04161977,-0.6912213,-4.607867,-0.004340154,0.6739808,1.433359,0.3948133,-0.01686481,-0.03489256,-0.05666125,-0.9053533,0.1518323,-0.06636651,0.7526042,1.486642,0.2023666,0.4142149,1.046648,0.2955311,308.2975,226.8059,3.776895,True
3,1.08889,-0.0230413,0.1809309,0.02213663,-1.291239,-4.188905,3.137356,0.6170269,1.232093,0.4662943,-1.363251,0.08817052,25.9,36.8,0.01591011,-0.05822039,-0.04355416,-0.6917742,-4.608177,-0.004026433,0.6738765,1.433368,0.3948193,-0.01577786,-0.03808022,-0.0524004,-0.9057283,0.1511325,-0.06579872,0.7525125,1.486612,0.2023771,0.4139335,1.046795,0.2957707,308.2245,226.915,3.748174,True
3,1.100002,-0.02406457,0.169219,0.02436321,-1.291698,-4.190371,3.137966,0.6170046,1.23204,0.4662807,-1.362867,0.0341581,25.9,36.8,0.0161086,-0.0466343,-0.0285365,-0.6915052,-4.608523,-0.003905259,0.6737552,1.433312,0.3948498,-0.01469916,-0.03807573,-0.05027468,-0.9061645,0.1505908,-0.06533933,0.7523869,1.486562,0.2023232,0.4136632,1.046903,0.2959709,308.1822,227.0312,3.694788,True
3,1.111113,-0.02405665,0.163872,0.02227966,-1.292004,-4.192022,3.138652,0.6170142,1.232025,0.466321,-1.362617,0.02239338,25.9,36.8,0.0161876,-0.03921554,-0.02421165,-0.6916022,-4.608877,-0.003822435,0.6736323,1.433332,0.3948143,-0.01036222,-0.02528785,-0.04393677,-0.9064644,0.1508554,-0.06560777,0.7522647,1.486541,0.2023571,0.4133949,1.046984,0.2961417,308.1658,227.1307,3.649536,True
3,1.122224,-0.02938252,0.1627844,0.02124084,-1.292197,-4.193873,3.139651,0.6169901,1.232063,0.4663455,-1.362305,0.0280585,30,37.5,0.01524038,-0.03610754,-0.0135173,-0.6913049,-4.609465,-0.003539075,0.6734464,1.433374,0.394799,-0.01244219,-0.01462321,-0.03968358,-0.9067536,0.151073,-0.06547062,0.7521665,1.486634,0.2023211,0.4131357,1.047052,0.2963005,308.156,227.2103,3.615148,True
3,1.133335,-0.02514107,0.168098,0.01906131,-1.292394,-4.195871,3.140279,0.6169547,1.232014,0.4663727,-1.361962,0.03093805,30,37.5,0.01434961,-0.02878185,0.001475361,-0.6907297,-4.609821,-0.003330283,0.6733569,1.433411,0.394784,-0.01559037,-0.01353799,-0.03327287,-0.9069006,0.1508325,-0.06507354,0.7520708,1.486641,0.2023358,0.4128779,1.047102,0.2964477,308.1351,227.3022,3.574719,True
3,1.144446,-0.01980742,0.1702624,0.02222316,-1.29273,-4.197857,3.140846,0.6168861,1.232065,0.4664562,-1.361431,0.0482106,30,37.5,0.01447276,-0.02247244,0.01111666,-0.6902626,-4.609837,-0.003492469,0.6731987,1.433447,0.3947756,-0.01878682,-0.008207801,-0.03539335,-0.9073582,0.1509168,-0.06481043,0.7519428,1.486632,0.2023528,0.4126254,1.04715,0.2966133,308.124,227.3934,3.521219,True
3,1.155557,-0.02193895,0.1745264,0.0243343,-1.293128,-4.199909,-3.14148,0.6167551,1.232049,0.4664915,-1.361584,-0.01454346,30,37.5,0.01572469,-0.01730597,0.0282014,-0.6892709,-4.610087,-0.003506584,0.6730654,1.433403,0.3947957,-0.02085942,0.00140203,-0.03006854,-0.9074679,0.1514351,-0.06483359,0.7517406,1.486527,0.2023575,0.4123192,1.047216,0.2968048,308.13,227.4841,3.466163,True
3,1.166668,-0.02831037,0.1702621,0.02651565,-1.293453,-4.201667,-3.140483,0.6165688,1.232046,0.4665828,-1.361477,0.009813925,30,37.5,0.01999531,-0.02161978,0.03132086,-0.6888319,-4.610806,-0.003351322,0.6728907,1.433323,0.39484,-0.02195358,-0.001797605,-0.03325091,-0.9079393,0.1512116,-0.06442027,0.7515844,1.486484,0.2024002,0.4119487,1.047309,0.2970503,308.115,227.5786,3.418959,True
3,1.17778,-0.03149918,0.1595805,0.02340472,-1.293588,-4.203134,-3.139514,0.6164963,1.232062,0.4665885,-1.361015,0.04201557,32.8,38.7,0.01774424,-0.03327192,0.02484999,-0.6887766,-4.612009,-0.002549178,0.6726822,1.433313,0.3948808,-0.0219369,0.004597243,-0.03326653,-0.9083605,0.1515584,-0.06440882,0.7514479,1.486428,0.2024784,0.4115178,1.047439,0.2973689,308.0912,227.7,3.372246,True
3,1.188891,-0.03999367,0.1403363,0.01717707,-1.293529,-4.203991,-3.138575,0.6162135,1.232077,0.4666352,-1.360616,0.03599247,32.8,38.7,0.01129193,-0.03104895,0.01747091,-0.6888234,-4.612503,-0.002035987,0.6725311,1.433321,0.3949587,-0.02512302,0.01631792,-0.03646607,-0.9089236,0.1523234,-0.06452893,0.7512809,1.486346,0.2025039,0.4109826,1.047585,0.2977273,308.0599,227.8356,3.35013,True
3,1.200002,-0.04531194,0.1199919,0.005623985,-1.293252,-4.204572,-3.13774,0.6159902,1.232032,0.4666467,-1.360441,0.01570936,32.8,38.7,0.001694284,-0.02135831,0.01125172,-0.688907,-4.612394,-0.001822667,0.672326,1.433289,0.3950024,-0.02404602,0.01844717,-0.03541074,-0.9092416,0.1526455,-0.06447034,0.7511908,1.48628,0.2025821,0.4103858,1.047764,0.2981069,308.0262,227.961,3.374348,True
3,1.211113,-0.05169603,0.1050019,-0.002769995,-1.292928,-4.205225,-3.136768,0.6156715,1.232058,0.466609,-1.360234,0.01875633,32.8,38.7,-0.01006969,-0.01269775,0.001850527,-0.6891483,-4.612236,-0.001451955,0.6720539,1.433298,0.3950925,-0.01872141,0.01949499,-0.036514,-0.9097145,0.1528705,-0.06462453,0.7509343,1.486226,0.2026825,0.4097941,1.047985,0.2984682,307.9877,228.05,3.454765,True
3,1.222224,-0.06129534,0.08248019,-0.01962221,-1.292149,-4.205266,-3.135623,0.6152551,1.232033,0.4665449,-1.360206,0.002373504,32.1,40.2,-0.01863261,-0.01475756,-0.001282779,-0.6892874,-4.612593,-0.0006641924,0.671851,1.433308,0.3951445,-0.01660646,0.02161379,-0.03972806,-0.9102845,0.1532565,-0.06475849,0.7507672,1.486181,0.2027841,0.4091902,1.048222,0.2987468,307.9395,228.0781,3.561628,True
3,1.233335,-0.06874578,0.06640098,-0.03013777,-1.291451,-4.205432,-3.134633,0.6147567,1.232135,0.4664361,-1.360066,0.01280216,32.1,40.2,-0.02287675,-0.01796691,0.00193296,-0.6890253,-4.613322,0.0002199771,0.6716437,1.433375,0.3951709,-0.013427,0.02905368,-0.04508717,-0.9109657,0.153923,-0.06510417,0.7504969,1.486156,0.2028065,0.4086099,1.04846,0.2989184,307.8787,228.0695,3.665608,True
3,1.244446,-0.08263101,0.07270972,-0.03652725,-1.290816,-4.206441,-3.132997,0.6143163,1.23226,0.4663572,-1.359708,0.03262989,32.1,40.2,-0.02605625,-0.02652836,0.008280793,-0.6887318,-4.614251,0.001319064,0.671442,1.433406,0.3951859,-0.01238695,0.03010773,-0.04935738,-0.9116831,0.1543482,-0.06526636,0.7503068,1.486129,0.2028892,0.4080178,1.048682,0.2989588,307.829,228.0342,3.749887,True
3,1.255558,-0.09336163,0.1003677,-0.03775067,-1.290365,-4.208498,-3.131008,0.6139421,1.232254,0.4662857,-1.359878,-0.01579257,32.1,40.2,-0.02384055,-0.02661206,0.01678492,-0.6882205,-4.614731,0.001776062,0.6711771,1.43341,0.3953266,-0.007052697,0.02690392,-0.04725501,-0.9121162,0.1545587,-0.06553427,0.7500827,1.486102,0.2030087,0.4073854,1.048883,0.2988546,307.8057,227.9463,3.836074,True
3,1.266669,-0.1062545,0.1504326,-0.0337984,-1.290122,-4.211907,-3.128493,0.6135054,1.232488,0.4662716,-1.35952,0.03287925,32.1,40.2,-0.02380263,-0.02129631,0.01789505,-0.6880074,-4.614855,0.002139584,0.6709588,1.433525,0.3954246,-0.002812602,0.02050092,-0.04833525,-0.9127105,0.1545562,-0.0656645,0.7498336,1.486133,0.2031276,0.406721,1.049114,0.2986465,307.8044,227.8567,3.870811,True
3,1.27778,-0.1116606,0.1834571,-0.03188279,-1.289857,-4.215123,-3.126151,0.6131279,1.232669,0.4661384,-1.359465,0.004832981,31,41.6,-0.03125817,-0.009485837,0.01167428,-0.688074,-4.614437,0.00239072,0.6707166,1.433708,0.3954737,0.0004600175,0.02051773,-0.036641,-0.912783,0.1548591,-0.06595638,0.749662,1.486169,0.2032359,0.4060005,1.049428,0.2984144,307.7846,227.7999,3.846122,True
3,1.288891,-0.1202816,0.2228525,-0.03212991,-1.289573,-4.219101,-3.123454,0.6125751,1.233114,0.4659302,-1.359379,0.007898582,31,41.6,-0.05157572,0.003532939,-0.004006171,-0.6886897,-4.613781,0.003061836,0.6704814,1.433856,0.395555,0.005844924,0.01520023,-0.02600881,-0.9126695,0.1548709,-0.06623255,0.7494054,1.486185,0.2033565,0.4051587,1.049863,0.2982492,307.7327,227.801,3.763385,True
3,1.300002,-0.1267549,0.2462243,-0.03866255,-1.289017,-4.222646,-3.120858,0.6119141,1.233507,0.4656026,-1.35956,-0.0165301,31,41.6,-0.1111085,0.03690426,-0.008488514,-0.6890545,-4.61128,0.004404602,0.6704226,1.434214,0.3955448,0.02283775,-0.008276798,-0.02500745,-0.9128081,0.153721,-0.06630951,0.7491745,1.486243,0.203439,0.4041231,1.050486,0.2982458,307.6751,227.8779,3.66914,True
3,1.311113,-0.1405996,0.2226402,-0.05442907,-1.287932,-4.224374,-3.118386,0.6111788,1.234004,0.4651012,-1.359501,0.005580427,31,41.6,-0.1247899,0.02504287,0.01604506,-0.6879696,-4.611681,0.006511163,0.6704715,1.434401,0.3955116,0.0323394,-0.02641939,-0.03142237,-0.9133023,0.1526929,-0.06635425,0.7490093,1.486254,0.2034833,0.4028747,1.051311,0.2984176,307.5915,227.9887,3.671307,True
3,1.322224,-0.1597812,0.1968913,-0.07335684,-1.286495,-4.225739,-3.115541,0.6104869,1.234434,0.4647639,-1.359532,-0.002888461,29.2,41.6,-0.1160441,-0.02122503,0.0645747,-0.6855903,-4.614532,0.009725864,0.670558,1.434638,0.3954406,0.03627861,-0.06059211,-0.06760042,-0.9151351,0.1502002,-0.06537661,0.7488378,1.486263,0.2035012,0.4013375,1.052343,0.2987201,307.502,228.1273,3.752034,True
3,1.333336,-0.2353938,0.1271761,-0.1141475,-1.2839,-4.224931,-3.110673,0.6096432,1.23471,0.4645605,-1.359227,0.02796839,29.2,41.6,-0.09797956,-0.08763888,0.09579658,-0.6836526,-4.61965,0.01411609,0.6705847,1.434824,0.3954084,0.02549762,-0.0691219,-0.0834918,-0.9164763,0.1488361,-0.06436434,0.7486776,1.486277,0.2035091,0.3995469,1.053549,0.2990716,307.3513,228.2308,3.9962,True
3,1.344447,-0.2823225,0.1130331,-0.1394489,-1.281604,-4.225926,-3.105765,0.6088452,1.235086,0.4643233,-1.358817,0.03723436,29.2,41.6,-0.08840985,-0.1144281,0.1082621,-0.6820505,-4.623151,0.01747433,0.6705999,1.43498,0.3953872,0.02556586,-0.06377918,-0.0749806,-0.9169642,0.1481224,-0.06418405,0.7484722,1.486231,0.2035055,0.3976934,1.054887,0.2993546,307.1482,228.2127,4.413812,True
3,1.355558,-0.3324333,0.08926717,-0.168931,-1.278828,-4.226445,-3.100395,0.6078473,1.235416,0.4641654,-1.356357,0.2248411,29.2,41.6,-0.08206578,-0.1186903,0.1049625,-0.6812233,-4.625129,0.0196781,0.6705548,1.434934,0.3954589,0.0330864,-0.05312692,-0.06864673,-0.917304,0.1478363,-0.06457473,0.7482358,1.486184,0.203603,0.395943,1.056285,0.2995007,306.8677,228.0206,4.913971,True
3,1.366669,-0.3686973,0.07302539,-0.1931965,-1.275854,-4.226882,-3.095031,0.6068644,1.235811,0.4640198,-1.356906,-0.05187827,29.2,41.6,-0.08665114,-0.1108827,0.06671476,-0.6818214,-4.626515,0.02193007,0.6704553,1.434933,0.3954532,0.03740335,-0.04566664,-0.06336296,-0.9178409,0.1475073,-0.06496382,0.7480206,1.486178,0.2037203,0.3942553,1.057673,0.2993712,306.645,227.6876,5.392783,True
3,1.37778,-0.3953575,0.06326669,-0.2079502,-1.273101,-4.227468,-3.089655,0.6058934,1.236301,0.4639077,-1.35681,0.009776096,27.6,42.7,-0.1043421,-0.1037851,-0.005504443,-0.6843631,-4.627851,0.0247397,0.6703641,1.434902,0.3954966,0.03433113,-0.02007553,-0.05381109,-0.9182611,0.1481736,-0.06559366,0.7478032,1.486145,0.2038925,0.3925772,1.059116,0.2989785,306.4553,227.3418,5.72205,True
3,1.388891,-0.4220303,0.05883416,-0.2227413,-1.270115,-4.228168,-3.083843,0.6048331,1.236815,0.4639153,-1.357154,-0.03138673,27.6,42.7,-0.1029298,-0.1181222,-0.07382599,-0.6873406,-4.630503,0.02790354,0.6702592,1.435088,0.3955894,0.03228999,0.004437588,-0.0495901,-0.9187943,0.149121,-0.06644906,0.7476497,1.486084,0.2039633,0.3908378,1.060643,0.2983811,306.2626,226.9303,6.018485,True
3,1.400002,-0.4466218,0.07250379,-0.2408628,-1.266907,-4.22984,-3.077738,0.60368,1.237455,0.4639268,-1.357578,-0.03824737,27.6,42.7,-0.09379815,-0.1402313,-0.110324,-0.6898456,-4.634035,0.03137124,0.6701208,1.435175,0.3956716,0.02268677,0.02041995,-0.05808546,-0.919801,0.1498831,-0.06688929,0.7474756,1.486046,0.2040894,0.3890801,1.062314,0.2976861,306.0448,226.4641,6.335653,True
3,1.411114,-0.4648624,0.1021957,-0.2548609,-1.263725,-4.232427,-3.07107,0.6026658,1.238065,0.4639482,-1.357539,0.004112577,27.6,42.7,-0.1024175,-0.1443815,-0.1177394,-0.6913055,-4.636573,0.03484587,0.6700611,1.43531,0.3957391,0.01942565,0.02573002,-0.06978783,-0.9209307,0.1502701,-0.06720354,0.7472842,1.486037,0.2042279,0.3873263,1.06416,0.2969955,305.7858,225.9799,6.661857,True
3,1.422225,-0.4799301,0.1521653,-0.263687,-1.26069,-4.236155,-3.064096,0.6015996,1.238698,0.4639568,-1.357823,-0.02574571,27.6,42.7,-0.1276747,-0.1370409,-0.08867405,-0.6913651,-4.6386,0.03869573,0.6698388,1.435488,0.3957255,0.009806305,0.02680796,-0.07505106,-0.9219267,0.1505813,-0.06716705,0.7471557,1.48602,0.2043381,0.3854851,1.066163,0.2963815,305.5092,225.467,7.000729,True
3,1.433336,-0.4917729,0.1957851,-0.2682178,-1.25785,-4.240196,-3.057069,0.6006694,1.239372,0.4639094,-1.357853,-0.002309762,26.5,42.1,-0.1546229,-0.1033286,-0.02741062,-0.6896319,-4.638597,0.04129551,0.6696774,1.435803,0.3957376,0.007607602,0.01934417,-0.08247323,-0.9229621,0.1504449,-0.06711192,0.7470001,1.486006,0.2044396,0.3834498,1.06833,0.2959366,305.2192,224.9587,7.363029,True
3,1.444447,-0.514365,0.2809354,-0.270871,-1.25528,-4.246575,-3.048744,0.5995594,1.240034,0.4639232,-1.358159,-0.02784884,26.5,42.1,-0.1717574,-0.06238694,0.05406255,-0.6864591,-4.63782,0.04311072,0.6694282,1.436046,0.3956707,0.01511093,0.01614703,-0.07399244,-0.9234746,0.1504894,-0.06756333,0.7468463,1.485977,0.2045319,0.3811839,1.070669,0.295754,304.8956,224.5114,7.767141,True
3,1.455558,-0.527236,0.3160563,-0.2710769,-1.252709,-4.251547,-3.041009,0.5985584,1.240614,0.4639497,-1.358476,-0.0285701,26.5,42.1,-0.1861697,-0.04350472,0.09697852,-0.6839951,-4.637897,0.04564925,0.6692691,1.436291,0.3955812,0.01516712,0.01829416,-0.06653698,-0.9239433,0.1508457,-0.06798012,0.7467251,1.48599,0.2046309,0.3786569,1.073174,0.2958778,304.5377,224.1595,8.228793,True
3,1.466669,-0.5454629,0.3575281,-0.2755683,-1.250054,-4.257462,-3.032532,0.5973716,1.241366,0.4640517,-1.358153,0.02999116,26.5,42.1,-0.201745,-0.03308652,0.1344956,-0.6814331,-4.638165,0.04863012,0.6690478,1.436515,0.3954222,0.006645866,0.0183165,-0.06648124,-0.9247198,0.1510637,-0.06789436,0.7465998,1.486002,0.204706,0.3759117,1.075828,0.2963046,304.157,223.8832,8.746405,True
3,1.47778,-0.5689961,0.3829876,-0.2831221,-1.247306,-4.263076,-3.023707,0.5961539,1.24211,0.4641044,-1.358491,-0.03103157,24.2,40.7,-0.2206957,-0.02463183,0.1539222,-0.6791998,-4.638402,0.05185627,0.6688955,1.436636,0.3954351,-0.001917839,0.009814819,-0.06853557,-0.9254735,0.1508093,-0.06736093,0.7465127,1.486002,0.2048271,0.3728551,1.078607,0.2970034,303.7543,223.6886,9.282584,True
3,1.488891,-0.5828836,0.3892874,-0.2905813,-1.244331,-4.26815,-3.015202,0.5949374,1.242843,0.4641421,-1.358302,0.01766525,24.2,40.7,-0.2282092,-0.03418382,0.1539027,-0.6776499,-4.639676,0.05564861,0.6687978,1.436831,0.3954647,0.0001384169,-0.002984121,-0.07491504,-0.9265153,0.150234,-0.06710154,0.7463729,1.485987,0.2050331,0.3696749,1.081491,0.2979273,303.3231,223.4786,9.939455,True
3,1.500003,-0.6074322,0.3891298,-0.3054026,-1.241076,-4.273251,-3.006055,0.5936108,1.243511,0.4642644,-1.358061,0.02198779,24.2,40.7,-0.2157969,-0.07350777,0.1353441,-0.676827,-4.643105,0.06032087,0.6686436,1.436881,0.3955731,-0.0009173527,0.003410402,-0.07598192,-0.9273484,0.150518,-0.06724482,0.7462133,1.485928,0.2051668,0.3663677,1.084455,0.2989737,302.925,223.2733,10.61112,True
3,1.511114,-0.6223685,0.3761979,-0.321241,-1.237521,-4.27781,-2.99718,0.5922706,1.244379,0.4643354,-1.35842,-0.03287229,24.2,40.7,-0.2013347,-0.1020569,0.1029931,-0.676991,-4.646052,0.06440829,0.6683965,1.437014,0.3956311,-0.000940837,0.01404987,-0.08346863,-0.9286634,0.1511002,-0.06757505,0.7460685,1.485906,0.2053444,0.3629998,1.087498,0.3000346,302.5362,223.0468,11.33748,True
3,1.522225,-0.6341456,0.3771213,-0.337186,-1.233878,-4.28293,-2.987995,0.5909034,1.24523,0.4643497,-1.358065,0.03298208,24.2,40.7,-0.1892086,-0.1379121,0.05249958,-0.6783321,-4.650438,0.06950451,0.6682168,1.437171,0.3956616,-0.003050774,0.02789973,-0.08561327,-0.9297734,0.1519958,-0.06800541,0.7459379,1.485905,0.205514,0.3596805,1.090594,0.3010142,302.1191,222.7127,12.14457,True
3,1.533336,-0.6437703,0.3738263,-0.3499146,-1.230242,-4.288074,-2.978758,0.5896036,1.246202,0.4644198,-1.358352,-0.02641401,22.9,37.8,-0.2056861,-0.1405927,0.001501072,-0.6798992,-4.652783,0.07428275,0.6681436,1.437391,0.3955905,0.0001639947,0.03321931,-0.08458247,-0.9307338,0.152546,-0.06842326,0.7458626,1.485888,0.2056069,0.3564206,1.093706,0.301835,301.7127,222.2977,12.94564,True
3,1.544447,-0.6502267,0.3983058,-0.3511287,-1.227228,-4.294241,-2.969238,0.5881728,1.24732,0.4643667,-1.358489,-0.01216612,22.9,37.8,-0.2366447,-0.1221811,-0.01510142,-0.680728,-4.653943,0.07881865,0.6679318,1.437647,0.395606,0.009745941,0.02893336,-0.08357182,-0.9316605,0.1526291,-0.06885576,0.7457331,1.485889,0.2057137,0.3532692,1.096852,0.3024615,301.3468,221.8114,13.73082,True
3,1.555558,-0.6545721,0.4259767,-0.3545079,-1.224236,-4.300906,-2.959638,0.5870227,1.248334,0.4643066,-1.358662,-0.01552202,22.9,37.8,-0.2577576,-0.1008464,-0.006189097,-0.680313,-4.654726,0.08290181,0.6677996,1.438009,0.3955457,0.005428664,0.008707077,-0.08350511,-0.9325703,0.1519227,-0.06827813,0.7457173,1.485957,0.2058167,0.3502052,1.100045,0.3029035,300.9993,221.2749,14.47655,True
3,1.566669,-0.6685542,0.470649,-0.3600934,-1.221439,-4.308686,-2.949164,0.5857036,1.249418,0.4642682,-1.358919,-0.02329946,22.9,37.8,-0.2941842,-0.05862328,0.0626899,-0.6774741,-4.653752,0.08659561,0.6677309,1.438324,0.3953922,0.007505894,0.002297964,-0.08883208,-0.9336835,0.1515757,-0.06818518,0.7456512,1.485893,0.2058434,0.3472196,1.103328,0.3032169,300.675,220.7434,15.14425,True
3,1.577781,-0.6835357,0.4940173,-0.3644642,-1.218619,-4.315933,-2.93875,0.5844185,1.250409,0.4642539,-1.359189,-0.0243511,20.9,35,-0.3065373,-0.04717235,0.1012602,-0.6751555,-4.654505,0.09075467,0.6677148,1.43864,0.3953404,0.01484945,-0.008396674,-0.101643,-0.9351797,0.1509617,-0.06818651,0.7455466,1.485803,0.2059765,0.3442118,1.10675,0.3034549,300.3351,220.2564,15.75663,True
3,1.588892,-0.7144847,0.5045332,-0.3729545,-1.215542,-4.323022,-2.927434,0.5831046,1.251552,0.4641933,-1.358859,0.03041046,20.9,35,-0.3093632,-0.04748812,0.1406973,-0.6725696,-4.655751,0.09513211,0.6676347,1.438978,0.3953145,0.02330963,-0.01481918,-0.1091419,-0.9365879,0.1505027,-0.06848665,0.7454967,1.485735,0.2061315,0.3412184,1.110326,0.3037308,299.9348,219.7167,16.43461,True
3,1.600003,-0.7507118,0.5001497,-0.3781136,-1.212552,-4.329607,-2.915648,0.5817608,1.2527,0.4641967,-1.358849,0.0007517915,20.9,35,-0.2852328,-0.06857592,0.2255208,-0.6673338,-4.658946,0.1000233,0.6678092,1.439415,0.3952498,0.03386799,-0.01913269,-0.1219863,-0.938368,0.1498633,-0.06889278,0.7454515,1.485681,0.2062917,0.3380907,1.114052,0.304107,299.5016,219.1445,17.16334,True
3,1.611114,-0.7890662,0.4786528,-0.3937922,-1.208961,-4.335752,-2.903407,0.5803405,1.254052,0.4641826,-1.358081,0.0702867,20.9,35,-0.2690606,-0.07846434,0.25085,-0.6640784,-4.661415,0.1044143,0.6678461,1.439837,0.3952737,0.03907996,-0.02024806,-0.1390655,-0.9404586,0.1493559,-0.06917214,0.7454075,1.485572,0.2064543,0.3348651,1.117912,0.304636,299.0388,218.5307,18.01709,True
3,1.622225,-0.8114355,0.4657543,-0.4021454,-1.20546,-4.342006,-2.891249,0.57888,1.255296,0.4640934,-1.357597,0.04383253,20.9,35,-0.2542637,-0.1244551,0.2631022,-0.6609641,-4.666797,0.1109819,0.668046,1.440171,0.3952143,0.04550015,-0.02557771,-0.1327049,-0.9417326,0.1486678,-0.06948986,0.7453398,1.48553,0.2065887,0.331553,1.121915,0.3052866,298.612,217.9182,18.95351,True
3,1.633336,-0.8423175,0.4571446,-0.4062266,-1.202331,-4.348424,-2.878696,0.5774348,1.256584,0.4640386,-1.357257,0.03101226,19,30.6,-0.2603747,-0.1847154,0.2125677,-0.6608788,-4.673329,0.1192872,0.668185,1.440439,0.3951921,0.04879639,-0.04152264,-0.1113897,-0.9421497,0.1473841,-0.06939398,0.7452346,1.485553,0.2066486,0.3281997,1.126091,0.3059902,298.2132,217.2922,19.95426,True
3,1.644447,-0.8860147,0.447364,-0.4177202,-1.198738,-4.354762,-2.865005,0.5759219,1.257845,0.4638894,-1.357679,-0.03869403,19,30.6,-0.2770875,-0.2214206,0.1548773,-0.6614876,-4.679121,0.1275351,0.6683748,1.440775,0.395221,0.05309457,-0.04365161,-0.1050222,-0.9430978,0.1465852,-0.06965365,0.7451767,1.485543,0.2067411,0.3248157,1.130482,0.3066489,297.8344,216.5775,21.05447,True
3,1.655559,-0.900921,0.447343,-0.4166018,-1.195722,-4.361428,-2.852085,0.5744832,1.259252,0.4638162,-1.357717,-0.002795021,19,30.6,-0.285928,-0.2371382,0.129259,-0.66115,-4.684263,0.1350364,0.6685463,1.441113,0.3951983,0.04886238,-0.04150172,-0.100737,-0.9440922,0.1460557,-0.06969093,0.7451307,1.485558,0.2067997,0.3214326,1.135085,0.3072013,297.3911,215.7469,22.24886,True
3,1.66667,-0.9200884,0.452664,-0.4101761,-1.193057,-4.368245,-2.838573,0.5729548,1.260745,0.4637616,-1.356882,0.07655239,19,30.6,-0.2871563,-0.2294908,0.1080237,-0.6610333,-4.688065,0.1413129,0.6687336,1.44147,0.3952608,0.04874681,-0.06495759,-0.1092124,-0.945501,0.1439992,-0.06902195,0.7451036,1.485523,0.2069063,0.3180881,1.139873,0.3076193,296.8841,214.8188,23.50715,True
3,1.677781,-0.9349648,0.4741202,-0.3868354,-1.191561,-4.375714,-2.825089,0.5716815,1.262187,0.463675,-1.358019,-0.1044045,15.8,28.5,-0.2952192,-0.1571631,0.1308548,-0.6590349,-4.688978,0.1453822,0.669005,1.441872,0.3952355,0.0549494,-0.08100311,-0.1315931,-0.9476518,0.1419334,-0.06859158,0.7452092,1.485511,0.2069788,0.314762,1.144831,0.3078564,296.3908,213.7882,24.82222,True
3,1.688892,-0.9488164,0.4912183,-0.3751814,-1.189951,-4.383176,-2.811402,0.5702959,1.263656,0.463511,-1.357928,0.009553157,15.8,28.5,-0.3022018,-0.1371435,0.1558312,-0.6564212,-4.6899,0.1496489,0.669374,1.442271,0.3952749,0.08145346,-0.1055923,-0.1423725,-0.9494345,0.1394507,-0.06893726,0.7452924,1.485551,0.2070971,0.3115618,1.149966,0.3079748,295.8861,212.6736,26.13954,True
3,1.700003,-0.9765691,0.516726,-0.3752604,-1.188226,-4.391335,-2.796816,0.5690416,1.265136,0.4632857,-1.358423,-0.04526629,15.8,28.5,-0.3008152,-0.1663391,0.2056412,-0.6529858,-4.695269,0.1571598,0.6698081,1.442703,0.395241,0.1134076,-0.1184473,-0.1382947,-0.9507282,0.1371994,-0.06992316,0.7453184,1.48553,0.2071974,0.3084677,1.155265,0.30802,295.3646,211.5617,27.4159,True
3,1.711114,-1.011798,0.5496676,-0.3753758,-1.186689,-4.400201,-2.781132,0.5677199,1.266627,0.4631746,-1.358498,-0.006318198,15.8,28.5,-0.3062216,-0.2186925,0.2254791,-0.6507338,-4.703254,0.1670841,0.6701733,1.443094,0.3952746,0.1230982,-0.1226999,-0.1212993,-0.9513088,0.1353452,-0.07048482,0.7452292,1.485444,0.2073531,0.3055271,1.160705,0.3080547,294.788,210.447,28.7203,True
3,1.722225,-1.051248,0.5676959,-0.3721689,-1.185383,-4.408762,-2.764799,0.5663141,1.26815,0.4629529,-1.358073,0.03903738,15.8,28.5,-0.3041035,-0.2775564,0.2558511,-0.6477548,1.570296,0.1781173,0.6706485,1.443515,0.3952284,0.1093859,-0.1183654,-0.1020424,-0.9517109,0.1338719,-0.07041984,0.7452676,1.485403,0.2074237,0.3026371,1.166225,0.3080745,294.2123,209.213,30.16672,True
3,1.733337,-1.072546,0.5740855,-0.3678759,-1.184196,-4.41715,-2.748962,0.5648974,1.26971,0.4627974,-1.357449,0.0568045,12.4,28,-0.3039004,-0.2766654,0.2771574,-0.6446506,1.564636,0.1860362,0.6710395,1.443881,0.3951573,0.1051055,-0.1173056,-0.1062736,-0.9529887,0.1320619,-0.07043742,0.7452586,1.485403,0.2074771,0.2997477,1.17181,0.3081172,293.6837,207.8681,31.70368,True
3,1.744448,-1.115066,0.5581047,-0.3537697,-1.183238,-4.424308,-2.732459,0.5634022,1.271399,0.4625299,-1.356946,0.04580073,12.4,28,-0.3187391,-0.2563226,0.2742748,-0.6421611,1.560208,0.1936584,0.6714593,1.44428,0.3951294,0.1348115,-0.1248693,-0.1224336,-0.9547901,0.129876,-0.07168563,0.7453153,1.485353,0.207489,0.2967503,1.177506,0.3082254,293.1933,206.517,33.23666,True
3,1.755559,-1.127793,0.5474758,-0.3483288,-1.182201,-4.43155,-2.717122,0.5620874,1.272891,0.4623213,-1.357677,-0.06689135,12.4,28,-0.3303838,-0.252052,0.2797479,-0.6395315,1.554847,0.2020103,0.6720511,1.444597,0.3950548,0.15071,-0.1377053,-0.1289086,-0.9563203,0.1273675,-0.07232879,0.7454062,1.485351,0.2075694,0.293626,1.183378,0.3083884,292.7188,205.1982,34.8062,True
3,1.76667,-1.152245,0.5346742,-0.3428206,-1.181297,-4.438529,-2.701084,0.5606992,1.274484,0.4620349,-1.356977,0.06485308,12.4,28,-0.3219391,-0.2616557,0.2774501,-0.6373376,1.548716,0.2101953,0.6725011,1.444932,0.3950188,0.1537762,-0.1494601,-0.1448823,-0.9582197,0.124798,-0.0726292,0.7453964,1.485281,0.2076643,0.2905064,1.189447,0.308606,292.2203,203.793,36.53406,True
3,1.777781,-1.167141,0.5410995,-0.3353629,-1.180853,-4.446426,-2.684608,0.5594767,1.27605,0.4617653,-1.3584,-0.1305129,12.4,28,-0.3092012,-0.2648942,0.2741106,-0.6350681,1.542504,0.2182053,0.6730083,1.445217,0.3949862,0.1334214,-0.1366707,-0.1671465,-0.9607551,0.1232099,-0.07253013,0.7454495,1.485212,0.2077835,0.2874895,1.195709,0.3087724,291.707,202.305,38.41585,True
3,1.788892,-1.191648,0.5656312,-0.3258648,-1.18111,-4.455019,-2.667526,0.5582642,1.277607,0.4614799,-1.358035,0.03474379,8.8,27.7,-0.3016912,-0.2532125,0.2730741,-0.6326802,1.537341,0.2254488,0.6735375,1.445522,0.3949296,0.1206191,-0.1249289,-0.173479,-0.9627764,0.1219214,-0.07263745,0.7455863,1.48506,0.2079089,0.2847625,1.202071,0.3088637,291.1474,200.4495,40.63463,True
3,1.800003,-1.207604,0.577415,-0.3109767,-1.181683,-4.463019,-2.650555,0.556973,1.279163,0.4611788,-1.358118,-0.007890064,8.8,27.7,-0.3081299,-0.2156773,0.2478872,-0.6310776,1.534909,0.2310074,0.6740438,1.445818,0.3949187,0.1270702,-0.1206688,-0.1660726,-0.964247,0.1203528,-0.07334585,0.7456324,1.484964,0.2080755,0.2822496,1.208467,0.3088107,290.6126,198.4592,42.90788,True
3,1.811115,-1.213943,0.5807156,-0.2960677,-1.182349,-4.470748,-2.634039,0.5558627,1.280728,0.4608889,-1.358033,0.008099145,8.8,27.7,-0.3190376,-0.2282159,0.2265743,-0.6300038,1.529366,0.2392728,0.6745861,1.446167,0.3949986,0.1420511,-0.1153659,-0.1576652,-0.9656819,0.1187762,-0.07456718,0.7457762,1.4849,0.2082107,0.2799091,1.214887,0.3086422,290.118,196.3899,45.1595,True
3,1.822226,-1.220198,0.577769,-0.258728,-1.184188,-4.477582,-2.617719,0.5546095,1.282589,0.4606218,-1.358145,-0.01007579,8.8,27.7,-0.3097352,-0.2601125,0.2134293,-0.6291217,1.521987,0.2484024,0.6751483,1.446612,0.3950446,0.1337008,-0.09400231,-0.1395429,-0.9665719,0.1182818,-0.07551447,0.7458097,1.484854,0.2084486,0.2776251,1.22136,0.3084019,289.6473,194.2906,47.39394,True
3,1.833337,-1.224398,0.5693249,-0.2490489,-1.185232,-4.484664,-2.601349,0.5533578,1.28432,0.4603758,-1.358721,-0.05246476,6.2,29.4,-0.2886323,-0.2707429,0.1971669,-0.6282253,1.515584,0.255971,0.6757084,1.447161,0.3950419,0.1030061,-0.05767341,-0.122365,-0.96734,0.1188412,-0.07588518,0.7458298,1.484898,0.2086377,0.2753972,1.227893,0.3081222,289.1925,192.1051,49.73539,True
3,1.844448,-1.218992,0.555591,-0.2340336,-1.186568,-4.491107,-2.585512,0.5521563,1.286313,0.4600022,-1.358807,-0.007295807,6.2,29.4,-0.2667626,-0.2821726,0.149987,-0.6292048,1.509711,0.2628668,0.6762469,1.447797,0.3949687,0.07963094,-0.04162879,-0.119048,-0.9685523,0.1188469,-0.07596481,0.7458718,1.484882,0.2088966,0.2733324,1.234465,0.3078415,288.7618,189.8954,52.11547,True
3,1.855559,-1.206149,0.5407478,-0.2307932,-1.187417,-4.497722,-2.569983,0.5511194,1.288399,0.4595659,-1.358993,-0.01681817,6.2,29.4,-0.2819025,-0.293665,0.1319223,-0.6293225,1.503202,0.2718725,0.6767364,1.448596,0.3947833,0.05309659,-0.0234322,-0.1103958,-0.9696628,0.1190986,-0.07580236,0.7460288,1.48494,0.2092986,0.2713653,1.241102,0.3075185,288.3442,187.708,54.4712,True
3,1.86667,-1.196552,0.5322343,-0.2328797,-1.18835,-4.504383,-2.554454,0.5500383,1.290539,0.4591923,-1.359413,-0.03824059,6.2,29.4,-0.3071195,-0.2745891,0.1589568,-0.6273087,1.498079,0.2803909,0.677261,1.449405,0.3946207,0.04563569,-0.01383445,-0.1146275,-0.9711009,0.1191856,-0.07610249,0.746093,1.484917,0.2095704,0.2694913,1.247785,0.3071592,287.9859,185.3082,57.03015,True
3,1.877781,-1.175207,0.5334141,-0.2276465,-1.189759,-4.511272,-2.539693,0.5491819,1.292858,0.4587696,-1.359896,-0.04385039,6.2,29.4,-0.3448016,-0.2213863,0.3142384,-0.6188222,1.493029,0.2897394,0.6779238,1.450485,0.3943341,0.0178271,-0.01806162,-0.1304218,-0.9732234,0.1185434,-0.07505054,0.7462201,1.484874,0.2099183,0.2677543,1.254518,0.3067595,287.6793,182.9017,59.60601,True
3,1.888893,-1.165587,0.5313418,-0.2233999,-1.191272,-4.517877,-2.524632,0.5481254,1.295008,0.4585438,-1.359983,-0.007535135,6.9,31.1,-0.3532995,-0.2009171,0.4178314,-0.6116354,1.486331,0.2992259,0.6783416,1.451442,0.3940477,0.02094962,-0.02766915,-0.1378808,-0.974922,0.1176137,-0.07492298,0.7463629,1.484849,0.2101171,0.2662021,1.261279,0.3063422,287.4411,180.3671,62.28978,True
3,1.900004,-1.150598,0.5154721,-0.2126888,-1.1927,-4.523684,-2.510147,0.5471372,1.297305,0.4582462,-1.360812,-0.07580934,6.9,31.1,-0.3852898,-0.1523572,0.6145782,-0.5985247,1.479148,0.3105701,0.6788938,1.45251,0.3935945,0.00339368,-0.07036199,-0.1994686,-0.9790526,0.1145612,-0.07270323,0.7465935,1.484856,0.2102764,0.2647944,1.268072,0.3059399,287.2438,177.8112,64.95375,True
3,1.911115,-1.15159,0.4877811,-0.2135718,-1.193442,-4.52924,-2.49516,0.5462278,1.299611,0.4579892,-1.36043,0.03560688,6.9,31.1,-0.4257298,-0.1306766,0.7206125,-0.5883818,1.471699,0.3227679,0.6795022,1.453407,0.393301,-0.003256649,-0.09916837,-0.2281341,-0.9823608,0.111899,-0.0709807,0.7467614,1.484821,0.2103717,0.2635458,1.274883,0.3056193,287.0658,175.1355,67.71561,True
3,1.922226,-1.156875,0.4568106,-0.2218575,-1.193796,-4.53449,-2.480078,0.545155,1.301806,0.4577851,-1.360579,-0.01407304,6.9,31.1,-0.4487502,-0.1202341,0.7592717,-0.5794303,1.464243,0.3347756,0.6800425,1.454227,0.3929791,-0.002287179,-0.1151675,-0.236631,-0.9851555,0.1094869,-0.06964672,0.7469693,1.484764,0.210475,0.2623286,1.28168,0.3053983,286.902,172.3228,70.62288,True
3,1.933337,-1.165301,0.4024124,-0.2331712,-1.193283,-4.538921,-2.465272,0.544172,1.303967,0.4576585,-1.359953,0.05733386,10.3,32.3,-0.4518648,-0.1203015,0.7678266,-0.571891,1.456455,0.3463204,0.6806202,1.454988,0.3926272,0.001872689,-0.1354316,-0.24407,-0.9877563,0.1067892,-0.06831328,0.7472314,1.484608,0.2104845,0.2611682,1.288416,0.3052544,286.7806,169.5616,73.54588,True
3,1.944448,-1.164167,0.3511737,-0.2477361,-1.192208,-4.542911,-2.450928,0.5430639,1.306164,0.4574811,-1.359292,0.05931066,10.3,32.3,-0.4286261,-0.1234513,0.7484044,-0.5652543,1.448992,0.3565435,0.6811565,1.455725,0.3924532,-0.00351581,-0.1407596,-0.2514812,-0.9906778,0.1044606,-0.06680886,0.7474072,1.484511,0.2106059,0.260063,1.29505,0.3051401,286.7506,166.8243,76.47166,True
3,1.955559,-1.177845,0.2680023,-0.2588441,-1.189925,-4.545353,-2.4367,0.5421292,1.308482,0.4573991,-1.358539,0.06766549,10.3,32.3,-0.3796114,-0.1033797,0.7385297,-0.5581964,1.44319,0.3638256,0.681752,1.456376,0.392328,-0.02371025,-0.1311079,-0.2481744,-0.9932552,0.1031113,-0.06507887,0.7476094,1.484398,0.2108135,0.2589838,1.301538,0.3050115,286.7988,164.0432,79.42383,True
3,1.966671,-1.184158,0.215699,-0.2712434,-1.18778,-4.548194,-2.422306,0.5410095,1.310866,0.4572806,-1.357695,0.075503,10.3,32.3,-0.3308855,-0.0851915,0.6988093,-0.5523332,1.438127,0.3701778,0.6823976,1.457014,0.3922832,-0.01171067,-0.1097519,-0.213144,-0.9944355,0.1026168,-0.06509751,0.7478018,1.484372,0.2110212,0.257995,1.3078,0.3048388,286.9211,161.3323,82.28653,True
3,1.977782,-1.180814,0.107906,-0.3024898,-1.182907,-4.549391,-2.408895,0.5400285,1.313302,0.4571404,-1.355731,0.1776082,10.3,32.3,-0.3256004,-0.132374,0.606732,-0.550151,1.430105,0.3803508,0.6829911,1.457431,0.3922412,0.02044953,-0.1268023,-0.1760347,-0.9949932,0.1002072,-0.06509697,0.74797,1.484284,0.2112396,0.2570905,1.313774,0.3045663,287.109,158.8408,84.90955,True
3,1.988893,-1.171504,0.02719691,-0.3338021,-1.179193,-4.551454,-2.395334,0.5390013,1.315693,0.4570308,-1.353787,0.1746785,12.2,33.6,-0.340528,-0.2030135,0.5295699,-0.548583,1.419407,0.393815,0.6835496,1.45777,0.392185,0.04081237,-0.1310658,-0.1548514,-0.995952,0.09828542,-0.06507434,0.7481401,1.484162,0.211488,0.2563216,1.319425,0.3041234,287.3621,156.7802,87.05484,True
3,2.000004,-1.167901,-0.02882102,-0.3569747,-1.173268,-4.552687,-2.382116,0.5378202,1.318086,0.4568779,-1.351989,0.1612873,12.2,33.6,-0.324166,-0.2399358,0.4768959,-0.5468141,1.409837,0.4050428,0.6840926,1.458095,0.3922386,0.04620321,-0.1108343,-0.1527965,-0.9974971,0.09748475,-0.06536223,0.7483577,1.484052,0.2116165,0.2555863,1.324819,0.3034487,287.6777,155.0199,88.84348,True
3,2.011115,-1.166774,-0.0929023,-0.3810239,-1.167595,-4.553902,-2.368681,0.53672,1.320403,0.4567645,-1.349757,0.2008643,12.2,33.6,-0.2965668,-0.2410465,0.4649144,-0.5432124,1.401379,0.4144827,0.6845657,1.458541,0.3921764,0.04080066,-0.1012531,-0.1676941,-0.9998508,0.09651349,-0.06502055,0.7485757,1.483888,0.2117794,0.2549965,1.329912,0.3025267,288.1123,153.4476,90.37701,True
3,2.022226,-1.164641,-0.1175088,-0.3968411,-1.162606,-4.555929,-2.355245,0.5356773,1.322564,0.4565713,-1.347108,0.2385481,12.2,33.6,-0.2783884,-0.2197963,0.460664,-0.5394494,1.394514,0.4228189,0.684999,1.458839,0.3922036,0.02983819,-0.1077071,-0.2123529,-1.003588,0.09458137,-0.06390947,0.7487962,1.483727,0.2118411,0.2544427,1.334764,0.3013932,288.5777,151.9561,91.71858,True
3,2.033337,-1.15829,-0.1089789,-0.402244,-1.159215,-4.559096,-2.341515,0.5348483,1.324605,0.456562,-1.343995,0.2804154,12.2,33.6,-0.2448502,-0.1369523,0.4695817,-0.5339489,1.392389,0.4261883,0.685328,1.459275,0.3923438,0.01456097,-0.1375868,-0.2558741,-1.00768,0.09124123,-0.06176536,0.7490662,1.483629,0.2119339,0.2538753,1.339372,0.3000879,289.1262,150.5584,92.91863,True
3,2.044448,-1.142396,-0.05129671,-0.3888617,-1.157606,-4.563419,-2.327781,0.5339779,1.326532,0.4563446,-1.341242,0.2471472,14.8,35.5,-0.2238672,-0.07458843,0.5146651,-0.5268281,1.38893,0.4309301,0.6857409,1.459518,0.3924742,-0.0005199611,-0.1652766,-0.2706344,-1.010991,0.08773465,-0.05936266,0.7492599,1.48346,0.2119968,0.2533141,1.343759,0.2986983,289.6701,149.3618,93.87617,True
3,2.055559,-1.12759,0.04057685,-0.3575813,-1.158243,-4.568439,-2.313907,0.5333059,1.328371,0.4560902,-1.338242,0.2700257,14.8,35.5,-0.1999488,-0.05161015,0.5529917,-0.5199407,1.382761,0.4377265,0.6862761,1.459368,0.3925385,0.03588372,-0.2089481,-0.2260435,-1.011685,0.08343124,-0.05853175,0.7495145,1.48332,0.2120252,0.2527768,1.347982,0.2973632,290.1687,148.3172,94.64575,True
3,2.06667,-1.118062,0.102545,-0.3335343,-1.158729,-4.573069,-2.300139,0.5324078,1.330211,0.4559484,-1.335372,0.2578276,14.8,35.5,-0.2155007,-0.08091587,0.501748,-0.5174831,1.375989,0.4465618,0.6867349,1.459264,0.3925314,0.06048359,-0.2143021,-0.2091492,-1.013242,0.08032933,-0.05838954,0.7496741,1.483184,0.2121136,0.2522542,1.352153,0.2962743,290.5784,147.3841,95.30132,True
3,2.077781,-1.109518,0.1785928,-0.2787046,-1.161179,-4.577456,-2.286565,0.5315362,1.331827,0.4557719,-1.332071,0.297221,14.8,35.5,-0.2692745,-0.1466397,0.3706487,-0.519506,1.369308,0.4570986,0.6871496,1.459175,0.3925958,0.1430854,-0.198364,-0.1287538,-1.011687,0.07871758,-0.0621414,0.7496864,1.48309,0.2122593,0.2516154,1.356428,0.2955423,290.8642,146.4644,96.05135,True
3,2.088892,-1.109492,0.2000546,-0.2586194,-1.161675,-4.581364,-2.272788,0.5305662,1.333613,0.4555295,-1.328437,0.3272178,18.1,38.7,-0.2880905,-0.1780048,0.310899,-0.5193532,1.362464,0.4665943,0.6875778,1.45923,0.3926804,0.1581899,-0.1898227,-0.1022424,-1.012021,0.07660756,-0.06299601,0.7497845,1.48292,0.2123096,0.2508551,1.360902,0.2952487,291.0393,145.4699,97.0378,True
3,2.100003,-1.099876,0.2226087,-0.2353705,-1.162994,-4.585143,-2.259527,0.5296322,1.335168,0.4552109,-1.324851,0.3225848,18.1,38.7,-0.2596866,-0.1928072,0.2806731,-0.5188711,1.355803,0.4743356,0.6878834,1.459201,0.3928046,0.1434577,-0.145022,-0.09158118,-1.012614,0.07649664,-0.06403544,0.7498745,1.482833,0.21243,0.24994,1.365597,0.2953557,291.1806,144.3012,98.35493,True
3,2.111114,-1.079626,0.238731,-0.2249025,-1.163964,-4.589235,-2.246729,0.5289074,1.336835,0.4548914,-1.320756,0.3691957,18.1,38.7,-0.2360799,-0.1952228,0.3006749,-0.5160136,1.348196,0.4828213,0.6880052,1.459304,0.392854,0.1158144,-0.1012871,-0.09788229,-1.01407,0.07679451,-0.06432147,0.7499871,1.482795,0.2125504,0.2489378,1.370457,0.2957734,291.2569,142.927,100.0372,True
3,2.122225,-1.055132,0.2537486,-0.2176395,-1.165117,-4.59331,-2.234278,0.5281177,1.338474,0.4546635,-1.317428,0.2984921,18.1,38.7,-0.2296897,-0.1856222,0.2953699,-0.5141073,1.342118,0.4903641,0.6880821,1.459364,0.3928556,0.09240644,-0.06502803,-0.1073893,-1.015631,0.07718387,-0.06480483,0.7501435,1.482688,0.2127745,0.247899,1.375389,0.2963037,291.3904,141.5677,101.8272,True
3,2.133336,-1.041293,0.2687373,-0.2135508,-1.166424,-4.597647,-2.221561,0.5274619,1.340058,0.4544003,-1.314258,0.2848799,18.1,38.7,-0.2806835,-0.1544599,0.2939839,-0.5117126,1.337839,0.4989374,0.6882207,1.459504,0.3929074,0.09356619,-0.04477295,-0.09998433,-1.01653,0.07729785,-0.06591909,0.7503519,1.48265,0.2130094,0.2469706,1.380255,0.2968089,291.5344,140.1975,103.6282,True
3,2.144447,-1.02215,0.3040373,-0.1989306,-1.169125,-4.602129,-2.208949,0.5266978,1.34161,0.4540794,-1.310757,0.3149882,23.6,40.4,-0.3050983,-0.1415717,0.2964554,-0.5092902,1.332389,0.507938,0.6882465,1.459657,0.3929338,0.1171714,-0.001136601,-0.09063737,-1.017272,0.07896486,-0.06892447,0.7504939,1.48255,0.2132533,0.2462405,1.384952,0.2972064,291.7162,138.9261,105.2371,True
3,2.155558,-1.011538,0.3371578,-0.1906749,-1.172001,-4.606991,-2.196136,0.5260592,1.343139,0.4537425,-1.306662,0.3690487,23.6,40.4,-0.3378439,-0.09028664,0.2982698,-0.5060304,1.329944,0.5147994,0.6882424,1.459751,0.3928244,0.1342297,0.01692241,-0.09504807,-1.018555,0.07977858,-0.07141586,0.7506777,1.482584,0.2134123,0.2456534,1.38944,0.2974548,291.932,137.7171,106.6556,True
3,2.166669,-0.9817774,0.3895298,-0.175142,-1.176256,-4.612086,-2.184302,0.5253026,1.344622,0.4534307,-1.302932,0.3352754,23.6,40.4,-0.3558651,-0.05495547,0.2891532,-0.5032506,1.327939,0.5210709,0.6881987,1.459918,0.3927963,0.1096169,0.02971943,-0.1162189,-1.020611,0.08029151,-0.07198045,0.7507925,1.482493,0.2135096,0.2451296,1.393751,0.297544,292.1357,136.6407,107.8503,True
3,2.17778,-0.9488004,0.4558839,-0.1501485,-1.18187,-4.617698,-2.172672,0.5246118,1.345914,0.4533231,-1.299138,0.3417416,23.6,40.4,-0.3884384,0.007942915,0.3027861,-0.4989177,1.327756,0.5265589,0.6881653,1.46,0.3927155,0.07335998,0.02873454,-0.1213051,-1.022178,0.08051495,-0.07172665,0.7509115,1.482435,0.2136374,0.2445567,1.397984,0.2974939,292.2894,135.6379,108.9138,True
3,2.188891,-0.9328361,0.4804932,-0.1386457,-1.186134,-4.622347,-2.161026,0.5237852,1.347401,0.4530733,-1.296505,0.2354324,29.3,41.6,-0.4083945,0.02704805,0.3233721,-0.4948936,1.3248,0.5343127,0.6882457,1.46009,0.3926561,0.06484838,0.02130964,-0.1169685,-1.023211,0.08042121,-0.07219936,0.7509624,1.48239,0.2138104,0.2439448,1.402205,0.2973849,292.4292,134.7284,109.8558,True
3,2.200002,-0.9210753,0.4859557,-0.1227436,-1.190426,-4.626509,-2.149507,0.523021,1.349033,0.4528971,-1.293342,0.2848629,29.3,41.6,-0.403782,0.001022279,0.3742439,-0.4902832,1.317043,0.5455701,0.6884414,1.460206,0.3925624,0.07979549,0.02341117,-0.1128096,-1.024346,0.08069298,-0.07372775,0.751088,1.482301,0.2139299,0.2432954,1.406452,0.2973622,292.565,133.6877,110.8715,True
3,2.211113,-0.9146315,0.4657455,-0.1194397,-1.193357,-4.630182,-2.138101,0.5224354,1.350703,0.4526575,-1.289721,0.3266808,29.3,41.6,-0.3867428,-0.03971766,0.3961051,-0.4868727,1.308294,0.557047,0.6885265,1.460255,0.3924811,0.09259729,0.03616518,-0.1150377,-1.025622,0.08173455,-0.07580209,0.7512738,1.48223,0.2140551,0.2426305,1.410718,0.2975973,292.6755,132.5152,112.049,True
3,2.222224,-0.9070039,0.3729957,-0.1305661,-1.193182,-4.632417,-2.127458,0.5217071,1.352529,0.4524736,-1.286794,0.2632796,29.3,41.6,-0.3583443,-0.1304995,0.4057138,-0.4851795,1.294466,0.5722625,0.6887486,1.460405,0.3924713,0.1083167,0.03178711,-0.1524191,-1.028649,0.08169992,-0.07750438,0.7514301,1.482102,0.2140779,0.2418932,1.415058,0.2980435,292.7654,131.4908,113.2308,True
3,2.233335,-0.9058114,0.2790857,-0.153368,-1.19212,-4.634728,-2.116445,0.5210757,1.354282,0.4523909,-1.284319,0.2227971,29.3,41.6,-0.3383026,-0.1721588,0.4062395,-0.4831816,1.283405,0.585138,0.6890093,1.460586,0.3923516,0.1038929,0.01365147,-0.1704193,-1.030472,0.08101842,-0.07809827,0.7516917,1.481961,0.21416,0.2412033,1.419491,0.2986289,292.8255,130.6286,114.3737,True
3,2.244446,-0.9078687,0.2160904,-0.1731636,-1.191217,-4.637269,-2.105317,0.5204145,1.356094,0.4522467,-1.282494,0.1638418,29.4,41.4,-0.2937218,-0.1936433,0.4003084,-0.4812838,1.272953,0.5960413,0.6891613,1.46078,0.3923991,0.09850684,-0.0001903251,-0.1746175,-1.032492,0.08031495,-0.07867457,0.7517946,1.481866,0.2142293,0.2407262,1.423975,0.2992106,292.953,129.8336,115.5552,True
3,2.255557,-0.9088212,0.132843,-0.1949594,-1.188604,-4.639162,-2.094591,0.5198125,1.357929,0.4521244,-1.280425,0.1867578,29.4,41.4,-0.2608385,-0.1872613,0.3819445,-0.4792529,1.265769,0.6042023,0.6892051,1.461129,0.392343,0.08467417,-0.005465336,-0.1691633,-1.033756,0.08006647,-0.07892038,0.7518638,1.481687,0.2142997,0.2405294,1.428419,0.2995709,293.2539,129.0369,116.7219,True
3,2.266668,-0.9034263,0.08803498,-0.204262,-1.187053,-4.641363,-2.083769,0.5192712,1.359849,0.4519875,-1.278871,0.1398033,29.4,41.4,-0.2585976,-0.1477641,0.372676,-0.4761626,1.26052,0.611824,0.6891574,1.461429,0.392293,0.07219087,0.001055047,-0.1254523,-1.034227,0.08047913,-0.07961547,0.7514689,1.481516,0.2145584,0.2406114,1.432777,0.2995837,293.6569,128.2441,117.7238,True
3,2.277779,-0.884216,0.04319403,-0.2242665,-1.184592,-4.643797,-2.073558,0.518944,1.361698,0.4518774,-1.277766,0.09925033,29.4,41.4,-0.2670215,-0.1167744,0.3666284,-0.4731297,1.25517,0.6198132,0.6892668,1.461777,0.3921943,0.06289168,-0.004156969,-0.07957195,-1.033605,0.08026501,-0.079914,0.7514747,1.481486,0.2147443,0.2408809,1.437096,0.2992014,294.1061,127.4648,118.5562,True
3,2.28889,-0.8565395,0.03891209,-0.2360569,-1.18364,-4.646842,-2.063747,0.5187244,1.363448,0.4518523,-1.27671,0.09506359,24.3,41.2,-0.3031369,-0.1252327,0.3818174,-0.4702232,1.24591,0.6326089,0.6894735,1.462096,0.3920133,0.04604938,-0.004053101,-0.04964613,-1.033496,0.08023332,-0.07998724,0.7515136,1.481628,0.214951,0.2413375,1.441338,0.2984336,294.6161,126.7866,119.1687,True
3,2.300001,-0.8384429,0.03999622,-0.2393217,-1.18274,-4.649749,-2.053845,0.5183531,1.365263,0.4517231,-1.276446,0.02275508,24.3,41.2,-0.3359837,-0.1380678,0.4075865,-0.4670918,1.235301,0.6469157,0.689669,1.462357,0.3918056,0.04501848,0.001282316,-0.04645387,-1.033909,0.08041668,-0.08054624,0.7516132,1.481567,0.2151039,0.2419529,1.445541,0.2973717,295.1304,126.1836,119.5922,True
3,2.311112,-0.8128801,0.04000904,-0.244748,-1.181726,-4.652731,-2.044535,0.5180206,1.366952,0.4517431,-1.276257,0.01663955,24.3,41.2,-0.3495511,-0.1393063,0.4364701,-0.4634342,1.224736,0.6604648,0.6898246,1.462603,0.3915467,0.04699171,0.01506354,-0.07739554,-1.036076,0.08092734,-0.08160245,0.7518132,1.481468,0.2152531,0.2427973,1.449633,0.2961972,295.7014,125.6195,119.897,True
3,2.322223,-0.7979648,0.03896894,-0.2458587,-1.180806,-4.655598,-2.034954,0.5176978,1.368742,0.4519165,-1.275343,0.08290049,24.3,41.2,-0.3521648,-0.1301856,0.4930383,-0.4582373,1.212302,0.6756805,0.6900607,1.462854,0.3914094,0.04464327,0.02032629,-0.1125461,-1.038612,0.08116543,-0.08213162,0.7519735,1.481339,0.215416,0.2437533,1.453659,0.2951048,296.2677,124.9717,120.2312,True
3,2.333334,-0.792611,0.03474931,-0.2415881,-1.179892,-4.65815,-2.02533,0.5174069,1.370401,0.4519458,-1.275176,0.01406245,24.3,41.2,-0.323138,-0.1466207,0.5277789,-0.4543033,1.19855,0.6904336,0.6902961,1.463131,0.3914618,0.03578,0.01811454,-0.1646881,-1.042318,0.08095157,-0.08217876,0.7523185,1.481248,0.215728,0.2446226,1.457699,0.2941921,296.8135,124.2902,120.6603,True
3,2.344445,-0.7840157,0.0188659,-0.2308522,-1.178672,-4.660105,-2.016148,0.5170546,1.37215,0.4520907,-1.274236,0.08536817,18.5,40,-0.2848248,-0.1392829,0.5200185,-0.4509467,1.188399,0.7014979,0.6905364,1.463394,0.3915474,0.03049439,0.02452838,-0.1604074,-1.043942,0.08133906,-0.08249807,0.752499,1.481145,0.2160575,0.2453959,1.461685,0.2935818,297.3535,123.6397,121.1333,True
3,2.355556,-0.7743407,0.01263523,-0.2106026,-1.17787,-4.661665,-2.007294,0.5168113,1.373874,0.4520049,-1.273438,0.07189287,18.5,40,-0.2565337,-0.159323,0.4790975,-0.4495661,1.178378,0.7123077,0.6907921,1.463542,0.3915787,0.03921147,0.04585013,-0.1391922,-1.044796,0.08254228,-0.08382646,0.752585,1.481034,0.216326,0.2460356,1.465626,0.2933124,297.8126,123.0823,121.6258,True
3,2.366668,-0.7540944,0.01912935,-0.2021852,-1.177464,-4.663831,-1.998618,0.516605,1.375468,0.4519169,-1.273132,0.02712416,18.5,40,-0.2481126,-0.1990067,0.3785191,-0.4514985,1.170914,0.7215907,0.6910802,1.463778,0.3914497,0.0414905,0.04588912,-0.116838,-1.045464,0.08305534,-0.08462328,0.752822,1.480966,0.2165756,0.2465698,1.469519,0.2933159,298.1853,122.5931,122.204,True
3,2.377779,-0.7349521,0.03515918,-0.2012949,-1.177364,-4.666414,-1.990071,0.5164053,1.376984,0.4518049,-1.272893,0.02140615,18.5,40,-0.2884075,-0.2269038,0.3008876,-0.453352,1.163884,0.732466,0.6912832,1.463965,0.3913631,0.04798592,0.03419505,-0.09661642,-1.045825,0.08302831,-0.08538281,0.7529764,1.480915,0.2167549,0.2470463,1.473365,0.2934615,298.4851,122.1533,122.8345,True
3,2.38889,-0.7126044,0.04157533,-0.204605,-1.17696,-4.669015,-1.981783,0.5162947,1.378514,0.4517033,-1.272912,-0.002205918,18.5,40,-0.3334731,-0.2285332,0.2682619,-0.4535763,1.156303,0.7444878,0.6914906,1.464289,0.3912265,0.03834661,0.01824456,-0.09758663,-1.04699,0.08265227,-0.08519665,0.7532706,1.480875,0.2168872,0.2475466,1.477153,0.2935895,298.7365,121.7188,123.5143,True
3,2.400001,-0.6913083,0.03409319,-0.2077751,-1.176229,-4.671481,-1.973578,0.5161335,1.379972,0.451658,-1.272847,0.005810656,18.4,38,-0.3447968,-0.2106395,0.3004835,-0.4514868,1.146469,0.7576004,0.6917293,1.464552,0.3911386,0.03388283,0.0160639,-0.1284494,-1.049423,0.08253908,-0.08543368,0.7534916,1.480757,0.2169948,0.2481269,1.480855,0.2936229,299.0318,121.2675,124.1563,True
3,2.411112,-0.6774155,0.02887433,-0.2046382,-1.175426,-4.673717,-1.96577,0.5160615,1.381402,0.4516871,-1.272752,0.008337002,18.4,38,-0.3116023,-0.1594691,0.4018233,-0.4456012,1.133633,0.77126,0.6921092,1.464707,0.3911846,0.033689,0.02025675,-0.1593477,-1.052176,0.0826267,-0.08582756,0.7537394,1.48061,0.2171688,0.2487936,1.48446,0.2935449,299.3763,120.8122,124.7134,True
3,2.422223,-0.6581728,0.01406716,-0.1950197,-1.174368,-4.675485,-1.958309,0.5160033,1.382785,0.4516625,-1.272439,0.02826068,18.4,38,-0.232892,-0.131826,0.4865438,-0.439935,1.119169,0.7842575,0.6924615,1.464765,0.391093,0.03027441,0.01487391,-0.1902098,-1.055338,0.08224041,-0.08583634,0.7539293,1.480449,0.2174017,0.2495526,1.487948,0.2933651,299.7627,120.3851,125.1774,True
3,2.433334,-0.6410803,0.01205562,-0.1833421,-1.173836,-4.67713,-1.951181,0.515916,1.384295,0.4515929,-1.272403,0.0028587,18.4,38,-0.1795869,-0.1524593,0.5007762,-0.4375403,1.105469,0.7967517,0.6927632,1.464792,0.3910968,0.03139327,0.01062873,-0.1806185,-1.056926,0.08199673,-0.08610027,0.7540488,1.48029,0.2176876,0.2503834,1.4913,0.2930977,300.172,119.9832,125.5677,True
3,2.444445,-0.62608,0.001557589,-0.1652135,-1.173058,-4.678194,-1.944356,0.5158064,1.385852,0.4515891,-1.272275,0.01148991,18.1,35.8,-0.1674807,-0.1754445,0.4397354,-0.4376,1.096294,0.8065048,0.6931144,1.464911,0.3911638,0.04338893,0.03411124,-0.1466519,-1.057507,0.08338983,-0.08759803,0.7542245,1.480201,0.2180619,0.2512923,1.49449,0.2927701,300.5697,119.6028,125.9147,True
3,2.455556,-0.612128,-0.03565811,-0.1596783,-1.171004,-4.679136,-1.937632,0.5157636,1.387376,0.4516151,-1.27226,0.001032435,18.1,35.8,-0.1944047,-0.2372248,0.3297252,-0.4408799,1.088596,0.8164317,0.6934417,1.465017,0.3912077,0.0609277,0.05018578,-0.07755312,-1.056309,0.08474898,-0.08947742,0.7543268,1.480137,0.218354,0.2522227,1.497545,0.2923585,300.931,119.2564,126.2255,True
3,2.466667,-0.6055749,-0.1027537,-0.1592524,-1.167249,-4.67973,-1.93098,0.5156363,1.389056,0.4514849,-1.272065,0.01765746,18.1,35.8,-0.2101369,-0.266379,0.258249,-0.4432501,1.080966,0.826104,0.6937996,1.465202,0.391187,0.0782555,0.05023768,-0.03504673,-1.05539,0.08556058,-0.09132352,0.7545019,1.480051,0.2186103,0.253096,1.500551,0.2918472,301.2492,118.9543,126.4652,True
3,2.477778,-0.5905589,-0.1785012,-0.1800858,-1.162165,-4.680704,-1.924583,0.5154774,1.390726,0.4511778,-1.271841,0.02015493,18.1,35.8,-0.2448812,-0.2838051,0.1987668,-0.4459591,1.074928,0.8354096,0.69405,1.465478,0.3910596,0.08258284,0.04598914,-0.02334813,-1.055239,0.08600199,-0.09263406,0.7546608,1.480021,0.2187285,0.2539411,1.503495,0.2912568,301.5664,118.6895,126.6601,True
3,2.488889,-0.5756143,-0.2267341,-0.209606,-1.156795,-4.681757,-1.918165,0.5154957,1.392324,0.4507644,-1.271531,0.02801845,18.1,35.8,-0.2856753,-0.2489551,0.2591169,-0.4437279,1.063883,0.8497574,0.6943466,1.465863,0.3909447,0.0696399,0.03000701,-0.04134388,-1.056492,0.08564074,-0.09269451,0.7548941,1.479919,0.2188702,0.2548068,1.506317,0.290575,301.9313,118.5064,126.8104,True
3,2.5,-0.5681853,-0.2481846,-0.2329192,-1.152409,-4.683914,-1.91124,0.5154375,1.393826,0.4505546,-1.271699,-0.01571876,15.8,34.3,-0.2836392,-0.2295063,0.3508875,-0.440506,1.0486,0.8666856,0.6945865,1.466182,0.3907969,0.04994769,-0.0009721629,-0.1082682,-1.059948,0.08400622,-0.09173898,0.7551371,1.479839,0.2188878,0.2556497,1.509019,0.2896926,302.3475,118.4295,126.9021,True
3,2.511111,-0.5533246,-0.2493343,-0.250008,-1.148873,-4.686316,-1.904629,0.5154476,1.395296,0.4506445,-1.271538,0.01475011,15.8,34.3,-0.2598988,-0.1773342,0.4661738,-0.4347568,1.032102,0.8834653,0.6948804,1.466538,0.3907077,0.02389817,-0.0255359,-0.1719626,-1.063806,0.08236492,-0.09030939,0.7553195,1.479737,0.2190447,0.2564925,1.511531,0.2885493,302.8087,118.4459,126.8919,True
3,2.522222,-0.5351967,-0.2374751,-0.2362965,-1.146131,-4.687694,-1.898725,0.5153041,1.396891,0.450685,-1.271271,0.02410259,15.8,34.3,-0.23772,-0.1643188,0.5502419,-0.4303551,1.013444,0.9023194,0.6950647,1.46682,0.3907075,0.008916706,-0.009553041,-0.1889432,-1.066431,0.08260846,-0.0900934,0.7554644,1.479573,0.2192385,0.2573857,1.513803,0.2871707,303.2762,118.546,126.6847,True
3,2.533333,-0.5255311,-0.249051,-0.2213414,-1.142607,-4.688703,-1.892813,0.5151577,1.39846,0.4506562,-1.271494,-0.02063192,15.8,34.3,-0.2145498,-0.155653,0.5181264,-0.4288877,1.002777,0.9135936,0.695224,1.466937,0.390671,0.007967114,0.00538801,-0.1761761,-1.067814,0.08314881,-0.09038023,0.7555354,1.479447,0.2194784,0.2582927,1.515919,0.2857255,303.7541,118.6985,126.2219,True
3,2.544444,-0.5136592,-0.274401,-0.1935025,-1.138492,-4.688536,-1.887552,0.5148613,1.400081,0.4505424,-1.271632,-0.01252283,15,32.6,-0.2341647,-0.1895163,0.3784483,-0.432133,0.9997801,0.9196687,0.695349,1.467147,0.3906283,0.01899675,0.02995723,-0.1283592,-1.067623,0.0844816,-0.09165242,0.7556139,1.479409,0.2197781,0.2591828,1.517997,0.2844502,304.1896,118.8188,125.6886,True
3,2.555555,-0.5114405,-0.2988366,-0.1837463,-1.133972,-4.68883,-1.881708,0.5147057,1.401468,0.4505055,-1.271299,0.03038812,15,32.6,-0.264576,-0.2467367,0.2354842,-0.4374849,0.9975885,0.9256442,0.6953659,1.467388,0.3906002,0.02792735,0.07157619,-0.08162421,-1.067065,0.08709429,-0.09350518,0.7557341,1.47942,0.2199628,0.2599512,1.520193,0.2834247,304.5429,118.817,125.3898,True
3,2.566666,-0.5028993,-0.3052192,-0.1837315,-1.129794,-4.689712,-1.876076,0.5144465,1.402723,0.4502323,-1.271254,0.003721975,15,32.6,-0.3111849,-0.2543352,0.1548863,-0.4403808,0.9948367,0.932997,0.6953286,1.467843,0.3904605,0.02381529,0.07482457,-0.06029816,-1.067201,0.08805303,-0.09405353,0.7558914,1.479399,0.22012,0.2606058,1.522493,0.2826075,304.8633,118.7623,125.364,True
3,2.577777,-0.4966564,-0.259473,-0.1925673,-1.127968,-4.691701,-1.86973,0.5143358,1.403697,0.4502761,-1.270721,0.04856751,15,32.6,-0.3351883,-0.1603788,0.2699166,-0.4352852,0.983901,0.9475795,0.6952251,1.468187,0.3903966,-0.01802472,0.04396917,-0.09298588,-1.069197,0.08712704,-0.09191261,0.7560525,1.47934,0.2200842,0.2612055,1.524794,0.2818713,305.1839,118.6592,125.526,True
3,2.588888,-0.4883048,-0.1848573,-0.1866796,-1.12803,-4.693389,-1.863707,0.5141971,1.404694,0.4501941,-1.271009,-0.02680036,15,32.6,-0.2882172,-0.1006718,0.359475,-0.4303354,0.9709198,0.9607009,0.6952093,1.468332,0.39027,-0.03746304,0.04075123,-0.1322676,-1.072096,0.08734836,-0.09103217,0.7561709,1.479263,0.2202349,0.2618533,1.526953,0.281134,305.5317,118.5766,125.6949,True
3,2.599999,-0.4778188,-0.09952859,-0.1755913,-1.129355,-4.695674,-1.857768,0.5139633,1.405681,0.4501691,-1.270705,0.02799897,13.7,29.1,-0.2249423,-0.06712687,0.3857985,-0.4268051,0.9612242,0.9696552,0.6950692,1.468427,0.390111,-0.0556726,0.03970332,-0.1470586,-1.074324,0.08761041,-0.08999514,0.7562392,1.47921,0.220469,0.2625289,1.528953,0.280349,305.9128,118.503,125.7546,True
3,2.61111,-0.4683373,-0.03548696,-0.1611555,-1.130398,-4.697592,-1.852,0.5137853,1.40684,0.4499776,-1.270762,-0.005509834,13.7,29.1,-0.250858,-0.09452388,0.3634214,-0.4273686,0.9522132,0.9816312,0.6950189,1.468466,0.3900709,-0.051301,0.0482363,-0.1332597,-1.07534,0.08840097,-0.08998076,0.7563596,1.479065,0.2206917,0.2632359,1.53086,0.2796607,306.2282,118.4167,125.6594,True
3,2.622221,-0.4683374,-0.01195692,-0.1453412,-1.130485,-4.698856,-1.846228,0.513353,1.407916,0.449877,-1.271011,-0.02272787,13.7,29.1,-0.2741609,-0.1128338,0.2750556,-0.428998,0.9494032,0.9880771,0.6948197,1.468562,0.3900571,-0.03811565,0.09942257,-0.09190315,-1.075068,0.09187826,-0.09172406,0.7564045,1.479031,0.2209466,0.2638666,1.532902,0.2791379,306.4472,118.2643,125.6067,True
3,2.633332,-0.4640307,-0.01613805,-0.135739,-1.129712,-4.700036,-1.84069,0.5129857,1.409119,0.4496148,-1.270933,0.007212162,13.7,29.1,-0.2864447,-0.1498206,0.1235564,-0.4334987,0.9532462,0.9881555,0.6946446,1.468749,0.3900802,-0.02385074,0.1463558,-0.04628237,-1.074412,0.09575649,-0.0937968,0.7564932,1.47899,0.221097,0.2643653,1.535212,0.2788534,306.6317,118.0557,125.7058,True
3,2.644443,-0.4586693,-0.0299814,-0.1356639,-1.128417,-4.701372,-1.835253,0.5125464,1.410173,0.4494655,-1.270532,0.03649057,13.5,24.7,-0.3051912,-0.1577123,0.0608108,-0.4359579,0.9532984,0.9920716,0.6944532,1.468968,0.3900778,-0.02807182,0.1421192,-0.03879013,-1.074761,0.0972653,-0.09406924,0.7565813,1.478959,0.2211664,0.2647595,1.537787,0.2787793,306.8248,117.7955,126.0326,True
3,2.655554,-0.4437813,-0.01606592,-0.1326142,-1.128366,-4.702966,-1.830135,0.5121713,1.41118,0.4491806,-1.270605,-0.00709305,13.5,24.7,-0.2669495,-0.1020444,0.1312398,-0.4332122,0.9469087,0.9995636,0.6942947,1.469207,0.3900309,-0.03571502,0.1207885,-0.05893178,-1.076099,0.09766118,-0.09359653,0.7566526,1.478907,0.221158,0.2651037,1.540495,0.2788102,307.0579,117.4585,126.5649,True
3,2.666665,-0.4289402,0.01592758,-0.1318264,-1.129197,-4.704873,-1.825131,0.5118966,1.412089,0.4489965,-1.27071,-0.009565381,13.5,24.7,-0.2376176,-0.07809565,0.178045,-0.4312707,0.9393885,1.007946,0.6939602,1.469397,0.389832,-0.05189104,0.08671171,-0.07579484,-1.077413,0.09745026,-0.09241622,0.7567383,1.47891,0.2211015,0.2654704,1.543174,0.2788042,307.3321,117.1285,127.1405,True
3,2.677776,-0.4067618,0.1130107,-0.120863,-1.133491,-4.707301,-1.820419,0.5116419,1.412846,0.4488323,-1.271055,-0.03146861,13.5,24.7,-0.2340047,-0.05387852,0.2091165,-0.4292169,0.9327364,1.016427,0.6937507,1.469556,0.3896444,-0.05939076,0.06116992,-0.07249784,-1.078105,0.09713041,-0.09135308,0.7567685,1.47886,0.221158,0.2658994,1.545667,0.2786895,307.6397,116.8176,127.6221,True
3,2.688887,-0.4035941,0.1471971,-0.1072696,-1.135716,-4.708815,-1.815477,0.5112782,1.413718,0.4486406,-1.271216,-0.01457467,13.5,24.7,-0.2489999,-0.05693492,0.2017757,-0.4290177,0.9281317,1.023959,0.6935526,1.469758,0.3895643,-0.0550598,0.07608196,-0.06828222,-1.078584,0.09874096,-0.09178132,0.7567686,1.478798,0.2213459,0.2663637,1.547963,0.2784538,307.9076,116.5289,127.9591,True
3,2.699998,-0.398261,0.1654233,-0.09250001,-1.13802,-4.710044,-1.810767,0.5108984,1.414585,0.4485228,-1.271581,-0.03330361,13.7,21.8,-0.2751051,-0.09912189,0.1675656,-0.4309623,0.9235743,1.032082,0.6934012,1.469953,0.3894734,-0.04431054,0.1090835,-0.06628915,-1.079448,0.1013634,-0.09292861,0.7567861,1.478777,0.2214663,0.2668377,1.550104,0.2781913,308.1192,116.2748,128.1232,True
3,2.711109,-0.3982244,0.1687113,-0.07974187,-1.139697,-4.711061,-1.805915,0.5105686,1.415487,0.4484382,-1.270839,0.06798626,13.7,21.8,-0.2741685,-0.1182722,0.1641807,-0.4318662,0.9179913,1.040107,0.6932095,1.470139,0.3894353,-0.04109361,0.1165362,-0.06632575,-1.080376,0.1030208,-0.09338188,0.7568059,1.478787,0.2216063,0.2672366,1.552252,0.2780553,308.2654,115.95,128.3089,True
3,2.72222,-0.4056107,0.14849,-0.07318665,-1.14039,-4.711897,-1.800828,0.5102179,1.416284,0.4482408,-1.270733,0.009013167,13.7,21.8,-0.234926,-0.1193846,0.1456984,-0.4324729,0.9139162,1.044992,0.6930193,1.470287,0.3893898,-0.0410632,0.1090943,-0.05885366,-1.080834,0.1040502,-0.09340452,0.7568159,1.478752,0.2216747,0.2675232,1.554451,0.2780382,308.4008,115.6504,128.5981,True
3,2.733331,-0.4034847,0.1431469,-0.07741905,-1.141603,1.569774,-1.795755,0.5100468,1.41699,0.4481001,-1.270413,0.02915913,13.7,21.8,-0.2030907,-0.1119427,0.128399,-0.4330012,0.9114132,1.048339,0.6927949,1.470449,0.3893068,-0.04642751,0.1016466,-0.06200483,-1.081783,0.1049095,-0.09308893,0.7568597,1.478758,0.2216926,0.2677518,1.556668,0.2781124,308.5284,115.376,128.9469,True
3,2.744442,-0.3960474,0.137764,-0.0869983,-1.142565,1.568063,-1.790878,0.5097903,1.417737,0.4479322,-1.270017,0.03588619,13.7,21.8,-0.1797631,-0.09590869,0.1080822,-0.433185,0.909587,1.051151,0.6925043,1.470541,0.389241,-0.05393147,0.1016575,-0.07048701,-1.083113,0.1062343,-0.09297415,0.7568574,1.478825,0.2217324,0.2679956,1.55885,0.2782204,308.6524,115.1194,129.3441,True
3,2.755553,-0.3875506,0.1388209,-0.09236021,-1.143949,1.566365,-1.786069,0.5095062,1.418414,0.447758,-1.270247,-0.02136254,13.4,20.3,-0.1647874,-0.03290594,0.08184138,-0.4318151,0.9117793,1.050599,0.692272,1.470607,0.3891399,-0.05823986,0.09952472,-0.07684635,-1.084323,0.1073427,-0.09273952,0.7567679,1.478878,0.2216871,0.2683272,1.56093,0.2782699,308.7942,114.896,129.7332,True
3,2.766664,-0.3800884,0.1366986,-0.09237566,-1.145057,1.564942,-1.78147,0.5092878,1.41919,0.4475968,-1.270524,-0.02506093,13.4,20.3,-0.1604656,-0.01264541,0.07665167,-0.4310635,0.9106281,1.053235,0.6920583,1.4707,0.3889956,-0.05821289,0.09101886,-0.06936812,-1.084851,0.108144,-0.0924804,0.7567351,1.478898,0.221669,0.2687935,1.562899,0.2782485,308.9699,114.7052,130.0217,True
3,2.777775,-0.3608636,0.1090118,-0.09757265,-1.145102,1.563551,-1.777521,0.5090919,1.419901,0.4473391,-1.270555,-0.002727729,13.4,20.3,-0.168897,-0.02873883,0.09470323,-0.4309634,0.906183,1.059438,0.691968,1.470865,0.3888457,-0.04734198,0.08041438,-0.03213184,-1.084046,0.108864,-0.09265058,0.7566556,1.478916,0.2216389,0.269321,1.564826,0.2781447,309.1944,114.4966,130.2528,True
3,2.788886,-0.3512245,0.08450125,-0.1017011,-1.144959,1.562145,-1.773377,0.5089178,1.420476,0.4473193,-1.270582,-0.002506178,13.4,20.3,-0.1658278,-0.0810774,0.1080661,-0.4325836,0.8995163,1.067154,0.6918457,1.471061,0.3886583,-0.03551209,0.07616615,-0.01301819,-1.083568,0.1098168,-0.09306736,0.7565236,1.478925,0.2216935,0.2698594,1.566748,0.2779847,309.4226,114.2533,130.4737,True
3,2.799997,-0.3277479,0.06215761,-0.1058855,-1.144593,1.560716,-1.76995,0.5087785,1.421071,0.4471056,-1.271131,-0.05019571,12.3,20.3,-0.1592621,-0.1026739,0.1376464,-0.4330353,0.8920504,1.075493,0.6917676,1.471268,0.3885324,-0.0387719,0.07296108,-0.02151286,-1.084126,0.1105593,-0.09289639,0.7564534,1.47892,0.2216384,0.2704023,1.568654,0.2777798,309.6418,114.0179,130.7155,True
3,2.811108,-0.3096251,0.07612952,-0.09432386,-1.145837,1.559736,-1.766753,0.5085651,1.421669,0.4469664,-1.270889,0.02247466,12.3,20.3,-0.1103673,-0.07167827,0.2205529,-0.4301346,0.8812531,1.08471,0.6915972,1.471413,0.3884778,-0.0604337,0.05799916,-0.07033682,-1.086536,0.1104683,-0.09145775,0.756314,1.478901,0.2215896,0.2709812,1.570404,0.2775398,309.9155,113.806,130.961,True
3,2.822219,-0.2926123,0.1157162,-0.07548299,-1.148305,1.558927,-1.763739,0.5084106,1.422154,0.4468243,-1.271445,-0.05122782,12.3,20.3,-0.04115222,-0.04631478,0.2030652,-0.4291556,0.878616,1.085152,0.6914034,1.471465,0.3883734,-0.07134514,0.03452858,-0.101112,-1.08866,0.1098111,-0.09003615,0.7561374,1.478895,0.2215884,0.2715848,1.571922,0.277292,310.1914,113.6267,131.142,True
3,2.83333,-0.2830083,0.1328925,-0.05965324,-1.150251,1.558396,-1.76076,0.5083435,1.422666,0.4466689,-1.271397,0.004764076,12.3,20.3,-0.04210977,-0.06148479,0.1102533,-0.4310997,0.8813356,1.083077,0.6912756,1.471532,0.3881981,-0.05740926,0.01535931,-0.07985335,-1.088666,0.1092616,-0.08957196,0.7559793,1.478884,0.2215161,0.2721195,1.573265,0.2770127,310.424,113.476,131.2611,True
3,2.844441,-0.2680371,0.1287645,-0.04582664,-1.151478,1.558099,-1.758168,0.5082262,1.423171,0.4466133,-1.271323,0.006601873,12.3,20.3,-0.07027525,-0.07054798,0.06569771,-0.4325218,0.8815923,1.084691,0.6911922,1.471625,0.3880012,-0.03054068,0.008976661,-0.04166745,-1.087814,0.1092297,-0.0901219,0.7557935,1.478877,0.2213449,0.2725063,1.574551,0.2767466,310.5506,113.3055,131.3309,True
3,2.855552,-0.2562562,0.09251605,-0.05413885,-1.151059,1.557118,-1.755318,0.508314,1.423733,0.446455,-1.271075,0.02247257,11.9,19.9,-0.09388549,-0.08739091,0.05618468,-0.4336207,0.8791476,1.088794,0.691228,1.471744,0.3877203,0.004949821,-0.0005911051,0.01351262,-1.08578,0.1090623,-0.09127532,0.7558476,1.479027,0.221112,0.2727763,1.575826,0.2765789,310.5868,113.128,131.4289,True
3,2.866663,-0.250872,0.0498204,-0.06770994,-1.149884,1.555957,-1.752223,0.5082341,1.424287,0.4464147,-1.271194,-0.01119367,11.9,19.9,-0.10672,-0.103337,0.0593595,-0.4347451,0.8755243,1.093573,0.6911823,1.47191,0.3875074,0.004192233,-0.03455933,0.0732487,-1.082908,0.1075773,-0.09054002,0.7558008,1.479063,0.2208257,0.2730029,1.577085,0.2765265,310.6013,112.998,131.5688,True
3,2.877774,-0.2337237,-0.02807689,-0.09279257,-1.146593,1.554478,-1.74956,0.5082678,1.42456,0.4463291,-1.271089,0.009573594,11.9,19.9,-0.1045832,-0.06580124,0.1523549,-0.4321027,0.8659773,1.103381,0.6910861,1.472154,0.3872976,-0.02788394,-0.03983802,0.05748989,-1.082643,0.106883,-0.08885504,0.7557125,1.479018,0.22054,0.2732546,1.578274,0.2765602,310.6497,112.9052,131.7518,True
3,2.888885,-0.2198495,-0.04618192,-0.09802216,-1.145689,1.553569,-1.747179,0.5080593,1.424908,0.4465027,-1.270776,0.02850228,11.9,19.9,-0.06665336,-0.02162592,0.1960534,-0.4292909,0.8599002,1.108159,0.6908723,1.472247,0.38709,-0.04203541,-0.0366974,0.01070279,-1.084247,0.1065813,-0.08772506,0.7554998,1.479025,0.2203519,0.2735693,1.579344,0.2765975,310.7668,112.9073,131.8932,True
3,2.899997,-0.1963712,-0.05888605,-0.09481651,-1.144433,1.552759,-1.745486,0.5080396,1.425298,0.4464943,-1.271188,-0.03800227,11.4,18.2,-0.01507615,0.0162361,0.2225304,-0.4263529,0.8541552,1.111696,0.6907604,1.472317,0.3869236,-0.04243875,-0.04427288,-0.04787197,-1.086803,0.1054742,-0.08669814,0.7554324,1.47899,0.2202392,0.2739412,1.580254,0.2765742,310.9673,112.9256,132.0085,True
3,2.911108,-0.1718075,-0.06834019,-0.08417633,-1.143413,1.552409,-1.744266,0.5080264,1.425588,0.4464524,-1.271153,0.003462676,11.4,18.2,0.01450922,0.04305084,0.1841301,-0.4249745,0.8545148,1.110447,0.6905556,1.472321,0.3867066,-0.03289103,-0.01557595,-0.06609823,-1.087947,0.1061224,-0.08716553,0.7551087,1.47897,0.2200992,0.2743831,1.580862,0.2764488,311.2399,112.9555,132.0365,True
3,2.922219,-0.1493555,-0.08633104,-0.07347641,-1.141667,1.55219,-1.743193,0.5080115,1.425917,0.4463005,-1.271633,-0.04412019,11.4,18.2,0.001722489,0.01305903,0.08704703,-0.4267721,0.8583059,1.107414,0.6905463,1.472219,0.3864315,-0.0177596,-0.002773238,-0.0385262,-1.087517,0.1066641,-0.08774637,0.7549587,1.47902,0.2199829,0.2747325,1.581349,0.2762247,311.4207,112.9308,131.9548,True
3,2.93333,-0.1269141,-0.1150455,-0.07441643,-1.139388,1.551665,-1.742282,0.5080779,1.426361,0.4461539,-1.271779,-0.01302031,11.4,18.2,-0.000304427,-0.03956638,0.01415049,-0.4298497,0.8608886,1.105296,0.6906202,1.472407,0.3861196,0.009207449,-0.003804188,0.01244186,-1.08558,0.1066676,-0.08875703,0.7548556,1.47912,0.2197492,0.2749825,1.581744,0.2759349,311.519,112.9403,131.8567,True
3,2.944441,-0.1109376,-0.1300081,-0.08608413,-1.137186,1.550581,-1.741075,0.5080996,1.426628,0.445941,-1.27167,0.009823389,11.4,18.2,-0.01523655,-0.05766421,0.02157866,-0.4305458,0.8583965,1.108165,0.6905792,1.472499,0.3858163,0.01685925,-0.01760506,0.04758998,-1.083739,0.1060259,-0.08881509,0.7548218,1.479169,0.2194884,0.275148,1.58203,0.2755914,311.5802,112.9795,131.7854,True
3,2.955552,-0.09607869,-0.1268777,-0.1010715,-1.135662,1.548997,-1.739848,0.5081716,1.426787,0.4457829,-1.271733,-0.006013684,9.4,15.4,-0.02459713,-0.02777608,0.1423179,-0.4274848,0.846837,1.119362,0.6905439,1.47272,0.3855643,-0.001386216,-0.05805148,0.04246456,-1.08314,0.1038125,-0.08720867,0.7547238,1.479152,0.2191315,0.2752336,1.582211,0.2751513,311.6303,113.0909,131.683,True
3,2.966663,-0.08226718,-0.1172942,-0.105453,-1.134353,1.547677,-1.738831,0.5081829,1.42693,0.445478,-1.271477,0.02335507,9.4,15.4,-0.01015282,-0.001655772,0.1914068,-0.4253958,0.8401904,1.124999,0.6905236,1.472884,0.3853836,-0.009063303,-0.07087351,0.01377307,-1.083973,0.1024382,-0.086202,0.7545992,1.479198,0.2188947,0.2752675,1.582282,0.2746152,311.7041,113.2843,131.4814,True
3,2.977774,-0.0546042,-0.07769533,-0.08877496,-1.134836,1.547206,-1.739051,0.5081983,1.427153,0.4453154,-1.271448,0.002289397,9.4,15.4,0.02203956,0.03863586,0.1946538,-0.4227273,0.8369341,1.126618,0.6904464,1.472823,0.3851266,-0.01574167,-0.07520957,-0.02771601,-1.085467,0.1010857,-0.08513833,0.7545302,1.479163,0.2187333,0.2752714,1.582243,0.2740431,311.8063,113.5026,131.2051,True
3,2.988885,-0.03331299,-0.0466283,-0.07095878,-1.135245,1.54685,-1.739221,0.5080793,1.42739,0.4452159,-1.27137,0.007035747,9.4,15.4,0.0107182,0.03396054,0.1265354,-0.4230634,0.8392504,1.12477,0.6903769,1.472805,0.3849037,-0.0179283,-0.06778202,-0.03942194,-1.085949,0.1003599,-0.08458812,0.7544755,1.479163,0.2185822,0.2752518,1.582142,0.2735316,311.8983,113.7026,130.9145,True
3,2.999996,-0.02365841,-0.05289955,-0.05603787,-1.134274,1.54683,-1.739272,0.5079543,1.427735,0.4451742,-1.272045,-0.06190446,9.4,15.4,-0.001713676,0.01649086,0.06044497,-0.4241281,0.8423098,1.122434,0.6903318,1.472832,0.3847616,-0.006007519,-0.03687911,-0.02038689,-1.085584,0.1011611,-0.08528374,0.7543578,1.47918,0.2184575,0.2751737,1.582086,0.2731091,311.9249,113.8602,130.6704,True
3,3.011107,-0.02249716,-0.09017317,-0.05471712,-1.131923,1.5466,-1.738928,0.5079471,1.427946,0.4450629,-1.2718,0.02275706,8.4,12.8,-0.006924506,-0.02969364,-0.0155614,-0.4271029,0.8463123,1.119012,0.6903028,1.472907,0.3846798,0.01552608,-0.01345318,0.005001427,-1.084498,0.1018578,-0.08657857,0.7543421,1.479136,0.2182,0.2750319,1.582147,0.2728509,311.8942,113.9103,130.5182,True
3,3.022218,-0.01816776,-0.1232219,-0.05876308,-1.129266,1.546204,-1.738693,0.5078958,1.428079,0.4449148,-1.271287,0.04653998,8.4,12.8,-0.02927586,-0.07027218,0.007733802,-0.4286875,0.8418978,1.124066,0.6902355,1.473129,0.3845348,0.02302399,-0.03155752,0.01777019,-1.083833,0.1007824,-0.08662917,0.7542694,1.479053,0.2179189,0.2748017,1.582327,0.2727802,311.8705,113.9124,130.4874,True
3,3.033329,-0.00650589,-0.1040284,-0.06106797,-1.128706,1.545408,-1.738624,0.507917,1.42804,0.4447541,-1.270767,0.04698677,8.4,12.8,-0.01715827,-0.01925397,0.1359123,-0.4248371,0.8307599,1.134111,0.690138,1.473144,0.3843491,0.00259465,-0.05073516,-0.004406334,-1.084151,0.09920448,-0.08531516,0.7543039,1.478997,0.2177391,0.2745382,1.582519,0.2728435,311.8689,113.9553,130.5499,True
3,3.04444,-0.003379092,-0.07418253,-0.06022533,-1.128832,1.5446,-1.738335,0.5079334,1.428161,0.4446404,-1.270782,-0.001729454,8.4,12.8,0.01663443,0.02695335,0.1924737,-0.4213174,0.8235479,1.139286,0.6899953,1.473089,0.3840752,-0.01672549,-0.04647531,-0.02879206,-1.085294,0.09870367,-0.08428479,0.754183,1.479046,0.2176971,0.2743331,1.582569,0.2729299,311.8946,114.0663,130.6435,True
3,3.055551,0.0008072872,-0.02935636,-0.04989961,-1.129987,1.544145,-1.738306,0.5077795,1.428316,0.4445193,-1.271022,-0.02201382,10.9,22.8,-0.01261676,0.04788932,0.1300686,-0.4204673,0.8266378,1.137439,0.6897616,1.472991,0.383925,-0.01245444,-0.02520247,-0.03523574,-1.085714,0.09909795,-0.0844531,0.7540256,1.479073,0.2176373,0.2741918,1.582448,0.2729333,311.9281,114.1953,130.6678,True
3,3.066662,0.001848826,-0.002642101,-0.03731322,-1.130535,1.5439,-1.738225,0.5075201,1.428638,0.4444845,-1.270724,0.02735356,10.9,22.8,-0.04194278,0.01646189,0.08638259,-0.4216322,0.8270486,1.13845,0.6896898,1.472958,0.3837383,0.01142184,0.006818378,0.01994149,-1.083648,0.1006783,-0.08612982,0.753698,1.479029,0.2176669,0.2740768,1.582248,0.2728658,311.9182,114.2973,130.5753,True
3,3.077773,-0.004513779,-0.005808795,-0.03087793,-1.130351,1.543795,-1.737916,0.5072895,1.428925,0.4443734,-1.270697,0.002079607,10.9,22.8,-0.05248654,-0.03289953,0.01146991,-0.4245089,0.8302588,1.136504,0.6895726,1.47291,0.3836825,0.03096205,0.05265542,0.05807241,-1.081914,0.1032101,-0.08832107,0.7535375,1.479049,0.2175987,0.2739013,1.58217,0.2727549,311.8694,114.3941,130.3981,True
3,3.088884,-0.01192398,-0.0335762,-0.03705565,-1.128712,1.543316,-1.737298,0.5070164,1.429213,0.4442465,-1.270476,0.02026918,10.9,22.8,-0.03732628,-0.0632465,-0.05925146,-0.4270033,0.8346161,1.13228,0.689427,1.473047,0.3835893,0.02564134,0.0601123,0.05597987,-1.081293,0.1040621,-0.08881296,0.7536142,1.479132,0.2173758,0.2736181,1.582339,0.2726522,311.8235,114.4277,130.2707,True
3,3.099995,-0.02358377,-0.06989835,-0.04635103,-1.126497,1.54277,-1.73642,0.5068696,1.429407,0.4440453,-1.270108,0.03335071,10.9,22.8,-0.04152549,-0.07291561,-0.04757769,-0.4281223,0.8338357,1.133596,0.6892911,1.473187,0.3834627,0.006284393,0.03455658,0.03804781,-1.081424,0.103547,-0.08799937,0.7535322,1.479154,0.2171798,0.2732577,1.582725,0.2725978,311.8055,114.4269,130.2478,True
3,3.111106,-0.03000513,-0.076401,-0.06013457,-1.125314,1.541702,-1.73546,0.5068957,1.429521,0.4438736,-1.269901,0.01865945,11.9,45.3,-0.02959349,-0.0388458,0.06980096,-0.4252062,0.8235994,1.14296,0.6890936,1.473308,0.3832581,-0.02506774,-0.003834356,-0.01704094,-1.083024,0.1016744,-0.0857687,0.7535412,1.479125,0.216913,0.2729142,1.583177,0.2725809,311.8278,114.4228,130.341,True
3,3.122217,-0.03647348,-0.04980841,-0.06349974,-1.125487,1.540695,-1.734418,0.50679,1.429693,0.4436738,-1.269665,0.02144805,11.9,45.3,-0.02324938,0.02439357,0.1438106,-0.4212988,0.816825,1.14911,0.6888152,1.473308,0.383023,-0.03283428,-0.0294579,-0.05528999,-1.084824,0.1002515,-0.0845511,0.7534102,1.479164,0.2168562,0.2726535,1.583537,0.2725385,311.9058,114.4603,130.4606,True
3,3.133328,-0.04506004,-0.01785482,-0.06156299,-1.126236,1.539902,-1.73341,0.5065088,1.429942,0.4436202,-1.269812,-0.01354218,11.9,45.3,-0.04808441,0.02910316,0.1067895,-0.4210522,0.8179348,1.14952,0.6884595,1.473208,0.382915,-0.01139287,-0.03160309,-0.0341108,-1.084295,0.09978412,-0.08494951,0.7530892,1.479054,0.2168627,0.2725388,1.583702,0.2724104,311.9775,114.5555,130.4965,True
3,3.144439,-0.05467619,0.00668327,-0.05212159,-1.126905,1.539384,-1.732279,0.5062052,1.430342,0.443517,-1.269755,0.005358751,11.9,45.3,-0.08163922,0.01371146,0.05902873,-0.4218585,0.8197075,1.149908,0.6882088,1.473174,0.3827906,0.00694778,-0.01241809,-0.006573045,-1.083453,0.1004462,-0.08600199,0.7528443,1.47906,0.2168505,0.2725483,1.583753,0.2721957,312.0248,114.6731,130.3901,True
3,3.15555,-0.06853908,0.02481919,-0.0436835,-1.12772,1.538976,-1.730927,0.5056455,1.430845,0.443423,-1.269717,0.003468103,12.9,54.7,-0.1004025,-0.02089236,0.007748846,-0.4236557,0.8222361,1.1492,0.6878538,1.473217,0.3826678,0.02229779,0.04835466,0.03689195,-1.081649,0.1036626,-0.0882505,0.752519,1.479012,0.2169106,0.2725462,1.583925,0.2719164,312.0654,114.7319,130.2212,True
3,3.166661,-0.08453131,0.02153151,-0.05000397,-1.127526,1.538054,-1.729083,0.505297,1.431463,0.4432976,-1.269512,0.01868404,12.9,54.7,-0.1060508,-0.05481362,-0.008484725,-0.4254251,0.8217829,1.150866,0.6876438,1.47336,0.382643,0.02689704,0.07718837,0.07835294,-1.07959,0.1058439,-0.08957862,0.7523431,1.479057,0.2167943,0.2724513,1.584348,0.2716488,312.1161,114.7162,130.087,True
3,3.177772,-0.0941208,0.006511849,-0.06158758,-1.126906,1.536936,-1.727225,0.5049903,1.432045,0.4431336,-1.269283,0.02087784,12.9,54.7,-0.1047568,-0.08714275,0.03276797,-0.4266645,0.8158797,1.15738,0.6873855,1.473472,0.3825274,0.01196465,0.06976902,0.07847311,-1.078661,0.1065143,-0.08951151,0.7522312,1.479143,0.2166929,0.2722343,1.585074,0.2714293,312.1731,114.6594,130.0517,True
3,3.188883,-0.1260863,-0.0107225,-0.07628014,-1.125852,1.535539,-1.724118,0.5047544,1.432511,0.442837,-1.269075,0.01893764,12.9,54.7,-0.1035042,-0.08627066,0.05300151,-0.4269548,0.8120966,1.16199,0.6870951,1.473573,0.3823345,-0.01500465,0.03673629,0.04036613,-1.079571,0.1054778,-0.08781667,0.7520853,1.479188,0.2166424,0.2719053,1.586073,0.2712807,312.2375,114.5824,130.1183,True
3,3.199994,-0.1517483,0.005066094,-0.09335853,-1.126092,1.533609,-1.720762,0.5044427,1.433055,0.4425688,-1.269228,-0.01409623,12.9,54.7,-0.1285731,-0.05771071,0.09077817,-0.4256754,0.8071764,1.168797,0.6867137,1.473801,0.3821998,-0.02493996,0.008976277,-0.002125401,-1.080996,0.1043064,-0.08662996,0.7518928,1.479207,0.2165725,0.2716084,1.587183,0.2712263,312.3069,114.5797,130.2168,True
3,3.211105,-0.1731928,0.05719519,-0.0968511,-1.128373,1.531924,-1.717441,0.5040832,1.433565,0.4423532,-1.267758,0.1339185,13.3,49.3,-0.1453135,-0.02901507,0.1082302,-0.4244402,0.8041438,1.173767,0.6863108,1.474023,0.382086,-0.03044541,0.01425752,-0.03086675,-1.08233,0.1046457,-0.08627523,0.7516981,1.479253,0.2166626,0.271426,1.588252,0.2712497,312.4157,114.5718,130.3832,True
3,3.222216,-0.1818002,0.1041058,-0.0875701,-1.130809,1.530726,-1.71467,0.5036767,1.434292,0.4421165,-1.266829,0.08289625,13.3,49.3,-0.1795589,-0.0276227,0.0915225,-0.4244408,0.8030112,1.177975,0.6859531,1.474302,0.3819945,-0.03250235,0.02705931,-0.02448733,-1.082445,0.1054871,-0.08623476,0.7514864,1.479304,0.2166872,0.2713307,1.589268,0.2712579,312.5305,114.5695,130.546,True
3,3.233327,-0.1882175,0.1265314,-0.07812315,-1.132829,1.529707,-1.711952,0.5032874,1.434984,0.4420125,-1.265574,0.11303,13.3,49.3,-0.1945086,-0.04678547,0.09894539,-0.425098,0.7991968,1.18422,0.6857061,1.474442,0.3818576,-0.03428132,0.05697986,0.01807834,-1.080811,0.1075534,-0.08676419,0.7513746,1.4794,0.2167511,0.271223,1.590367,0.27123,312.6398,114.5391,130.6194,True
3,3.244438,-0.2009963,0.1329299,-0.07173724,-1.134268,1.528811,-1.708938,0.5028368,1.435802,0.441927,-1.264208,0.1224323,13.3,49.3,-0.1829762,-0.06700811,0.09014674,-0.4259737,0.7958429,1.18889,0.6853204,1.474668,0.3817554,-0.0341298,0.06767072,0.03723085,-1.07987,0.1088615,-0.08700228,0.7511426,1.479449,0.2167454,0.2710319,1.591663,0.271248,312.6981,114.4129,130.6982,True
3,3.255549,-0.2286251,0.1073084,-0.06933542,-1.134424,1.528048,-1.705124,0.5023417,1.436578,0.4418116,-1.262043,0.1951186,12.3,54.1,-0.1854595,-0.1019876,0.07173599,-0.428036,0.7938359,1.192876,0.6848813,1.474876,0.3816726,-0.03723954,0.06983566,0.04895641,-1.07922,0.1098738,-0.08703423,0.7508534,1.479516,0.2167363,0.2707243,1.593148,0.2713782,312.7445,114.2282,130.8679,True
3,3.26666,-0.2477393,0.08596759,-0.06699549,-1.134489,1.527235,-1.701412,0.5018638,1.437323,0.4416847,-1.259108,0.2646347,12.3,54.1,-0.1897585,-0.1094228,0.0717127,-0.4290038,0.7907106,1.198006,0.6844903,1.475175,0.3816037,-0.04371772,0.06024443,0.03943045,-1.079151,0.110263,-0.08651279,0.7506289,1.479574,0.2166991,0.2703239,1.594663,0.2716741,312.808,114.0388,131.1196,True
3,3.277771,-0.2711399,0.06885023,-0.06892945,-1.134496,1.526293,-1.697146,0.5013928,1.438086,0.4414458,-1.255334,0.3406131,12.3,54.1,-0.1884387,-0.09896374,0.09310033,-0.4291066,0.7861319,1.204237,0.6840345,1.475504,0.3814943,-0.05766329,0.04109301,0.03210045,-1.079114,0.1100397,-0.08524406,0.7503017,1.479596,0.2166796,0.269797,1.596128,0.2720864,312.8671,113.8824,131.4262,True
3,3.288882,-0.2860941,0.08479066,-0.06793459,-1.135848,1.525221,-1.693021,0.5010101,1.438756,0.441287,-1.252129,0.2877252,12.3,54.1,-0.1880855,-0.06505335,0.1125729,-0.4280419,0.7821155,1.209953,0.6835855,1.475859,0.3813164,-0.07919774,0.0293721,0.002427354,-1.080256,0.1099326,-0.08350474,0.7500818,1.479655,0.216737,0.2691537,1.597445,0.2725058,312.8962,113.8039,131.7255,True
3,3.299993,-0.2925384,0.1156983,-0.06175278,-1.137899,1.524308,-1.689287,0.5006112,1.439457,0.4411993,-1.248075,0.3655915,12.3,54.1,-0.1901153,-0.03730877,0.1085755,-0.4270384,0.7801317,1.213923,0.6831207,1.47619,0.3811796,-0.09203797,0.01767706,-0.001725877,-1.080425,0.109655,-0.08189274,0.7498089,1.479696,0.2167771,0.2684102,1.598571,0.2728388,312.8873,113.7941,131.9486,True
3,3.311104,-0.2936413,0.1402495,-0.05446541,-1.140289,1.523615,-1.685685,0.5001751,1.440155,0.4409351,-1.24433,0.3364847,12,59.3,-0.2193275,-0.05815612,0.07245038,-0.4286959,0.7798072,1.217749,0.6826389,1.476523,0.3810971,-0.08659184,0.02090444,0.01633959,-1.079598,0.1102968,-0.08136703,0.7496414,1.479754,0.2168655,0.2675737,1.599548,0.2730179,312.8201,113.8666,132.0257,True
3,3.322215,-0.2926996,0.1988833,-0.04849787,-1.144414,1.522637,-1.682108,0.4997221,1.44075,0.4406648,-1.240491,0.3451465,12,59.3,-0.2342092,-0.06560288,0.07998735,-0.4292238,0.7763031,1.224068,0.6821645,1.47674,0.3808737,-0.08004458,0.05606327,0.02581012,-1.079137,0.1125491,-0.08187889,0.7493919,1.479775,0.2168889,0.266706,1.60043,0.2731104,312.7118,113.9642,131.9551,True
3,3.333326,-0.297115,0.2478071,-0.05841754,-1.148802,1.521002,-1.677983,0.4992207,1.441539,0.4404368,-1.236101,0.395276,12,59.3,-0.2477099,-0.04552016,0.1058566,-0.4282981,0.771745,1.231326,0.6818036,1.477032,0.3805768,-0.0746946,0.0741549,0.02253131,-1.07933,0.114245,-0.0820219,0.7492839,1.479898,0.2168677,0.2658069,1.601317,0.2732005,312.5891,114.0166,131.8727,True
3,3.344437,-0.3120763,0.2540724,-0.07014843,-1.151457,1.519261,-1.673399,0.498767,1.442532,0.4404445,-1.231415,0.4215558,12,59.3,-0.2622111,-0.03834151,0.14548,-0.4274341,0.7646965,1.241114,0.6814327,1.477387,0.3804836,-0.05330633,0.08050942,0.03196125,-1.078807,0.1154356,-0.08281579,0.7490652,1.47987,0.2167971,0.2648456,1.60229,0.273332,312.4604,114.0022,131.879,True
3,3.355548,-0.3268822,0.2071407,-0.07296487,-1.152075,1.518216,-1.668854,0.498266,1.443655,0.4402409,-1.226006,0.4873081,12,59.3,-0.2542853,-0.04952532,0.2007025,-0.4270709,0.7545221,1.252863,0.6812365,1.477704,0.3803689,-0.04265822,0.07197056,0.03509684,-1.078443,0.1161054,-0.08298171,0.7489834,1.479976,0.2168155,0.2637907,1.603418,0.2736033,312.3297,113.9327,131.944,True
3,3.366659,-0.3427194,0.1441939,-0.0788758,-1.151317,1.517001,-1.664139,0.4978366,1.444724,0.4399879,-1.220172,0.5254229,12.5,52,-0.2483502,-0.1261937,0.1925134,-0.4304073,0.7473786,1.261825,0.6809993,1.477998,0.3803182,-0.04057888,0.06130195,0.030841,-1.078314,0.1164145,-0.08276572,0.7487783,1.479993,0.2168493,0.2626101,1.604771,0.2741057,312.2103,113.9058,132.0105,True
3,3.37777,-0.3532647,0.09619999,-0.0827634,-1.150671,1.515922,-1.659409,0.49743,1.445804,0.4395659,-1.214313,0.5273941,12.5,52,-0.2470654,-0.1757156,0.1292064,-0.4341091,0.7462991,1.265478,0.6807206,1.478415,0.380235,-0.061124,0.0484613,-0.006291852,-1.079169,0.1163266,-0.08145784,0.7486049,1.479988,0.2169559,0.2613677,1.606277,0.2748596,312.0998,113.9438,132.1511,True
3,3.388881,-0.3543354,0.0908024,-0.09019752,-1.151369,1.514339,-1.654922,0.4970785,1.446683,0.4394598,-1.208458,0.5268208,12.5,52,-0.2558324,-0.1968417,0.1141843,-0.4363829,0.7427143,1.271827,0.6801649,1.478855,0.3800361,-0.06867503,0.04847795,-0.02542789,-1.08081,0.116974,-0.0806336,0.7483103,1.480124,0.2170615,0.2601249,1.607809,0.2756924,311.9895,113.9871,132.4799,True
3,3.399992,-0.3469291,0.1067775,-0.09353042,-1.153027,1.512908,-1.650781,0.4967069,1.447667,0.4391272,-1.202499,0.536367,12.5,52,-0.2976962,-0.1727122,0.1808453,-0.4362162,0.7322736,1.286088,0.6796888,1.479188,0.3797557,-0.08680697,0.05596802,-0.03171633,-1.081431,0.1179545,-0.07956167,0.7481303,1.480166,0.2170646,0.2589515,1.609193,0.2764035,311.8936,114.0532,132.8586,True
3,3.411103,-0.3481831,0.1684458,-0.1078203,-1.156724,1.510687,-1.646246,0.496204,1.448778,0.4388645,-1.196899,0.503372,10.9,61.5,-0.349636,-0.09662466,0.2810894,-0.4326939,0.7181153,1.304549,0.6792738,1.479447,0.3793757,-0.08568899,0.04853459,-0.02000135,-1.081412,0.1183222,-0.07874461,0.7478936,1.480177,0.2170746,0.2578583,1.610377,0.2768496,311.8063,114.1458,133.0864,True
3,3.422215,-0.3610259,0.1875555,-0.1111165,-1.159116,1.509001,-1.641152,0.4956964,1.449945,0.4387391,-1.191023,0.5286942,10.9,61.5,-0.3649221,-0.08114098,0.3463586,-0.4314198,0.7037846,1.322119,0.6789111,1.479745,0.3791392,-0.05359665,0.05381695,-0.002114036,-1.080937,0.1191544,-0.07965542,0.7476355,1.480079,0.2171535,0.2568399,1.611361,0.2771028,311.7345,114.2336,133.0859,True
3,3.433326,-0.3960988,0.1533791,-0.1107544,-1.159578,1.507754,-1.635008,0.4950816,1.451603,0.4385827,-1.184618,0.5768108,10.9,61.5,-0.3494479,-0.09994283,0.4163587,-0.4316654,0.6867459,1.340832,0.6786855,1.479957,0.3790061,-0.0417916,0.07192023,0.005219485,-1.080905,0.1208728,-0.0803204,0.7475151,1.480032,0.2172921,0.2557333,1.612373,0.2772173,311.6376,114.3153,132.95,True
3,3.444437,-0.4204118,0.09053917,-0.0995706,-1.158202,1.507236,-1.629298,0.4945432,1.452992,0.4383788,-1.177391,0.6514438,10.9,61.5,-0.3183462,-0.1603045,0.3569419,-0.4351099,0.6804225,1.348888,0.6784179,1.480318,0.3791063,-0.04063521,0.08897619,0.01156639,-1.080737,0.1227332,-0.08084798,0.7472646,1.480037,0.2174551,0.2544346,1.613609,0.2773701,311.5275,114.4008,132.7522,True
3,3.455548,-0.4509963,-0.0309791,-0.09861113,-1.153469,1.506469,-1.622929,0.4940519,1.454613,0.438024,-1.169647,0.6982197,10.9,61.5,-0.2836128,-0.2179612,0.2303808,-0.439877,0.6828908,1.348592,0.6781037,1.480642,0.3791375,-0.06728515,0.1103258,0.001040586,-1.081298,0.124916,-0.08013079,0.7471439,1.480157,0.2176008,0.2529884,1.615075,0.2776607,311.3915,114.5292,132.6261,True
3,3.466659,-0.4615602,-0.08008188,-0.1088849,-1.151177,1.504886,-1.61692,0.4937089,1.45583,0.4376941,-1.163254,0.5742397,10.3,66.7,-0.2704641,-0.2173717,0.1556965,-0.4422355,0.683024,1.351048,0.6777935,1.481148,0.3791773,-0.07904279,0.1050238,-0.003146635,-1.081761,0.1259646,-0.07939602,0.7469195,1.480218,0.217617,0.2514769,1.61678,0.277991,311.2269,114.729,132.6288,True
3,3.47777,-0.4615398,-0.1014629,-0.1193864,-1.149245,1.503133,-1.611058,0.4934341,1.4571,0.4372747,-1.156185,0.6371005,10.3,66.7,-0.2779092,-0.1970064,0.1463465,-0.4433822,0.6793142,1.35776,0.6773443,1.481673,0.3790205,-0.0951196,0.06564787,-0.002960812,-1.081767,0.1252333,-0.07741196,0.7467152,1.480354,0.2176449,0.2501531,1.618395,0.2782326,311.1318,114.9099,132.8206,True
