loc,t,aDotUA,bDotUA,gDotUA,aUA,bUA,gUA,xUA,yUA,zUA,qE,qDotE,emgA,emgB,aDotSH,bDotSH,gDotSH,aSH,bSH,gSH,xSH,ySH,zSH,aDotUB,bDotUB,gDotUB,aUB,bUB,gUB,xUB,yUB,zUB,xHand,yHand,zHand,aHand,bHand,gHand,enable
2,0,-0.2595342,-1.957181,-0.0225825,-1.398404,-4.157509,-2.950804,0.6529783,1.242925,0.4760051,-1.242064,0.01825304,0.3,0,-0.3930342,0.14369,0.3894609,-0.7210556,-4.118463,-0.4957602,0.7076958,1.487974,0.3947437,-0.2101471,0.07615486,-0.05985837,-0.9615966,0.2474681,-0.1340467,0.7929054,1.582611,0.2184002,0.439568,1.077288,0.2849414,301.5294,242.2243,350.3795,True
2,0.01111111,-0.309617,-1.94874,-0.03004017,-1.393721,-4.136353,-2.949401,0.6495941,1.24441,0.4754963,-1.241035,0.09408754,0.3,0,-0.3609819,0.09756771,0.4305777,-0.7154849,-4.114439,-0.4958955,0.7067782,1.488767,0.3946114,-0.2165509,0.08043674,-0.06300744,-0.9626043,0.2486535,-0.1321306,0.7925453,1.582645,0.2183428,0.4395097,1.078027,0.2807679,301.5679,235.9959,355.2751,True
2,0.02222222,-0.3726036,-1.912618,-0.03975056,-1.388976,-4.116401,-2.946626,0.6463535,1.245926,0.4749415,-1.241403,-0.03413742,0.3,0.1,-0.3287669,0.0652369,0.4845297,-0.7091279,-4.109509,-0.4969709,0.7059512,1.489482,0.3944921,-0.2145072,0.0697799,-0.06941535,-0.9636441,0.2490906,-0.1301575,0.7921534,1.582616,0.2182794,0.4404223,1.078365,0.2752568,302.0298,233.2056,356.4897,True
2,0.03333334,-0.4216507,-1.873309,-0.0526945,-1.384061,-4.097031,-2.943854,0.643119,1.247339,0.4744399,-1.240671,0.06750904,0.3,0.1,-0.3051935,0.05010542,0.5109166,-0.7034879,-4.104489,-0.4981555,0.7052708,1.490307,0.3943682,-0.2126464,0.03035326,-0.08540075,-0.9649522,0.2476649,-0.1270075,0.7917073,1.582603,0.2181394,0.4421723,1.078491,0.2689654,302.4784,231.343,356.2784,True
2,0.04444445,-0.4931287,-1.783991,-0.07331619,-1.379149,-4.080418,-2.939142,0.640001,1.248812,0.4738131,-1.23975,0.08394294,0.2,0.1,-0.2914256,0.02979377,0.5128618,-0.6983309,-4.100626,-0.4983155,0.7045197,1.491059,0.3941655,-0.2042886,0.002626017,-0.09399328,-0.9661868,0.2463897,-0.1243427,0.7911928,1.582548,0.2180352,0.4444339,1.078685,0.2624132,302.9467,229.3812,355.9411,True
2,0.05555556,-0.5614004,-1.679773,-0.09504773,-1.374391,-4.065052,-2.933813,0.6368709,1.250193,0.4731972,-1.240155,-0.03733091,0.2,0.1,-0.2672076,-0.009700894,0.501864,-0.6930717,-4.098703,-0.49765,0.7039813,1.49193,0.3941841,-0.1960629,-0.03362647,-0.1142973,-0.9679371,0.2441051,-0.1211536,0.7907335,1.582512,0.2179449,0.4467443,1.079235,0.2560384,303.3637,227.3255,355.7191,True
2,0.06666667,-0.6291535,-1.575578,-0.1202944,-1.369283,-4.050264,-2.92862,0.6339151,1.251608,0.4725902,-1.239217,0.08657099,0.2,0.1,-0.240043,-0.05336516,0.4620641,-0.6888426,-4.098703,-0.4959275,0.7036332,1.492712,0.3942568,-0.1886035,-0.04430294,-0.1101013,-0.9688883,0.2430638,-0.1187317,0.7903122,1.582557,0.2177889,0.4486749,1.08032,0.2501911,303.5956,225.309,355.6512,True
2,0.07777778,-0.6723779,-1.505351,-0.1331361,-1.36436,-4.037769,-2.921631,0.6310214,1.253247,0.4718323,-1.239216,-0.000270259,0.2,0.1,-0.2163223,-0.1160988,0.4019742,-0.6852154,-4.101433,-0.4923402,0.703095,1.493552,0.3943834,-0.1789526,-0.05179381,-0.1005921,-0.9695153,0.2419355,-0.1165255,0.7899343,1.582492,0.2177401,0.4497566,1.082052,0.2450609,303.6588,223.5143,355.71,True
2,0.08888889,-0.7428309,-1.352118,-0.1551746,-1.359559,-4.028301,-2.912985,0.6282821,1.254776,0.4710758,-1.239971,-0.06853206,0.2,0.1,-0.206166,-0.1586211,0.3655148,-0.6811247,-4.103659,-0.4886309,0.7025456,1.49432,0.3942664,-0.1779433,-0.05605874,-0.1059342,-0.9708682,0.2408326,-0.1139926,0.7895143,1.582421,0.2177153,0.4498113,1.08449,0.2407686,303.4922,221.929,356.0398,True
2,0.1,-0.782331,-1.253134,-0.1620123,-1.355184,-4.017434,-2.905534,0.6254893,1.256208,0.4703295,-1.239202,0.07123202,0.2,0,-0.2010905,-0.1830893,0.3493988,-0.6768072,-4.105262,-0.4852666,0.7019724,1.495126,0.3943703,-0.1780377,-0.05499826,-0.1176505,-0.9724804,0.2398434,-0.1115329,0.7890773,1.582386,0.2176976,0.4489636,1.087604,0.2373539,303.114,220.5222,356.6888,True
2,0.1111111,-0.8293343,-1.091232,-0.1596169,-1.351793,-4.01114,-2.89613,0.6228862,1.257599,0.4695425,-1.238609,0.05403973,0.2,0,-0.1946483,-0.1692628,0.346209,-0.672797,-4.104243,-0.4841845,0.7014073,1.495936,0.3943539,-0.1727654,-0.04969313,-0.125151,-0.9740794,0.2391926,-0.1093222,0.7886707,1.582528,0.2176685,0.4472206,1.091313,0.2346265,302.6469,219.3539,357.4943,True
2,0.1222222,-0.8401225,-0.9239408,-0.1498027,-1.349194,-4.006008,-2.887596,0.6203618,1.258888,0.4686928,-1.240015,-0.1284851,0.4,0,-0.2083195,-0.170361,0.3708144,-0.6673993,-4.103257,-0.4820338,0.7008046,1.49671,0.3943031,-0.1695741,-0.05077139,-0.1251794,-0.9753699,0.2382196,-0.1069624,0.7881759,1.582521,0.2176213,0.4446827,1.095537,0.232385,302.0672,218.3661,358.439,True
2,0.1333333,-0.8988352,-0.7748539,-0.1515953,-1.346382,-4.003109,-2.87627,0.6177695,1.260152,0.4680526,-1.239717,0.02871385,0.4,0,-0.231689,-0.1585262,0.3710392,-0.6631905,-4.102203,-0.4795751,0.700174,1.497397,0.3942497,-0.1611395,-0.05186711,-0.1348366,-0.9770376,0.2372386,-0.1048985,0.7877115,1.582477,0.2176454,0.4417391,1.100124,0.2304413,301.323,217.4558,359.5166,True
2,0.1444445,-0.9373612,-0.5693235,-0.1568996,-1.344367,-4.003528,-2.86454,0.6154395,1.261231,0.4672196,-1.241248,-0.139999,0.7,0.1,-0.2413346,-0.1616612,0.3657766,-0.6588453,-4.102159,-0.4766507,0.6994652,1.498112,0.3942232,-0.1590352,-0.04335759,-0.1412537,-0.9788246,0.2366689,-0.102867,0.7872691,1.582537,0.2175901,0.4385097,1.104904,0.2285683,300.537,216.7735,0.4145845,True
2,0.1555556,-0.9726907,-0.3808367,-0.1642395,-1.342694,-4.005069,-2.852196,0.6129842,1.262108,0.4664338,-1.239561,0.1558211,0.7,0.1,-0.260601,-0.143363,0.3425617,-0.6557544,-4.101406,-0.4737335,0.6984942,1.498767,0.3941493,-0.1546681,-0.01460951,-0.1402324,-0.9804183,0.2373552,-0.1017051,0.786756,1.582476,0.2176449,0.4352165,1.109711,0.2266928,299.6947,216.1182,1.232363,True
2,0.1666667,-1.005852,-0.1934222,-0.1716103,-1.341398,-4.009363,-2.839364,0.6105396,1.263128,0.4655633,-1.24016,-0.05587208,0.7,0.1,-0.2796346,-0.1027626,0.3354076,-0.6528206,-4.098547,-0.4722496,0.6976059,1.49923,0.3941782,-0.1545883,0.00136438,-0.1370413,-0.9818521,0.2377166,-0.1001759,0.7861906,1.582396,0.2177651,0.4318211,1.114447,0.2247195,298.9548,215.4617,1.909606,True
2,0.1777778,-1.024067,-0.07845065,-0.1807097,-1.33999,-4.012343,-2.826695,0.608174,1.264156,0.4647524,-1.24038,-0.01908547,0.6,0.1,-0.3072335,-0.06315593,0.3219235,-0.6503642,-4.095449,-0.4705102,0.6966946,1.49968,0.3940833,-0.1587764,0.01522791,-0.1338097,-0.983254,0.2383299,-0.09859662,0.7856997,1.582328,0.2178595,0.4282655,1.119118,0.2226698,298.2452,214.858,2.470289,True
2,0.1888889,-1.047645,0.09082568,-0.1975688,-1.339103,-4.0197,-2.81282,0.6057279,1.265008,0.4638534,-1.240972,-0.05376407,0.6,0.1,-0.3265727,-0.06831898,0.3050041,-0.6474028,-4.094757,-0.4668047,0.6958458,1.500253,0.3941321,-0.1511499,0.02479035,-0.1178973,-0.9840689,0.2388022,-0.09740592,0.7851017,1.582253,0.2180541,0.4244869,1.12373,0.2206077,297.5674,214.3183,2.937983,True
2,0.2,-1.063762,0.2387747,-0.2132371,-1.338454,-4.027106,-2.798699,0.6034154,1.266025,0.4629736,-1.241291,-0.02845632,0.6,0.2,-0.3438982,-0.08517715,0.2795029,-0.6446953,-4.095439,-0.4619341,0.6949516,1.500698,0.3940833,-0.1468119,0.03436282,-0.1126145,-0.9852897,0.2394227,-0.09624957,0.7846168,1.582209,0.2181289,0.4204707,1.128368,0.2186753,296.9318,213.8524,3.385221,True
2,0.2111111,-1.077726,0.3686496,-0.2277461,-1.33829,-4.036019,-2.7841,0.6008285,1.266901,0.4620454,-1.241461,-0.01509659,0.6,0.2,-0.3580961,-0.1020251,0.2454671,-0.6423321,-4.096915,-0.4563558,0.6939781,1.501099,0.3939373,-0.1447979,0.0577876,-0.1350084,-0.9876136,0.2407998,-0.09547113,0.784049,1.582121,0.2182415,0.4163094,1.133075,0.2169595,296.2941,213.3612,3.940535,True
2,0.2222222,-1.094885,0.4921086,-0.2496831,-1.338043,-4.045903,-2.768975,0.5982581,1.26781,0.4610922,-1.241568,-0.00938295,0.6,0.8,-0.3701337,-0.1370436,0.2262549,-0.6393456,-4.099353,-0.4500164,0.6928616,1.501535,0.3938215,-0.1416615,0.07161927,-0.1467617,-0.9897777,0.2419239,-0.09454248,0.7834325,1.582113,0.2183533,0.4117835,1.137893,0.2154729,295.6418,212.9791,4.424066,True
2,0.2333333,-1.106674,0.5762211,-0.2575613,-1.338376,-4.05552,-2.753999,0.5956436,1.268529,0.4601982,-1.241749,-0.01630922,0.6,0.8,-0.3819482,-0.1465499,0.2199139,-0.6365125,-4.100646,-0.4444235,0.6916521,1.501981,0.3937654,-0.1417433,0.08866166,-0.1627474,-0.9923295,0.2434967,-0.09383728,0.7828346,1.581993,0.2185152,0.4068963,1.1429,0.2142968,294.9771,212.6956,4.929826,True
2,0.2444444,-1.128085,0.7007812,-0.270957,-1.339648,-4.068122,-2.738115,0.5929766,1.269218,0.4592752,-1.241755,-0.0001661511,0.6,0.8,-0.3926328,-0.152889,0.2199764,-0.6334664,-4.101709,-0.4388967,0.6904918,1.502301,0.3937197,-0.135224,0.1024874,-0.1532227,-0.9938411,0.2450842,-0.09340744,0.7821379,1.581811,0.2187047,0.4015254,1.148117,0.2133813,294.2541,212.4596,5.506904,True
2,0.2555556,-1.145241,0.8264081,-0.2822505,-1.341581,-4.081661,-2.721601,0.5903864,1.269973,0.4582617,-1.242107,-0.03201436,0.6,1.3,-0.4331973,-0.1708106,0.2212835,-0.630196,-4.10398,-0.4310185,0.689079,1.502754,0.3936203,-0.1329659,0.1301745,-0.1489923,-0.9955876,0.2475636,-0.09332835,0.7815264,1.58174,0.2189126,0.3957492,1.153566,0.2127635,293.4585,212.2346,6.22046,True
2,0.2666667,-1.148533,0.9435405,-0.2945297,-1.343965,-4.096577,-2.705404,0.5874085,1.2708,0.4575191,-1.242164,-0.004757439,0.6,1.3,-0.4596999,-0.1739456,0.2395912,-0.6263664,-4.104826,-0.4244013,0.6877078,1.503167,0.3935382,-0.1319095,0.1418903,-0.1543293,-0.9976633,0.2496873,-0.09301463,0.7808266,1.58166,0.2191517,0.3897037,1.159209,0.2124389,292.5685,212.0597,6.989434,True
2,0.2777778,-1.1518,1.013821,-0.2938267,-1.346747,-4.110101,-2.689518,0.584689,1.271587,0.4565611,-1.241968,0.01816015,0.4,1.7,-0.4979961,-0.1769782,0.2484016,-0.6228074,-4.105846,-0.4168998,0.6862464,1.503503,0.3933556,-0.1360739,0.1632096,-0.151107,-0.9995307,0.2524156,-0.09281436,0.7802516,1.581602,0.2194271,0.3833497,1.165027,0.212374,291.6497,212.0711,7.623394,True
2,0.2888889,-1.150811,1.115021,-0.2964563,-1.350328,-4.126223,-2.673407,0.581486,1.272285,0.4555318,-1.242764,-0.07281914,0.4,1.7,-0.529948,-0.1693383,0.2444271,-0.6197847,-4.106541,-0.4094277,0.6845832,1.503864,0.3931901,-0.1392367,0.18985,-0.1574767,-1.001767,0.25574,-0.09295844,0.7795222,1.581494,0.2196243,0.3767111,1.171043,0.2125678,290.7538,212.1789,8.191282,True
2,0.3,-1.153018,1.194862,-0.3064373,-1.353967,-4.141943,-2.657069,0.5783451,1.27305,0.4545946,-1.24299,-0.01990051,0.4,1.8,-0.5534061,-0.1670729,0.240354,-0.6168488,-4.107665,-0.4017299,0.682925,1.504119,0.3930104,-0.146825,0.2196941,-0.1840461,-1.00502,0.2594152,-0.09307615,0.7787506,1.581376,0.2199409,0.3698269,1.177257,0.2130841,289.8175,212.2751,8.81076,True
2,0.3111111,-1.159455,1.235246,-0.3247457,-1.357304,-4.157498,-2.640771,0.57508,1.27383,0.4535639,-1.243434,-0.04029454,0.4,1.8,-0.5887284,-0.1625336,0.2161506,-0.614796,-4.109204,-0.3928517,0.6810656,1.50446,0.3927758,-0.1490224,0.2367406,-0.1978807,-1.007955,0.262793,-0.09315418,0.7779392,1.581239,0.2202899,0.3628388,1.183602,0.2138463,288.8174,212.4128,9.5217,True
2,0.3222222,-1.172294,1.289505,-0.3367205,-1.361331,-4.173938,-2.623725,0.5717217,1.274628,0.4524572,-1.243201,0.02163572,0.4,1.8,-0.6110511,-0.149629,0.2142444,-0.6121776,-4.109676,-0.3848758,0.6792336,1.504772,0.3925436,-0.1554081,0.2644565,-0.2074159,-1.010857,0.2669846,-0.09343541,0.7770531,1.581103,0.2206538,0.3555946,1.189999,0.214735,287.773,212.534,10.22789,True
2,0.3333333,-1.174492,1.324483,-0.3699275,-1.364595,-4.19046,-2.60699,0.5683115,1.2756,0.4513421,-1.243214,-0.001332958,0.3,1.6,-0.6375694,-0.1410059,0.2230052,-0.609188,-4.109894,-0.3767555,0.6771538,1.505188,0.3923831,-0.158388,0.2985544,-0.1956755,-1.01299,0.2718769,-0.09422823,0.7760854,1.58098,0.2209868,0.3482482,1.196399,0.2158022,286.7493,212.634,10.97942,True
2,0.3444445,-1.178769,1.34788,-0.3796194,-1.368781,-4.206919,-2.59035,0.5647793,1.276595,0.4503188,-1.242711,0.04603652,0.3,1.6,-0.6616868,-0.1165074,0.2552359,-0.6054356,-4.108228,-0.3700505,0.6750464,1.505627,0.391933,-0.1593467,0.3166687,-0.1903429,-1.015332,0.276509,-0.09485088,0.7751259,1.580964,0.2212579,0.3408463,1.202767,0.2169882,285.7732,212.6449,11.83484,True
2,0.3555556,-1.182027,1.388232,-0.4032575,-1.373254,-4.2245,-2.573342,0.5610218,1.277725,0.4491982,-1.243059,-0.03215089,0.3,1.5,-0.7040262,-0.1004109,0.2790722,-0.6015196,-4.106799,-0.3619545,0.6728096,1.506035,0.3915558,-0.166579,0.3348054,-0.1711114,-1.017062,0.2814374,-0.09530734,0.7740854,1.580903,0.2215729,0.3333802,1.20914,0.2182439,284.8689,212.718,12.61933,True
2,0.3666667,-1.188422,1.399984,-0.4086304,-1.37888,-4.241154,-2.556275,0.5571774,1.278917,0.4486363,-1.243243,-0.01649221,0.3,1.5,-0.7391957,-0.1045035,0.2793269,-0.5981939,-4.10723,-0.352292,0.6705596,1.506443,0.3911362,-0.1771738,0.3454923,-0.1678243,-1.019183,0.2861421,-0.0953915,0.7730236,1.580787,0.221895,0.3259314,1.215565,0.2196049,284.0177,212.6134,13.54119,True
2,0.3777778,-1.191633,1.404232,-0.4107845,-1.383673,-4.256786,-2.54014,0.55364,1.279906,0.4476469,-1.243155,0.008401449,0.3,1.1,-0.7542042,-0.1140043,0.2740759,-0.5950184,-4.108398,-0.3426245,0.6684697,1.506826,0.3907759,-0.176047,0.3518903,-0.163582,-1.021358,0.2907701,-0.09595476,0.7719325,1.580604,0.2221479,0.3184806,1.222093,0.2210813,283.1642,212.518,14.40208,True
2,0.3888889,-1.193763,1.412771,-0.4119098,-1.389351,-4.273173,-2.523558,0.5496629,1.280969,0.4464824,-1.242921,0.02130575,0.3,1.1,-0.7671582,-0.1416238,0.269786,-0.5916111,-4.111113,-0.3313691,0.6658937,1.507432,0.3905149,-0.1760478,0.3561504,-0.1646453,-1.023588,0.2953844,-0.09633879,0.7707814,1.580539,0.2224407,0.3109457,1.228789,0.2227151,282.3075,212.3816,15.23422,True
2,0.4,-1.193776,1.417017,-0.4097863,-1.395293,-4.288946,-2.507292,0.5455394,1.281962,0.4455161,-1.243661,-0.06766969,0.6,0.9,-0.7587963,-0.1554709,0.2590094,-0.5884601,-4.113348,-0.3211983,0.6634641,1.507778,0.3901367,-0.1771683,0.3700019,-0.1763636,-1.026538,0.300543,-0.09695451,0.7696096,1.580356,0.2227199,0.303514,1.235679,0.2246595,281.377,212.2911,16.08152,True
2,0.4111111,-1.189514,1.43301,-0.4088393,-1.401507,-4.30526,-2.491429,0.5414076,1.283003,0.4441967,-1.243425,0.02218053,0.6,0.9,-0.7613095,-0.1798368,0.2258869,-0.5864334,-4.117645,-0.3091019,0.6608247,1.508274,0.3898304,-0.1910707,0.3902828,-0.1900986,-1.029641,0.3060557,-0.09715531,0.7683728,1.580188,0.2230148,0.296264,1.242675,0.2267912,280.3321,211.7881,17.51548,True
2,0.4222222,-1.178866,1.431985,-0.4013983,-1.407883,-4.320762,-2.475845,0.5373154,1.284034,0.4430227,-1.243565,-0.01298229,0.6,0.9,-0.7668635,-0.1873603,0.1970662,-0.5843349,-4.12113,-0.2974676,0.6582444,1.508663,0.3894353,-0.2006191,0.4095016,-0.1932214,-1.032511,0.3120916,-0.09766717,0.767192,1.580005,0.2233167,0.2889551,1.249743,0.2289046,279.2602,210.976,19.23026,True
2,0.4333333,-1.160772,1.439485,-0.3907763,-1.414955,-4.335934,-2.461259,0.5331474,1.285171,0.4419737,-1.24403,-0.042308,0.5,0.7,-0.784006,-0.187041,0.1887277,-0.5822155,-4.123847,-0.2859162,0.6553327,1.509079,0.388772,-0.2091081,0.4287023,-0.196351,-1.035351,0.3181464,-0.09817983,0.7658932,1.579825,0.2237949,0.2816089,1.256817,0.2309849,278.1869,209.8501,21.19636,True
2,0.4444444,-1.139453,1.447054,-0.3716612,-1.422397,-4.350773,-2.447313,0.528991,1.286227,0.4409578,-1.24413,-0.00882911,0.5,0.7,-0.8051673,-0.1731251,0.1974692,-0.5794788,-4.125155,-0.2753674,0.6525197,1.509542,0.38831,-0.224911,0.4404838,-0.1791756,-1.037315,0.3240632,-0.09805306,0.7644292,1.579779,0.2240024,0.274274,1.263829,0.2330332,277.1431,208.3155,23.5619,True
2,0.4555556,-1.125607,1.463156,-0.3472313,-1.431014,-4.365697,-2.433115,0.5248558,1.287278,0.4398613,-1.244941,-0.07417698,0.5,0.6,-0.8294089,-0.1229441,0.1968109,-0.5773824,-4.123526,-0.2668325,0.6494539,1.510055,0.3876429,-0.2322071,0.4469143,-0.1631425,-1.039235,0.3300731,-0.09826798,0.763039,1.57971,0.2242541,0.267134,1.270704,0.2351213,276.1638,206.3905,26.26744,True
2,0.4666667,-1.109607,1.454727,-0.3312255,-1.439105,-4.380163,-2.419202,0.5206128,1.288376,0.4387066,-1.245409,-0.04215616,0.5,0.6,-0.8707529,-0.08972836,0.2015306,-0.5750681,-4.122127,-0.2568443,0.646346,1.510589,0.3868847,-0.2350987,0.4597148,-0.1322244,-1.040235,0.3365291,-0.09874202,0.7615168,1.579599,0.2244251,0.2602447,1.277395,0.2372909,275.223,203.9743,29.39952,True
2,0.4777778,-1.098189,1.44707,-0.3269001,-1.447277,-4.394423,-2.405393,0.5163572,1.289513,0.4375615,-1.244947,0.04241374,0.7,0.5,-0.8982711,-0.07793295,0.2167002,-0.5721099,-4.121843,-0.2461184,0.6433152,1.511123,0.3862412,-0.240139,0.4704001,-0.1034156,-1.041025,0.3431419,-0.09921686,0.7600858,1.579568,0.2246654,0.2535764,1.283853,0.2395553,274.2998,200.8206,33.24113,True
2,0.4888889,-1.084003,1.423905,-0.3204346,-1.454557,-4.407744,-2.392417,0.5122619,1.290535,0.4364641,-1.244864,0.007164534,0.7,0.5,-0.918511,-0.07249576,0.2136566,-0.5699559,-4.122102,-0.2351742,0.6401902,1.511765,0.3856964,-0.2443437,0.4789374,-0.0991164,-1.042503,0.3494518,-0.09953991,0.7585934,1.579448,0.2250059,0.2469803,1.290117,0.2418706,273.4196,197.1425,37.62504,True
2,0.5,-1.072292,1.424993,-0.3129576,-1.463121,-4.421214,-2.379717,0.5080992,1.291707,0.4352353,-1.244712,0.01373703,0.7,0.5,-0.9262553,-0.09260398,0.1902003,-0.5682973,-4.124717,-0.2225875,0.6372308,1.51234,0.3850553,-0.2593436,0.4843209,-0.1107115,-1.044803,0.3557237,-0.09926613,0.7570078,1.579256,0.2252879,0.2403757,1.296237,0.244193,272.6318,191.2515,44.2408,True
2,0.5111111,-1.033908,1.415502,-0.3022813,-1.471606,-4.434408,-2.368403,0.5039022,1.292942,0.4340706,-1.245197,-0.04460768,0.8,0.4,-0.9129259,-0.1180481,0.1399153,-0.5679936,-4.129042,-0.2093503,0.6341285,1.51291,0.3843205,-0.2689317,0.4918302,-0.1127701,-1.046811,0.3623992,-0.09921979,0.7554902,1.579134,0.2255633,0.2338337,1.302245,0.2465442,271.9461,180.7344,55.48898,True
2,0.5222223,-0.9859673,1.421999,-0.2863613,-1.480803,-4.447494,-2.358072,0.4997627,1.294122,0.432889,-1.245304,-0.009435466,0.8,0.4,-0.9013653,-0.1287052,0.1269923,-0.5667196,-4.131819,-0.1975109,0.6309235,1.51353,0.3836901,-0.2764729,0.492915,-0.1212059,-1.048917,0.3683172,-0.0990134,0.7539263,1.579036,0.2257848,0.2275101,1.308117,0.2489422,271.4171,160.1612,76.79024,True
2,0.5333334,-0.9465607,1.428479,-0.2714956,-1.490365,-4.460473,-2.347835,0.495607,1.295108,0.4316461,-1.246366,-0.09714501,1.4,0.3,-0.8938825,-0.1426395,0.1385972,-0.5643765,-4.134872,-0.1854319,0.6276272,1.514097,0.3829548,-0.2720603,0.4939967,-0.1042306,-1.050227,0.3750294,-0.09919156,0.7522073,1.578977,0.2259214,0.221302,1.313931,0.2513431,271.1628,126.6804,110.9705,True
2,0.5444446,-0.9071106,1.409397,-0.2607777,-1.49924,-4.472754,-2.338237,0.4913734,1.296241,0.4305654,-1.247056,-0.06249627,1.4,0.3,-0.8730824,-0.09708673,0.1812221,-0.5611174,-4.132506,-0.1784518,0.62424,1.51457,0.3821213,-0.2834086,0.5227974,-0.0711114,-1.050521,0.3826783,-0.09950156,0.7503939,1.578938,0.2260969,0.2152288,1.319668,0.2537733,271.4144,92.03902,146.2776,True
2,0.5555557,-0.8718749,1.355228,-0.2370889,-1.507582,-4.483312,-2.329128,0.4871152,1.297512,0.4294264,-1.24674,0.02917184,2.3,0.3,-0.8563122,-0.02388328,0.2346616,-0.5571354,-4.12679,-0.1744767,0.6210585,1.515193,0.381206,-0.2906494,0.5335149,-0.05082257,-1.051373,0.3902841,-0.09975296,0.7486007,1.57894,0.2262423,0.2092944,1.325249,0.2562671,272.049,72.13346,166.8349,True
2,0.5666668,-0.8377033,1.269051,-0.2185761,-1.514534,-4.492391,-2.320423,0.4828726,1.29868,0.4283085,-1.246811,-0.007019577,2.3,0.3,-0.8594155,-0.02071458,0.243238,-0.5540989,-4.126205,-0.1654334,0.6178833,1.515653,0.3801694,-0.2798535,0.5345463,-0.03493861,-1.051885,0.3970398,-0.1004102,0.7468604,1.578899,0.2263758,0.2034276,1.330604,0.2588192,272.8178,62.26628,177.3557,True
2,0.577778,-0.8248841,1.207255,-0.2203914,-1.52138,-4.502104,-2.310994,0.4785348,1.299932,0.4271443,-1.246743,0.00601431,2.8,0.3,-0.8412725,-0.02083093,0.2473605,-0.5511993,-4.126132,-0.156583,0.6147416,1.516182,0.3791168,-0.2711168,0.5366756,-0.01053039,-1.052082,0.4044003,-0.1011993,0.7452027,1.578715,0.2264278,0.1976041,1.335706,0.2614008,273.5492,57.00614,183.2875,True
2,0.5888891,-0.8152288,1.111323,-0.2326975,-1.526184,-4.510497,-2.301769,0.4742686,1.301282,0.4260581,-1.246633,0.009780166,2.8,0.3,-0.8197887,-0.01354551,0.265336,-0.5477377,-4.124812,-0.1491985,0.6115316,1.51675,0.3781507,-0.2529258,0.5153115,0.00635682,-1.052047,0.4102935,-0.1018563,0.7433718,1.578768,0.2265356,0.1918906,1.340538,0.2638941,274.2194,53.53998,187.495,True
2,0.6000003,-0.7959999,1.042048,-0.2419315,-1.531347,-4.519008,-2.29314,0.4701599,1.302534,0.4249778,-1.245569,0.09691847,2.8,0.3,-0.8123987,-0.02422464,0.2631089,-0.5447661,-4.125132,-0.1400133,0.6082997,1.517287,0.3771753,-0.2499482,0.4972253,-0.01073223,-1.053577,0.4164404,-0.1019493,0.7414023,1.578758,0.2265704,0.186349,1.345079,0.2661418,274.844,51.63996,190.1218,True
2,0.6111114,-0.785327,1.012197,-0.2481839,-1.537222,-4.528125,-2.284373,0.4659939,1.303811,0.4238794,-1.245313,0.0223503,3.1,2.6,-0.7903258,-0.04339868,0.2373013,-0.5428337,-4.126727,-0.1305221,0.6050652,1.517954,0.3762257,-0.2607619,0.4855368,-0.02555887,-1.055009,0.4220142,-0.1014848,0.7395363,1.578737,0.2265501,0.1808723,1.349443,0.2680673,275.3573,50.58549,191.7903,True
2,0.6222225,-0.7512185,0.9930493,-0.2480909,-1.543381,-4.536871,-2.277103,0.4619396,1.304992,0.4229758,-1.245671,-0.0329527,3.1,2.6,-0.7554907,-0.07438159,0.2156022,-0.5410014,-4.129703,-0.1208361,0.6017289,1.518654,0.3753426,-0.2766137,0.4887939,-0.009453384,-1.055206,0.4285556,-0.1008403,0.7374939,1.578665,0.2264948,0.175595,1.353683,0.2696754,275.7786,50.48445,192.3893,True
2,0.6333337,-0.7394716,0.9941862,-0.2374319,-1.550403,-4.545588,-2.269333,0.4578639,1.306088,0.4219701,-1.245367,0.02800263,3.3,3.5,-0.7320199,-0.1108221,0.2419098,-0.5371894,-4.133503,-0.1103973,0.5985746,1.519418,0.3743496,-0.27537,0.490913,0.006557528,-1.054675,0.4346999,-0.1013397,0.7352067,1.578817,0.2264633,0.170559,1.357853,0.2710515,276.1957,50.59185,192.6365,True
2,0.6444448,-0.7085742,0.9899737,-0.2320917,-1.557213,-4.554236,-2.262437,0.4539251,1.307496,0.4209933,-1.246542,-0.1077968,3.3,3.5,-0.7148507,-0.1173707,0.2619892,-0.5335302,-4.135473,-0.1013953,0.5953556,1.520289,0.3734128,-0.2922651,0.4739236,0.03120749,-1.053994,0.4400064,-0.1002097,0.7332286,1.578727,0.2265162,0.165648,1.36205,0.2723376,276.6287,50.56175,192.9077,True
2,0.655556,-0.6648877,0.9772337,-0.228872,-1.563559,-4.562661,-2.25652,0.4499102,1.308847,0.4200344,-1.245865,0.06265578,3.3,5.9,-0.6944829,-0.1495704,0.2968637,-0.5288804,-4.139783,-0.09090327,0.5921668,1.521485,0.3723686,-0.3177371,0.4835871,0.03573047,-1.053613,0.4464249,-0.09937719,0.7312123,1.578793,0.2264974,0.1609069,1.36622,0.2737158,277.157,50.65599,193.0266,True
2,0.6666671,-0.5945536,0.9710072,-0.2065148,4.712433,-4.570382,-2.2524,0.4462184,1.310436,0.4190211,-1.246319,-0.04230419,3.3,5.9,-0.703616,-0.2138259,0.3957697,-0.5208659,-4.147309,-0.07627346,0.5887804,1.522903,0.3713677,-0.3380694,0.4900392,0.02312113,-1.054348,0.4528202,-0.09811751,0.7293037,1.57873,0.2264338,0.1561955,1.370388,0.2752653,277.7037,50.26797,193.7003,True
2,0.6777782,-0.5646959,0.9668068,-0.1990502,4.705463,-4.578476,-2.247189,0.4424061,1.311907,0.4179561,-1.247002,-0.06228102,3.3,5.9,-0.7253488,-0.2556862,0.502304,-0.5114755,-4.154488,-0.06138586,0.5853637,1.52438,0.370296,-0.3522372,0.4506366,0.001972757,-1.055052,0.4565625,-0.09573531,0.727312,1.578468,0.226403,0.1514973,1.374567,0.2770281,278.2252,49.94391,194.4174,True
2,0.6888894,-0.515696,0.9753811,-0.1959397,4.698203,-4.586971,-2.243305,0.4390613,1.313502,0.4167497,-1.248412,-0.1287342,3,12.1,-0.7674963,-0.3021728,0.7261705,-0.4954593,-4.162922,-0.04406653,0.5817947,1.526528,0.3690319,-0.3911174,0.426247,-0.04775077,-1.057405,0.4607058,-0.09212913,0.7252871,1.578427,0.2263255,0.1468529,1.378682,0.2790038,278.7536,49.6308,195.2086,True
2,0.7000005,-0.4645523,1.010589,-0.1961508,4.689888,-4.596449,-2.240091,0.435927,1.315209,0.4156783,-1.246966,0.1330052,3,12.1,-0.8290192,-0.3041332,1.033449,-0.4739452,-4.168183,-0.02817278,0.5780945,1.528881,0.3675051,-0.4084779,0.4198902,-0.08270206,-1.059372,0.4654512,-0.08960845,0.7233226,1.578449,0.2263012,0.142369,1.382614,0.2811399,279.3278,49.05943,196.3388,True
2,0.7111117,-0.4176939,1.029788,-0.1984192,4.681887,-4.605694,-2.23733,0.4327081,1.317024,0.4146452,-1.247612,-0.06067345,2.6,20.5,-0.9269379,-0.1717963,1.096511,-0.4603178,-4.162198,-0.02018996,0.5744423,1.531069,0.3653452,-0.4568297,0.4754313,-0.1504728,-1.063942,0.4731176,-0.08672345,0.7211879,1.57838,0.2262299,0.1379198,1.386358,0.2833355,279.8547,48.30395,197.7,True
2,0.7222228,-0.3270929,0.9594328,-0.2173183,4.677265,-4.613261,-2.236917,0.4295938,1.319262,0.4140334,-1.247853,-0.02174282,2.6,20.5,-1.016711,0.115531,1.013128,-0.4522463,-4.138391,-0.02704493,0.5707306,1.533008,0.3630545,-0.4951025,0.5181661,-0.1586415,-1.066328,0.4812329,-0.08400329,0.7191488,1.57847,0.2260106,0.1336571,1.389871,0.285573,280.2871,47.40758,199.1857,True
2,0.7333339,-0.2972023,0.8688283,-0.2317853,4.673756,-4.61971,-2.234833,0.4261148,1.321478,0.4133146,-1.247786,0.00599151,2.5,20.5,-0.9604686,0.3006239,1.001709,-0.4418355,-4.11691,-0.03760011,0.5673959,1.534808,0.3611753,-0.5056956,0.513937,-0.148954,-1.067955,0.4873779,-0.08094519,0.7169981,1.578627,0.2257788,0.1295199,1.393201,0.2879046,280.6497,46.33933,200.774,True
2,0.7444451,-0.271521,0.6673363,-0.2648832,4.675717,-4.623261,-2.232785,0.4226682,1.323998,0.412684,-1.249589,-0.1653662,2.5,20.5,-0.8509501,0.3332714,0.9541036,-0.432835,-4.105591,-0.04187155,0.564352,1.536284,0.359818,-0.507535,0.4777225,-0.1009707,-1.067515,0.4918858,-0.07755924,0.7149871,1.578863,0.2254024,0.1254119,1.396416,0.290324,280.9529,45.36382,202.289,True
2,0.7555562,-0.2703767,0.5222698,-0.2992939,4.677522,-4.627231,-2.229952,0.4191355,1.326294,0.4120865,-1.24756,0.1864493,2.2,26.7,-0.7767465,0.2407058,0.8285192,-0.4275391,-4.106641,-0.03468421,0.5615267,1.537578,0.3583531,-0.4858894,0.4179986,-0.04041664,-1.065989,0.4949285,-0.07451391,0.7128133,1.578948,0.224926,0.1214041,1.39943,0.2927135,281.2265,45.23232,203.0201,True
2,0.7666674,-0.3043814,0.2927497,-0.3897284,4.685661,-4.630173,-2.22546,0.4157057,1.328403,0.4112935,-1.246961,0.05266655,2.2,26.7,-0.6515173,0.04703456,0.6190147,-0.4272797,-4.12057,-0.01867488,0.5589327,1.538738,0.3572156,-0.4698614,0.3838539,-0.02137747,-1.065849,0.4985183,-0.07156686,0.7106463,1.579033,0.2245476,0.1173052,1.402299,0.2948246,281.4492,45.32557,203.6183,True
2,0.7777785,-0.3320726,0.2190172,-0.4298117,4.688427,-4.635307,-2.220977,0.4124665,1.330218,0.4104409,-1.245772,0.1080225,2.2,26.7,-0.589825,-0.05735248,0.5371493,-0.4240546,-4.130789,-0.005016064,0.5562665,1.539646,0.3560405,-0.4580866,0.394472,-0.01933953,-1.066337,0.5040551,-0.06956816,0.7084984,1.578976,0.2241428,0.1132754,1.404992,0.2963179,281.5264,46.14124,203.4813,True
2,0.7888896,-0.3789399,0.1890645,-0.4477305,4.690994,-4.640498,-2.215186,0.4090025,1.331718,0.4098399,-1.243845,0.1753292,1.8,30.9,-0.5296711,-0.1892487,0.412568,-0.4234985,-4.146764,0.0134471,0.5536652,1.540391,0.3547974,-0.3943666,0.3995919,-0.0444053,-1.06803,0.5095196,-0.06983341,0.7064009,1.578775,0.2236915,0.1093678,1.40751,0.2970474,281.528,47.5804,202.5494,True
2,0.8000008,-0.416205,0.1805909,-0.4348627,4.691945,-4.64512,-2.209598,0.4057817,1.333183,0.4092796,-1.243565,0.02407002,1.8,30.9,-0.4867,-0.2264699,0.3470944,-0.4216375,-4.154583,0.02480362,0.5509628,1.541383,0.3535013,-0.3541146,0.383481,-0.06499998,-1.069739,0.5136756,-0.06918919,0.7044302,1.578661,0.223331,0.105699,1.40984,0.2969308,281.3665,49.95126,200.4205,True
2,0.8111119,-0.4268395,0.1732011,-0.4199018,4.693086,-4.649537,-2.204471,0.4023661,1.334591,0.4087651,-1.242359,0.1105067,1.4,34.1,-0.4366191,-0.2299219,0.3498832,-0.4175432,-4.161263,0.03419739,0.5483757,1.54205,0.3523951,-0.3211618,0.3663293,-0.06742257,-1.070883,0.5176361,-0.06856042,0.7023249,1.578559,0.2230139,0.1021778,1.412152,0.2963106,281.2094,51.79071,198.3929,True
2,0.8222231,-0.4022922,0.1724349,-0.3655787,4.692805,-4.652566,-2.200921,0.3992814,1.335711,0.4084907,-1.242598,-0.022723,1.4,34.1,-0.368797,-0.2215318,0.2993119,-0.415883,-4.166485,0.04085902,0.5457769,1.542776,0.3511016,-0.2826651,0.3576946,-0.04860137,-1.071177,0.5220585,-0.06863712,0.7002249,1.578612,0.2225742,0.09868483,1.414597,0.2955848,281.0908,53.24434,196.5715,True
2,0.8333342,-0.3788116,0.1694106,-0.3357502,4.692994,-4.655905,-2.197701,0.3961306,1.337038,0.408021,-1.24327,-0.06102658,1,42.9,-0.3371205,-0.2023185,0.2511962,-0.4147985,-4.170647,0.04752491,0.543215,1.543533,0.3499515,-0.2464628,0.3501179,-0.0478561,-1.071971,0.5262308,-0.06902594,0.6980308,1.578576,0.2221739,0.09529508,1.417264,0.2950655,281.0577,54.48475,195.0427,True
2,0.8444453,-0.328701,0.1471919,-0.3122503,4.693916,-4.658656,-2.195773,0.3932224,1.33836,0.4075594,-1.245002,-0.1578465,1,42.9,-0.3317654,-0.1777949,0.2395282,-0.4125109,-4.173867,0.05409812,0.5406321,1.544337,0.3488033,-0.2529386,0.3373503,-0.05098902,-1.072861,0.5300072,-0.06763843,0.6959553,1.578628,0.2218981,0.09205373,1.420133,0.2949296,281.1785,55.87214,193.5198,True
2,0.8555565,-0.276449,0.09935312,-0.3003383,4.695977,-4.66088,-2.194454,0.390542,1.33972,0.4070687,-1.245435,-0.03828377,1,42.9,-0.3433843,-0.1703194,0.2471154,-0.409396,-4.178852,0.06294168,0.5381233,1.545051,0.3474212,-0.2432121,0.3171287,-0.02661708,-1.073111,0.5339263,-0.06676518,0.6941884,1.57869,0.2215018,0.08915241,1.423002,0.295246,281.5092,56.99658,192.4279,True
2,0.8666676,-0.2337871,0.02266928,-0.3031836,4.699747,-4.662426,-2.193175,0.3879872,1.341081,0.4066911,-1.246196,-0.07007526,0.8,47.5,-0.3469232,-0.08628455,0.2847694,-0.4047579,-4.174811,0.06324262,0.5355164,1.54574,0.346066,-0.2368207,0.3032577,-0.0202767,-1.073213,0.5372499,-0.06583787,0.6920553,1.57875,0.2211273,0.08639005,1.425786,0.2959181,281.9229,58.03288,191.6277,True
2,0.8777788,-0.198599,-0.03698396,-0.3071704,4.703417,-4.663912,-2.191999,0.3857207,1.34223,0.4061623,-1.245787,0.03676185,0.8,47.5,-0.3418602,0.02542441,0.3139473,-0.4000957,-4.165828,0.05836291,0.5332246,1.546156,0.3447471,-0.2358959,0.304276,-0.03942016,-1.074066,0.5404753,-0.06522082,0.6894238,1.578623,0.2208281,0.08378999,1.428252,0.2967852,282.3451,59.13513,190.9,True
2,0.8888899,-0.1815407,-0.0625604,-0.3113193,4.706728,-4.665908,-2.190579,0.383314,1.343206,0.4056928,-1.244228,0.1407133,0.8,48.4,-0.3459525,0.08409873,0.2982304,-0.3972185,-4.158656,0.05569975,0.5307224,1.546652,0.3434665,-0.2134088,0.2871535,-0.01830295,-1.073722,0.5434629,-0.06489404,0.6874075,1.578573,0.2206059,0.08131014,1.430198,0.2976256,282.6862,60.25772,190.2081,True
2,0.900001,-0.1623478,-0.09024511,-0.3111957,4.710183,-4.667688,-2.189288,0.3808959,1.344063,0.405303,-1.242153,0.1866341,0.8,48.4,-0.3478248,0.1501815,0.2899658,-0.3944147,-4.150028,0.0518086,0.5283741,1.546932,0.34238,-0.1973145,0.2689741,0.00179855,-1.073141,0.5459866,-0.06441335,0.6852562,1.57848,0.2202177,0.07887839,1.431504,0.2982241,282.8698,61.37258,189.4872,True
2,0.9111122,-0.1484869,-0.09123746,-0.2984193,-1.57045,-4.669432,-2.188111,0.3785162,1.344773,0.4047773,-1.239326,0.2548217,0.7,57.4,-0.325336,0.1606871,0.2983512,-0.3906815,-4.145225,0.05028581,0.5260117,1.547263,0.3412411,-0.1726272,0.2752813,0.02075155,-1.072584,0.5497238,-0.06506608,0.6831962,1.578408,0.2198575,0.07641558,1.432137,0.298452,282.8909,62.27548,188.8609,True
2,0.9222233,-0.1207708,-0.04944229,-0.2528468,-1.57042,-4.671061,-2.187716,0.3763504,1.344974,0.4041862,-1.236504,0.253669,0.7,57.4,-0.2702065,0.1562791,0.266998,-0.3887406,-4.141135,0.0477377,0.5237645,1.547458,0.3404613,-0.1446354,0.2922374,0.04820236,-1.071392,0.5542039,-0.06647969,0.6811545,1.578277,0.2194932,0.07370117,1.432207,0.2983125,282.7432,62.99475,188.2455,True
2,0.9333345,-0.107997,-0.009902805,-0.2296189,-1.570284,-4.673237,-2.186865,0.3741087,1.345239,0.4035976,-1.233287,0.2894411,0.9,47.8,-0.2063869,0.0978045,0.1544031,-0.3908189,-4.143219,0.04978646,0.5216148,1.547361,0.339643,-0.1241581,0.2889666,0.07572091,-1.069923,0.5576844,-0.06747784,0.6791846,1.57825,0.2191508,0.07071573,1.431794,0.297882,282.444,63.53519,187.6922,True
2,0.9444456,-0.07924681,0.06490877,-0.1852721,4.710591,-4.675576,-2.186952,0.3720172,1.345238,0.4030018,-1.230323,0.2657016,0.9,47.8,-0.1742554,0.07139879,0.05710018,-0.3932568,-4.142833,0.05043361,0.5194092,1.54732,0.3388429,-0.1049212,0.2718586,0.08940449,-1.068641,0.5605614,-0.06825282,0.6772088,1.578211,0.2188215,0.06758139,1.43096,0.2972746,282.0573,63.62161,187.5341,True
2,0.9555568,-0.06113333,0.1066651,-0.1450148,4.708898,-4.677249,-2.186761,0.3699018,1.345253,0.4025025,-1.225833,0.4052642,0.9,47.8,-0.1671324,0.06405856,0.01972294,-0.3940541,-4.141001,0.05059766,0.5172065,1.547358,0.3380158,-0.108144,0.2729149,0.08623752,-1.068006,0.5638871,-0.06849491,0.675311,1.578164,0.2185056,0.06447741,1.429716,0.2966332,281.6821,63.08571,187.9828,True
2,0.9666679,-0.04513164,0.1025214,-0.1237023,4.708443,-4.678371,-2.186814,0.3679739,1.345261,0.401967,-1.222165,0.3285212,0.9,53.1,-0.1716833,0.05996287,-0.0143475,-0.3951289,-4.139138,0.05101605,0.5151265,1.547373,0.3371797,-0.09871082,0.2707499,0.07017981,-1.067943,0.5672601,-0.06927441,0.6734272,1.57809,0.2182105,0.06132642,1.428221,0.2960781,281.2523,62.2775,188.7043,True
2,0.977779,-0.03979629,0.08236076,-0.1172404,4.708787,-4.680168,-2.186225,0.3659832,1.345471,0.4014716,-1.217056,0.4608581,0.9,53.1,-0.1812042,0.07492255,-0.01527175,-0.3951801,-4.13587,0.05033721,0.5130522,1.547351,0.3362136,-0.08287793,0.258973,0.05726103,-1.067873,0.5700188,-0.07028774,0.6715614,1.578048,0.2179036,0.05821098,1.426545,0.2957582,280.8593,60.99215,189.9305,True
2,0.9888902,-0.02699324,0.04825167,-0.1234739,4.710186,-4.681149,-2.186404,0.3644754,1.345441,0.4008563,-1.212009,0.4536596,0.8,59.1,-0.1733872,0.09179074,0.01989005,-0.3936722,-4.131872,0.04828071,0.5110334,1.547415,0.3353379,-0.0647324,0.2567815,0.06242768,-1.067165,0.5731565,-0.0716369,0.6697227,1.578029,0.2174773,0.05514873,1.424757,0.2956823,280.49,59.52793,191.4691,True
2,1.000001,-0.008882107,0.03764763,-0.1287868,4.710643,-4.683438,-2.186773,0.3629708,1.345366,0.4003146,-1.205894,0.5514754,0.8,59.1,-0.1536947,0.1405529,0.05508505,-0.3916839,-4.124047,0.04207635,0.5092639,1.547299,0.3344681,-0.05511115,0.251413,0.06767865,-1.066246,0.5759609,-0.07282893,0.6678344,1.577969,0.2171714,0.05219652,1.422897,0.2957578,280.1228,58.33225,192.8633,True
2,1.011112,0.004964147,0.04833558,-0.1235254,4.710577,-4.684922,-2.187314,0.3614229,1.345301,0.399688,-1.200767,0.4598463,0.6,55.4,-0.1184352,0.1712991,0.04853474,-0.3914037,-4.116278,0.03501737,0.5074085,1.547134,0.3336859,-0.03482379,0.2460191,0.07603198,-1.065153,0.5789458,-0.07440259,0.666038,1.577854,0.2168989,0.04933502,1.421051,0.295913,279.732,57.38019,194.0603,True
2,1.022224,0.01881817,0.08579645,-0.09710252,4.708713,-4.686832,-2.187988,0.3600575,1.344805,0.3989577,-1.194883,0.5298089,0.6,55.4,-0.09293383,0.2000473,0.02181871,-0.3919348,-4.107881,0.02753735,0.5056448,1.546954,0.3330209,-0.04016304,0.2513657,0.07288358,-1.064682,0.5824406,-0.07542551,0.6643121,1.577709,0.2165782,0.04682138,1.419107,0.2960579,279.4022,56.69373,194.9906,True
2,1.033335,0.01881642,0.1104029,-0.0759183,4.707167,-4.688089,-2.188114,0.3586575,1.344401,0.3983707,-1.188611,0.5643837,0.6,55.4,-0.07045408,0.2244467,0.0196054,-0.3917308,-4.099216,0.01956811,0.5038089,1.546864,0.3323536,-0.04314792,0.2492485,0.09741524,-1.062986,0.5856895,-0.07645829,0.6625918,1.577653,0.21627,0.04446606,1.417102,0.2961935,279.1314,55.86365,195.9795,True
2,1.044446,0.02414695,0.157465,-0.04101636,4.704134,-4.689678,-2.188524,0.3573774,1.343896,0.3976798,-1.182042,0.5911766,0.5,53.2,-0.05438934,0.2104468,0.03966206,-0.3906058,-4.094199,0.01502289,0.5021552,1.546924,0.3319492,-0.04837686,0.2364882,0.1134451,-1.061356,0.5883772,-0.077033,0.6609142,1.577617,0.2159827,0.04215441,1.415021,0.2962912,278.9318,54.56938,197.4172,True
2,1.055557,0.03694842,0.1874914,-0.002824992,4.700996,-4.690453,-2.189419,0.3561572,1.343409,0.3971391,-1.174607,0.6700572,0.5,53.2,-0.05754781,0.1816097,0.06300901,-0.3890655,-4.091823,0.01362766,0.5005184,1.546815,0.3314006,-0.04407051,0.2162262,0.1251342,-1.059642,0.5903193,-0.0777675,0.6591995,1.577516,0.2156818,0.03988898,1.412769,0.2963431,278.794,52.79007,199.3345,True
2,1.066668,0.05080381,0.1950333,0.01097132,4.698746,-4.691495,-2.190425,0.3549284,1.343007,0.3964679,-1.16766,0.6244258,0.5,55.3,-0.02486731,0.1121932,0.06355638,-0.3880998,-4.094925,0.01565007,0.499232,1.546685,0.3308575,-0.031361,0.1970087,0.1239588,-1.058486,0.5921306,-0.07873023,0.6575585,1.577526,0.2153909,0.03758501,1.410355,0.296317,278.5962,50.56603,201.6813,True
2,1.077779,0.07639454,0.1844818,0.02804478,4.696918,-4.691844,-2.192122,0.3539474,1.342647,0.3959222,-1.16075,0.6213978,0.5,55.3,-0.002834462,0.07913667,0.04194637,-0.3884886,-4.095597,0.01559654,0.4976639,1.546493,0.3303084,-0.01453936,0.1628518,0.1110295,-1.057743,0.5927449,-0.07949909,0.6560684,1.5774,0.2150526,0.0352825,1.407782,0.2962285,278.3642,47.69221,204.6457,True
2,1.08889,0.08066051,0.1770392,0.03021108,4.695305,-4.692506,-2.19311,0.3528183,1.342305,0.3953025,-1.153216,0.6782352,0.4,55.9,0.008701954,0.08131421,0.01629525,-0.3891581,-4.092452,0.01217464,0.4963271,1.546308,0.3298519,-0.01573655,0.1522031,0.1003884,-1.057104,0.5944053,-0.0800184,0.6546041,1.577294,0.2148163,0.03302902,1.405037,0.2960686,278.129,44.44796,207.9841,True
2,1.100002,0.08492924,0.1685296,0.03238147,4.693794,-4.693071,-2.194203,0.351747,1.341896,0.3947337,-1.145991,0.6493308,0.4,55.9,-0.01048022,0.09636643,0.005850762,-0.3894628,-4.088167,0.009023589,0.4949363,1.546141,0.3293357,-0.02754108,0.1373065,0.09517536,-1.05619,0.5953189,-0.07985622,0.6531926,1.577257,0.2145193,0.03083451,1.402119,0.2958083,277.8537,41.16117,211.3747,True
2,1.111113,0.08811251,0.172748,0.02276619,4.692191,-4.694467,-2.19527,0.3507904,1.341505,0.3940284,-1.137234,0.7896773,0.4,55.9,-0.04343221,0.1242614,-0.00229957,-0.3897014,-4.081919,0.005011803,0.4936334,1.545916,0.3288023,-0.03302658,0.1202853,0.08350967,-1.055706,0.5963793,-0.0797915,0.6518445,1.577145,0.2142842,0.02878887,1.398992,0.2954357,277.5665,37.74625,214.8614,True
2,1.122224,0.08809674,0.1812498,0.01739956,4.69026,-4.695805,-2.196176,0.3499272,1.340949,0.3935728,-1.129023,0.7383292,0.5,60.1,-0.03900942,0.1273576,0.01685385,-0.3887512,-4.078063,0.00176754,0.4924212,1.545676,0.3283823,-0.02683932,0.1042645,0.06535328,-1.055606,0.5967395,-0.08004344,0.6504576,1.577018,0.2140641,0.0267203,1.395741,0.2949573,277.2718,33.896,218.7418,True
2,1.133335,0.08275701,0.1972247,0.01626298,4.687991,-4.697238,-2.196992,0.3490571,1.340541,0.3930657,-1.120667,0.7521264,0.5,60.1,-0.02747689,0.1135123,0.001789317,-0.3893589,-4.075962,-0.0002969425,0.4911131,1.545503,0.327956,-0.009742625,0.1095219,0.06841601,-1.054522,0.5982665,-0.08139446,0.6491532,1.576851,0.2138681,0.02464424,1.3924,0.2944166,276.9917,29.59418,223.0443,True
2,1.144446,0.07528139,0.1951008,0.01735286,4.686307,-4.698125,-2.1976,0.3481394,1.340212,0.3926592,-1.112089,0.7722139,0.4,55.1,-0.01704763,0.1039603,-0.02069556,-0.3902431,-4.07358,-0.002659166,0.4899364,1.545368,0.3276989,-0.004374065,0.1148378,0.07156777,-1.053715,0.600129,-0.0823729,0.6478311,1.576837,0.2136295,0.0226087,1.388992,0.2938959,276.7348,24.8907,227.7153,True
2,1.155557,0.0732156,0.1812235,0.0163222,4.684731,-4.699345,-2.198407,0.3472266,1.339847,0.3922479,-1.103498,0.7732828,0.4,55.1,-0.008758463,0.07947409,-0.03470937,-0.3911523,-4.073452,-0.002919357,0.4887824,1.545203,0.3273063,0.001212239,0.1105449,0.09496368,-1.052209,0.6015496,-0.08332419,0.6464907,1.576838,0.2133849,0.02066106,1.385543,0.2935037,276.5446,19.65889,232.8877,True
2,1.166668,0.07002676,0.1524766,0.01967737,4.684,-4.699321,-2.199118,0.3463511,1.339494,0.3918085,-1.094758,0.7867227,0.4,53.2,0.01156764,0.09427416,-0.03373929,-0.391473,-4.06969,-0.007288273,0.4876648,1.544937,0.3269467,0.00117062,0.09670037,0.102421,-1.050531,0.6021047,-0.08361447,0.645249,1.576766,0.2132337,0.01873876,1.382145,0.2932852,276.4409,13.89707,238.6562,True
2,1.17778,0.06150886,0.1258185,0.01556523,4.683562,-4.699483,-2.199536,0.3453961,1.339147,0.3914847,-1.08634,0.7572834,0.4,53.2,0.02224879,0.1016771,-0.03486194,-0.3919337,-4.066184,-0.0110918,0.4864843,1.544713,0.3266008,0.003228202,0.08282036,0.09815319,-1.049467,0.6023456,-0.08390769,0.6440633,1.57666,0.2128985,0.01682938,1.378856,0.2932173,276.4,8.256987,244.386,True
2,1.188891,0.05405543,0.09914473,0.008258142,4.683378,-4.699634,-2.19991,0.3444913,1.338872,0.391125,-1.077655,0.7818627,0.5,52.9,0.03508805,0.1325564,-0.04762425,-0.3929846,-4.059428,-0.01819871,0.4853554,1.544466,0.3262448,0.01492146,0.08702601,0.09272854,-1.048604,0.6034954,-0.08517241,0.6428751,1.576536,0.2126071,0.01498136,1.375669,0.2932566,276.4251,3.306875,249.4937,True
2,1.200002,0.04234175,0.07993303,0.003045138,4.683147,-4.699815,-2.200044,0.3435521,1.338533,0.3909044,-1.068663,0.8096771,0.5,52.9,0.02667478,0.1357463,-0.0347636,-0.3929611,-4.055245,-0.02193406,0.4842468,1.544286,0.3260202,0.02449389,0.07634301,0.09477573,-1.047508,0.6041867,-0.0861522,0.6416872,1.576458,0.2122929,0.01325223,1.37254,0.2932763,276.4903,359.0368,253.9649,True
2,1.211113,0.03062264,0.07672057,0.0009417757,4.682574,-4.700289,-2.199999,0.3426225,1.338241,0.3906512,-1.059875,0.7906962,0.5,52.9,0.02667171,0.1272043,-0.02947487,-0.3932237,-4.052368,-0.02486993,0.4831826,1.544028,0.3257368,0.02020837,0.05397208,0.1001492,-1.046032,0.6039376,-0.0860265,0.6406152,1.576452,0.2119684,0.01157145,1.369463,0.2931966,276.5595,354.9868,258.1671,True
2,1.222224,0.009319973,0.05429811,-0.006383307,4.682871,-4.700392,-2.199412,0.3417793,1.337922,0.3904734,-1.050904,0.8077366,0.4,58.6,0.04161519,0.1249798,-0.02427507,-0.3934075,-4.048749,-0.02916002,0.4821408,1.543907,0.3254781,0.01794685,0.04545493,0.08845165,-1.045467,0.6042272,-0.08629201,0.6394706,1.576369,0.2116382,0.00993315,1.366421,0.2929893,276.6284,350.9399,262.2876,True
2,1.233335,0.001860807,0.04788119,-0.01060617,4.682737,-4.70079,-2.199194,0.3409219,1.33764,0.3902717,-1.041953,0.8056959,0.4,58.6,0.04897577,0.1079059,-0.02546825,-0.3938165,-4.047052,-0.03148336,0.4811215,1.543641,0.3252089,0.02101824,0.03371313,0.07884353,-1.04484,0.6041451,-0.08661532,0.6384919,1.576224,0.2113419,0.008303763,1.363406,0.2926872,276.7211,346.8613,266.3517,True
2,1.244446,-0.002398591,0.03721677,-0.01267873,4.682756,-4.701005,-2.199003,0.3400235,1.337508,0.3902402,-1.032667,0.8363343,0.6,54.9,0.05520466,0.08873233,-0.03411614,-0.3945297,-4.046175,-0.03308019,0.4801319,1.543531,0.3249552,0.0188964,0.02844294,0.07993291,-1.043938,0.6053374,-0.08758817,0.6374176,1.575927,0.2108397,0.006688369,1.360417,0.2923419,276.8482,342.81,270.3618,True
2,1.255558,-0.002401433,0.02653966,-0.016885,4.683033,-4.701184,-2.198911,0.3390883,1.337309,0.3900833,-1.024232,0.7582937,0.6,54.9,0.06689017,0.08976643,-0.03953143,-0.3951907,-4.043125,-0.03706614,0.4791114,1.543377,0.3247933,0.01467707,0.02098723,0.08637583,-1.042535,0.6052487,-0.08772346,0.6362718,1.575855,0.2105196,0.005137824,1.357453,0.2919839,276.9797,338.7422,274.391,True
2,1.266669,0.009323311,0.02337341,-0.01154929,4.6829,-4.701125,-2.19943,0.3382682,1.337211,0.3898525,-1.015536,0.7828726,0.6,56.1,0.071155,0.08226711,-0.03426751,-0.395423,-4.04139,-0.03961825,0.4781403,1.543275,0.3245902,0.001814488,0.02529875,0.07583065,-1.042205,0.6059597,-0.08765608,0.6351928,1.575914,0.2106242,0.003627855,1.354536,0.2916593,277.1493,334.8333,278.2492,True
2,1.27778,0.01144941,0.03295889,-0.01266265,4.6824,-4.70167,-2.199676,0.3373823,1.33699,0.389662,-1.006822,0.7841329,0.6,56.1,0.06578428,0.07377294,-0.03425532,-0.3957553,-4.040021,-0.0413778,0.4771945,1.543085,0.3243785,-0.00140984,0.02103042,0.07373063,-1.041438,0.6058643,-0.08754982,0.6341535,1.575872,0.2103806,0.0021242,1.351677,0.2914081,277.3506,331.2078,281.8358,True
2,1.288891,0.01462788,0.07348117,-0.005414926,4.680504,-4.702909,-2.199959,0.336608,1.336723,0.3894055,-0.9985746,0.7414735,0.8,49.7,0.06367561,0.07484013,-0.03210891,-0.3961692,-4.037808,-0.04402685,0.4762131,1.543065,0.3242002,-0.0003865361,0.007174967,0.07372065,-1.040605,0.6053976,-0.08737405,0.6330973,1.575826,0.2103589,0.0006394065,1.348848,0.2912206,277.5807,328.0558,285.013,True
2,1.300002,0.01674456,0.1129418,0.003975593,4.678309,-4.704055,-2.200261,0.3358523,1.336345,0.3890889,-0.989424,0.8243671,0.8,49.7,0.08101647,0.1098461,-0.01612571,-0.3959258,-4.031639,-0.05115879,0.4752546,1.542754,0.3239629,0.0006757788,0.008241037,0.07371348,-1.039765,0.6057326,-0.08749283,0.6319644,1.575777,0.2101657,-0.0007653497,1.345999,0.2910618,277.8458,325.4046,287.7268,True
2,1.311113,0.01139725,0.155612,0.01655395,4.675431,-4.705369,-2.20019,0.3350967,1.335991,0.3887832,-0.9804534,0.80712,0.8,49.7,0.07688552,0.130096,-0.01281966,-0.3961138,-4.026216,-0.05689631,0.4743446,1.542582,0.3237841,-0.004575428,0.01890503,0.07802694,-1.038691,0.606415,-0.08765129,0.6308969,1.57568,0.2100182,-0.002163015,1.343095,0.2909431,278.1589,323.0272,290.1355,True
2,1.322224,0.001804598,0.179088,0.02603116,4.672922,-4.706474,-2.199927,0.3342119,1.335633,0.3885257,-0.9715222,0.80382,0.4,51.9,0.07260872,0.1108997,-0.002204493,-0.3957319,-4.024683,-0.05893921,0.473338,1.542277,0.3236332,0.005017128,0.01568063,0.08007158,-1.03773,0.6066311,-0.088075,0.6297151,1.575597,0.209831,-0.003546326,1.340122,0.2909105,278.5604,320.9468,292.2459,True
2,1.333336,-0.01737308,0.2100486,0.04187167,4.669588,-4.707656,-2.199153,0.3332705,1.335126,0.388181,-0.9621937,0.8401104,0.4,51.9,0.0691558,0.09395371,-0.02354798,-0.396746,-4.0238,-0.06034217,0.4723875,1.541929,0.3235402,0.02083139,0.01455772,0.06182276,-1.037585,0.606656,-0.08887794,0.6286163,1.575301,0.2097719,-0.004910565,1.337068,0.2909604,279.0171,319.1251,294.1441,True
2,1.344447,-0.0344333,0.2484524,0.05447996,4.665745,-4.70916,-2.198237,0.3322599,1.334603,0.3878071,-0.9530388,0.8239614,0.3,44.8,0.07942681,0.0641905,-0.05356513,-0.3982635,-4.024782,-0.0607009,0.4713261,1.541563,0.3237038,0.02813827,0.01772969,0.04471282,-1.037695,0.6070368,-0.08949552,0.627439,1.575147,0.2097695,-0.006310068,1.333977,0.2910713,279.5258,317.3529,296.0289,True
2,1.355558,-0.04722103,0.278334,0.0671284,4.661734,-4.710562,-2.197403,0.3312443,1.334104,0.3873818,-0.9436102,0.8491551,0.3,44.8,0.08150111,0.05887159,-0.05786721,-0.3990656,-4.023534,-0.06288069,0.4702247,1.541208,0.3236642,0.03444059,0.02942217,0.03079902,-1.037963,0.6077743,-0.09041032,0.6262953,1.574883,0.2097816,-0.007798176,1.330893,0.2912039,280.0341,315.7184,297.7967,True
2,1.366669,-0.06961893,0.3412383,0.08068585,4.656168,1.570328,-2.196002,0.3301086,1.333403,0.3869524,-0.93454,0.8161912,0.4,35,0.08872522,0.06536099,-0.09092817,-0.40139,-4.021379,-0.06597076,0.4689578,1.540804,0.3239191,0.05039037,0.03044193,0.02745651,-1.037816,0.6082795,-0.09168358,0.625017,1.574802,0.209826,-0.009389369,1.32787,0.2913227,280.5781,314.4437,299.211,True
2,1.37778,-0.08880199,0.3689753,0.09014794,4.651488,1.568436,-2.194563,0.3289101,1.332787,0.3865845,-0.9257638,0.7895834,0.4,35,0.08746497,0.0590625,-0.1122597,-0.4034742,-4.020365,-0.06783151,0.4675972,1.540371,0.3239172,0.05901251,0.03467883,0.03696615,-1.037164,0.6089926,-0.0929619,0.6236824,1.574611,0.2098362,-0.01105827,1.324955,0.2914073,281.1448,313.4635,300.3285,True
2,1.388891,-0.0983837,0.3775558,0.1028969,4.646926,1.56709,-2.193222,0.3276836,1.332152,0.3862259,-0.9163191,0.850959,0.4,35,0.08300921,0.06665819,-0.1420246,-0.4061581,-4.018278,-0.07051917,0.4663287,1.539851,0.3239486,0.06881069,0.05170453,0.05604991,-1.036081,0.6105474,-0.0946056,0.6223078,1.574335,0.2098539,-0.01275063,1.322167,0.2914411,281.6953,312.7956,301.1094,True
2,1.400002,-0.112226,0.3733331,0.1125159,4.642962,1.566112,-2.191592,0.3264096,1.331634,0.3858857,-0.9075297,0.7906206,0.3,40.1,0.08403295,0.08697181,-0.1600637,-0.4086141,-4.01436,-0.07499488,0.4648328,1.539274,0.3239331,0.07325204,0.06980285,0.06985743,-1.03499,0.6122593,-0.09642561,0.6209397,1.574111,0.2098684,-0.01452471,1.31953,0.2914646,282.2574,312.4594,301.5159,True
2,1.411114,-0.1175422,0.363769,0.1178946,4.63914,1.565206,-2.190187,0.3250565,1.331028,0.3854859,-0.8990811,0.7601707,0.3,40.1,0.09266423,0.112502,-0.1621639,-0.4105913,-4.009678,-0.08053053,0.4636183,1.538637,0.323925,0.08402063,0.0836291,0.07827801,-1.034129,0.6141031,-0.09856652,0.6194725,1.573794,0.2099135,-0.01632324,1.317046,0.2914848,282.7618,312.1614,301.8895,True
2,1.422225,-0.1356412,0.3638145,0.128559,4.634828,1.564233,-2.188204,0.323418,1.330328,0.3850057,-0.8903448,0.7867197,0.6,30.2,0.09725535,0.1432841,-0.1397037,-0.4115447,-4.00346,-0.08742119,0.4620869,1.537847,0.3239179,0.08731481,0.06764679,0.09422341,-1.032698,0.6145763,-0.09993751,0.6179137,1.573494,0.2099087,-0.01807487,1.31469,0.291469,283.2141,311.9508,302.199,True
2,1.433336,-0.1473517,0.3638122,0.1296341,4.630671,1.563083,-2.186364,0.3218342,1.329595,0.3845508,-0.8821322,0.738636,0.6,30.2,0.1016238,0.1634984,-0.1385958,-0.4133087,-3.99771,-0.09393049,0.4604398,1.537031,0.3239083,0.09480654,0.0548474,0.1026777,-1.03141,0.6150444,-0.1014419,0.616202,1.573157,0.2099099,-0.01979268,1.31245,0.2913678,283.6283,311.7479,302.5083,True
2,1.444447,-0.1686609,0.3744787,0.1338576,4.626021,1.561737,-2.183883,0.3200784,1.328753,0.3840573,-0.8732388,0.8013948,0.8,22.8,0.07684816,0.1744408,-0.1799094,-0.4169317,-3.992727,-0.09849168,0.4586014,1.536114,0.3240144,0.1109763,0.06545744,0.1206433,-1.029588,0.6166316,-0.1039653,0.6145306,1.572912,0.2099724,-0.02156181,1.310281,0.2911462,283.9948,311.7254,302.6166,True
2,1.455558,-0.1931698,0.396805,0.1273738,4.621106,1.559723,-2.181247,0.3180912,1.327852,0.3834875,-0.8651587,0.726593,0.8,22.8,0.06512408,0.1905205,-0.1904076,-0.41963,-3.986981,-0.1040247,0.456836,1.535282,0.3239548,0.1392061,0.100533,0.1683255,-1.026353,0.6198205,-0.1080756,0.6126742,1.572606,0.2099917,-0.02352362,1.308156,0.2907942,284.3773,311.7869,302.6004,True
2,1.466669,-0.2112937,0.4202344,0.1283359,4.61593,1.557835,-2.178545,0.3160774,1.326905,0.3828912,-0.8565711,0.7738596,1.5,18.7,0.0289464,0.2002911,-0.1911496,-0.4219225,-3.98148,-0.1082088,0.4549404,1.534338,0.3237891,0.1512508,0.1250124,0.196976,-1.023627,0.6227844,-0.1115079,0.6107925,1.572217,0.2100859,-0.02560299,1.306037,0.2903437,284.7521,311.8035,302.5772,True
2,1.47778,-0.2155662,0.436226,0.1303802,4.610791,1.555963,-2.176248,0.3140586,1.326044,0.3823733,-0.848522,0.7242851,1.5,18.7,0.009788811,0.2067805,-0.1920374,-0.4242075,-3.976216,-0.1124411,0.4531989,1.533398,0.3237526,0.1577892,0.1324514,0.2107661,-1.021041,0.625137,-0.1146901,0.6089727,1.571867,0.2101297,-0.0278836,1.303928,0.2898505,285.1572,311.7831,302.5602,True
2,1.488891,-0.2198249,0.4319624,0.1304051,4.606085,1.554491,-2.173784,0.3117794,1.32516,0.3817873,-0.8408303,0.6921934,1.5,18.7,0.004775852,0.2397574,-0.173763,-0.4259726,-3.967415,-0.1204447,0.4512848,1.532298,0.3236361,0.1600578,0.1431074,0.2224578,-1.018469,0.6278684,-0.117953,0.6070014,1.571413,0.2103078,-0.03040317,1.301853,0.2893908,285.5824,311.7697,302.5385,True
2,1.500003,-0.2230179,0.4127474,0.1219746,4.602275,1.553094,-2.171334,0.3096047,1.324362,0.3812861,-0.8338395,0.6285848,2.1,18.7,0.0001845658,0.220723,-0.2036345,-0.4293974,-3.963944,-0.1234812,0.4492322,1.531161,0.3234432,0.169728,0.1590565,0.226626,-1.016236,0.6308719,-0.1216338,0.6051016,1.57103,0.210408,-0.03301391,1.299833,0.2890114,286.0282,311.7847,302.5215,True
2,1.511114,-0.2208768,0.3828837,0.1146688,4.598926,1.552117,-2.169024,0.3072829,1.323603,0.3806868,-0.8265451,0.6569304,2.1,18.7,-0.00429371,0.2123124,-0.2260063,-0.4329048,-3.959868,-0.1269779,0.4472339,1.530063,0.3233082,0.1899684,0.1504759,0.2296384,-1.013816,0.6329353,-0.1254897,0.6030666,1.57053,0.2104394,-0.03562859,1.297885,0.2887268,286.4518,311.865,302.4886,True
2,1.522225,-0.2134125,0.3562391,0.1116016,4.595671,1.551342,-2.166952,0.3049489,1.322801,0.3802137,-0.8195026,0.6336949,2.9,21.3,-0.0003316998,0.1910793,-0.2506208,-0.4365656,-3.957733,-0.1290626,0.4451221,1.529015,0.3232551,0.2058804,0.1440496,0.2263145,-1.011436,0.6350937,-0.1291961,0.6008914,1.570046,0.2106736,-0.03828387,1.296011,0.2884969,286.8281,311.9814,302.4722,True
2,1.533336,-0.2102104,0.3445016,0.1073998,4.592181,1.55031,-2.164897,0.3025507,1.321989,0.3796842,-0.8129086,0.5931578,2.9,21.3,0.01049092,0.1866673,-0.2262219,-0.4384314,-3.953711,-0.1332025,0.4430108,1.527843,0.3230588,0.2038653,0.1515173,0.2369831,-1.008752,0.6378543,-0.1327714,0.5986085,1.569481,0.2107172,-0.04090041,1.294214,0.2882861,287.1529,312.0173,302.5514,True
2,1.544447,-0.2038116,0.3125193,0.1022252,4.589659,1.549774,-2.162853,0.3000544,1.321135,0.3792655,-0.8066411,0.5638572,3.3,24.4,-0.001058847,0.2090711,-0.2185843,-0.4409114,-3.947197,-0.138842,0.4406791,1.52651,0.3227811,0.1979274,0.1898936,0.2743202,-1.004885,0.6426349,-0.1373262,0.5962095,1.568968,0.2106497,-0.04351483,1.292493,0.2880383,287.4394,312.0613,302.6223,True
2,1.555558,-0.1974126,0.2954624,0.09910918,4.58686,1.549085,-2.160957,0.2975368,1.320271,0.3787658,-0.8003012,0.5708041,3.3,24.4,-0.02746207,0.2336595,-0.2044329,-0.443289,-3.939701,-0.1443729,0.4384118,1.525228,0.322463,0.2101133,0.2143654,0.318947,-1.000391,0.6471944,-0.1424655,0.5938227,1.568425,0.2106652,-0.04612432,1.290823,0.2877241,287.7072,312.1725,302.5845,True
2,1.566669,-0.1942047,0.2794954,0.09918048,4.583923,1.548399,-2.158987,0.2947623,1.319337,0.3783844,-0.7943144,0.5387108,3.3,24.4,-0.04011545,0.2379304,-0.190468,-0.4453338,-3.933766,-0.1488268,0.4360172,1.523743,0.3221335,0.2264041,0.2260273,0.346471,-0.9964516,0.6513091,-0.1481429,0.5913601,1.567645,0.2103698,-0.04878325,1.289182,0.2873363,287.9661,312.2957,302.4996,True
2,1.577781,-0.2133851,0.2687783,0.08752987,4.581379,1.547403,-2.156072,0.2918561,1.318246,0.3779256,-0.7886744,0.50747,3.4,26.2,-0.04136533,0.2412359,-0.216025,-0.4491549,-3.928403,-0.1532111,0.4334571,1.52212,0.3217735,0.2285877,0.2292706,0.3485462,-0.993522,0.6558696,-0.1534569,0.5889637,1.566622,0.2101352,-0.05150285,1.287541,0.2868729,288.1848,312.3152,302.487,True
2,1.588892,-0.2293616,0.2666141,0.0801008,4.578352,1.546244,-2.153245,0.289038,1.317178,0.3775873,-0.7830807,0.5036213,3.4,26.2,-0.03629369,0.2221164,-0.2363781,-0.452756,-3.925335,-0.1557369,0.4308982,1.52067,0.3213921,0.2307394,0.2367202,0.3485252,-0.9901148,0.660032,-0.1583553,0.586372,1.56602,0.2100806,-0.05431446,1.285886,0.28635,288.4105,312.309,302.4707,True
2,1.600003,-0.2560082,0.2494569,0.05785407,4.576216,1.544995,-2.149656,0.2861351,1.316053,0.3775349,-0.7767982,0.5667678,3.5,25.6,-0.04155248,0.2370622,-0.237339,-0.4558,-3.919262,-0.160575,0.4280716,1.51897,0.3209479,0.1968055,0.2570824,0.3584037,-0.9864093,0.6651149,-0.1622757,0.5836603,1.565338,0.2105105,-0.05733591,1.284208,0.2858078,288.6323,312.3206,302.4086,True
2,1.611114,-0.2762492,0.2205588,0.03351302,4.575237,1.543865,-2.146157,0.2831878,1.315064,0.377212,-0.77171,0.4571594,3.5,25.6,-0.04149407,0.2445092,-0.2341154,-0.458697,-3.913429,-0.1653059,0.4253794,1.517334,0.3204865,0.1831339,0.2667184,0.3755635,-0.9823868,0.66984,-0.1664111,0.5809662,1.564511,0.2104576,-0.06056696,1.282526,0.2853034,288.871,312.2278,302.4335,True
2,1.622225,-0.2868979,0.1831696,0.01026108,4.574677,1.542654,-2.142898,0.2801994,1.314069,0.3772795,-0.7661174,0.5044363,3.3,22.7,-0.05707058,0.2988411,-0.2178103,-0.4615844,-3.903257,-0.1733523,0.4225748,1.515701,0.3201063,0.1759891,0.2710201,0.4097163,-0.9773641,0.6747427,-0.1707861,0.5781703,1.563802,0.2105887,-0.06384788,1.280893,0.2849258,289.1129,312.0653,302.4933,True
2,1.633336,-0.2922118,0.1426144,-0.003380328,4.574724,1.54215,-2.139588,0.2772129,1.313162,0.3770595,-0.761606,0.4053745,3.3,22.7,-0.06211686,0.2891142,-0.1751957,-0.4625058,-3.897156,-0.1779026,0.4197761,1.514032,0.3195868,0.1741709,0.2763591,0.4427613,-0.9719664,0.6798642,-0.1755476,0.575478,1.563013,0.2104838,-0.0671691,1.279369,0.2847668,289.3194,311.8012,302.6803,True
2,1.644447,-0.298596,0.09454529,-0.02870269,4.575863,1.541455,-2.136126,0.2740483,1.31213,0.3769205,-0.7575559,0.3642225,3.8,19.8,-0.08386436,0.3326717,-0.1237455,-0.4633426,-3.886999,-0.1854945,0.4167899,1.512215,0.319097,0.1960135,0.2752444,0.5022216,-0.9649677,0.6852045,-0.1816303,0.5726069,1.56214,0.2104168,-0.07050056,1.278017,0.2848407,289.4423,311.5239,302.9636,True
2,1.655559,-0.3092457,0.06569134,-0.04559512,4.5767,1.540673,-2.132401,0.2709091,1.311074,0.3767459,-0.7535084,0.3643459,3.8,19.8,-0.1350402,0.3254817,-0.1244207,-0.4653096,-3.880047,-0.1885595,0.4139415,1.510216,0.3182831,0.1962317,0.2635295,0.5309854,-0.9586831,0.6897048,-0.1863837,0.5696449,1.561071,0.2103374,-0.0738065,1.276847,0.2851689,289.4956,311.4068,303.1394,True
2,1.66667,-0.3294878,0.03890938,-0.07314184,4.577949,1.539405,-2.12826,0.2675787,1.309999,0.3766651,-0.7493677,0.3729712,3.8,19.8,-0.201933,0.3160972,-0.08984424,-0.4657901,-3.8731,-0.1901846,0.4110032,1.508195,0.3175814,0.1778862,0.2604326,0.5066531,-0.9545387,0.6948966,-0.1906482,0.5668049,1.559769,0.2099321,-0.07709908,1.275838,0.2856396,289.469,311.5382,303.1992,True
2,1.677781,-0.3593129,0.003607959,-0.09850408,4.579843,1.538388,-2.123404,0.2641007,1.309004,0.3766394,-0.745626,0.3370434,5.1,15.6,-0.2047153,0.3351257,-0.04819381,-0.4656633,-3.862994,-0.1968393,0.4081633,1.506207,0.3168883,0.1809227,0.2710698,0.4853151,-0.9506345,0.7000871,-0.1957658,0.5639608,1.558651,0.2098305,-0.08047927,1.274937,0.2861597,289.3614,311.7302,303.2111,True
2,1.688892,-0.3870013,-0.04019236,-0.1206323,4.582516,1.537654,-2.118287,0.260703,1.307967,0.3767538,-0.7421921,0.3095039,5.1,15.6,-0.186049,0.3497133,0.01351404,-0.4641639,-3.85188,-0.2055082,0.405195,1.504115,0.316045,0.1916555,0.3189746,0.4788176,-0.9466137,0.7077163,-0.2026436,0.5609936,1.557484,0.2099659,-0.08397098,1.27413,0.2866783,289.2581,311.9116,303.1873,True
2,1.700003,-0.4146793,-0.09781866,-0.1373681,4.586198,1.537474,-2.112829,0.2573124,1.30699,0.3769767,-0.7390155,0.2865199,6.5,12.2,-0.158489,0.3496459,-0.003739715,-0.465626,-3.843835,-0.2119024,0.4022835,1.501985,0.3153405,0.2101513,0.3690279,0.5042091,-0.9414903,0.7167471,-0.2108963,0.5580187,1.556264,0.2098663,-0.08768054,1.273438,0.2872071,289.1559,311.9337,303.255,True
2,1.711114,-0.4370221,-0.1692849,-0.1529737,4.590962,1.537774,-2.107261,0.2539389,1.306083,0.3772416,-0.7366996,0.2082981,6.5,12.2,-0.1214684,0.3378454,-0.02964641,-0.4676351,-3.837112,-0.2177622,0.3993868,1.499812,0.3147156,0.2244131,0.4009471,0.5392292,-0.9357097,0.7250811,-0.2187499,0.5550288,1.555054,0.209801,-0.09156644,1.272919,0.2877657,289.0277,311.7559,303.489,True
2,1.722225,-0.4476585,-0.2141146,-0.1687186,4.595367,1.537728,-2.102125,0.2506039,1.305188,0.3774805,-0.7347369,0.1768527,7.9,9.1,-0.09710379,0.292944,-0.01828802,-0.4677075,-3.833151,-0.2210075,0.3965271,1.497743,0.3139768,0.2268111,0.4179884,0.5637098,-0.9299982,0.7331873,-0.2261221,0.5520593,1.554006,0.2097216,-0.095435,1.272617,0.2883704,288.8199,311.5144,303.7719,True
2,1.733337,-0.462554,-0.2888404,-0.1981648,4.601779,1.537794,-2.096563,0.2473764,1.304417,0.3777947,-0.7332615,0.1326521,7.9,9.1,-0.08416477,0.2885284,0.005030788,-0.4674439,-3.826044,-0.2268302,0.393674,1.49557,0.3132851,0.22047,0.4222671,0.5680281,-0.924853,0.7407449,-0.2328596,0.5491168,1.552813,0.209573,-0.0991852,1.272557,0.2890099,288.5217,311.276,304.0631,True
2,1.744448,-0.4636113,-0.3486615,-0.2308901,4.608699,1.537606,-2.091438,0.2442328,1.303779,0.3780844,-0.7324545,0.07203462,7.9,9.1,-0.0972594,0.2406982,-0.003570288,-0.4680074,-3.823699,-0.2272747,0.3909305,1.493649,0.3123982,0.2162166,0.403144,0.575519,-0.9194308,0.7476815,-0.2392272,0.5463462,1.551395,0.2092249,-0.1027931,1.27274,0.2896535,288.1442,311.0971,304.304,True
2,1.755559,-0.4454902,-0.398856,-0.2583489,4.615547,1.537352,-2.087317,0.2412022,1.303164,0.37834,-0.731059,0.1264737,9.1,6.9,-0.1033122,0.2373488,0.04227732,-0.4665352,-3.817465,-0.2314708,0.3882616,1.491788,0.3116074,0.2008189,0.3637738,0.535186,-0.9156874,0.7524638,-0.2438321,0.5436785,1.549915,0.2088928,-0.1062693,1.273118,0.290292,287.7005,311.0745,304.3783,True
2,1.76667,-0.4380338,-0.4245139,-0.2774027,4.62218,1.536879,-2.082753,0.2382439,1.302552,0.378644,-0.7305354,0.04626805,9.1,6.9,-0.1025322,0.2572513,0.1297109,-0.4631035,-3.807119,-0.2395961,0.38567,1.489928,0.31076,0.1939635,0.333955,0.4937066,-0.9124192,0.7570265,-0.2485488,0.540996,1.54853,0.208591,-0.1096262,1.273625,0.2909312,287.1737,310.8564,304.6196,True
2,1.777781,-0.429511,-0.4298771,-0.2859052,4.627913,1.536237,-2.078319,0.2352608,1.301823,0.3789487,-0.7307789,-0.02304538,9.8,5,-0.09693509,0.242138,0.1754193,-0.4604632,-3.800314,-0.2446675,0.3831125,1.488117,0.3098323,0.184057,0.3169536,0.4650309,-0.9090567,0.7623646,-0.2534671,0.5383416,1.547143,0.2083681,-0.1128696,1.274206,0.2916014,286.6143,310.533,304.9517,True
2,1.788892,-0.4519045,-0.4320946,-0.2922572,4.63449,1.535581,-2.072605,0.2323511,1.300252,0.3769138,-0.7296736,0.1008421,9.8,5,-0.08060958,0.2397475,0.2210921,-0.4572371,-3.79247,-0.2513659,0.3805912,1.486218,0.3090091,0.1653857,0.2861022,0.4130044,-0.9069342,0.7657924,-0.2567442,0.5356842,1.545639,0.2080257,-0.115973,1.274752,0.2923168,286.0485,310.3614,305.1453,True
2,1.800003,-0.4966601,-0.3980113,-0.2891766,4.638544,1.534615,-2.065789,0.2297085,1.29949,0.3773775,-0.7290659,0.05424491,9.9,3.7,-0.07063498,0.2277605,0.2795578,-0.4530825,-3.784684,-0.2577852,0.3780242,1.484211,0.3082561,0.169605,0.2743803,0.4108328,-0.9033027,0.7706512,-0.2618934,0.5328864,1.544291,0.2078199,-0.1190283,1.27519,0.2930906,285.5483,310.2227,305.3177,True
2,1.811115,-0.5190388,-0.3863419,-0.2956067,4.643728,1.533411,-2.05941,0.2267583,1.298566,0.3776085,-0.7272656,0.1638538,9.9,3.7,-0.08631061,0.2116717,0.3286189,-0.4484928,-3.777493,-0.2628031,0.3754144,1.48221,0.3074646,0.1932181,0.2828332,0.4276629,-0.8989724,0.7766802,-0.2685976,0.5301341,1.542771,0.207551,-0.1221261,1.275443,0.2938265,285.0391,310.7048,305.1821,True
2,1.822226,-0.5147855,-0.3767697,-0.2967003,4.648768,1.532556,-2.053835,0.2239185,1.297776,0.3778446,-0.7256565,0.1455308,9.3,2.5,-0.1131175,0.2193676,0.3022245,-0.4468342,-3.769694,-0.267546,0.3729734,1.480303,0.3067739,0.203918,0.2923957,0.4296895,-0.8953025,0.7828593,-0.2750598,0.527521,1.541355,0.2073343,-0.1252298,1.275433,0.2941594,284.589,311.1926,305.1858,True
2,1.833337,-0.5179514,-0.4001501,-0.2848604,4.654733,1.532529,-2.047961,0.2208973,1.297197,0.3781724,-0.7257828,-0.01274513,9.3,2.5,-0.1047626,0.2247516,0.2776709,-0.4455005,-3.76215,-0.2734505,0.3704793,1.478388,0.3060744,0.2006745,0.2945395,0.4233267,-0.8918356,0.7886995,-0.2808791,0.5248528,1.539795,0.2070541,-0.1283066,1.275409,0.2942904,284.4064,310.3129,305.9729,True
2,1.844448,-0.5264193,-0.4533744,-0.2685778,4.662118,1.534031,-2.041675,0.2180629,1.296762,0.3786139,-0.726529,-0.06806632,9.3,2.5,-0.03387348,0.185132,0.2407443,-0.444194,-3.759106,-0.2781797,0.3682094,1.476512,0.3055401,0.1628087,0.2626938,0.3682604,-0.8904167,0.7919337,-0.2834623,0.5223498,1.538327,0.2066312,-0.1314891,1.275553,0.294446,284.194,308.986,307.0314,True
2,1.855559,-0.5199991,-0.4991604,-0.2651573,4.669747,1.534703,-2.036031,0.2152727,1.296309,0.3788614,-0.726211,0.02951501,8.4,1.9,-0.01497269,0.1712963,0.2149752,-0.4430648,-3.754522,-0.2826802,0.3658836,1.474692,0.3049653,0.1283551,0.2105849,0.3462139,-0.8876033,0.7936023,-0.2847321,0.5199369,1.536846,0.2062798,-0.1346621,1.275946,0.2947688,283.8807,307.9485,307.8878,True
2,1.86667,-0.4741476,-0.5631163,-0.2723506,4.679277,1.535603,-2.032387,0.2124159,1.295915,0.3789911,-0.7256922,0.04700834,8.4,1.9,-0.002492443,0.101974,0.2199376,-0.4401859,-3.755173,-0.2824841,0.3635018,1.472932,0.3043058,0.1211346,0.1775944,0.3814226,-0.8827708,0.7966368,-0.2879775,0.5175033,1.535379,0.2058423,-0.1377985,1.276618,0.2952504,283.4659,307.1906,308.6364,True
2,1.877781,-0.3888954,-0.600396,-0.2733236,4.688235,1.536344,-2.030746,0.2097182,1.295457,0.3789937,-0.7261114,-0.03882838,8.3,1.4,-0.04378662,0.1170022,0.2437513,-0.4372612,-3.748804,-0.286276,0.3612708,1.471065,0.3036692,0.1234799,0.1754415,0.4016172,-0.8786615,0.8006225,-0.2923024,0.515124,1.533773,0.2053885,-0.1407409,1.277564,0.2957625,282.9467,306.5344,309.4161,True
2,1.888893,-0.3622429,-0.6258819,-0.2604287,4.696265,1.53765,-2.027366,0.2070147,1.294987,0.3792014,-0.7279863,-0.1711096,8.3,1.4,-0.08415536,0.1470529,0.2399306,-0.4355738,-3.740497,-0.2914188,0.3589699,1.469331,0.3029318,0.1365432,0.1849983,0.4291948,-0.8738796,0.8057846,-0.2975821,0.5127206,1.532285,0.2051203,-0.143526,1.278711,0.2962099,282.2964,306.0547,310.0499,True
2,1.900004,-0.3536875,-0.6534813,-0.2411301,4.704623,1.539295,-2.023618,0.2042941,1.294531,0.3792775,-0.7298137,-0.1659303,7.9,1,-0.08074072,0.193919,0.2390131,-0.4342401,-3.730421,-0.2997476,0.3567886,1.46762,0.3021986,0.1227212,0.1967656,0.4271822,-0.8701341,0.8108862,-0.301913,0.510388,1.530842,0.2051017,-0.1461439,1.279822,0.2965137,281.4736,305.7198,310.5024,True
2,1.911115,-0.3834942,-0.6715438,-0.2271625,-1.570424,1.540946,-2.018362,0.2017629,1.293977,0.3793592,-0.7277913,0.185835,7.9,1,-0.08075783,0.2046075,0.2305353,-0.4328036,-3.722818,-0.3057506,0.3546582,1.465735,0.3015099,0.1172488,0.1946472,0.4123212,-0.8668786,0.8150893,-0.3056997,0.5081435,1.529343,0.2048869,-0.1485635,1.280563,0.2966373,280.6388,305.7018,310.5471,True
2,1.922226,-0.4410268,-0.6502022,-0.2144394,-1.563761,1.541836,-2.011618,0.1993794,1.293352,0.3792908,-0.7267846,0.08997767,7.9,1,-0.1032774,0.1941101,0.2189423,-0.431528,-3.717657,-0.3084511,0.3525659,1.463905,0.3008761,0.1061156,0.1456872,0.3815731,-0.8634799,0.8167756,-0.3073075,0.5060556,1.528013,0.2051218,-0.1510052,1.280815,0.2965645,280.0596,305.1637,311.0538,True
2,1.933337,-0.464485,-0.6246352,-0.2113457,-1.557302,1.542376,-2.005648,0.1969156,1.292838,0.3791871,-0.7249806,0.1641787,8,1.1,-0.1461202,0.2131537,0.2898089,-0.4280605,-3.707607,-0.3153082,0.3504066,1.462059,0.3002682,0.09077013,0.1297347,0.3391031,-0.8614719,0.8187879,-0.3091158,0.5040269,1.526459,0.2050126,-0.1535372,1.280624,0.2962599,279.6751,303.4831,312.705,True
2,1.944448,-0.4570601,-0.5788096,-0.2094529,-1.551886,1.542308,-2.000898,0.1944882,1.292249,0.3790481,-0.7232858,0.1536224,8,1.1,-0.1729975,0.1994933,0.2919375,-0.4246075,-3.700455,-0.3182928,0.3483666,1.460303,0.2995479,0.08847229,0.1350672,0.3210342,-0.8588876,0.8224147,-0.312253,0.501938,1.524962,0.204695,-0.1561002,1.280175,0.2957433,279.4939,300.8076,315.306,True
2,1.955559,-0.2993769,-0.601019,-0.1956246,-1.544451,1.543935,-2.002751,0.1917598,1.292076,0.3789899,-0.7240224,-0.06836594,8,0.8,-0.2011664,0.2201557,0.2197912,-0.425856,-3.693514,-0.3213826,0.3464665,1.458389,0.2987583,0.0969609,0.1691207,0.3060374,-0.8570254,0.8274365,-0.3168877,0.4998787,1.523331,0.2045414,-0.1587013,1.279806,0.2950965,279.4968,297.8156,318.1732,True
2,1.966671,-0.2716994,-0.5935563,-0.198876,-1.537751,1.54442,-2.00068,0.1891983,1.291664,0.3789086,-0.7254499,-0.1297005,8,0.8,-0.1809425,0.2168599,0.2196209,-0.4242884,-3.68629,-0.3266719,0.3444404,1.456558,0.2981224,0.1110563,0.1872,0.3304234,-0.8534137,0.8328193,-0.3218862,0.4978699,1.521775,0.2042959,-0.1613187,1.279777,0.2944263,279.45,295.0927,320.735,True
2,1.977782,-0.2545403,-0.6275258,-0.1721039,-1.530134,1.547063,-1.998193,0.1868191,1.291338,0.3787179,-0.7319469,-0.5931003,8,0.6,-0.1685378,0.1518449,0.2128749,-0.4219395,-3.685992,-0.3256018,0.3424586,1.454731,0.2972691,0.08788785,0.1830278,0.3647378,-0.8489353,0.8375637,-0.3250412,0.4958999,1.520291,0.2041097,-0.163878,1.280157,0.2938315,279.2309,293.0543,322.6271,True
2,1.988893,-0.2684328,-0.6553066,-0.1889809,-1.521518,1.547925,-1.994669,0.1844472,1.290954,0.3785589,-0.7282302,0.3443467,8,0.6,-0.2173993,0.2150223,0.1911315,-0.4220077,-3.674703,-0.331864,0.3403634,1.45286,0.2964225,0.0656634,0.187361,0.3798495,-0.8451409,0.8424264,-0.3282386,0.4938769,1.518847,0.2039738,-0.1662237,1.280558,0.2932974,278.5513,291.7634,323.825,True
2,2.000004,-0.2737463,-0.711888,-0.2110595,-1.511221,1.549155,-1.991501,0.182039,1.290622,0.3784721,-0.7267628,0.1303773,8,0.5,-0.2636215,0.2811356,0.2332897,-0.4200908,-3.659403,-0.3414303,0.3382558,1.451112,0.2955987,0.04236269,0.2034133,0.3917832,-0.8414513,0.8481577,-0.3315755,0.4920009,1.517335,0.2038696,-0.1684868,1.280708,0.2928302,277.9716,290.6025,324.9257,True
2,2.011115,-0.267332,-0.7694179,-0.2118355,-1.500689,1.551308,-1.988753,0.1796226,1.290347,0.3783379,-0.7254397,0.1198849,8,0.5,-0.2836285,0.3088847,0.2463404,-0.4184487,-3.646872,-0.34904,0.3363381,1.449298,0.2947993,0.04991195,0.222565,0.3959702,-0.8381975,0.8540999,-0.3364076,0.4901003,1.515884,0.2038178,-0.170665,1.280569,0.2923041,277.5798,288.427,327.1368,True
2,2.022226,-0.25985,-0.8099125,-0.2148371,-1.490216,1.553197,-1.986243,0.177262,1.290088,0.378185,-0.7255372,-0.009752362,8,0.5,-0.2802474,0.3354706,0.2538616,-0.4173669,-3.633924,-0.3578524,0.3344304,1.447699,0.2940729,0.06982586,0.2267589,0.359585,-0.8362693,0.8589224,-0.340944,0.4883196,1.514513,0.2038031,-0.1729135,1.280216,0.2917237,277.3358,284.4691,331.0699,True
2,2.033337,-0.2491867,-0.8301457,-0.2136716,-1.480188,1.55512,-1.983925,0.1750491,1.289771,0.3779805,-0.7258355,-0.02715522,7.7,0.4,-0.2646636,0.2885964,0.2333191,-0.4160854,-3.628484,-0.3603366,0.3326959,1.445941,0.2934251,0.06848699,0.21716,0.3319021,-0.8343551,0.8627174,-0.3442034,0.48663,1.513106,0.2037828,-0.1752183,1.279731,0.2911287,277.1705,279.3112,336.1522,True
2,2.044448,-0.2172063,-0.8364239,-0.1934184,-1.470922,1.557722,-1.982828,0.1728775,1.289241,0.377527,-0.7259974,-0.01473616,7.7,0.4,-0.245885,0.2555941,0.2032155,-0.4155362,-3.623513,-0.3628094,0.3309315,1.44423,0.2928264,0.05336347,0.2118798,0.310729,-0.8325521,0.8668271,-0.3469076,0.4850317,1.511629,0.203661,-0.1775145,1.279171,0.2904901,277.0697,274.1526,341.2607,True
2,2.055559,-0.180986,-0.7936004,-0.1553103,-1.464165,1.560158,-1.982174,0.1709039,1.288518,0.3771322,-0.726065,-0.006129053,7.5,0.3,-0.1932312,0.2300163,0.1409135,-0.4167735,-3.619926,-0.3657663,0.329339,1.442346,0.2923462,0.04475066,0.2161637,0.2990865,-0.8306761,0.871421,-0.3501841,0.4834168,1.510201,0.2035837,-0.1797351,1.278567,0.2897819,277.0103,269.2495,346.1252,True
2,2.06667,-0.1799068,-0.7721328,-0.12346,-1.456828,1.563084,-1.980527,0.1688587,1.287736,0.3767555,-0.7270472,-0.08987326,7.5,0.3,-0.1675519,0.1716353,0.05632782,-0.4188146,-3.621249,-0.36342,0.3276026,1.440521,0.291872,0.05856541,0.217202,0.2979198,-0.8282292,0.8764966,-0.3545575,0.481653,1.508987,0.2037206,-0.1817937,1.277925,0.2889725,276.9636,264.7548,350.6057,True
2,2.077781,-0.1618365,-0.6590077,-0.08569448,-1.453942,1.564689,-1.979453,0.1668521,1.286702,0.3762608,-0.7273615,-0.02821385,7.1,0.5,-0.1624527,0.1439559,0.04446889,-0.4188428,-3.619264,-0.3635305,0.3259674,1.438791,0.2915044,0.07277456,0.2246288,0.3361423,-0.8245168,0.8822992,-0.359719,0.4799448,1.507641,0.2035007,-0.1836299,1.277175,0.2879817,276.8674,260.9183,354.4403,True
2,2.088892,-0.1576294,-0.5341974,-0.05223209,-1.452458,1.565834,-1.977956,0.164926,1.285536,0.3755844,-0.726081,0.1170524,7.1,0.5,-0.1628421,0.08007577,0.03570748,-0.4181653,-3.621389,-0.3597329,0.3243244,1.437161,0.2910068,0.06776705,0.2299727,0.3702778,-0.8205284,0.8882545,-0.3643582,0.4782575,1.506289,0.2034516,-0.1852688,1.27624,0.2867833,276.7644,257.8604,357.4264,True
2,2.100003,-0.1629946,-0.4328751,-0.02717465,-1.45115,1.566877,-1.976045,0.1631259,1.284403,0.3749454,-0.7264555,-0.03540378,7.1,0.5,-0.180986,0.08125713,0.03052964,-0.4183741,-3.618757,-0.3595164,0.3227037,1.435498,0.2904353,0.05579457,0.2150809,0.3437088,-0.8189018,0.8915774,-0.3669364,0.4767396,1.504717,0.2032228,-0.1869243,1.275145,0.2853683,276.7791,255.0873,0.03626537,True
2,2.111114,-0.1587675,-0.3582176,-0.01050903,-1.449883,1.567908,-1.974552,0.1615662,1.283248,0.3740866,-0.7259873,0.04309737,7,0.5,-0.2074447,0.1389712,0.01711702,-0.4198351,-3.61044,-0.3638701,0.3211357,1.43401,0.2897952,0.0468713,0.2065706,0.3022389,-0.8178248,0.8950717,-0.3694931,0.4752519,1.503502,0.2032542,-0.1886824,1.27398,0.2838479,276.8345,253.9173,0.9610136,True
2,2.122225,-0.1385671,-0.2750532,0.0007680058,-1.449527,1.568356,-1.973789,0.1599944,1.281988,0.373219,-0.7254056,0.05271328,7,0.5,-0.2159939,0.142236,0.01187078,-0.420478,-3.606453,-0.3648645,0.3194906,1.432539,0.2890859,0.03484291,0.1959431,0.2682344,-0.8169444,0.8982244,-0.3719088,0.4736917,1.502229,0.2033098,-0.1905074,1.272806,0.2823231,276.9155,253.5666,1.078617,True
2,2.133336,-0.1162553,-0.1791502,0.00346382,-1.450449,1.568125,-1.973143,0.158393,1.280722,0.3723516,-0.7256853,-0.02605569,6.8,0.6,-0.2288801,0.1476899,-0.003984639,-0.4215683,-3.602935,-0.3651356,0.3178786,1.430916,0.2884207,0.01744948,0.1917203,0.2311077,-0.8163739,0.9013764,-0.373621,0.4721793,1.500975,0.2032778,-0.192265,1.271704,0.2808625,277.0251,253.0776,1.394787,True
2,2.144447,-0.1077664,-0.1237432,0.005298998,-1.450609,1.568046,-1.972172,0.1567454,1.279417,0.3716908,-0.7264235,-0.06730882,6.8,0.6,-0.2341382,0.1615689,-0.003890453,-0.4224407,-3.597699,-0.3671354,0.3162262,1.429271,0.2877793,0.00967887,0.1959993,0.1949517,-0.8164368,0.9049503,-0.3758501,0.4707061,1.499697,0.2033744,-0.1938213,1.270712,0.2794847,277.0786,252.4135,1.959325,True
2,2.155558,-0.1056675,-0.0640596,0.01138088,-1.451549,1.567922,-1.971014,0.1550245,1.277904,0.3709571,-0.726545,-0.01064078,6.5,0.6,-0.2249096,0.1328684,-0.03071188,-0.4238335,-3.597472,-0.3650624,0.3144127,1.427617,0.2871644,0.008708149,0.1917413,0.2066839,-0.814555,0.9088838,-0.3787082,0.4691334,1.498537,0.2033424,-0.1952621,1.269824,0.2782359,277.0161,252.0245,2.246531,True
2,2.166669,-0.1014253,-0.03422899,0.01122677,-1.452202,1.567762,-1.970031,0.1532582,1.276504,0.3701797,-0.7260358,0.04649613,6.5,0.6,-0.2177345,0.1094787,-0.05216554,-0.4252163,-3.597822,-0.3626184,0.3126051,1.426073,0.2864909,-0.0103806,0.1896778,0.2164402,-0.8127685,0.9129545,-0.3808264,0.4675034,1.497496,0.2035053,-0.1967286,1.269005,0.2771855,276.8776,252.0066,2.150354,True
2,2.17778,-0.09505662,-0.002251731,0.0142556,-1.453232,1.567563,-1.96912,0.1514621,1.275205,0.3693857,-0.7256624,0.03359389,6.5,0.6,-0.2186462,0.1104725,-0.03297567,-0.4252754,-3.594768,-0.3630027,0.3107501,1.424498,0.2857289,-0.03472708,0.2099915,0.2273071,-0.8111882,0.9182625,-0.3831847,0.4658782,1.496286,0.2035143,-0.1983042,1.268198,0.2763743,276.7113,251.8049,2.274882,True
2,2.188891,-0.09079096,0.002065288,0.02488783,-1.453549,1.568177,-1.968298,0.1496632,1.273857,0.3686666,-0.7257098,-0.004626973,6.8,0.7,-0.2492274,0.1425084,-0.01236756,-0.425628,-3.58776,-0.3654752,0.3090825,1.422757,0.2850029,-0.01198861,0.256799,0.2505063,-0.8098779,0.9255185,-0.389071,0.4642738,1.494934,0.2035325,-0.2000332,1.267363,0.2757785,276.5443,252.0108,2.095317,True
2,2.200002,-0.09610359,-0.005331755,0.03770627,-1.453504,1.568995,-1.967111,0.1478278,1.272296,0.3678939,-0.7257077,0.0001579006,6.8,0.7,-0.2544307,0.1702471,-0.01541775,-0.4269612,-3.581431,-0.3683932,0.3074162,1.421026,0.2843659,0.005326241,0.2919028,0.2652289,-0.8086561,0.9326757,-0.3949242,0.4626148,1.493601,0.2034528,-0.2018888,1.26648,0.2753267,276.4348,252.5309,1.692835,True
2,2.211113,-0.1014202,-0.02022254,0.04311272,-1.453076,1.56987,-1.965846,0.1461766,1.270909,0.3670955,-0.7256155,0.008402994,6.7,1,-0.2375571,0.1414078,-0.01885227,-0.4274091,-3.580674,-0.367003,0.3058648,1.419405,0.2837441,0.003286391,0.30362,0.2716386,-0.8070987,0.939088,-0.3992579,0.4611372,1.492356,0.2034349,-0.2037952,1.265548,0.2749327,276.3744,253.2202,1.164866,True
2,2.222224,-0.100353,-0.02341111,0.04525635,-1.452908,1.570518,-1.964842,0.1446191,1.269403,0.3663027,-0.7251521,0.04222548,6.7,1,-0.2209149,0.09560493,-0.04260394,-0.4284355,-3.582899,-0.3631707,0.3043704,1.417934,0.2832737,0.01165101,0.2737755,0.2608866,-0.805978,0.9428964,-0.4024809,0.4596838,1.491176,0.2033949,-0.2056517,1.264528,0.2744752,276.294,253.5556,1.007789,True
2,2.233335,-0.09716937,-0.01491465,0.03988456,-1.453092,1.570717,-1.963885,0.1434124,1.268038,0.3655474,-0.7249876,0.01467619,6.2,1.4,-0.208258,0.07851279,-0.04702838,-0.4291535,-3.582699,-0.3613393,0.3029533,1.416359,0.2827423,0.02191859,0.2449638,0.228844,-0.8052754,0.9458246,-0.4049864,0.4583166,1.489993,0.2033629,-0.2074224,1.263396,0.2738372,276.2181,253.6563,1.056883,True
2,2.244446,-0.089722,-0.01282403,0.03134879,-1.453081,1.570852,-1.963147,0.1420643,1.266783,0.3648758,-0.725248,-0.02390675,6.2,1.4,-0.1966548,0.06035781,-0.05038538,-0.4297564,-3.583282,-0.3590564,0.3016018,1.414914,0.282248,0.01637563,0.2417773,0.2043432,-0.8055381,0.9495466,-0.4076104,0.4569131,1.488615,0.2033687,-0.2090277,1.26218,0.272959,276.2065,253.533,1.243373,True
2,2.255557,-0.08013538,-0.02351314,0.02287288,-1.452523,-4.712118,-1.962608,0.1406378,1.265673,0.3642483,-0.725354,-0.009514133,6,1.7,-0.1851034,0.03796536,-0.05909105,-0.4306214,-3.58456,-0.356335,0.3000933,1.413662,0.2817285,0.01609941,0.2470945,0.1723903,-0.8058236,0.9538198,-0.4106776,0.4554859,1.487411,0.2032418,-0.2104143,1.260909,0.2718673,276.226,253.3451,1.371125,True
2,2.266668,-0.07374527,-0.0320776,0.01440524,-1.45195,-4.711737,-1.962024,0.1392703,1.264405,0.3637092,-0.7255415,-0.01713037,6,1.7,-0.1691699,0.04218091,-0.06772129,-0.4318214,-3.584054,-0.3555022,0.2986655,1.412232,0.2811699,0.02338114,0.2385427,0.15741,-0.8056611,0.9574559,-0.4135817,0.4540682,1.486307,0.2032871,-0.2115721,1.259644,0.27066,276.2886,253.1484,1.399323,True
2,2.277779,-0.06203133,-0.03745338,0.003770445,-1.451199,-4.71176,-1.961753,0.1378511,1.263207,0.3631618,-0.7256869,-0.01317125,6,1.7,-0.1490444,0.03466912,-0.07962741,-0.4331227,-3.58467,-0.3541653,0.2972072,1.410872,0.2806883,0.04242145,0.2097266,0.151926,-0.8047689,0.9600501,-0.4165871,0.4525769,1.485205,0.2031527,-0.2127322,1.258469,0.269444,276.3502,252.634,1.698782,True
2,2.28889,-0.05777793,-0.03108478,-0.002613775,-1.451392,-4.711433,-1.961273,0.1365798,1.26193,0.3629568,-0.7255591,0.01172505,5.9,2.1,-0.1448293,0.01758106,-0.07332823,-0.4334114,-3.585996,-0.3513295,0.2957451,1.409447,0.2800977,0.04770595,0.2097355,0.1508208,-0.8042033,0.9643854,-0.4199549,0.4511626,1.48417,0.203362,-0.2139859,1.257408,0.2683128,276.3635,251.7199,2.413416,True
2,2.300001,-0.05993988,-0.006682279,-0.01975619,-1.45179,-4.712061,-1.960432,0.1353956,1.260485,0.3623734,-0.7258222,-0.02423358,5.9,2.1,-0.1412453,0.07397957,-0.06248758,-0.4347632,-3.580297,-0.3554239,0.294302,1.408155,0.2793713,0.05533418,0.2566151,0.1582138,-0.8041309,0.9717423,-0.4254815,0.4498066,1.48328,0.2034144,-0.2153019,1.256418,0.2673359,276.3092,250.7825,3.19922,True
2,2.311112,-0.06953386,-0.01846641,-0.03140208,-1.451025,1.570723,-1.959237,0.1341892,1.259297,0.3620408,-0.7255186,0.02789025,5.9,2.5,-0.1258212,0.1099512,-0.01878686,-0.4344095,-3.574091,-0.3600509,0.2929395,1.406876,0.2788205,0.06928986,0.2704253,0.1655423,-0.8036786,0.97737,-0.4306457,0.4484482,1.482258,0.2033296,-0.2166452,1.255447,0.2665758,276.2252,249.9264,3.924975,True
2,2.322223,-0.07058742,-0.04620079,-0.03659116,-1.449366,1.570726,-1.958425,0.1331353,1.257994,0.3612349,-0.7251708,0.03149631,5.9,2.5,-0.1213327,0.1482703,-0.01655121,-0.4356191,-3.568314,-0.3643577,0.2917969,1.405482,0.2782571,0.07224074,0.2342022,0.152765,-0.8028067,0.9800131,-0.4331152,0.4470587,1.481365,0.2029951,-0.2179108,1.254442,0.2660838,276.1282,249.7783,4.000019,True
2,2.333334,-0.06313218,-0.06755202,-0.04607695,-1.447729,1.570516,-1.957827,0.1321818,1.256981,0.3608251,-0.7247356,0.03952834,5.6,2.5,-0.1053427,0.1503127,-0.01559834,-0.4363595,-3.564708,-0.3668427,0.2906484,1.404226,0.2777264,0.07634503,0.2064867,0.1442201,-0.8021207,0.9825895,-0.4358942,0.4457144,1.480421,0.2027845,-0.2191377,1.253393,0.2658347,276.0544,249.8903,3.933856,True
2,2.344445,-0.03969372,-0.08999097,-0.06089798,-1.445625,1.570129,-1.958122,0.1314756,1.255946,0.360513,-0.7250344,-0.027643,5.6,2.5,-0.07130133,0.1437659,-0.02122591,-0.4372937,-3.56245,-0.3696252,0.2896705,1.403119,0.277359,0.08802272,0.1872766,0.1473245,-0.8011188,0.9854501,-0.4391281,0.4445676,1.479597,0.2024558,-0.2203409,1.252334,0.265766,276.0497,249.5982,4.382605,True
2,2.355556,-0.01306735,-0.1017651,-0.07470962,-1.443748,1.569563,-1.958729,0.1308143,1.254971,0.3602893,-0.7253087,-0.02480585,5.6,2.5,-0.03355302,0.08834343,-0.06221378,-0.4388916,-3.565956,-0.3671285,0.2888033,1.401943,0.2769814,0.1039408,0.1637888,0.1482642,-0.7999321,0.9878449,-0.4425345,0.4433415,1.478816,0.2021501,-0.2214236,1.251257,0.2657181,276.062,248.9722,5.253496,True
2,2.366668,0.005029756,-0.09114124,-0.08223776,-1.442715,1.568742,-1.95926,0.1301506,1.253915,0.36007,-0.726194,-0.08078712,5.4,3,-0.003733724,0.08606593,-0.06351449,-0.439812,-3.564661,-0.3693898,0.2877769,1.401133,0.2765136,0.1049172,0.156336,0.1407997,-0.799432,0.9906603,-0.445615,0.4422187,1.477893,0.201679,-0.2223285,1.250184,0.2656428,276.1159,248.1537,6.205514,True
2,2.377779,0.02632298,-0.07836609,-0.08658232,-1.441925,1.567882,-1.960162,0.1294855,1.252843,0.3599989,-0.7264965,-0.02709134,5.4,3,0.04079375,0.08167922,-0.08838179,-0.441787,-3.564251,-0.3717222,0.2868953,1.400206,0.2762232,0.1047728,0.1318661,0.1333323,-0.7989643,0.9927163,-0.4479426,0.4410699,1.477311,0.200881,-0.2229844,1.249072,0.2655621,276.1377,246.9411,7.440706,True
2,2.38889,0.04762146,-0.06555636,-0.08347423,-1.441261,1.567241,-1.961211,0.128896,1.251745,0.3598547,-0.7263079,0.01727657,5.4,3.8,0.07036361,0.04534594,-0.09833794,-0.4427473,-3.567242,-0.3706755,0.2859308,1.399538,0.2758894,0.1153704,0.1020014,0.1364511,-0.7974559,0.9937556,-0.4504039,0.4400104,1.476743,0.2005162,-0.2235224,1.247896,0.265524,276.133,245.8677,8.480249,True
2,2.400001,0.06040784,-0.06019941,-0.07819635,-1.440377,1.566702,-1.962195,0.1282921,1.25069,0.3598111,-0.7264864,-0.01660304,5.4,3.8,0.1062724,0.01649329,-0.1232434,-0.4446344,-3.571002,-0.3698952,0.2849907,1.398808,0.2757075,0.1016297,0.1095381,0.1472058,-0.7966948,0.9973282,-0.4533377,0.4389148,1.476435,0.2001204,-0.2240918,1.246644,0.2655714,276.1242,245.3321,8.982228,True
2,2.411112,0.06359834,-0.0516684,-0.07717924,-1.439797,1.566012,-1.962885,0.127701,1.249638,0.3596702,-0.7264507,0.003284134,4.9,3.9,0.1277018,0.02699602,-0.1127117,-0.4456635,-3.570483,-0.3723368,0.2840455,1.398231,0.2753158,0.08457933,0.0946724,0.1505671,-0.7952881,0.9991834,-0.4551673,0.4380301,1.475983,0.1997387,-0.2247241,1.245288,0.265736,276.126,245.0988,9.2193,True
2,2.422223,0.07743797,-0.01215899,-0.06035268,-1.440771,1.565414,-1.964085,0.1272791,1.248572,0.3595831,-0.7261929,0.02342009,4.9,3.9,0.09425992,0.08557972,-0.06855296,-0.4461461,-3.564061,-0.3782914,0.2831922,1.397414,0.2749276,0.08247068,0.05954131,0.1655096,-0.7931693,1.000139,-0.4566346,0.4371261,1.475435,0.1998134,-0.2253824,1.2438,0.2659945,276.1628,245.0984,9.289273,True
2,2.433334,0.09234174,0.01987562,-0.04774714,-1.441842,1.564776,-1.965486,0.1268838,1.247601,0.3593538,-0.7257487,0.04031866,4.1,4.1,0.07766564,0.143105,-0.04475293,-0.4471171,-3.556024,-0.3856066,0.2824827,1.396644,0.2745793,0.08122291,0.03609559,0.1527491,-0.7917737,1.0005,-0.4577859,0.4361665,1.474907,0.1996038,-0.2260715,1.242194,0.2663114,276.2592,245.2453,9.242844,True
2,2.444445,0.1125766,0.07330038,-0.01928198,-1.44439,1.564347,-1.967371,0.126443,1.246608,0.3590872,-0.7260805,-0.03076087,4.1,4.1,0.05973427,0.163403,-0.03708921,-0.4483624,-3.551269,-0.3903318,0.2816831,1.395989,0.2741666,0.07676807,0.04036784,0.1304195,-0.7914238,1.00193,-0.4593942,0.4352993,1.474335,0.1996167,-0.2267583,1.240534,0.26665,276.4158,245.9658,8.631033,True
2,2.455556,0.1146938,0.1149282,-0.003516741,-1.446937,1.563766,-1.968604,0.1260051,1.245722,0.3588457,-0.726202,-0.01090399,4.1,4.1,0.02984998,0.1667853,-0.04428874,-0.4496737,-3.547474,-0.3928911,0.2810318,1.395272,0.2741086,0.07223462,0.06379939,0.0920998,-0.7922819,1.003657,-0.4612422,0.4343372,1.473883,0.199579,-0.2273318,1.238881,0.2669827,276.5717,247.4718,7.239655,True
2,2.466667,0.1114999,0.1224327,0.004969425,-1.448535,1.563365,-1.969672,0.1255152,1.244792,0.3587272,-0.7265114,-0.02831309,3.4,4.7,0.02866384,0.1561798,-0.05390975,-0.4510937,-3.54514,-0.3953934,0.2802318,1.394734,0.2737484,0.07536638,0.06166236,0.0867601,-0.7916353,1.005215,-0.4631772,0.4334756,1.473449,0.1994817,-0.2278213,1.237293,0.26725,276.7127,249.2269,5.619647,True
2,2.477778,0.1040506,0.1171165,0.008196857,-1.449619,1.563092,-1.970563,0.1249164,1.24414,0.3585134,-0.7257577,0.06901012,3.4,4.7,0.03104126,0.06366721,-0.1033015,-0.452927,-3.552677,-0.3894204,0.2794006,1.394228,0.2736187,0.08069101,0.03607499,0.09524565,-0.7900821,1.00525,-0.4643032,0.4325833,1.473294,0.1994762,-0.2282843,1.235801,0.2674021,276.8056,251.2401,3.721012,True
2,2.488889,0.1030094,0.07981425,0.0051922,-1.44923,1.563192,-1.971748,0.1242424,1.243488,0.3583975,-0.7253737,0.03441992,3.2,5.1,0.01272634,0.02755388,-0.1054208,-0.4536375,-3.555091,-0.386671,0.2785764,1.393637,0.2734387,0.04871476,0.05853554,0.08700628,-0.78995,1.007504,-0.4652702,0.4318337,1.47288,0.1994009,-0.2287809,1.234441,0.267423,276.8962,252.8306,2.185886,True
2,2.5,0.1030352,0.04361396,0.00857327,-1.44877,1.563614,-1.972984,0.1235368,1.242902,0.3583226,-0.7250968,0.02504042,3.2,5.1,-0.0008631796,0.04885649,-0.0871373,-0.4547475,-3.552596,-0.3886963,0.2777416,1.393283,0.2735476,0.04125376,0.06814259,0.08387987,-0.789566,1.00942,-0.4668348,0.4309816,1.472443,0.1991467,-0.2289182,1.233832,0.2674803,276.9177,254.1028,0.908395,True
2,2.511111,0.1041273,0.009558592,0.01513795,-1.448056,1.564351,-1.974245,0.1228494,1.242281,0.3581457,-0.7252906,-0.01790879,3.8,5.1,-0.01231536,0.06373677,-0.06141177,-0.4549297,-3.549471,-0.3908927,0.277163,1.392681,0.2733655,0.03503493,0.07881534,0.09991036,-0.788627,1.011898,-0.4687875,0.4302203,1.472139,0.1991532,-0.2293624,1.233556,0.2674696,276.5818,253.7792,1.291301,True
2,2.522222,0.09988304,-0.008518527,0.02162658,-1.447726,1.565009,-1.975305,0.1222114,1.24173,0.3580401,-0.725298,-0.0005216014,3.8,5.1,-0.02368648,0.09673217,-0.03989788,-0.4557201,-3.545141,-0.3944238,0.2764958,1.392193,0.273298,0.0394582,0.09479132,0.112646,-0.7878829,1.014986,-0.4715366,0.4294595,1.471764,0.1990273,-0.229953,1.233349,0.2673823,276.3445,252.7063,2.380199,True
2,2.533333,0.09882454,-0.02236063,0.02276554,-1.447231,1.565596,-1.976422,0.1217286,1.241165,0.3578737,-0.725247,0.004640596,3.8,5.1,-0.01412621,0.08174733,-0.03256416,-0.4558938,-3.544024,-0.3954451,0.2759013,1.391637,0.2731988,0.04693477,0.1054159,0.1115086,-0.7875074,1.017598,-0.47413,0.4286536,1.471483,0.1989689,-0.2305641,1.233102,0.267262,276.1362,251.563,3.550407,True
2,2.544444,0.09349019,-0.0213223,0.01742737,-1.447072,1.565516,-1.977265,0.1212407,1.240539,0.3576503,-0.7250243,0.0202504,5.8,5,-0.004873276,0.04770599,-0.05514966,-0.4571002,-3.546869,-0.3933324,0.2752405,1.391331,0.2732298,0.04770518,0.07344559,0.08914366,-0.787216,1.017369,-0.4744925,0.4279388,1.471308,0.1989682,-0.2310525,1.232826,0.2671354,275.9342,250.7517,4.421217,True
2,2.555555,0.08816189,-0.02237997,0.01956703,-1.446941,1.56587,-1.978092,0.1207991,1.240112,0.3576014,-0.7250531,-0.00278204,5.8,5,-0.0142628,0.06367368,-0.0390265,-0.457408,-3.543595,-0.3956504,0.2746313,1.390948,0.2730753,0.04875714,0.04254466,0.09766921,-0.7856352,1.017317,-0.4750941,0.4272961,1.471227,0.1989038,-0.2313649,1.232564,0.2670249,275.7485,250.335,4.898929,True
2,2.566666,0.08285207,-0.03406114,0.02813927,-1.446356,1.566543,-1.978978,0.1201788,1.239661,0.357491,-0.7248677,0.0169846,8.6,4.9,0.003531136,0.04558487,-0.06586075,-0.4587753,-3.544996,-0.394803,0.2740056,1.390511,0.27302,0.04338393,0.04575817,0.09241711,-0.784848,1.019166,-0.4765761,0.4266343,1.471087,0.1990635,-0.2315143,1.232301,0.2669195,275.5679,250.1352,5.148422,True
2,2.577777,0.07222419,-0.06386565,0.03469055,-1.445049,1.567759,-1.979616,0.1196072,1.239285,0.3574398,-0.7247899,0.007003395,8.6,4.9,-0.00605727,0.05311492,-0.07108491,-0.4600531,-3.543892,-0.3954379,0.2733681,1.390222,0.2727816,0.04545009,0.05321372,0.08281431,-0.7846701,1.0208,-0.4782662,0.4259974,1.470821,0.1990552,-0.2316248,1.232056,0.2668377,275.4321,250.4001,4.882778,True
2,2.588888,0.06690493,-0.08414187,0.02840644,-1.443611,1.568517,-1.980284,0.1190499,1.23887,0.3573208,-0.7248251,-0.003300679,11.7,4.2,-0.01988988,0.03929109,-0.05823567,-0.4601324,-3.54373,-0.3947433,0.2727621,1.389797,0.2726903,0.0433577,0.05428014,0.08709266,-0.7839143,1.02221,-0.4796883,0.4253881,1.470549,0.199208,-0.2317145,1.231756,0.2670466,275.0256,252.432,2.845803,True
2,2.599999,0.05625019,-0.0873661,0.02417109,-1.442611,1.569097,-1.980642,0.1185026,1.238466,0.3571813,-0.7245449,0.02567772,11.7,4.2,-0.02628196,0.03718957,-0.05818732,-0.4607514,-3.543489,-0.3946355,0.2721578,1.389398,0.2724288,0.03249159,0.05856667,0.06161828,-0.7843622,1.023202,-0.4804004,0.4248342,1.470226,0.199039,-0.2320062,1.2316,0.2668931,275.124,253.5525,1.731369,True
2,2.61111,0.05305608,-0.08844376,0.0220395,-1.441768,1.569494,-1.981266,0.1178837,1.238144,0.3570006,-0.7246435,-0.009170279,14.1,3.4,-0.02203248,0.0393049,-0.06033844,-0.4616004,-3.543081,-0.3948445,0.2714743,1.388949,0.2723253,0.02273348,0.06177738,0.04146399,-0.7848544,1.023987,-0.4809035,0.4241999,1.469919,0.1990867,-0.2324792,1.231439,0.2665867,274.89,251.1378,4.175266,True
2,2.622221,0.04772558,-0.05960336,0.03787752,-1.44246,1.570279,-1.981724,0.1173826,1.237708,0.356885,-0.7244245,0.02015345,14.1,3.4,-0.03344934,0.05629705,-0.03354099,-0.4614443,-3.54011,-0.3969247,0.2709574,1.388548,0.2722497,0.02505852,0.07669571,0.0584797,-0.7844149,1.026512,-0.4830572,0.4236601,1.469512,0.1990354,-0.2328753,1.231294,0.2662214,274.8,248.4785,6.840233,True
2,2.633332,0.03068344,-0.0435653,0.05166009,-1.442914,-4.711955,-1.981665,0.1169336,1.237202,0.3567541,-0.7247415,-0.02912282,14.1,3.4,-0.0344226,0.05732011,-0.01967913,-0.4615248,-3.538424,-0.397738,0.2706374,1.38823,0.2725229,0.02631841,0.09374359,0.07444237,-0.7839212,1.029492,-0.4855563,0.4230592,1.469272,0.1990492,-0.2330761,1.231127,0.2659534,274.9604,247.1787,7.975484,True
2,2.644443,0.01897309,-0.03928154,0.05909886,-1.442793,-4.71104,-1.981676,0.1165033,1.236769,0.3565762,-0.724611,0.01222781,16.3,2.4,-0.01858085,0.06478608,-0.04214515,-0.4630385,-3.53747,-0.3989327,0.2702181,1.387875,0.2725604,0.04028995,0.09265067,0.0881655,-0.7832026,1.03178,-0.4881393,0.4225496,1.469033,0.1990008,-0.2331862,1.230978,0.265845,274.9562,247.876,7.180971,True
2,2.655554,0.002997601,-0.04247671,0.06125995,-1.442557,-4.710109,-1.981256,0.1162492,1.236369,0.3564095,-0.7241135,0.04540805,16.3,2.4,-0.002935532,0.02963676,-0.06265347,-0.4640814,-3.540504,-0.3966741,0.2697328,1.387652,0.2726669,0.0411505,0.06707466,0.0732493,-0.7829603,1.031677,-0.4886088,0.4219254,1.468924,0.1990571,-0.2332129,1.230764,0.2657215,274.9689,247.3078,7.765027,True
2,2.666665,0.001929533,-0.04570025,0.05595072,-1.442154,-4.709449,-1.981322,0.1159669,1.235985,0.3562293,-0.7242253,-0.01054254,17.7,1.9,-0.01055884,0.02121398,-0.07860728,-0.4653991,-3.541922,-0.3950248,0.2692459,1.387383,0.2726271,0.02715728,0.05645775,0.06059357,-0.7828852,1.032102,-0.4887034,0.4214309,1.468755,0.1990647,-0.2334709,1.230604,0.2654342,274.685,250.4068,4.987694,True
2,2.677776,0.008308488,-0.03613517,0.0505616,-1.442158,-4.709236,-1.981704,0.1157297,1.235501,0.3559914,-0.7239196,0.02817634,17.7,1.9,-0.03596309,0.03085723,-0.06024884,-0.4655499,-3.540117,-0.3949079,0.2688794,1.387154,0.2726467,0.03462148,0.04897118,0.06372283,-0.7822732,1.03285,-0.489893,0.4210163,1.468585,0.1990967,-0.2337147,1.230468,0.2651213,274.5656,251.0785,4.317928,True
2,2.688887,0.006164171,-0.0116242,0.05256977,-1.443087,-4.708947,-1.981753,0.1153853,1.235085,0.3557928,-0.7245092,-0.05410935,18.3,1.4,-0.04433151,0.0372276,-0.04204094,-0.4655355,-3.538152,-0.3956094,0.2685011,1.386995,0.2725966,0.03462265,0.05323653,0.06050547,-0.7824048,1.034144,-0.491464,0.4206397,1.468373,0.1991589,-0.2338438,1.23041,0.2647522,274.4879,249.5022,5.801589,True
2,2.699998,0.002957536,0.009695655,0.05566039,-1.444174,-4.708629,-1.981714,0.1149971,1.234655,0.3556225,-0.7250174,-0.04588157,18.3,1.4,-0.0368482,0.03077,-0.03466726,-0.4657453,-3.538064,-0.3955524,0.268092,1.38682,0.2726693,0.03244647,0.06922745,0.04878682,-0.7831414,1.035958,-0.4931777,0.4201862,1.468322,0.1992865,-0.2338886,1.230354,0.2643763,274.4297,247.1045,8.094868,True
2,2.711109,-0.0002472135,0.03851032,0.06617016,-1.445907,-4.70817,-1.981669,0.1146547,1.234235,0.3554659,-0.7247473,0.02502264,18.3,1,-0.02627873,0.04357184,-0.05173443,-0.4670615,-3.53695,-0.396481,0.267713,1.386566,0.2726398,0.02502083,0.07350753,0.05098309,-0.78298,1.037535,-0.4943096,0.4197196,1.468214,0.1993029,-0.2339545,1.230227,0.2640246,274.3084,246.0048,9.189874,True
2,2.72222,0.0008049975,0.06195801,0.06818087,-1.447585,-4.708003,-1.981706,0.1143748,1.233867,0.3553047,-0.7246456,0.009057246,18.3,1,-0.03160197,0.04252859,-0.05063172,-0.467748,-3.536527,-0.3963348,0.2673563,1.386399,0.2726545,0.02080113,0.04902816,0.063816,-0.7818348,1.037993,-0.4947219,0.4193334,1.468223,0.1994843,-0.2341309,1.2301,0.2637682,274.1817,247.0252,8.194501,True
2,2.733331,0.002929361,0.05978557,0.05966751,-1.448244,-4.707872,-1.981804,0.1141371,1.233612,0.3551867,-0.7246552,-0.000903878,18.3,1,-0.03366124,0.0371621,-0.03785771,-0.4678274,-3.536097,-0.3962176,0.2670243,1.386095,0.272701,0.02071837,0.05115445,0.05423044,-0.7818301,1.038949,-0.4956047,0.4189761,1.467985,0.1997066,-0.2343779,1.22999,0.2635759,274.0742,249.2557,5.973772,True
2,2.744442,0.007203055,0.04168386,0.06082086,-1.448388,-4.707154,-1.98211,0.1139012,1.233395,0.3550873,-0.7248155,-0.01459583,17.6,1,-0.02827537,0.03283679,-0.02726387,-0.4678577,-3.53563,-0.3965029,0.2667923,1.385855,0.2725782,0.02167734,0.05114618,0.04250824,-0.7820005,1.039761,-0.4964105,0.418633,1.467925,0.1998577,-0.2346333,1.229914,0.2633379,274.0076,250.7432,4.452267,True
2,2.755553,0.01467835,0.001164585,0.05249728,-1.447234,-4.706313,-1.98263,0.1137175,1.233293,0.3550432,-0.724922,-0.00960981,17.6,1,-0.03338525,0.06158809,-0.01645677,-0.468401,-3.531839,-0.3992425,0.2665399,1.385736,0.2725143,0.02170686,0.04794574,0.04783545,-0.7815685,1.040653,-0.4971871,0.4184073,1.467865,0.1999865,-0.2348854,1.229858,0.2630455,273.9452,251.68,3.491839,True
2,2.766664,0.01575412,-0.02122731,0.04834869,-1.446445,-4.70554,-1.982924,0.1135446,1.233146,0.3549783,-0.725077,-0.01410611,16.9,0.8,-0.03023099,0.06159332,-0.02180801,-0.4690706,-3.530833,-0.3999221,0.2663244,1.385554,0.272553,0.01847999,0.04583112,0.04575059,-0.7812244,1.041762,-0.4979919,0.418112,1.467838,0.2001648,-0.2350971,1.229806,0.2627313,273.8826,251.6529,3.450928,True
2,2.777775,0.01361758,-0.03729979,0.03032185,-1.445348,-4.705424,-1.982999,0.1134624,1.233042,0.3549805,-0.7252821,-0.01860587,16.9,0.8,-0.02389834,0.040243,-0.01767827,-0.4690524,-3.531589,-0.3994278,0.2661729,1.3854,0.2726536,0.02382257,0.04367762,0.04783298,-0.7808463,1.04253,-0.4990295,0.417922,1.467759,0.2003171,-0.2352344,1.229757,0.2623784,273.8012,250.4494,4.573184,True
2,2.788886,0.01254873,-0.03204101,0.01752412,-1.445263,-4.705438,-1.983244,0.1131583,1.233309,0.3554156,-0.7250627,0.02017134,15.7,0.8,-0.02604551,0.03278813,-0.01556292,-0.4692319,-3.531446,-0.3992329,0.265996,1.385319,0.2727249,0.0259027,0.03834032,0.04571814,-0.7801464,1.043387,-0.4998277,0.4177457,1.467726,0.2004921,-0.2352938,1.229697,0.2620064,273.7188,248.0977,6.822393,True
2,2.799997,0.01572913,-0.02998953,0.001531233,-1.444828,-4.705815,-1.983468,0.1130738,1.233281,0.3555732,-0.724889,0.01567956,15.7,0.8,-0.01867308,0.01998247,-0.01992079,-0.4693262,-3.532044,-0.3988965,0.2658443,1.385137,0.2725823,0.03315786,0.030856,0.02650343,-0.7802503,1.043488,-0.5003776,0.4176593,1.467601,0.2005355,-0.2353177,1.22964,0.2616586,273.6506,245.6201,9.194458,True
2,2.811108,0.01465435,-0.02575473,-0.002752031,-1.444582,-4.705877,-1.983554,0.1129724,1.233205,0.3557122,-0.7250616,-0.01586535,15.7,0.8,0.006679354,-0.01100315,-0.02983816,-0.4696261,-3.535291,-0.3971548,0.2655487,1.385132,0.272583,0.03613903,0.02017956,0.006248487,-0.7805821,1.042846,-0.5003848,0.4174594,1.467613,0.2006559,-0.2353882,1.229625,0.2614183,273.6423,244.1141,10.52128,True
2,2.822219,0.01570383,-0.008746799,-0.009230128,-1.444861,-4.706343,-1.983718,0.1128389,1.233207,0.3559625,-0.7251026,-0.003627114,15.1,0.8,0.01001961,0.008130983,-0.0233969,-0.4699472,-3.533915,-0.3986342,0.2653873,1.385081,0.2725863,0.005035908,0.03943506,-0.02330302,-0.7821986,1.043311,-0.4996175,0.417382,1.467716,0.20083,-0.2355696,1.229669,0.2613604,273.6726,245.3402,9.053446,True
2,2.83333,0.009305823,0.00190874,-0.007147865,-1.445177,-4.70647,-1.98356,0.1127462,1.233285,0.356077,-0.7249231,0.0164201,15.1,0.8,-0.002697611,0.01349486,-0.01580627,-0.469861,-3.532637,-0.3989951,0.2653906,1.385175,0.2725499,0.01165307,0.03728974,0.002208028,-0.7815493,1.044375,-0.5008059,0.4172398,1.467933,0.2006969,-0.235728,1.229684,0.2613848,273.6161,248.2031,6.004685,True
2,2.844441,0.007152791,0.01461107,-0.02213315,-1.445308,-4.707486,-1.98344,0.1127184,1.233341,0.3562436,-0.7250302,-0.009927261,14.2,1,-0.01542883,0.002847582,-0.001905195,-0.4693619,-3.533067,-0.3979034,0.2653171,1.385412,0.2728777,0.00861796,0.03625034,0.02142706,-0.7807866,1.045722,-0.5017049,0.4171177,1.467861,0.2006352,-0.2359285,1.229691,0.2614827,273.5779,253.3257,0.768851,True
2,2.855552,0.003938265,0.02518587,-0.03710776,-1.445423,-4.708708,-1.983244,0.1127678,1.233521,0.3564148,-0.7246914,0.03107625,14.2,1,-0.0003261855,0.01335711,0.01506088,-0.4688815,-3.531688,-0.3997415,0.2653593,1.385464,0.2728884,-0.0008375235,0.05439447,0.03110618,-0.7806529,1.04783,-0.502771,0.4171121,1.467841,0.2006865,-0.2361242,1.229703,0.2615795,273.5613,258.4538,355.5193,True
2,2.866663,0.00073501,0.02727316,-0.04457244,-1.445417,-4.709512,-1.983039,0.1128143,1.233668,0.356643,-0.724824,-0.01240491,13.1,1.1,0.005050016,0.01223978,0.02141247,-0.4684191,-3.531013,-0.4006917,0.2653734,1.385505,0.2729628,0.008799918,0.05223777,0.03741382,-0.7803403,1.048905,-0.5039646,0.4170484,1.467899,0.2007859,-0.236317,1.229737,0.2616139,273.5745,262.7725,351.0985,True
2,2.877774,-0.01312602,0.003715541,-0.06576277,-1.443966,-4.710664,-1.982166,0.1130433,1.233917,0.3570578,-0.7248182,0.0006768734,13.1,1.1,0.009460235,0.0217611,0.03527093,-0.4678354,-3.528976,-0.4027075,0.2654616,1.385658,0.2729995,0.005560827,0.03306562,0.03851392,-0.7797635,1.048605,-0.503775,0.4170308,1.467952,0.2008829,-0.23655,1.229791,0.2616319,273.643,266.4102,347.3249,True
2,2.888885,-0.01738764,-0.01125274,-0.07633877,-1.442943,-4.711578,-1.981711,0.1131826,1.23421,0.3574018,-0.7247782,0.003640623,13.1,1.1,0.01812675,0.04086905,0.04167071,-0.4676484,-3.526071,-0.4057845,0.2655375,1.385812,0.2731307,0.01080912,0.01281275,0.03635418,-0.7791467,1.048332,-0.5038847,0.4170907,1.467901,0.2010221,-0.2366495,1.229864,0.261728,273.6316,269.4901,344.0377,True
