loc,t,aDotUA,bDotUA,gDotUA,aUA,bUA,gUA,xUA,yUA,zUA,qE,qDotE,emgA,emgB,aDotSH,bDotSH,gDotSH,aSH,bSH,gSH,xSH,ySH,zSH,aDotUB,bDotUB,gDotUB,aUB,bUB,gUB,xUB,yUB,zUB,xHand,yHand,zHand,aHand,bHand,gHand,enable
2,0,0.01479991,0.2140296,0.08616678,-1.542336,-1.993592,2.962639,0.72031,1.234659,-0.005886972,-1.123995,0.9709603,0,60,0.02814486,-0.09893982,0.0177177,-0.9948345,-1.754454,-0.05044293,0.7491179,1.415032,0.007484645,0.09420798,-0.1025405,-0.009733448,-0.7827052,-0.2061257,0.08709069,0.816637,1.514923,0.1970662,0.4593259,1.008188,0.137874,61.43215,108.8122,178.8174,True
2,0.01111111,0.01479991,0.2140296,0.08616678,-1.542336,-1.993592,2.962639,0.72031,1.234659,-0.005886972,-1.113053,0.9833245,0,60,0.02814486,-0.09893982,0.0177177,-0.9948345,-1.754454,-0.05044293,0.7491179,1.415032,0.007484645,0.09420798,-0.1025405,-0.009733448,-0.7827052,-0.2061257,0.08709069,0.816637,1.514923,0.1970662,0.4604716,1.00457,0.1398693,60.4022,106.6064,175.6751,True
2,0.02222222,0.02961235,0.1565078,0.06583996,-1.542432,-1.9935,2.961829,0.7198753,1.234699,-0.005680263,-1.102528,0.9459577,0,60,0.03146632,-0.06487115,0.00914806,-0.9950518,-1.754067,-0.0511263,0.7485609,1.414891,0.007696182,0.07841793,-0.09191469,0.002262933,-0.7823398,-0.2071227,0.08744889,0.8164289,1.514923,0.1972379,0.4621006,1.000416,0.1425619,59.24718,106.9005,174.7677,True
2,0.03333334,0.03694495,0.1106771,0.04450514,-1.542166,-1.993116,2.961057,0.7194247,1.234606,-0.00543806,-1.091795,0.9673752,0,60,0.04323291,-0.03298271,-0.01118729,-0.9958481,-1.753346,-0.05244536,0.7484972,1.414914,0.007824868,0.06246484,-0.07159731,-0.00163919,-0.7823573,-0.2076283,0.0875168,0.816349,1.514931,0.197332,0.4639884,0.9961479,0.1451865,58.04869,107.6879,174.2606,True
2,0.04444445,0.05483174,0.03503347,0.009252988,-1.54146,-1.990713,2.959734,0.7189906,1.234705,-0.005292892,-1.080995,0.970808,0,60,0.05710255,-0.01921238,-0.01980262,-0.9963557,-1.753095,-0.05368293,0.7481995,1.414919,0.007994652,0.05594353,-0.05869326,-0.01531487,-0.7829922,-0.2079025,0.0872883,0.8161983,1.514926,0.1975127,0.4655818,0.9920024,0.1473753,56.87293,108.2485,173.7933,True
2,0.05555556,0.08016219,-0.03420513,-0.02608913,-1.540475,-1.987966,2.957964,0.7185118,1.234839,-0.005090117,-1.070436,0.9486737,0,60,0.07736045,-0.005476262,-0.02846092,-0.9970161,-1.752819,-0.0553024,0.7476993,1.414959,0.008063525,0.04822737,-0.03932809,-0.04063755,-0.7841656,-0.2078394,0.08698017,0.8162119,1.514868,0.1976111,0.4666621,0.9882073,0.148832,55.82466,108.6298,173.4854,True
2,0.06666667,0.1139383,-0.09171897,-0.06685763,-1.538537,-1.983935,2.954349,0.7175059,1.235025,-0.004842967,-1.059717,0.9641828,0,60,0.09773899,-0.01514807,0.003377355,-0.996206,-1.753696,-0.05761696,0.7472708,1.415155,0.008450001,0.02482049,-0.0254056,-0.04236824,-0.7850296,-0.2084439,0.08739616,0.816071,1.514855,0.1979145,0.4665659,0.9860153,0.1491527,55.65549,109.3456,174.1252,True
2,0.07777778,0.1276897,-0.08637869,-0.07553219,-1.537591,-1.982945,2.952388,0.7170262,1.235099,-0.004644632,-1.047998,1.05447,0,60,0.09250838,-0.01830044,0.02258624,-0.9952478,-1.754045,-0.05829526,0.747072,1.415234,0.008617103,0.01948681,-0.02858772,-0.04231618,-0.7854754,-0.2091312,0.08775862,0.8158576,1.514928,0.1980934,0.4659493,0.9853494,0.1485502,55.38237,108.2747,172.8708,True
2,0.08888889,0.1297839,-0.05760875,-0.07346135,-1.536696,-1.983175,2.950922,0.7165434,1.235137,-0.004551113,-1.037846,0.904918,0,60,0.0830574,-0.01184191,0.03967921,-0.9943226,-1.753799,-0.05907983,0.7465746,1.415168,0.008769751,0.0131425,-0.001925177,-0.04630617,-0.7860277,-0.2083619,0.08720335,0.8157015,1.514889,0.198302,0.4649833,0.9850219,0.1475737,54.8774,106.8478,171.1655,True
2,0.1,0.1297839,-0.05760875,-0.07346135,-1.536696,-1.983175,2.950922,0.7165434,1.235137,-0.004551113,-1.028071,0.8792245,0,60,0.0830574,-0.01184191,0.03967921,-0.9943226,-1.753799,-0.05907983,0.7465746,1.415168,0.008769751,0.0131425,-0.001925177,-0.04630617,-0.7860277,-0.2083619,0.08720335,0.8157015,1.514889,0.198302,0.4643077,0.9847662,0.1466777,54.53021,105.3987,169.5152,True
2,0.1111111,0.1318953,-0.02777389,-0.0703267,-1.535867,-1.983749,2.94936,0.7161481,1.235162,-0.004351079,-1.019786,0.7419037,0,60,0.07140341,0.004189093,0.03547241,-0.9941368,-1.75317,-0.05995388,0.7467794,1.415408,0.008941442,0.00789487,0.008719987,-0.04295776,-0.7862062,-0.2077613,0.08689362,0.8156412,1.514911,0.1985349,0.4640605,0.9845752,0.1461274,54.51695,104.4833,168.5986,True
2,0.1222222,0.132994,0.0478883,-0.05338823,-1.535238,-1.986833,2.947963,0.715744,1.235291,-0.004241765,-1.010251,0.8626052,0,60,0.06517527,0.02766426,0.04294646,-0.9934794,-1.751853,-0.06117361,0.7466877,1.415444,0.009098262,0.0007474208,0.03204977,-0.02564047,-0.7855558,-0.2064769,0.08616551,0.8153958,1.514889,0.1987989,0.4643227,0.9843934,0.1460118,54.80529,103.8228,167.9676,True
2,0.1333333,0.1351174,0.08731278,-0.04706446,-1.534541,-1.988818,2.946465,0.7153594,1.235371,-0.004137516,-1.000415,0.8820411,0,60,0.06738615,0.04682388,0.03972298,-0.9931881,-1.750539,-0.06275899,0.7467725,1.415617,0.009197652,-0.004544399,0.04057185,-0.02550522,-0.7857167,-0.2059125,0.08593249,0.815213,1.51471,0.1989357,0.4645421,0.9842613,0.1460313,54.96515,104.5493,168.6072,True
2,0.1444445,0.1265486,0.1405682,-0.04171398,-1.533612,-1.992121,2.945466,0.7149808,1.235471,-0.003934324,-0.9905883,0.8824489,0,60,0.07060215,0.06171341,0.03010381,-0.993259,-1.749078,-0.06443971,0.7467034,1.415693,0.009347439,-0.008825749,0.05340783,-0.03068754,-0.7861465,-0.2043915,0.08510052,0.8150907,1.514723,0.199205,0.4646124,0.9841114,0.1461607,55.10364,104.8145,168.842,True
2,0.1555556,0.07430466,0.2288951,-0.02955428,-1.531949,-1.999098,2.945436,0.714349,1.235816,-0.003566951,-0.9807671,0.882776,0,60,0.04375963,0.02775505,0.02389991,-0.9929809,-1.749317,-0.06466741,0.7464128,1.415819,0.009648234,-0.005519083,0.06613418,-0.0263718,-0.7864746,-0.2021202,0.08335561,0.8148208,1.514626,0.1996363,0.4646729,0.9840121,0.1462522,55.234,105.549,169.54,True
2,0.1666667,0.04866688,0.2448199,-0.03356848,-1.530823,-2.002194,2.94586,0.7141991,1.235975,-0.003416449,-0.9708953,0.886878,0,60,0.02452667,0.00122999,0.03681786,-0.9920483,-1.750336,-0.0637915,0.7465069,1.415968,0.009798467,-0.008547483,0.07457504,-0.01560048,-0.7858988,-0.2010616,0.08282031,0.8147063,1.51475,0.1997713,0.4647714,0.9838852,0.1463949,55.27641,105.857,169.8599,True
2,0.1777778,0.04224825,0.242666,-0.03669475,-1.52985,-2.00447,2.945572,0.7140176,1.236091,-0.003320634,-0.9621346,0.7851856,0,60,0.006372092,-0.03061883,0.0571917,-0.9905968,-1.75197,-0.06233208,0.7465367,1.416082,0.009907007,-0.00636071,0.07880603,-0.01240241,-0.7858445,-0.1996268,0.08180378,0.8145466,1.514721,0.2000048,0.4649926,0.9837821,0.1467044,55.35865,106.3698,170.4176,True
2,0.1888889,0.05278344,0.2043135,-0.05486808,-1.528441,-2.005178,2.944684,0.7139897,1.236211,-0.003268391,-0.9530324,0.8224875,0,60,-0.01161413,-0.03688945,0.08500304,-0.9886746,-1.752376,-0.06134538,0.7465014,1.416094,0.010032,-0.01392603,0.07033464,-0.01875848,-0.7863073,-0.1992999,0.08192709,0.8145342,1.514737,0.2001836,0.4653871,0.9836794,0.1469591,55.68372,107.072,171.1537,True
2,0.2,0.06443328,0.1574342,-0.07091917,-1.526985,-2.00504,2.943607,0.7139099,1.236367,-0.003193498,-0.9430568,0.8999973,0,60,-0.0242277,-0.0133806,0.09357948,-0.9873862,-1.751474,-0.06112674,0.7466319,1.416185,0.01012951,-0.02034826,0.06930742,-0.02081491,-0.7865502,-0.1982409,0.08163121,0.8144078,1.514715,0.2003833,0.4657324,0.9835252,0.147061,56.17743,107.3141,171.4713,True
2,0.2111111,0.09209791,0.02216937,-0.09767148,-1.525949,-2.00042,2.941424,0.7139516,1.236458,-0.003300607,-0.9324941,0.9500146,0,60,-0.04837361,0.06662939,0.08406387,-0.9870895,-1.747273,-0.06217309,0.7468801,1.416337,0.01021916,-0.01943074,0.06832528,-0.03255077,-0.7872453,-0.1970199,0.08088979,0.8140907,1.51467,0.2006693,0.4660971,0.9832889,0.1469851,56.44965,107.005,171.1219,True
2,0.2222222,0.1048987,-0.09181974,-0.1168468,-1.524928,-1.995738,2.9397,0.7139032,1.236562,-0.003405184,-0.9218191,0.9591062,0,60,-0.05678701,0.1007472,0.07236133,-0.9869318,-1.744796,-0.06273928,0.7470262,1.416282,0.01048923,-0.02362064,0.06510537,-0.0261248,-0.7872139,-0.196027,0.08052467,0.8139164,1.514637,0.2008735,0.46641,0.9830614,0.1466524,56.56371,106.9201,170.8482,True
2,0.2333333,0.1091983,-0.1727912,-0.1274444,-1.52408,-1.990932,2.938136,0.71384,1.236701,-0.003450274,-0.910612,1.008137,0,60,-0.05353735,0.1294804,0.05633918,-0.9870229,-1.741868,-0.06386287,0.7472236,1.416364,0.01050708,-0.0288886,0.06616008,-0.02178887,-0.7872443,-0.1949301,0.08024024,0.8137839,1.514636,0.2010652,0.4663028,0.9828405,0.1462059,56.79395,106.2206,170.0468,True
2,0.2444444,0.1103986,-0.2857215,-0.1358428,-1.523684,-1.984079,2.936531,0.7137523,1.236865,-0.00352186,-0.9000941,0.9426082,0,60,-0.0290146,0.1421236,0.04872268,-0.9868737,-1.739806,-0.06549326,0.7476604,1.416623,0.01045531,-0.02797185,0.05983325,-0.0324912,-0.787778,-0.1942909,0.07992892,0.8138385,1.51471,0.2011836,0.4660585,0.9825178,0.1455783,56.68373,104.5529,168.1176,True
2,0.2555556,0.1296462,-0.3485438,-0.1402268,-1.523242,-1.977758,2.934131,0.7136087,1.23704,-0.003527582,-0.8899581,0.9107929,0,60,0.003944039,0.1451388,0.03467846,-0.9870729,-1.737751,-0.06774683,0.7477977,1.416738,0.01050255,-0.0263692,0.05264399,-0.07198188,-0.7898328,-0.193538,0.07965488,0.8137927,1.514699,0.2012841,0.4657287,0.9822516,0.1445996,56.53087,103.8964,167.0377,True
2,0.2666667,0.1808734,-0.4251559,-0.1459949,-1.52293,-1.970361,2.929877,0.7134361,1.237289,-0.003515214,-0.8799446,0.8999364,0,60,0.03686436,0.1353668,0.02490819,-0.9871049,-1.736483,-0.06989573,0.7481613,1.416938,0.01038262,-0.03542314,0.04121448,-0.1102974,-0.7922036,-0.1933267,0.08020775,0.8139789,1.5147,0.2011912,0.4653432,0.9819821,0.143659,56.3929,102.6402,165.4922,True
2,0.2777778,0.2500615,-0.4857699,-0.1626236,-1.522152,-1.962615,2.924352,0.7131641,1.237509,-0.003430933,-0.8695471,0.9354289,0,60,0.05391092,0.1320862,0.02800715,-0.9867821,-1.734819,-0.07197938,0.748337,1.417057,0.01037747,-0.03874044,0.04129284,-0.1198434,-0.7938281,-0.1925017,0.08016994,0.81392,1.5147,0.2013121,0.4648257,0.9816785,0.1428795,56.26321,100.9785,163.5292,True
2,0.2888889,0.3266737,-0.537853,-0.1814637,-1.521343,-1.954478,2.917762,0.7127452,1.237781,-0.00340119,-0.8581621,1.022649,0,60,0.08480915,0.1436315,0.01822391,-0.9871097,-1.732597,-0.07511473,0.7482324,1.417101,0.01040515,-0.04835346,0.04668325,-0.1239337,-0.7949536,-0.191289,0.08008604,0.8139675,1.514784,0.2013836,0.4642646,0.9814308,0.1420089,55.97774,100.3308,162.4936,True
2,0.3,0.4010476,-0.5761088,-0.2077557,-1.520071,-1.946268,2.910581,0.712127,1.238079,-0.003362775,-0.8464847,1.044622,0,60,0.116823,0.1764756,-0.001163874,-0.9879369,-1.728995,-0.07935208,0.7482483,1.417143,0.01039687,-0.05044457,0.05734357,-0.1238331,-0.7962383,-0.189702,0.07960535,0.8138959,1.514805,0.2015032,0.4634653,0.9812332,0.1411645,55.50868,99.60764,161.4248,True
2,0.3111111,0.475633,-0.5940835,-0.2095763,-1.519418,-1.938712,2.902495,0.7113788,1.238404,-0.003221542,-0.8348989,1.035382,0,60,0.1392579,0.2253378,-0.03329426,-0.9896658,-1.724248,-0.08423498,0.7485158,1.417319,0.01030532,-0.05470131,0.06054461,-0.1248178,-0.7974703,-0.1888314,0.07963891,0.8138952,1.514939,0.2014871,0.4623134,0.9810905,0.1402797,54.91072,99.05122,160.4904,True
2,0.3222222,0.5290332,-0.5971738,-0.1984136,-1.519339,-1.931694,2.894602,0.7106566,1.238742,-0.003076524,-0.8239256,0.979156,0,60,0.1551863,0.2603781,-0.07282913,-0.9919721,-1.719831,-0.08879644,0.7483497,1.417365,0.01029253,-0.05372068,0.05524935,-0.1312571,-0.7990676,-0.1882654,0.07957685,0.8139999,1.514947,0.2015777,0.460636,0.9809812,0.1393348,54.27281,98.16133,159.3713,True
2,0.3333333,0.6060699,-0.570353,-0.1619656,-1.520168,-1.926279,2.885073,0.7096586,1.23909,-0.00272882,-0.8132005,0.9570976,0,60,0.1690201,0.2720149,-0.08570316,-0.9936574,-1.715922,-0.09325937,0.7486238,1.417541,0.01020351,-0.05198345,0.05865937,-0.1632176,-0.8018426,-0.1869158,0.07914915,0.8141057,1.514936,0.2016016,0.4589749,0.9808077,0.1384144,53.16897,97.04202,157.8303,True
2,0.3444445,0.6841288,-0.5009286,-0.1213126,-1.521095,-1.923075,2.874774,0.7085183,1.239489,-0.002354771,-0.8033601,0.8751626,0,60,0.1978543,0.2878477,-0.08800871,-0.9949101,-1.711741,-0.09869941,0.7487381,1.417657,0.01018742,-0.05123204,0.06308766,-0.189822,-0.804557,-0.1857242,0.07876565,0.8140328,1.514889,0.2016358,0.4573185,0.9806762,0.1376135,51.95503,96.14453,156.5199,True
2,0.3555556,0.7674786,-0.4080123,-0.08288291,-1.521881,-1.92155,2.863556,0.7071786,1.239933,-0.001850903,-0.7929109,0.9339036,0,60,0.2256446,0.2962348,-0.07965518,-0.9959019,-1.707601,-0.1043855,0.7490089,1.41782,0.01006389,-0.06132171,0.06980222,-0.2311984,-0.8083818,-0.183938,0.07853662,0.8141408,1.514865,0.2016682,0.4554471,0.9807147,0.1369913,51.38728,95.5687,155.8137,True
2,0.3666667,0.8228863,-0.33654,-0.06862724,-1.522029,-1.920046,2.852515,0.7059448,1.240326,-0.001523703,-0.7825869,0.9175307,0,60,0.2374445,0.2961928,-0.06587327,-0.996475,-1.703706,-0.1095118,0.74909,1.417926,0.009922355,-0.07641782,0.09344232,-0.2532306,-0.8118567,-0.1812283,0.07782875,0.8143001,1.514801,0.2017113,0.4540092,0.9806541,0.1368309,50.04442,95.08392,155.1395,True
2,0.3777778,0.9049026,-0.2255733,-0.05044794,-1.521742,-1.921176,2.839786,0.7043991,1.24077,-0.0009587109,-0.7723343,0.9110262,0,60,0.2481648,0.2972121,-0.05528342,-0.9970604,-1.6998,-0.1147772,0.7493913,1.418045,0.009815753,-0.08397369,0.1031307,-0.2637216,-0.8150061,-0.1788725,0.07739226,0.8143206,1.514778,0.2017675,0.4527428,0.9806445,0.1370925,48.45541,94.90291,154.8206,True
2,0.3888889,0.9826434,-0.1242054,-0.03540009,-1.521312,-1.923033,2.826392,0.7027774,1.241292,-0.0005941391,-0.7628721,0.8378178,0,60,0.2577288,0.3152595,-0.07559702,-0.9991216,-1.695118,-0.120454,0.7499175,1.418288,0.009613007,-0.08817047,0.1084459,-0.2604315,-0.8175265,-0.1768212,0.07700264,0.8142188,1.514738,0.2016996,0.4509609,0.9808231,0.1376134,47.16576,95.01643,155.0218,True
2,0.4,1.060304,-0.02817656,-0.02888197,-1.520352,-1.925375,2.812439,0.7010839,1.241903,-0.0001046658,-0.7527856,0.8982925,0,60,0.2907633,0.3459695,-0.1003165,-1.001631,-1.689624,-0.127632,0.7499905,1.418317,0.009405822,-0.08903083,0.1126072,-0.245476,-0.819607,-0.1746951,0.07656455,0.8141789,1.514725,0.2017349,0.4494032,0.9810525,0.1379734,45.64407,95.75871,155.6727,True
2,0.4111111,1.122913,0.0518253,-0.03815916,-1.518696,-1.92817,2.798191,0.6992738,1.242622,0.0004073381,-0.742802,0.8830127,0,60,0.3249614,0.3660363,-0.09946712,-1.003326,-1.684312,-0.1351765,0.7503002,1.41844,0.009196579,-0.1017092,0.1157839,-0.2378311,-0.8216805,-0.1728309,0.07681249,0.8142214,1.51471,0.2017145,0.4473599,0.9813564,0.1386244,44.30706,96.36264,156.2206,True
2,0.4222222,1.155849,0.08491354,-0.04067647,-1.517563,-1.929642,2.784749,0.6975954,1.2433,0.0008534193,-0.7330362,0.8641144,0,60,0.3378258,0.3862074,-0.1038166,-1.00518,-1.678863,-0.1422,0.7507112,1.418734,0.00905636,-0.1091737,0.1190037,-0.2398482,-0.8243506,-0.1709261,0.07686576,0.8143864,1.514643,0.2016099,0.4454993,0.9816896,0.1392269,42.57682,97.26322,157.0623,True
2,0.4333333,1.186607,0.09668099,-0.05166495,-1.516142,-1.93074,2.77069,0.6956849,1.244082,0.001387745,-0.7235212,0.8412035,0,60,0.3444694,0.4415652,-0.1092264,-1.007542,-1.671196,-0.1503317,0.7509608,1.418943,0.008853048,-0.1083183,0.1244515,-0.2579333,-0.8276737,-0.1684355,0.07634537,0.814445,1.51456,0.2015935,0.4432082,0.9821404,0.1401095,41.13404,98.31091,157.97,True
2,0.4444444,1.197312,0.08178066,-0.04963386,-1.515583,-1.930694,2.757271,0.6938186,1.244811,0.001940101,-0.7150486,0.7467386,0,60,0.3468989,0.4618213,-0.07624713,-1.008397,-1.664479,-0.1577729,0.7515836,1.419177,0.008670986,-0.1064261,0.1192374,-0.2750307,-0.8310607,-0.1665004,0.07613391,0.8144791,1.514395,0.2015917,0.4407884,0.9826857,0.1411373,39.79443,99.1273,158.7675,True
2,0.4555556,1.216771,-0.004459791,-0.0380092,-1.516578,-1.92803,2.743037,0.6918077,1.245572,0.002484798,-0.7062245,0.7826913,0,60,0.3300951,0.4566188,-0.03033617,-1.008029,-1.658604,-0.1640278,0.7516992,1.419356,0.008569151,-0.1067992,0.1098343,-0.3017263,-0.8352584,-0.1648337,0.07620262,0.8144698,1.514258,0.2015435,0.4382243,0.9831613,0.142168,38.51713,99.74744,159.3832,True
2,0.4666667,1.224429,-0.1397524,-0.04324386,-1.518152,-1.922463,2.728998,0.6899619,1.246225,0.002937078,-0.6977599,0.7468153,0,60,0.311088,0.4503512,0.004929021,-1.007747,-1.65298,-0.1697685,0.7518237,1.419595,0.008468449,-0.09421495,0.1109431,-0.3167964,-0.839079,-0.1628804,0.07567186,0.8146021,1.514062,0.2012692,0.4354331,0.9835171,0.14318,37.22858,100.3263,159.8801,True
2,0.4777778,1.242619,-0.2590548,-0.05713499,-1.519749,-1.915931,2.714323,0.6880543,1.246978,0.003358275,-0.6885794,0.8151985,0,60,0.3067841,0.4237537,0.02095524,-1.007651,-1.648377,-0.1754895,0.7517638,1.419735,0.008365214,-0.08555289,0.1012295,-0.3031231,-0.8419179,-0.1614985,0.07541406,0.8145123,1.513995,0.2012359,0.4324512,0.9838135,0.1441794,35.96634,100.8261,160.2554,True
2,0.4888889,1.289251,-0.4220222,-0.1096129,-1.521171,-1.905648,2.698016,0.686126,1.247744,0.003676176,-0.6795045,0.8024082,0,60,0.3117935,0.3523603,0.02950002,-1.007496,-1.646473,-0.1801549,0.7514565,1.419738,0.008177668,-0.09051567,0.102105,-0.2742898,-0.8438647,-0.1598106,0.07551686,0.8145111,1.513912,0.2010607,0.4292029,0.9840473,0.1451187,34.66363,101.2093,160.4616,True
2,0.5,1.336761,-0.5391891,-0.1717603,-1.521651,-1.895499,2.68122,0.6842167,1.248553,0.004074037,-0.6698468,0.8571783,0,60,0.3263734,0.271335,0.04332321,-1.006798,-1.645745,-0.1846617,0.7511516,1.419817,0.007987857,-0.08498886,0.08489871,-0.2542365,-0.8459893,-0.1591574,0.07580874,0.8144188,1.513748,0.2010246,0.4256911,0.9842362,0.1458925,33.39949,101.5068,160.4625,True
2,0.5111111,1.35251,-0.5945902,-0.2038059,-1.522455,-1.886637,2.665354,0.6822298,1.249319,0.004366428,-0.6590786,0.956076,0,60,0.334702,0.2116546,0.06249459,-1.005634,-1.644962,-0.1890578,0.7509062,1.419978,0.007790893,-0.07523313,0.06661811,-0.236369,-0.8478876,-0.159052,0.076172,0.8142729,1.513678,0.2008865,0.4218244,0.9843804,0.1464768,32.14564,101.8028,160.311,True
2,0.5222223,1.361017,-0.6617001,-0.2165965,-1.524377,-1.877132,2.649687,0.6800141,1.250216,0.004732937,-0.6482944,0.9534507,0,60,0.3396465,0.1370648,0.06358781,-1.004791,-1.645666,-0.1925098,0.75072,1.42013,0.007639199,-0.06782562,0.04419961,-0.2344705,-0.850301,-0.1592633,0.07675363,0.8140104,1.513525,0.2007971,0.4174627,0.984485,0.1467834,30.81004,102.0722,159.9608,True
2,0.5333334,1.367724,-0.6872227,-0.1910655,-1.527318,-1.868983,2.633908,0.6778011,1.251111,0.005114675,-0.6384982,0.8635039,0,60,0.354196,0.1071313,0.02730619,-1.005719,-1.645736,-0.1968555,0.7502494,1.420206,0.007551074,-0.05497436,0.03344244,-0.226184,-0.8525364,-0.1590268,0.07677148,0.8138196,1.513443,0.2007139,0.4127856,0.984609,0.1468912,29.49518,102.3436,159.5616,True
2,0.5444446,1.375382,-0.6647949,-0.1677449,-1.529566,-1.86299,2.618249,0.6757054,1.251973,0.00546062,-0.6289902,0.8417333,0,60,0.3860009,0.1122702,-0.002709214,-1.007064,-1.64403,-0.2030514,0.7501385,1.420416,0.00744313,-0.05068706,0.0344689,-0.2251887,-0.8552721,-0.1583251,0.07667454,0.8139825,1.513411,0.2005804,0.4080862,0.9847537,0.1469851,28.2797,102.54,159.2223,True
2,0.5555557,1.379777,-0.5944458,-0.1423106,-1.531183,-1.859139,2.602653,0.6733735,1.253005,0.005916923,-0.6192536,0.8623941,0,60,0.4467191,0.1396373,-0.02758897,-1.008754,-1.641447,-0.2114739,0.7496979,1.42056,0.007305175,-0.05506882,0.04202134,-0.236801,-0.8582287,-0.1570646,0.07661036,0.813875,1.513315,0.2005206,0.4034651,0.9850532,0.1471476,27.09668,102.5414,158.8835,True
2,0.5666668,1.346783,-0.4432037,-0.1122922,-1.531175,-1.858968,2.588658,0.671067,1.254063,0.00618583,-0.6095619,0.8574011,0,60,0.4553421,0.1502499,-0.01912468,-1.008986,-1.639134,-0.2178982,0.7490318,1.420684,0.007135093,-0.05755317,0.03261097,-0.262402,-0.8619662,-0.1567134,0.07708813,0.8137918,1.513189,0.2003271,0.3990342,0.9855134,0.1475088,26.00601,102.4148,158.6449,True
2,0.577778,1.322281,-0.3569423,-0.09615594,-1.531485,-1.857499,2.574747,0.6688159,1.255133,0.006623417,-0.59982,0.8619524,0,60,0.4428026,0.1578009,0.0160978,-1.008094,-1.636464,-0.2238294,0.7486811,1.420902,0.006913781,-0.05757999,0.03048261,-0.2656119,-0.864935,-0.1563913,0.07729372,0.8136563,1.513109,0.2001694,0.3948281,0.986016,0.1481622,25.02013,102.1874,158.5453,True
2,0.5888891,1.28627,-0.1534597,-0.03956929,-1.53028,-1.86215,2.561658,0.6665146,1.256305,0.00713551,-0.5909645,0.7808729,0,60,0.4227865,0.1441007,0.06736112,-1.005904,-1.634541,-0.2287144,0.7482202,1.421002,0.006738186,-0.05306333,0.03032888,-0.2454274,-0.8669804,-0.155729,0.07730491,0.8134048,1.51305,0.2000093,0.3884217,0.9866591,0.1497358,27.36877,100.5819,158.3793,True
2,0.6000003,1.274696,-0.06501181,-0.009727567,-1.530059,-1.863882,2.547868,0.6643617,1.257508,0.007671982,-0.5818197,0.8122787,0,60,0.3973835,0.1485139,0.09308124,-1.004476,-1.632013,-0.2336056,0.7480152,1.421244,0.006629348,-0.04953964,0.02479188,-0.216717,-0.8680355,-0.1554807,0.07772036,0.8131332,1.513102,0.1997591,0.3752885,0.9876075,0.1543689,36.66655,98.12492,158.7432,True
2,0.6111114,1.26202,0.06603824,0.02432871,-1.528546,-1.868699,2.534334,0.6621017,1.258701,0.008272439,-0.5726926,0.8089401,0,60,0.380448,0.1613904,0.1006273,-1.003641,-1.629055,-0.2388834,0.7476919,1.421404,0.006537437,-0.04606219,0.03530208,-0.1975119,-0.8695903,-0.1543696,0.07738774,0.8128593,1.513079,0.199644,0.3590783,0.9911038,0.1536303,42.87975,103.7285,169.5258,True
2,0.6222225,1.243842,0.1736229,0.03717373,-1.526344,-1.873307,2.521125,0.6599298,1.259846,0.00872916,-0.5627382,0.8851657,0,60,0.3879881,0.190109,0.08990943,-1.003816,-1.625278,-0.2455664,0.7471757,1.421531,0.00648874,-0.03526767,0.04476907,-0.1901206,-0.871414,-0.153631,0.07683273,0.8126895,1.512973,0.1994898,0.3462926,0.9989011,0.1496969,46.68177,104.3372,173.1684,True
2,0.6333337,1.191451,0.3525113,0.05133957,-1.5215,-1.882173,2.509927,0.6577787,1.260943,0.009320647,-0.5525628,0.9020692,0,60,0.3976546,0.2092325,0.08664145,-1.00375,-1.621572,-0.2523398,0.746738,1.421644,0.006397396,-0.02876045,0.05429006,-0.1837457,-0.873177,-0.1522489,0.0760415,0.8124237,1.512932,0.1994195,0.3370275,1.008948,0.1444635,49.75615,103.0827,175.1648,True
2,0.6444448,1.101782,0.5206905,0.06485147,-1.516054,-1.89184,2.500948,0.6557677,1.261903,0.009654522,-0.5425589,0.8874952,0,60,0.3923059,0.1922264,0.09840938,-1.002638,-1.619357,-0.2577413,0.7461004,1.421585,0.006323069,-0.02112631,0.04987985,-0.1700266,-0.8747222,-0.1520665,0.07574163,0.8122368,1.512863,0.1992487,0.3305528,1.019362,0.1394978,52.39953,102.3685,177.2695,True
2,0.655556,1.034595,0.5962076,0.07184472,-1.511372,-1.899991,2.492054,0.6537435,1.262847,0.01009962,-0.5336,0.7925656,0,0,0.371865,0.1529142,0.09856061,-1.001646,-1.618469,-0.2617618,0.7454929,1.42163,0.00623247,-0.01463775,0.04126215,-0.1605658,-0.8760703,-0.1518552,0.07549902,0.8118196,1.512581,0.1991659,0.32572,1.028461,0.1360918,54.63942,102.3187,179.2821,True
2,0.6666671,0.923773,0.6641972,0.08142801,-1.506739,-1.908272,2.485812,0.6520743,1.263586,0.01033863,-0.5255584,0.714114,0,0,0.3492839,0.1146758,0.09659571,-1.000669,-1.618168,-0.2650343,0.7450666,1.421788,0.006189346,-0.01567259,0.03484545,-0.1563347,-0.8776591,-0.1514839,0.07547452,0.8115215,1.512498,0.1990512,0.321989,1.03511,0.135129,56.32012,103.0104,181.1103,True
2,0.6777782,0.8148556,0.6884567,0.06121812,-1.501717,-1.914766,2.480828,0.6504478,1.264236,0.01051328,-0.5166245,0.7997608,0,0,0.2946107,0.03294203,0.110833,-0.998385,-1.620227,-0.2652695,0.7442756,1.42178,0.006142318,-0.0008853525,-0.01534001,-0.1526011,-0.8793992,-0.1543832,0.07682128,0.8113422,1.512618,0.1987025,0.319291,1.03881,0.1368199,57.17604,104.0976,182.2293,True
2,0.6888894,0.7133846,0.6839768,0.03564128,-1.496766,-1.920386,2.476677,0.6490431,1.264724,0.01060584,-0.5085887,0.7137889,0,0,0.2451951,-0.04564111,0.1090546,-0.9964175,-1.623561,-0.2645241,0.7434683,1.421785,0.006061763,0.02558856,-0.06551702,-0.1511433,-0.8812128,-0.1573226,0.07752541,0.8109746,1.512542,0.1984177,0.3176667,1.039698,0.1407482,57.10014,105.2233,182.3772,True
2,0.7000005,0.6515918,0.6486924,0.02887115,-1.493156,-1.925223,2.471523,0.6475885,1.265272,0.010764,-0.5004857,0.7272813,0,0,0.2311358,-0.07966474,0.1027724,-0.994966,-1.625684,-0.2654929,0.7426772,1.421804,0.005975127,0.03941312,-0.1125323,-0.1409688,-0.8825785,-0.1610689,0.07891799,0.8107855,1.512263,0.1980345,0.3173475,1.038309,0.1460439,56.34097,106.474,181.8614,True
2,0.7111117,0.5226676,0.5418909,0.00797914,-1.49119,-1.926714,2.470184,0.6465669,1.265445,0.01074654,-0.4918544,0.7752362,0,0,0.2266069,-0.113739,0.08791556,-0.9939604,-1.628068,-0.2665625,0.7413824,1.421607,0.005919486,0.04912059,-0.120102,-0.1294227,-0.883754,-0.1630411,0.07928789,0.8104668,1.512181,0.1978127,0.3180841,1.035276,0.1516579,55.08178,107.7965,180.9743,True
2,0.7222228,0.4556959,0.4725172,0.009843059,-1.489563,-1.929231,2.46737,0.6453207,1.265843,0.01096982,-0.4817781,0.9067702,0,0,0.2445069,-0.1362056,0.07184824,-0.9931897,-1.630285,-0.2686927,0.7408326,1.421721,0.005729884,0.05460748,-0.1084964,-0.1219686,-0.8852337,-0.1644182,0.07919149,0.8105493,1.512264,0.1976123,0.3194245,1.031295,0.1566333,53.48872,108.9419,179.98,True
2,0.7333339,0.3836701,0.3435012,0.02673877,-1.490574,-1.929295,2.465651,0.644419,1.265944,0.01100686,-0.4741673,0.6754215,0,0,0.2376627,-0.1788172,0.03144081,-0.9933,-1.634539,-0.2687809,0.7399893,1.421703,0.005633771,0.05059063,-0.08939886,-0.1079405,-0.885981,-0.1647647,0.07898962,0.810281,1.512246,0.1975043,0.3208022,1.027066,0.1603402,51.81152,109.6719,179.0291,True
2,0.7444451,0.3382413,0.1847085,0.0359348,-1.492862,-1.927529,2.463162,0.6435761,1.26605,0.01120266,-0.4651413,0.82,0,0,0.2288845,-0.1990265,0.004871555,-0.9934214,-1.637908,-0.2691457,0.7392087,1.421633,0.005592406,0.04755321,-0.08202948,-0.09931439,-0.8867405,-0.1663036,0.07929802,0.8101311,1.512237,0.197324,0.3219662,1.023087,0.1623168,50.38359,109.986,178.3014,True
2,0.7555562,0.3171728,0.07814293,0.03948613,-1.495031,-1.925678,2.460211,0.6427701,1.266156,0.01124439,-0.4568616,0.7399774,0,0,0.2083638,-0.2223826,-0.02268765,-0.9937798,-1.642161,-0.2684365,0.7385151,1.421597,0.005530924,0.03275929,-0.07136624,-0.09266553,-0.8875586,-0.1667433,0.07974037,0.809902,1.512221,0.1972165,0.3225544,1.019709,0.1626294,49.14225,109.9292,178.0051,True
2,0.7666674,0.2917728,-0.0774546,0.02717403,-1.498681,-1.92099,2.457276,0.6421871,1.266242,0.01120102,-0.4483799,0.7643418,0,0,0.1880499,-0.2361275,-0.02257055,-0.9933058,-1.645668,-0.2678764,0.7381382,1.421669,0.00544703,0.01995544,-0.06383913,-0.09564435,-0.8886979,-0.1672484,0.08036169,0.8093266,1.512113,0.1970808,0.3225513,1.017152,0.1615308,48.2375,109.4325,177.931,True
2,0.7777785,0.2693669,-0.2138869,-0.0001097918,-1.502291,-1.915175,2.45469,0.6417415,1.26624,0.01117727,-0.4399707,0.754063,0,0,0.1552657,-0.2146363,-2.427772E-05,-0.992109,-1.647377,-0.2675321,0.7377071,1.42162,0.005401284,0.01132031,-0.06481874,-0.1040595,-0.8901398,-0.1681456,0.08109406,0.8088911,1.512062,0.1969727,0.3219034,1.015475,0.1594581,47.60582,108.6709,178.046,True
2,0.7888896,0.2469393,-0.2874597,-0.01895638,-1.505217,-1.910244,2.452365,0.6412528,1.266234,0.01122215,-0.4325171,0.6665771,0,0,0.1278861,-0.1686805,0.01606518,-0.9914618,-1.647443,-0.267873,0.7371943,1.421544,0.005356252,0.003864273,-0.06480152,-0.1050247,-0.8913392,-0.1692689,0.08185013,0.8085837,1.512022,0.19679,0.3207215,1.014673,0.1568676,47.2463,107.8956,178.3136,True
2,0.8000008,0.199895,-0.4047843,-0.05666533,-1.509007,-1.902741,2.451182,0.6410165,1.266104,0.01129642,-0.426525,0.5359562,0,0,0.09224641,-0.07260837,0.03217543,-0.9912301,-1.644009,-0.2694661,0.736939,1.421445,0.00535813,-0.007494852,-0.05427263,-0.07921511,-0.8909605,-0.1695601,0.08252443,0.8078172,1.512075,0.196756,0.3191738,1.014675,0.1540906,47.18119,107.0355,178.4738,True
2,0.8111119,0.1786541,-0.4559628,-0.05957586,-1.512743,-1.896996,2.449577,0.6405823,1.266006,0.01135299,-0.4218857,0.4147767,0,0,0.03949545,0.02779637,0.03346689,-0.9919178,-1.639517,-0.2705734,0.7365503,1.421321,0.005320042,-0.008251563,-0.04696074,-0.05678348,-0.8908674,-0.1699229,0.08288503,0.8072717,1.512087,0.1967494,0.3174091,1.015293,0.1513893,47.37324,106.2214,178.6106,True
2,0.8222231,0.1786541,-0.4559628,-0.05957586,-1.512743,-1.896996,2.449577,0.6405823,1.266006,0.01135299,-0.4192806,0.2303451,0,0,0.03949545,0.02779637,0.03346689,-0.9919178,-1.639517,-0.2705734,0.7365503,1.421321,0.005320042,-0.008251563,-0.04696074,-0.05678348,-0.8908674,-0.1699229,0.08288503,0.8072717,1.512087,0.1967494,0.3155827,1.016297,0.1490108,47.74367,105.5416,178.7643,True
2,0.8333342,0.1116149,-0.5296039,-0.06517452,-1.52038,-1.885387,2.448334,0.6397111,1.265591,0.0114142,-0.4179964,0.1151899,0,0,-0.01458087,0.09623647,0.01881512,-0.9928755,-1.63477,-0.2712059,0.7356904,1.421103,0.005273908,-0.009553223,-0.04417262,0.009307873,-0.8886622,-0.1708346,0.08384909,0.8059697,1.512011,0.1966825,0.3140159,1.017478,0.1470396,48.27504,104.9901,178.9066,True
2,0.8444453,0.08934367,-0.5370905,-0.05747157,-1.52399,-1.880569,2.447717,0.6392767,1.265358,0.01138479,-0.4160193,0.1804593,0,0,-0.004263159,0.09081668,-0.03237145,-0.9949666,-1.634644,-0.2715308,0.7351575,1.421059,0.005250514,-0.003195812,-0.04523682,0.00816831,-0.8885935,-0.1712494,0.08416734,0.8057361,1.512078,0.196534,0.3128426,1.018551,0.1457203,48.7193,104.6691,179.0729,True
2,0.8555565,0.04693493,-0.5211633,-0.034679,-1.527701,-1.876686,2.448418,0.6387863,1.265109,0.0113911,-0.4158995,0.003280727,0,0,0.009267217,0.05876618,-0.05905749,-0.9963812,-1.635651,-0.2715431,0.7344506,1.420963,0.005193114,0.008387083,-0.04520738,-0.002631658,-0.889034,-0.1718477,0.0840254,0.8052208,1.511991,0.1964831,0.311328,1.019238,0.1449456,48.88938,103.7252,178.2957,True
2,0.8666676,0.02248556,-0.4871064,-0.02381143,-1.530625,-1.873345,2.448682,0.6382709,1.264917,0.01139,-0.4160097,-0.007927428,0,0,0.04596424,-0.03198945,-0.08050318,-0.9969251,-1.640086,-0.2708717,0.7334383,1.420828,0.005212814,0.01243018,-0.03442074,-0.02176719,-0.8896343,-0.1713895,0.0836712,0.8047407,1.511851,0.1963975,0.3099646,1.019645,0.1445041,49.04573,103.1668,177.7828,True
2,0.8777788,0.01179077,-0.4530436,-0.02161174,-1.533102,-1.869958,2.44859,0.6377113,1.264717,0.01134396,-0.417107,-0.100985,0,0,0.04994929,-0.08527599,-0.08154766,-0.9970859,-1.64318,-0.2698091,0.732687,1.420799,0.00520736,0.02296767,-0.02266292,-0.03248246,-0.8903416,-0.1710422,0.08321313,0.8045566,1.511881,0.1962832,0.3089117,1.019826,0.1443165,49.16478,102.8337,177.4653,True
2,0.8888899,0.005255111,-0.3827476,-0.02269933,-1.534094,-1.868348,2.44868,0.6370468,1.264616,0.01139361,-0.4177909,-0.05835723,0,0,0.04455971,-0.107613,-0.07297532,-0.997088,-1.645549,-0.2688408,0.7318552,1.420719,0.005209208,0.02837643,-0.01845571,-0.02719613,-0.8904929,-0.171119,0.08277638,0.8039579,1.511855,0.1962533,0.3082227,1.019778,0.1443361,49.23107,102.5163,177.1462,True
2,0.900001,0.00618495,-0.3134976,-0.02386475,-1.534555,-1.867257,2.448427,0.6364491,1.264509,0.01139095,-0.4180609,-0.02405463,0,0,0.02970484,-0.1245599,-0.04730644,-0.9962987,-1.647452,-0.267538,0.7307403,1.420623,0.005187035,0.03485775,-0.02171294,-0.01877692,-0.890405,-0.1713221,0.08240619,0.8033409,1.511717,0.1961623,0.3077704,1.0195,0.1444911,49.16328,102.2534,176.7906,True
2,0.9111122,0.01353763,-0.2122696,-0.01554805,-1.533783,-1.868346,2.448055,0.6355565,1.264452,0.01141271,-0.4183714,-0.02861489,0,0,0.01380992,-0.1202092,-0.03656361,-0.9960361,-1.648844,-0.2664138,0.7298052,1.420592,0.005164117,0.04253934,-0.01545297,-0.002851726,-0.8899304,-0.1713361,0.08167888,0.8025889,1.511726,0.1961623,0.3073586,1.019036,0.1446625,48.97681,102.0674,176.448,True
2,0.9222233,0.02001973,-0.1206077,0.009838898,-1.533533,-1.870252,2.447687,0.6346378,1.264386,0.01138613,-0.418405,-0.00238632,0,0,0.005302455,-0.1212282,-0.03225137,-0.995962,-1.650421,-0.2652897,0.7288852,1.420529,0.005137533,0.04693827,-0.01552422,0.007733205,-0.8897238,-0.1713126,0.08096835,0.8018808,1.511713,0.196005,0.3069041,1.018495,0.1447824,48.75,102.0245,176.279,True
2,0.9333345,0.02231811,-0.04066684,0.0406075,-1.533222,-1.87301,2.447464,0.6336069,1.264457,0.01140171,-0.4183107,0.007941642,60,0,0.004314419,-0.1084377,-0.03012535,-0.9960196,-1.651368,-0.2647752,0.7279263,1.42056,0.005068749,0.05246593,-0.0007067285,0.0194809,-0.889075,-0.1707101,0.07980561,0.8010814,1.511717,0.1959902,0.3063597,1.01799,0.1448273,48.53834,102.0516,176.2489,True
2,0.9444456,0.02346229,0.009430249,0.05757873,-1.533145,-1.874982,2.447303,0.6326246,1.264568,0.011408,-0.4182675,0.00303769,60,0,0.00757654,-0.1009854,-0.02375217,-0.9957693,-1.652252,-0.2643949,0.7264507,1.420349,0.005058229,0.05677339,0.005669281,0.02160446,-0.8887096,-0.1701346,0.07872837,0.8007443,1.511533,0.1960749,0.3056549,1.017591,0.1448866,48.36915,102.1533,176.3873,True
2,0.9555568,0.02868941,0.0381978,0.0532261,-1.532568,-1.876362,2.446855,0.6316199,1.264682,0.01140887,-0.4183645,-0.009410987,60,0,0.01203386,-0.1073651,0.01564057,-0.9940536,-1.653387,-0.2640226,0.7252519,1.420334,0.004976869,0.05892312,0.003517218,0.02369384,-0.8883805,-0.1701912,0.07803541,0.7999399,1.511522,0.1960171,0.304866,1.017389,0.1450873,48.26619,102.2195,176.5539,True
2,0.9666679,0.04859418,0.07017135,0.02633595,-1.530757,-1.877218,2.445641,0.630594,1.264729,0.01146558,-0.4185413,-0.01620509,60,0,0.007834997,-0.1222388,0.03911525,-0.9923785,-1.655165,-0.2629832,0.7242303,1.420296,0.004973978,0.05466772,-0.008233331,0.0269146,-0.8873599,-0.1716011,0.07841811,0.800055,1.511681,0.1958633,0.304055,1.017428,0.1455501,48.22428,102.3,176.6904,True
2,0.977779,0.06964054,0.08615734,0.003726935,-1.529387,-1.877782,2.444182,0.6294413,1.264767,0.01142231,-0.4185211,0.002044264,60,0,0.01966679,-0.132924,0.06675724,-0.9903369,-1.656651,-0.2628703,0.7234638,1.420305,0.004958034,0.04616242,-0.02635203,0.03330239,-0.8867634,-0.1727646,0.07892092,0.799166,1.511773,0.1957127,0.3032292,1.017698,0.1462657,48.25314,102.4266,176.7025,True
2,0.9888902,0.1131971,0.0904896,-0.007385314,-1.528222,-1.878407,2.44149,0.6281767,1.264815,0.0115034,-0.418022,0.04465718,60,0,0.02827537,-0.1393423,0.08695294,-0.9882677,-1.658171,-0.2626519,0.7224388,1.420222,0.004959673,0.03654118,-0.03909347,0.03440165,-0.8864588,-0.1735783,0.07939016,0.7979968,1.511644,0.1954701,0.3022811,1.018127,0.1471056,48.33984,102.6668,176.643,True
2,1.000001,0.1621514,0.08098441,-0.01426953,-1.527695,-1.878613,2.438215,0.6268051,1.264836,0.01152536,-0.4175469,0.04038054,60,0,0.04848831,-0.1426344,0.08577912,-0.986926,-1.6597,-0.2629406,0.7213039,1.420022,0.005017251,0.03133584,-0.05512451,0.04820071,-0.8856875,-0.1747116,0.07986261,0.7968359,1.511713,0.1952651,0.3010696,1.018645,0.147871,48.45448,102.9997,176.5836,True
2,1.011112,0.1972875,0.07252476,-0.01781853,-1.527124,-1.878802,2.434869,0.625459,1.264867,0.01152974,-0.4165088,0.09235502,60,0,0.05581925,-0.1416249,0.06336365,-0.9865691,-1.66148,-0.2628252,0.7202222,1.419843,0.004970819,0.02817749,-0.0711416,0.05559282,-0.8849226,-0.1765423,0.08082614,0.7959058,1.511734,0.1950394,0.2995345,1.019238,0.1484071,48.55827,103.2303,176.5219,True
2,1.022224,0.2399406,0.04916901,-0.01822733,-1.527135,-1.878498,2.4309,0.6239734,1.264911,0.01154414,-0.4158324,0.05631734,60,0,0.06192411,-0.1267926,0.001527678,-0.9883838,-1.663161,-0.2627632,0.7189791,1.419588,0.004836559,0.02720919,-0.08931701,0.06825675,-0.8840677,-0.1783544,0.0816962,0.7950802,1.511767,0.1948287,0.2976444,1.019955,0.1487033,48.61407,103.3067,176.517,True
2,1.033335,0.2645783,0.0236595,-0.009926751,-1.527653,-1.878146,2.427107,0.6225319,1.265007,0.01153716,-0.4162835,-0.04570978,60,0,0.06260671,-0.1172698,-0.07199079,-0.991309,-1.6653,-0.2623081,0.717828,1.419342,0.004685372,0.0261965,-0.1010805,0.07564965,-0.8831282,-0.1804551,0.08276226,0.7941365,1.511782,0.1946352,0.2954468,1.020908,0.1488073,48.67743,103.2655,176.5425,True
2,1.044446,0.273234,0.005581792,-0.0004128218,-1.528137,-1.877979,2.423888,0.6210668,1.265191,0.01163036,-0.4175836,-0.1211921,60,0,0.05906562,-0.1087792,-0.1369609,-0.9944541,-1.667467,-0.2615299,0.7163429,1.419049,0.004593104,0.01653493,-0.09885751,0.07041901,-0.8831511,-0.1812081,0.08357985,0.792979,1.511644,0.1945044,0.293025,1.022212,0.1487908,48.80348,103.1771,176.591,True
2,1.055557,0.280596,-0.01679163,-0.01323928,-1.528329,-1.877017,2.420565,0.6195371,1.265512,0.01160455,-0.4202649,-0.2478256,60,0,0.05682351,-0.1098483,-0.1550573,-0.9964148,-1.669672,-0.2609022,0.7151906,1.418853,0.004489452,0.007013164,-0.08818551,0.07274128,-0.8823074,-0.1821074,0.08442806,0.7919903,1.511659,0.1943041,0.2903634,1.023957,0.1487468,49.00715,103.012,176.5947,True
2,1.066668,0.2804657,-0.01787352,-0.02602093,-1.52796,-1.876366,2.417391,0.6181228,1.265723,0.01161987,-0.4244306,-0.3804896,60,0,0.06428669,-0.1109483,-0.1519074,-0.9974747,-1.671623,-0.2607067,0.7138791,1.418756,0.004392922,0.008133437,-0.09033549,0.07800832,-0.8817253,-0.1831717,0.08500145,0.7914643,1.511849,0.1939281,0.2875626,1.026218,0.1487646,49.34888,102.8079,176.5831,True
2,1.077779,0.2844228,0.003404308,-0.05165377,-1.526434,-1.876021,2.414061,0.616616,1.265923,0.01165938,-0.4294566,-0.4555754,60,0,0.07722598,-0.1109915,-0.1253503,-0.9975642,-1.673179,-0.261173,0.7127287,1.418623,0.004319549,0.01140152,-0.09784268,0.08536042,-0.8808336,-0.1848493,0.08575858,0.7906742,1.511906,0.1937351,0.2846783,1.028986,0.1489317,49.83368,102.6604,176.575,True
2,1.08889,0.2886573,0.01726121,-0.05171524,-1.525538,-1.876102,2.410726,0.6151094,1.266092,0.01165807,-0.4354684,-0.5453359,60,0,0.08180655,-0.1322589,-0.05184546,-0.9948291,-1.675017,-0.2612244,0.7114747,1.418531,0.004301935,0.0124899,-0.09892584,0.08747025,-0.879869,-0.1864274,0.08658043,0.7897525,1.511903,0.1935573,0.2816889,1.032205,0.149226,50.44712,102.6025,176.5204,True
2,1.100002,0.3016405,0.03972551,-0.02842778,-1.525104,-1.877677,2.406996,0.6136148,1.266212,0.01185358,-0.4422083,-0.6102753,60,0,0.06813818,-0.1545218,-0.0006095953,-0.9925804,-1.677415,-0.2600555,0.7102032,1.41848,0.004266411,0.01874863,-0.09565998,0.07566325,-0.8799148,-0.1873471,0.0867064,0.7889903,1.511873,0.1933518,0.278607,1.03577,0.1495957,51.20537,102.6603,176.5121,True
2,1.111113,0.3103729,0.06747201,-0.002984714,-1.524596,-1.879396,2.40334,0.6121111,1.266367,0.0118635,-0.4496891,-0.6777086,60,0,0.07044602,-0.1577021,0.03240419,-0.9907215,-1.679119,-0.2599738,0.709054,1.418381,0.004222155,0.01543716,-0.09025136,0.06508723,-0.8796043,-0.1884786,0.08734955,0.7880797,1.511871,0.1932008,0.2754025,1.03956,0.1499953,52.0407,102.806,176.5768,True
2,1.122224,0.3115454,0.08027373,0.009771075,-1.524105,-1.880734,2.399887,0.6106524,1.266547,0.011893,-0.4575114,-0.7078345,60,0,0.07367318,-0.158774,0.03984712,-0.9899199,-1.680845,-0.2599426,0.7075951,1.418168,0.00413847,0.01126279,-0.07745311,0.06840847,-0.8788772,-0.1887119,0.08752239,0.7870729,1.511817,0.1930439,0.2721682,1.043502,0.1504488,52.90473,102.8422,176.6514,True
2,1.133335,0.3136177,0.1047992,0.008660443,-1.522751,-1.882401,2.396396,0.6092551,1.266908,0.01189393,-0.465961,-0.7658584,60,0,0.07152808,-0.1555775,0.03453641,-0.9891454,-1.68283,-0.2595341,0.7064698,1.41804,0.004144579,0.008389413,-0.05519995,0.08777135,-0.8772601,-0.1887241,0.08753997,0.786109,1.511845,0.1929652,0.2690312,1.047543,0.1511273,53.75617,102.8135,176.7692,True
2,1.144446,0.3092509,0.1165378,0.0001855921,-1.521329,-1.883878,2.393075,0.607836,1.267298,0.01196083,-0.4751607,-0.8323916,60,0,0.06614134,-0.1502361,0.01964923,-0.989065,-1.684656,-0.2590814,0.7053778,1.417965,0.004054248,0.005323164,-0.04884316,0.09636671,-0.8760405,-0.1890948,0.08782466,0.7850978,1.511785,0.192816,0.2660733,1.051645,0.1521179,54.58229,102.8485,176.8228,True
2,1.155557,0.3038025,0.100529,-0.01465281,-1.520437,-1.883813,2.389877,0.6065311,1.267618,0.01196647,-0.4848013,-0.8712549,60,0,0.05120441,-0.1522931,0.0176076,-0.9885206,-1.686681,-0.2580092,0.7043638,1.417895,0.003961831,-0.009410575,-0.04781917,0.1104105,-0.8743445,-0.1899088,0.08898474,0.7841465,1.511826,0.1926566,0.2633136,1.055797,0.153379,55.37333,102.9774,176.7728,True
2,1.166668,0.2963176,0.08348444,-0.0209405,-1.519881,-1.883956,2.386822,0.6053531,1.268095,0.01209044,-0.4947951,-0.9036817,60,0,0.03209819,-0.1670945,0.04223747,-0.986519,-1.689044,-0.2564137,0.7034667,1.417807,0.003920227,-0.02026565,-0.07115547,0.1007805,-0.8740947,-0.1920945,0.0909608,0.7835958,1.511924,0.1923663,0.2607227,1.060013,0.1547973,56.12366,103.24,176.7133,True
2,1.17778,0.301637,0.08135504,-0.02205679,-1.51916,-1.884357,2.38331,0.6040418,1.268355,0.01208526,-0.5051149,-0.9322406,60,0,0.03540318,-0.1617685,0.05713228,-0.9850463,-1.690474,-0.2560946,0.7025709,1.417727,0.003873676,-0.03127579,-0.09012722,0.07733386,-0.8744394,-0.1939853,0.09277201,0.7827854,1.512097,0.1921429,0.2581985,1.06429,0.1562392,56.88165,103.518,176.6061,True
2,1.188891,0.3143861,0.07072072,-0.02750164,-1.518497,-1.884324,2.379385,0.6027489,1.268552,0.01217288,-0.5156237,-0.948797,60,0,0.03996214,-0.1372646,0.08691482,-0.982945,-1.690676,-0.25657,0.7016418,1.417558,0.003873378,-0.0314253,-0.1017878,0.06873407,-0.8741059,-0.1960553,0.09445141,0.7818558,1.512109,0.1919757,0.2557094,1.068632,0.1575093,57.6635,103.6764,176.3988,True
2,1.200002,0.3196834,0.06858973,-0.03074697,-1.517743,-1.884472,2.375731,0.6014621,1.268529,0.01230282,-0.5257069,-0.9098264,60,0,0.04017297,-0.0957178,0.08688113,-0.9821179,-1.690054,-0.257378,0.7007437,1.417426,0.003838241,-0.03237537,-0.09224094,0.07520176,-0.873087,-0.1970557,0.09544662,0.7809424,1.512051,0.191727,0.253262,1.073036,0.1585209,58.45972,103.7498,176.2444,True
2,1.211113,0.3133452,0.07497697,-0.02429762,-1.516983,-1.885185,2.372535,0.6001372,1.268619,0.01238748,-0.5355473,-0.8893468,60,0,0.03278527,-0.07331523,0.07944913,-0.9814915,-1.689915,-0.2575591,0.6997421,1.417212,0.003802687,-0.03410345,-0.07323468,0.1019833,-0.8710747,-0.1973863,0.0961457,0.7801526,1.512172,0.1916117,0.2507261,1.077437,0.1592855,59.2822,103.8071,176.1914,True
2,1.222224,0.2869419,0.0738795,-0.002720475,-1.516966,-1.886149,2.370274,0.5988865,1.268583,0.01249632,-0.5457158,-0.9199867,60,0,0.01884704,-0.04664505,0.04116003,-0.9823592,-1.689849,-0.2573205,0.698797,1.417133,0.003704756,-0.03272012,-0.06059685,0.1233595,-0.8690443,-0.1979548,0.09679446,0.7791317,1.512203,0.1915106,0.2480754,1.08181,0.1598362,60.13028,103.8109,176.1917,True
2,1.233335,0.2584103,0.06319553,0.01782896,-1.517358,-1.887029,2.368398,0.5975854,1.268543,0.0125671,-0.5562885,-0.9552191,60,0,0.008004433,-0.0349075,-0.001398682,-0.9838542,-1.690275,-0.2567889,0.6976988,1.416912,0.003628522,-0.02820949,-0.0511388,0.1404125,-0.8669532,-0.1985622,0.09735291,0.7780921,1.51223,0.1914343,0.2453983,1.086117,0.1602333,61.01093,103.7852,176.2433,True
2,1.244446,0.2361217,0.0535708,0.02445582,-1.517434,-1.887435,2.36656,0.5962889,1.268533,0.01263592,-0.5673071,-0.9950148,60,0,0.003356066,-0.04239077,-0.06102434,-0.9863704,-1.692073,-0.2556829,0.6963248,1.416579,0.003565639,-0.02806516,-0.04586903,0.1510639,-0.8655407,-0.1989046,0.09801126,0.7772293,1.512258,0.1912924,0.2428587,1.090339,0.160571,61.89227,103.7158,176.306,True
2,1.255558,0.2136933,0.03860187,0.01618322,-1.517446,-1.887277,2.364992,0.5950544,1.268485,0.01264131,-0.5782772,-0.9879172,60,0,0.001977988,-0.06371932,-0.09615456,-0.988282,-1.694479,-0.2543292,0.6950421,1.41637,0.003511757,-0.02696538,-0.04375655,0.153195,-0.8637931,-0.1996725,0.09875268,0.7762024,1.512293,0.1911716,0.2405957,1.094405,0.1609694,62.78236,103.5537,176.2864,True
2,1.266669,0.179515,0.02041748,0.003768161,-1.517252,-1.886747,2.363988,0.5938792,1.268529,0.01265845,-0.5889086,-0.9573601,60,0,0.008108996,-0.1053091,-0.1046762,-0.9887869,-1.697983,-0.2526876,0.6935878,1.416129,0.00351876,-0.0258826,-0.04802584,0.1563219,-0.8624163,-0.2004294,0.09960063,0.7751906,1.512305,0.1909989,0.2385815,1.098233,0.1615211,63.60931,103.3887,176.1726,True
2,1.27778,0.1453223,0.01074507,-0.007584682,-1.517095,-1.886292,2.363463,0.5926499,1.2685,0.01265037,-0.599435,-0.9487493,60,0,0.01542047,-0.1490156,-0.09189796,-0.9884977,-1.701736,-0.2510349,0.6923137,1.416037,0.003548324,-0.02702938,-0.06718976,0.1551415,-0.8608934,-0.2025759,0.1013474,0.7741327,1.512323,0.1908135,0.2367283,1.101789,0.1622133,64.33873,103.3414,176.0199,True
2,1.288891,0.121819,0.01175599,-0.01373564,-1.516728,-1.886163,2.362875,0.5914631,1.268435,0.01263463,-0.609947,-0.9472091,60,0,0.01543981,-0.1809493,-0.06097824,-0.9874101,-1.705237,-0.2492924,0.6909926,1.415904,0.003547937,-0.015413,-0.08211757,0.1516937,-0.8595214,-0.2046019,0.1025131,0.7730167,1.512226,0.1905874,0.2349895,1.105081,0.1629277,64.98994,103.3812,175.8319,True
2,1.300002,0.1100225,0.01598381,-0.02001349,-1.516196,-1.886061,2.361995,0.5901959,1.268279,0.01262444,-0.6203988,-0.9404035,60,0,0.000679791,-0.2042695,-0.01399669,-0.9853888,-1.708157,-0.2471613,0.6897056,1.415777,0.003549904,-0.009056404,-0.08852245,0.1505051,-0.8579986,-0.2063304,0.1035051,0.7718558,1.512224,0.1904747,0.2333387,1.108133,0.1635272,65.5886,103.4483,175.6539,True
2,1.311113,0.09506103,0.01807951,-0.02412327,-1.515698,-1.885954,2.36146,0.5889709,1.268154,0.01259226,-0.6304288,-0.9016134,60,0,-0.01407859,-0.2116247,0.01912024,-0.9834532,-1.710827,-0.245018,0.6883914,1.415624,0.003543019,-0.004653692,-0.0875419,0.1611121,-0.8558947,-0.2078119,0.1043544,0.7705791,1.512193,0.1903772,0.2317341,1.110955,0.1639355,66.16355,103.4769,175.5144,True
2,1.322224,0.07698632,-0.002198888,-0.02391083,-1.516039,-1.885262,2.361236,0.5876722,1.268132,0.01264468,-0.6398798,-0.8504548,60,0,-0.04053638,-0.1965612,0.03630309,-0.982291,-1.712428,-0.2427754,0.6868279,1.415434,0.003519177,-0.006563812,-0.08124899,0.1771606,-0.8534569,-0.2090344,0.1053815,0.7693336,1.512191,0.1902992,0.2301472,1.11357,0.1641551,66.701,103.4685,175.4452,True
2,1.333336,0.06646504,-0.04056378,-0.01842729,-1.517255,-1.884009,2.360795,0.58641,1.267984,0.01263657,-0.6494401,-0.8616734,60,0,-0.05639253,-0.1634628,0.02891194,-0.9820225,-1.713179,-0.2412054,0.6854506,1.415302,0.003541291,-0.005263001,-0.07178303,0.19319,-0.8508501,-0.2102062,0.1061637,0.7678976,1.51213,0.1903029,0.2285149,1.116016,0.16423,67.19174,103.4253,175.4104,True
2,1.344447,0.0591019,-0.06720198,-0.01512375,-1.5183,-1.882841,2.360164,0.5851848,1.26778,0.01268706,-0.6591984,-0.8782658,60,0,-0.05966684,-0.1379053,-0.006245524,-0.9831278,-1.714318,-0.239856,0.6843638,1.415341,0.003541201,-0.003753349,-0.04641124,0.2210411,-0.8474413,-0.2102591,0.1061797,0.7665279,1.512132,0.1902846,0.2268753,1.118366,0.1641935,67.63223,103.2862,175.3171,True
2,1.355558,0.04441786,-0.116219,-0.002126619,-1.520742,-1.880977,2.360105,0.583926,1.267592,0.01264739,-0.6687911,-0.8625968,60,0,-0.05658996,-0.1294214,-0.03396853,-0.9841419,-1.716,-0.2384118,0.6829522,1.415261,0.003505051,-0.001381189,-0.03160584,0.236027,-0.8442791,-0.2104134,0.1062338,0.7651672,1.512142,0.1902585,0.2252054,1.120703,0.1640818,68.04292,102.9501,175.0439,True
2,1.366669,0.02653798,-0.1663092,0.01089968,-1.523526,-1.878828,2.360335,0.5826952,1.267532,0.01262414,-0.6781527,-0.8429555,60,0,-0.05665693,-0.1358174,-0.04035561,-0.9843293,-1.718272,-0.2366003,0.6814239,1.415205,0.003456116,0.007066295,-0.03373076,0.2305927,-0.8418928,-0.2114559,0.1065427,0.7635009,1.512234,0.1901771,0.2235171,1.123086,0.16391,68.48215,102.4744,174.642,True
2,1.37778,0.006455198,-0.2004281,0.01967368,-1.526234,-1.876832,2.360797,0.5814433,1.267456,0.01261792,-0.6879914,-0.8868361,60,0,-0.05451428,-0.1432776,-0.03183709,-0.983867,-1.720453,-0.2348551,0.680289,1.415328,0.003362954,0.01971737,-0.0475793,0.2239463,-0.8397863,-0.2131101,0.1070287,0.7620153,1.512204,0.1900539,0.2218337,1.125552,0.1637084,68.96379,101.9673,174.2151,True
2,1.388891,-0.00971318,-0.2143336,-0.001455233,-1.527581,-1.874331,2.361259,0.580138,1.267332,0.01266575,-0.698064,-0.9057451,60,0,-0.04264536,-0.146516,-0.003132824,-0.9824476,-1.722327,-0.2336921,0.6783795,1.415157,0.003422499,0.02513573,-0.04551333,0.230287,-0.837072,-0.2142162,0.1072745,0.7605045,1.512208,0.1899935,0.2201897,1.128118,0.1634689,69.47119,101.2725,173.5804,True
2,1.400002,-0.01750762,-0.2197138,-0.03545779,-1.528309,-1.871521,2.361494,0.5787063,1.267307,0.01266983,-0.7082448,-0.9154622,0,0,-0.03294979,-0.1561321,0.02344894,-0.9809226,-1.724419,-0.2325129,0.6770196,1.41528,0.003438264,0.02418324,-0.04342793,0.2377724,-0.8342038,-0.2151295,0.1075605,0.7590485,1.512283,0.1899497,0.2186097,1.130789,0.1631833,69.99499,100.4959,172.8684,True
2,1.411114,-0.005977996,-0.2079923,-0.05157162,-1.5289,-1.869377,2.361113,0.577148,1.267196,0.0126816,-0.7182401,-0.8986411,0,0,-0.02000087,-0.1763999,0.06919818,-0.9780353,-1.726802,-0.2314154,0.6752117,1.415213,0.003546566,0.0199953,-0.03811567,0.242123,-0.831417,-0.2158708,0.1079656,0.7573187,1.512289,0.1899611,0.217055,1.133524,0.1628653,70.57214,99.83913,172.2743,True
2,1.422225,0.01114875,-0.1940942,-0.04111516,-1.530011,-1.86818,2.360355,0.5755556,1.267042,0.01272991,-0.72799,-0.8764305,0,0,-0.02323247,-0.1902333,0.07562456,-0.9765029,-1.729616,-0.2293757,0.6732581,1.415012,0.003611147,0.02108079,-0.04453705,0.2463241,-0.8287464,-0.2171705,0.1087006,0.7556882,1.512224,0.1899211,0.215408,1.136265,0.1624814,71.18439,99.48601,171.926,True
2,1.433336,0.0305922,-0.1748437,-0.01150969,-1.53153,-1.867835,2.359352,0.5738342,1.266849,0.01272321,-0.7371843,-0.8267969,0,0,-0.0415605,-0.2050757,0.05124151,-0.976073,-1.732949,-0.2264542,0.6714139,1.414907,0.00368163,0.01921108,-0.05107259,0.2686771,-0.8251495,-0.2187623,0.1096336,0.7538927,1.512235,0.1899351,0.2135577,1.138989,0.1619646,71.77742,99.21864,171.6499,True
2,1.444447,0.03513165,-0.1641454,0.01719082,-1.533368,-1.867571,2.358813,0.5722134,1.266555,0.01279846,-0.7460819,-0.8018126,0,0,-0.05887759,-0.2071553,0.006597646,-0.9770089,-1.73603,-0.2235108,0.6697247,1.414982,0.003688425,0.01712725,-0.05429514,0.2729472,-0.8220395,-0.2202968,0.1105135,0.7521029,1.512275,0.1898296,0.2115075,1.141691,0.1613326,72.3447,98.74278,171.2841,True
2,1.455558,0.02787324,-0.1534807,0.03855943,-1.53517,-1.867484,2.358729,0.5705161,1.266421,0.01282278,-0.7548751,-0.7926909,0,0,-0.06965649,-0.2049899,-0.01677802,-0.977484,-1.738885,-0.2207822,0.6678574,1.414902,0.003696889,0.01828161,-0.0596828,0.2814194,-0.8187111,-0.2219629,0.1114224,0.7502,1.512249,0.1898178,0.2093884,1.144382,0.1607197,72.88379,97.94745,170.7436,True
2,1.466669,0.00208655,-0.1482297,0.01857794,-1.535836,-1.866023,2.359599,0.5687389,1.266384,0.01280171,-0.7639331,-0.8173498,0,0,-0.0802383,-0.1793764,-0.02632544,-0.9777935,-1.740309,-0.2187438,0.6660893,1.414888,0.003625661,0.01215956,-0.05980062,0.3017356,-0.8149071,-0.223523,0.1124,0.7484496,1.512441,0.1897492,0.207332,1.147058,0.1603041,73.42587,96.97835,170.0657,True
2,1.47778,-0.02404325,-0.1430179,-0.034421,-1.535346,-1.863563,2.360679,0.56704,1.266303,0.012761,-0.7730432,-0.8200595,0,0,-0.07148382,-0.1495815,-0.0125537,-0.9772614,-1.741069,-0.2178607,0.6642535,1.414845,0.003648877,0.009121627,-0.05347002,0.3124709,-0.8111339,-0.2246121,0.1131575,0.7465451,1.512416,0.1897555,0.2054963,1.14968,0.1601964,73.98608,96.03293,169.3145,True
2,1.488891,-0.0362336,-0.1207219,-0.07587209,-1.534192,-1.861558,2.361425,0.5651605,1.26615,0.01279095,-0.7822109,-0.8250149,0,0,-0.05324856,-0.1198486,-0.01694603,-0.977517,-1.741558,-0.2175587,0.6620669,1.414748,0.003755599,0.01024786,-0.05243964,0.3167065,-0.8078353,-0.225833,0.1138182,0.7445412,1.512354,0.1896965,0.2038486,1.152197,0.1604052,74.53746,95.42023,168.671,True
2,1.500003,-0.0384698,-0.102626,-0.08226521,-1.533886,-1.860426,2.361881,0.5633368,1.266056,0.01279926,-0.790783,-0.76818,0,0,-0.04048936,-0.1209811,-0.02022,-0.9776177,-1.743439,-0.216478,0.6599877,1.414718,0.003820896,0.01248243,-0.03862495,0.3210336,-0.8041793,-0.2263457,0.1139159,0.7424552,1.512302,0.1897324,0.2022668,1.154526,0.160723,75.1082,95.43303,168.3859,True
2,1.511114,-0.02429239,-0.1025586,-0.05045074,-1.53503,-1.859996,2.361644,0.5613327,1.265741,0.01281282,-0.7982048,-0.6649691,0,0,-0.04078587,-0.1710555,-0.02763428,-0.977403,-1.747746,-0.2136585,0.6575272,1.414632,0.003923923,0.01488462,-0.02810059,0.3391643,-0.80011,-0.2268739,0.1139804,0.7404432,1.512209,0.1898257,0.2006115,1.156574,0.1608511,75.68,95.84579,168.4176,True
2,1.522225,-0.02581698,-0.1365831,0.001811132,-1.538202,-1.859391,2.361956,0.5593305,1.265341,0.01271218,-0.8044941,-0.5645124,0,0,-0.05378838,-0.2040152,-0.03498795,-0.9773183,-1.751743,-0.2101996,0.655108,1.414602,0.004026353,0.01922843,-0.03348854,0.3464902,-0.7966889,-0.228037,0.1143697,0.7383661,1.512308,0.1897581,0.198742,1.158278,0.1606416,76.16743,96.10892,168.4795,True
2,1.533336,-0.05541083,-0.2037438,0.01178844,-1.541709,-1.856537,2.363459,0.5574248,1.26496,0.01254246,-0.8095232,-0.451056,0,0,-0.05593199,-0.2189096,-0.02431002,-0.9766414,-1.755272,-0.2074805,0.6526074,1.414615,0.003992498,0.02052388,-0.04214764,0.3666582,-0.7920422,-0.2297845,0.1153029,0.7362049,1.512237,0.1897095,0.1967249,1.159627,0.160137,76.50974,95.69633,168.1564,True
2,1.544447,-0.113261,-0.2912705,-0.03544541,-1.544449,-1.85083,2.366542,0.5554466,1.264554,0.01231983,-0.8140639,-0.4099055,0,0,-0.02557564,-0.2062117,0.0554006,-0.9731659,-1.756544,-0.2074562,0.6501415,1.414587,0.003941566,0.01519701,-0.05277978,0.3676902,-0.78844,-0.2314268,0.1162558,0.734026,1.511948,0.1896246,0.1945764,1.160624,0.1595341,76.73817,94.54967,167.2946,True
2,1.555558,-0.1414781,-0.343601,-0.09581441,-1.546152,-1.844626,2.368926,0.5534828,1.264168,0.01206267,-0.8184538,-0.3941385,0,0,-0.0006508119,-0.206276,0.1276963,-0.9688863,-1.758315,-0.2072863,0.6476336,1.414491,0.003960431,0.0106881,-0.06543806,0.3516811,-0.7852224,-0.233551,0.1177826,0.7318778,1.511796,0.1895481,0.1924623,1.161241,0.1589549,76.88977,93.07962,166.0708,True
2,1.566669,-0.1518681,-0.427893,-0.1893669,-1.547384,-1.835595,2.370748,0.551131,1.263704,0.01190764,-0.8226553,-0.3745289,0,0,0.01343089,-0.2265409,0.185157,-0.9642294,-1.761213,-0.2062317,0.6450717,1.414333,0.004042417,-0.0176512,-0.09061211,0.3082364,-0.7827818,-0.2366059,0.1209959,0.7291336,1.511304,0.189409,0.1904226,1.161407,0.1582777,77.02603,92.11612,165.1028,True
2,1.577781,-0.1252423,-0.4534124,-0.1949389,-1.549782,-1.830124,2.371054,0.5488534,1.263276,0.0116899,-0.8248407,-0.1881234,0,0,0.01327996,-0.2244312,0.1585258,-0.9631248,-1.763873,-0.2046852,0.6422737,1.414081,0.004141629,-0.02205536,-0.09691979,0.2986546,-0.779952,-0.2387497,0.1228639,0.7267845,1.51123,0.1892796,0.1882993,1.161022,0.1571682,77.14037,91.86369,164.6529,True
2,1.588892,-0.04064323,-0.4617162,-0.1542517,-1.553324,-1.82594,2.368637,0.5463455,1.262889,0.01156667,-0.8254143,-0.04770967,0,0,0.005447596,-0.2223174,0.09252024,-0.9637932,-1.767045,-0.2026753,0.6395712,1.413777,0.004204512,-0.004734755,-0.08004973,0.3155948,-0.7760366,-0.23992,0.1232181,0.7243028,1.511034,0.189278,0.1857945,1.160076,0.1553621,77.11912,91.93032,164.5929,True
2,1.600003,0.01729114,-0.4477003,-0.1122521,-1.556634,-1.822842,2.366416,0.5438888,1.262539,0.01145497,-0.824153,0.1173144,0,0,-0.01202816,-0.2308121,0.02658874,-0.96481,-1.770918,-0.1997491,0.6368494,1.413505,0.004326642,0.01166001,-0.07820646,0.348425,-0.7711582,-0.2420445,0.124102,0.7218044,1.511017,0.1892886,0.1826109,1.158653,0.1526854,76.88669,91.6125,164.4664,True
2,1.611114,0.06995262,-0.3985261,-0.05852714,-1.559396,-1.821871,2.363853,0.5412304,1.262268,0.01143295,-0.8208997,0.2939058,0,0,-0.04005545,-0.2541381,-0.009448729,-0.9653479,-1.775507,-0.1957993,0.6341257,1.413181,0.004328609,0.01431441,-0.07208962,0.3878528,-0.7655672,-0.2439053,0.1251758,0.7191751,1.510838,0.1892585,0.1790284,1.156967,0.1494031,76.36166,90.16258,163.7984,True
2,1.622225,0.06680094,-0.3249974,-0.03725804,-1.560387,-1.821348,2.363881,0.5386405,1.262124,0.01133102,-0.8184049,0.2171412,0,0,-0.06246021,-0.2710629,-0.0007859692,-0.9642619,-1.779683,-0.192065,0.6318195,1.413082,0.004259378,0.01356637,-0.06797931,0.4113295,-0.7603841,-0.2456853,0.126384,0.7165563,1.510563,0.1891512,0.1751902,1.155366,0.1460978,75.63775,88.16809,162.9652,True
2,1.633336,0.05464467,-0.2590097,-0.06704548,-1.559614,-1.819719,2.363666,0.5361648,1.261858,0.01124355,-0.8165039,0.1682556,0,0,-0.09527332,-0.2921561,0.05375466,-0.9611402,-1.78386,-0.1874961,0.6291461,1.412701,0.004173934,0.01672986,-0.08504622,0.4143752,-0.7558547,-0.2486586,0.1284064,0.7139297,1.510389,0.1889039,0.1714706,1.154149,0.1433083,74.97845,86.41444,162.3671,True
2,1.644447,0.0602819,-0.2313864,-0.1342383,-1.558365,-1.815894,2.36293,0.5335691,1.261654,0.0111078,-0.8170392,-0.05456689,0,0,-0.1013246,-0.2771798,0.09852583,-0.9580163,-1.786395,-0.184833,0.6266854,1.412385,0.004162341,0.01843286,-0.0965568,0.3833794,-0.7530344,-0.2513651,0.1300515,0.711427,1.50997,0.1887426,0.1680781,1.153523,0.1414833,74.57419,85.23526,162.0389,True
2,1.655559,0.07901329,-0.2239441,-0.1759895,-1.557541,-1.811951,2.361363,0.5309725,1.261354,0.0109486,-0.8175617,-0.04312,0,0,-0.08510652,-0.2484848,0.1143867,-0.9559017,-1.788119,-0.1834364,0.6240065,1.411943,0.004159451,-0.001359493,-0.09081572,0.333599,-0.7511419,-0.2527277,0.1317666,0.708854,1.509575,0.1885584,0.1652617,1.153464,0.1407264,74.56985,84.98138,162.0757,True
2,1.66667,0.1097532,-0.2057909,-0.1880468,-1.557169,-1.808967,2.358963,0.5283067,1.260933,0.0108223,-0.8176176,-0.004689644,0,0,-0.04131224,-0.1975988,0.0895833,-0.9558495,-1.788696,-0.1843214,0.6213496,1.411426,0.004089803,-0.01141337,-0.08625804,0.2954102,-0.7491547,-0.2542717,0.1333096,0.7062416,1.508975,0.1884466,0.1627786,1.153851,0.1407946,74.85248,85.61803,162.4012,True
2,1.677781,0.1292054,-0.1854735,-0.1573775,-1.557657,-1.80758,2.356818,0.525517,1.260548,0.01070213,-0.8171542,0.04084467,0,0,-0.01478883,-0.1477163,0.02760467,-0.9575624,-1.789111,-0.1847547,0.6183572,1.41084,0.00407362,0.006795466,-0.08637365,0.3037042,-0.7455333,-0.2563933,0.1342646,0.7035162,1.508662,0.1882247,0.1601675,1.15456,0.1411713,75.22177,86.59532,162.6969,True
2,1.688892,0.1342839,-0.118235,-0.06482884,-1.558864,-1.810072,2.355269,0.5224283,1.260038,0.01058602,-0.8163468,0.07041135,0,0,-0.02983811,-0.1104021,-0.02773481,-0.9597068,-1.789539,-0.1837011,0.6153929,1.410315,0.003988147,0.02627888,-0.08340206,0.3269151,-0.7413143,-0.2584322,0.1348529,0.7007053,1.508305,0.1881202,0.1572414,1.155467,0.1413866,75.58509,87.20576,162.7007,True
2,1.700003,0.1100946,-0.083083,-0.02734658,-1.559232,-1.810661,2.35498,0.519423,1.259632,0.01052123,-0.8160815,0.01941273,0,0,-0.04164595,-0.1007826,-0.05111069,-0.9606917,-1.791093,-0.1818625,0.6124711,1.40997,0.003943413,0.04143643,-0.09103711,0.3469153,-0.7370064,-0.2610817,0.1358042,0.6979356,1.507935,0.1879113,0.1540268,1.156465,0.1412469,75.90954,87.17704,162.4262,True
2,1.711114,0.07921471,-0.03945479,-0.01749529,-1.558591,-1.811604,2.355212,0.5163503,1.259162,0.01046896,-0.8164916,-0.03969746,0,0,-0.04587085,-0.1305623,-0.01910158,-0.9594017,-1.793813,-0.1796307,0.6092477,1.409423,0.003920138,0.05583674,-0.1041836,0.3935211,-0.7313371,-0.2646249,0.137299,0.6951199,1.507532,0.1876978,0.1507223,1.157451,0.1408602,76.20345,86.40879,161.832,True
2,1.722225,0.07260457,-0.03416648,-0.03767759,-1.557888,-1.810406,2.354544,0.5133245,1.258724,0.01034263,-0.8178227,-0.121826,0,0,-0.03524581,-0.2296236,0.0608167,-0.9548732,-1.800282,-0.1760038,0.6062334,1.408829,0.003915727,0.05677956,-0.1308055,0.3922619,-0.7275266,-0.268894,0.1400293,0.6923404,1.507036,0.1874327,0.1475507,1.158288,0.1406085,76.50105,85.31963,161.1385,True
2,1.733337,0.1239852,-0.0927686,-0.1286881,-1.556749,-1.805088,2.351433,0.5101407,1.258236,0.01002988,-0.819216,-0.1238532,0,0,-0.004391998,-0.3245371,0.1363615,-0.9498308,-1.807539,-0.1726959,0.6026773,1.408117,0.004044145,0.03069609,-0.1581921,0.3593822,-0.7251548,-0.2736085,0.144113,0.689563,1.506416,0.187134,0.1445968,1.158834,0.1406349,76.81078,84.85073,160.8631,True
2,1.744448,0.1673446,-0.149189,-0.1706242,-1.55691,-1.80019,2.347966,0.5068927,1.257747,0.009782016,-0.8195548,-0.02787174,0,0,0.02540365,-0.3864343,0.1841782,-0.9451622,-1.814521,-0.1698636,0.5993412,1.407362,0.004162908,0.008924216,-0.1770927,0.328635,-0.7230536,-0.2781042,0.1482574,0.6866851,1.505791,0.1867518,0.1417463,1.158991,0.1408914,77.06404,85.10101,160.9987,True
2,1.755559,0.2416144,-0.2151421,-0.2128556,-1.557583,-1.794089,2.34258,0.5035679,1.257245,0.009448558,-0.8180575,0.1355039,0,0,0.0445146,-0.4025084,0.188336,-0.9424538,-1.819886,-0.1676673,0.5953815,1.406426,0.004194826,0.01074257,-0.1961396,0.3082399,-0.7207686,-0.2829341,0.1515344,0.6837995,1.505024,0.1863783,0.1386244,1.158801,0.1410884,77.1293,85.96734,161.4223,True
2,1.76667,0.2928231,-0.239544,-0.2101553,-1.558558,-1.790287,2.337769,0.5001335,1.256718,0.009307325,-0.8166738,0.1176634,0,0,0.05523112,-0.3887146,0.1871963,-0.9397838,-1.824157,-0.1661528,0.5920947,1.405536,0.004264474,0.0191181,-0.213215,0.3037385,-0.7182055,-0.2884803,0.1553883,0.6808546,1.504508,0.1860013,0.1347686,1.158469,0.1407031,76.98215,86.9801,161.8885,True
2,1.777781,0.3121776,-0.2362876,-0.1922476,-1.55933,-1.787473,2.333583,0.4966874,1.256173,0.009116799,-0.8146338,0.180549,0,0,0.05209472,-0.3695274,0.1818703,-0.9375195,-1.827924,-0.1642497,0.5888956,1.404757,0.004221082,0.02665527,-0.2228986,0.3131652,-0.7149096,-0.2937565,0.1589582,0.6779647,1.503665,0.1854821,0.1302677,1.158235,0.1394248,76.70603,87.18076,161.8881,True
2,1.788892,0.3401566,-0.2021108,-0.1584868,-1.55982,-1.786348,2.329054,0.4928627,1.255574,0.008945853,-0.8137779,0.06731751,0,0,0.03085862,-0.2991519,0.1329309,-0.9375414,-1.829099,-0.1631647,0.5855687,1.403606,0.004241556,0.04067525,-0.2263177,0.3310623,-0.711186,-0.2995577,0.1627519,0.6749382,1.503021,0.1850967,0.1253026,1.158356,0.137216,76.42776,86.52978,161.5376,True
2,1.800003,0.3582204,-0.1754415,-0.1576402,-1.55938,-1.784304,2.324567,0.4891701,1.255043,0.008747488,-0.8140463,-0.0297795,0,0,0.04046663,-0.2523625,0.09554426,-0.937568,-1.830805,-0.1629865,0.5821538,1.402527,0.004180253,0.04597117,-0.2243538,0.3384594,-0.7076696,-0.30564,0.1676756,0.6718898,1.502458,0.1845217,0.1203367,1.158963,0.134418,76.32689,85.14228,160.9533,True
2,1.811115,0.3983808,-0.153024,-0.184716,-1.557976,-1.781516,2.318638,0.4853764,1.254515,0.008542627,-0.8143888,-0.03406458,0,0,0.06185196,-0.2354268,0.09433959,-0.9363024,-1.832994,-0.1631373,0.5787771,1.401365,0.00417909,0.04808626,-0.2211504,0.3363245,-0.7044221,-0.3101923,0.1705246,0.6689758,1.501637,0.1841482,0.1156327,1.160066,0.1315311,76.47021,83.44381,160.2517,True
2,1.822226,0.4343907,-0.1465855,-0.2042687,-1.557059,-1.778316,2.312486,0.4816496,1.254014,0.008325398,-0.8149555,-0.05627782,0,0,0.06388569,-0.2791011,0.1167426,-0.9332377,-1.838586,-0.1605215,0.5755033,1.400279,0.004236698,0.04790933,-0.2295718,0.3234947,-0.7015613,-0.3149864,0.173384,0.6661658,1.500119,0.1844682,0.1110958,1.161613,0.1290633,76.81006,81.84151,159.5312,True
2,1.833337,0.5215703,-0.1506916,-0.2222047,-1.556289,-1.774736,2.30356,0.4778035,1.253524,0.008004159,-0.8146956,0.02017309,0,0,0.05517558,-0.3056997,0.1082974,-0.9316148,-1.843694,-0.1577289,0.572161,1.399113,0.004303962,0.03889443,-0.2538212,0.291477,-0.6999224,-0.3211526,0.1779788,0.66324,1.499238,0.1842416,0.1066687,1.163508,0.127222,77.27437,80.88783,159.0752,True
2,1.844448,0.5600815,-0.1410021,-0.2045104,-1.556133,-1.772665,2.296252,0.4739859,1.253055,0.007812977,-0.8145811,0.002126521,0,0,0.06892423,-0.2898167,0.07730938,-0.9313314,-1.847128,-0.1569052,0.5688992,1.397959,0.004281044,0.03642206,-0.2558373,0.2669615,-0.6985919,-0.3271972,0.1824369,0.6603875,1.498554,0.1835471,0.1021375,1.165699,0.1259559,77.77761,80.51717,158.8176,True
2,1.855559,0.5859747,-0.1068143,-0.1664673,-1.555829,-1.772278,2.288742,0.4702063,1.252623,0.007639825,-0.8130007,0.1378579,0,0,0.0968303,-0.2281826,0.06111789,-0.9309974,-1.847757,-0.158371,0.5657387,1.39689,0.00430268,0.04991515,-0.270645,0.2443178,-0.6973077,-0.3331559,0.186229,0.657532,1.497449,0.1829836,0.09745928,1.168146,0.1250737,78.24901,80.23707,158.4251,True
2,1.86667,0.5668415,-0.04078464,-0.1493028,-1.553844,-1.77265,2.283351,0.466506,1.25215,0.007585615,-0.8132191,-0.03510043,0,0,0.11636,-0.1718101,0.07267445,-0.9298171,-1.84759,-0.1604126,0.5624883,1.39573,0.004343361,0.05968472,-0.2537863,0.2602902,-0.6943649,-0.338244,0.1897247,0.6542752,1.496714,0.1823237,0.09254126,1.170898,0.1243824,78.67152,79.75528,157.8084,True
2,1.877781,0.5153674,0.04537841,-0.1659212,-1.549826,-1.772993,2.279317,0.4626489,1.25165,0.007528394,-0.8137976,-0.05751773,0,0,0.1500588,-0.1037505,0.1288761,-0.9267332,-1.845612,-0.1643133,0.5593634,1.394545,0.004344046,0.05570568,-0.2496523,0.2827529,-0.6908022,-0.3431757,0.1931402,0.6512599,1.495999,0.1820395,0.08775324,1.173877,0.123837,79.15564,78.69861,156.7781,True
2,1.888893,0.4851065,0.1283896,-0.1912814,-1.544702,-1.773509,2.274994,0.4585366,1.251073,0.007435054,-0.8159164,-0.2004027,0,0,0.1811911,-0.1155823,0.1798392,-0.9227874,-1.846845,-0.1666548,0.5559132,1.393357,0.004339993,0.06033678,-0.2776662,0.3229758,-0.6866626,-0.3511322,0.1986375,0.6481903,1.494877,0.1817659,0.08334492,1.176965,0.1235495,79.7562,77.42873,155.6479,True
2,1.900004,0.4913914,0.173144,-0.1935343,-1.540896,-1.773874,2.269219,0.4546828,1.250539,0.007372499,-0.8186104,-0.2453663,0,0,0.2034455,-0.174264,0.2106556,-0.9189402,-1.851232,-0.1668638,0.5526285,1.392182,0.004445821,0.06149679,-0.3022891,0.3398414,-0.6832409,-0.3589235,0.2041409,0.6453514,1.493826,0.1813636,0.07943007,1.179921,0.1236057,80.56547,76.73997,155.0161,True
2,1.911115,0.5300771,0.2244069,-0.1513824,-1.53747,-1.776412,2.26209,0.4506576,1.249941,0.007217497,-0.8203026,-0.152527,0,0,0.2191224,-0.2190978,0.1978181,-0.9165498,-1.855738,-0.1670867,0.5491536,1.390978,0.004496664,0.05772668,-0.3072769,0.2940391,-0.6822571,-0.3650312,0.2083551,0.6425493,1.492701,0.1808648,0.07572622,1.182502,0.1239585,81.48931,77.10206,155.2127,True
2,1.922226,0.5732281,0.2948854,-0.08586238,-1.534154,-1.780912,2.254381,0.4467335,1.249446,0.007020801,-0.8202957,-0.001429188,0,0,0.2303234,-0.2788452,0.1615779,-0.9154201,-1.861931,-0.1661773,0.5459218,1.389858,0.004485756,0.05522668,-0.2899843,0.2622424,-0.6809745,-0.3694609,0.2116859,0.6397531,1.491344,0.1803748,0.07187329,1.18457,0.1244714,82.26102,78.17876,155.9818,True
2,1.933337,0.5544369,0.4003832,-0.02827214,-1.529088,-1.787176,2.249031,0.442899,1.248882,0.00695616,-0.819085,0.1029718,0,0,0.227893,-0.302297,0.1307179,-0.9143655,-1.867042,-0.1655341,0.5424244,1.388652,0.004549056,0.05751501,-0.2708701,0.269809,-0.6783114,-0.374209,0.2146649,0.6368666,1.490295,0.1799435,0.0677819,1.186161,0.1250249,82.67345,79.02331,156.5752,True
2,1.944448,0.5044073,0.4908637,-0.006557375,-1.522982,-1.792882,2.245543,0.4390991,1.248287,0.006845683,-0.8176741,0.1181644,0,0,0.2172261,-0.2937336,0.1211825,-0.9128602,-1.870395,-0.1654803,0.5387344,1.387214,0.004656732,0.08501522,-0.2501296,0.3356836,-0.6729276,-0.379509,0.2170276,0.6338243,1.489038,0.1792752,0.06347203,1.187438,0.125709,82.78452,79.49567,156.9856,True
2,1.955559,0.3954037,0.6163421,-0.01518044,-1.513984,-1.799632,2.245375,0.4354699,1.24759,0.00683412,-0.8182248,-0.06096201,0,0,0.2208199,-0.2649527,0.1648127,-0.909273,-1.872103,-0.166936,0.5352392,1.38592,0.004781991,0.09599316,-0.2674384,0.3673894,-0.668732,-0.3867963,0.221334,0.6309731,1.488007,0.1787556,0.05927781,1.188579,0.1267426,82.80587,80.01997,157.5831,True
2,1.966671,0.2979744,0.7215846,-0.04200742,-1.504288,-1.805543,2.245631,0.4319448,1.246781,0.006738365,-0.819998,-0.1632081,0,0,0.2363748,-0.2713228,0.2797812,-0.9017341,-1.874529,-0.1685714,0.5317786,1.384658,0.004936993,0.113832,-0.3240736,0.3710142,-0.6659543,-0.3979731,0.2289754,0.6278768,1.487877,0.1784196,0.05558966,1.1896,0.1283306,83.02681,81.49371,159.0377,True
2,1.977782,0.2613724,0.7651541,-0.07044959,-1.495339,-1.810461,2.244398,0.4283652,1.245922,0.006540358,-0.8232891,-0.2987917,0,0,0.2437954,-0.3597245,0.3501202,-0.8945473,-1.882198,-0.1668082,0.5288022,1.383574,0.005077124,0.1198784,-0.3495072,0.3494493,-0.6640081,-0.406641,0.2342461,0.6251848,1.486816,0.1778726,0.05252371,1.190399,0.1304553,83.51626,84.53374,161.7617,True
2,1.988893,0.2270505,0.7426907,-0.09670642,-1.488281,-1.813461,2.24299,0.425086,1.244767,0.006078184,-0.8256012,-0.2019572,0,0,0.2348568,-0.4512882,0.3587725,-0.8890116,-1.891522,-0.1633032,0.5254729,1.382403,0.005132228,0.1042039,-0.3372662,0.2815065,-0.664521,-0.4122412,0.2379391,0.6230094,1.485699,0.1772647,0.05012088,1.190714,0.132982,84.19302,90.09212,166.7396,True
2,2.000004,0.2101583,0.6798073,-0.09431973,-1.483587,-1.816123,2.2412,0.4217131,1.243743,0.005853772,-0.8255895,0.005351107,0,0,0.2060042,-0.4703139,0.3600207,-0.8843831,-1.897931,-0.1606382,0.5224521,1.381187,0.005150706,0.08445281,-0.298438,0.2255674,-0.6643186,-0.4154517,0.2406206,0.6206057,1.483664,0.1766072,0.04795194,1.190407,0.1356643,84.71502,97.84287,173.6851,True
2,2.011115,0.1467541,0.4847462,-0.08170477,-1.483932,-1.81519,2.241543,0.418817,1.242383,0.005497038,-0.8248242,0.06640485,0,0,0.1784035,-0.4329013,0.344171,-0.8805311,-1.901854,-0.159212,0.5192485,1.379887,0.00514695,0.09499145,-0.2984051,0.2158542,-0.6631181,-0.4214904,0.243945,0.6179681,1.48247,0.1760047,0.04552184,1.189522,0.1381712,84.87681,105.7079,180.6395,True
2,2.022226,0.1140248,0.3760319,-0.07376666,-1.48281,-1.815466,2.24126,0.4156744,1.241121,0.005442172,-0.8235389,0.1150036,0,0,0.1337832,-0.3208894,0.2676322,-0.8801971,-1.901341,-0.1596088,0.516562,1.378584,0.005123019,0.1302494,-0.3135112,0.229183,-0.6608709,-0.4285777,0.2468039,0.6152382,1.48158,0.1761425,0.04272343,1.188144,0.1400974,84.74111,111.1857,185.3083,True
2,2.033337,0.07805425,0.2193537,-0.0795938,-1.484289,-1.812926,2.241374,0.4127676,1.239632,0.005394489,-0.8238105,-0.02891536,0,0,0.09951197,-0.2292017,0.1569686,-0.8819149,-1.90144,-0.1596278,0.5135224,1.377064,0.005219966,0.1593964,-0.3042421,0.2587381,-0.6578982,-0.4350013,0.2492,0.6126251,1.480567,0.1756921,0.03956363,1.186447,0.1412266,84.45889,113.034,186.6433,True
2,2.044448,0.06222207,0.0776226,-0.09203351,-1.485903,-1.809833,2.240879,0.4096806,1.238154,0.005498379,-0.8232438,0.05654358,0,0,0.1087009,-0.1899211,0.05461135,-0.884529,-1.902981,-0.1601574,0.5104005,1.375498,0.005232751,0.1721962,-0.3171086,0.26382,-0.6558375,-0.4425547,0.2528608,0.610076,1.479508,0.1752162,0.03635167,1.184476,0.141329,84.22002,112.0959,185.5099,True
2,2.055559,0.06137338,-0.01825147,-0.089772,-1.48779,-1.807212,2.239893,0.4067063,1.236795,0.00560683,-0.8227857,0.04014092,0,0,0.1304873,-0.2039584,-0.03286408,-0.8869402,-1.907355,-0.1596432,0.5072803,1.374037,0.005238056,0.1537964,-0.3456909,0.247847,-0.654883,-0.4512608,0.2586172,0.6076369,1.478368,0.174715,0.03299775,1.182357,0.1405533,83.97966,110.7155,184.3248,True
2,2.06667,0.106787,-0.1938921,-0.0591348,-1.493932,-1.802591,2.23679,0.4039428,1.235352,0.005713522,-0.8217918,0.09156825,0,0,0.1310757,-0.2583217,-0.06691217,-0.8880705,-1.913603,-0.1572261,0.5042264,1.372528,0.005254477,0.1289998,-0.3526911,0.2172688,-0.654074,-0.4565755,0.2619381,0.6055026,1.476028,0.1740168,0.02950602,1.180189,0.1390161,83.76801,108.526,182.5245,True
2,2.077781,0.1337509,-0.2630582,-0.04121515,-1.497667,-1.799777,2.234155,0.4012632,1.233981,0.005665541,-0.8204326,0.1220536,0,0,0.1202072,-0.2881055,-0.07961471,-0.8885227,-1.919146,-0.1548362,0.5017583,1.37116,0.005264461,0.1245789,-0.3290977,0.1972456,-0.6533821,-0.4619441,0.2649342,0.6032579,1.474755,0.1734906,0.02576491,1.178116,0.1369366,83.53189,105.7222,180.2925,True
2,2.088892,0.1629977,-0.3300722,-0.007341757,-1.503004,-1.79695,2.231176,0.3987713,1.23266,0.005921096,-0.8180107,0.2179755,0,0,0.1020385,-0.2922795,-0.08589637,-0.8892087,-1.923754,-0.1524367,0.4990199,1.369737,0.005349249,0.1278875,-0.3141733,0.2026598,-0.6514742,-0.4666726,0.2673217,0.600771,1.473969,0.1729518,0.02191017,1.176289,0.1346005,83.22908,102.0304,177.2877,True
2,2.100003,0.1705754,-0.3577508,-0.0009880513,-1.50675,-1.794274,2.228961,0.3962996,1.231365,0.006191403,-0.8164618,0.1326,0,0,0.1109286,-0.2411754,-0.06681696,-0.8891277,-1.924914,-0.1531786,0.4962802,1.36832,0.005475253,0.134406,-0.3035948,0.2101131,-0.6497878,-0.4725868,0.2703218,0.5984418,1.472894,0.1724823,0.01805354,1.174915,0.132229,82.89974,97.25386,173.2069,True
2,2.111114,0.1556704,-0.3620418,-0.000829339,-1.510103,-1.791674,2.227533,0.3937101,1.230017,0.006435037,-0.8153848,0.09421691,0,0,0.1251448,-0.1911618,-0.04776622,-0.8889371,-1.925453,-0.1547392,0.4935012,1.366981,0.005511761,0.1388808,-0.2866543,0.2229623,-0.6475806,-0.4780428,0.2729684,0.5961699,1.471981,0.1719433,0.01448587,1.17406,0.1300949,82.6903,93.39402,170.0509,True
2,2.122225,0.1194617,-0.3717076,-0.001512557,-1.513505,-1.788809,2.227198,0.3912866,1.228734,0.006589741,-0.8153625,-0.002693092,0,0,0.1566006,-0.1412074,0.003135912,-0.8873333,-1.924928,-0.1580474,0.4911222,1.365941,0.005373895,0.1418385,-0.2843575,0.2016494,-0.646501,-0.4832611,0.2753256,0.5937848,1.471293,0.1718666,0.01131561,1.173763,0.1284687,82.66171,89.78813,167.068,True
2,2.133336,0.1014697,-0.3632051,0.01144791,-1.516863,-1.786934,2.226461,0.3887494,1.227342,0.0065476,-0.8161726,-0.07506485,0,0,0.1523754,-0.1624737,0.02767709,-0.885973,-1.92825,-0.1574586,0.4880245,1.364513,0.005342215,0.1331489,-0.2701671,0.1741781,-0.6457154,-0.4859533,0.2753501,0.5921922,1.469753,0.1718187,0.008517968,1.173928,0.127485,82.8972,87.2185,164.8745,True
2,2.144447,0.07196028,-0.3206015,0.05111634,-1.519702,-1.787078,2.226658,0.3862317,1.225962,0.006478041,-0.8176901,-0.1376431,0,0,0.1117057,-0.2080683,0.03541069,-0.8846797,-1.933095,-0.1542833,0.485338,1.36331,0.005299002,0.1179672,-0.2464853,0.1457581,-0.6455939,-0.4894242,0.2773099,0.5901155,1.468615,0.1713222,0.005989823,1.174361,0.1271011,83.34512,85.28951,163.0097,True
2,2.155558,0.06141346,-0.2811833,0.06928539,-1.521961,-1.787055,2.226312,0.3837695,1.224673,0.006467402,-0.8185588,-0.07575823,0,0,0.08598162,-0.2292511,0.0270534,-0.8843037,-1.937269,-0.1517568,0.482671,1.36199,0.005349964,0.1018039,-0.2163689,0.1216963,-0.6450117,-0.4910733,0.2782612,0.5880075,1.467213,0.1699045,0.003693664,1.1748,0.1271223,83.86969,83.48251,161.0253,True
2,2.166669,0.03979578,-0.2109315,0.05237072,-1.521907,-1.787124,2.226498,0.381614,1.223258,0.006414473,-0.8196432,-0.09919459,0,0,0.0474895,-0.222688,-0.002554644,-0.8849226,-1.94044,-0.1489636,0.4800904,1.36074,0.005239457,0.09208533,-0.2087956,0.1090811,-0.6448956,-0.4946619,0.2804327,0.5860023,1.466237,0.1692743,0.001471104,1.175028,0.1273915,84.35004,81.36819,158.6831,True
2,2.17778,0.0277567,-0.2003353,0.02370588,-1.522962,-1.785176,2.226471,0.3792148,1.221903,0.006392002,-0.8200086,-0.03049991,0,0,0.02408352,-0.1853035,-0.03014458,-0.8860033,-1.94158,-0.1478795,0.4772496,1.359441,0.005135924,0.11047,-0.2258139,0.1237455,-0.6424647,-0.4977657,0.2801302,0.5824745,1.465595,0.1682959,-0.0006718719,1.17484,0.1278772,84.69925,79.25834,156.4195,True
2,2.188891,-0.01117297,-0.2164647,-0.03553391,-1.523826,-1.781475,2.227709,0.3769064,1.220492,0.005975217,-0.8204336,-0.03931484,0,0,-0.01826525,-0.1115971,-0.0491307,-0.8874074,-1.940132,-0.147125,0.4745443,1.358241,0.004824996,0.1307641,-0.2419116,0.1319108,-0.6416913,-0.5038208,0.2828067,0.5802779,1.464641,0.1676237,-0.002773552,1.174153,0.1285291,84.89555,78.41156,155.4109,True
2,2.200002,-0.01117297,-0.2164647,-0.03553391,-1.523826,-1.781475,2.227709,0.3769064,1.220492,0.005975217,-0.8205354,-0.007750556,0,0,-0.01826525,-0.1115971,-0.0491307,-0.8874074,-1.940132,-0.147125,0.4745443,1.358241,0.004824996,0.1307641,-0.2419116,0.1319108,-0.6416913,-0.5038208,0.2828067,0.5802779,1.464641,0.1676237,-0.004824314,1.172925,0.1291966,84.99399,79.51095,156.2384,True
2,2.211113,-0.07230606,-0.2784367,-0.08703105,-1.52812,-1.773778,2.230694,0.3722875,1.217577,0.005056649,-0.8203788,0.01449707,0,0,-0.07360268,-0.1017247,-0.04774853,-0.8880055,-1.942678,-0.1424432,0.4691753,1.355862,0.004315436,0.1827658,-0.297483,0.193856,-0.6367133,-0.5136034,0.2838402,0.5750811,1.461763,0.1668406,-0.006678037,1.171274,0.1296018,84.70272,81.07738,157.5217,True
2,2.222224,-0.1147751,-0.2763743,-0.07274957,-1.530335,-1.771808,2.233223,0.3700519,1.216149,0.004648387,-0.8221312,-0.160378,0,0,-0.07371329,-0.1283533,-0.0434652,-0.8880087,-1.945715,-0.139695,0.4664252,1.354673,0.004200757,0.2425347,-0.3361183,0.2109633,-0.6353045,-0.5232129,0.286831,0.5729022,1.460591,0.1662595,-0.008193025,1.16945,0.1295676,84.44261,83.09391,159.1721,True
2,2.233335,-0.1530562,-0.2007887,-0.05114242,-1.530171,-1.772176,2.236222,0.3676507,1.214791,0.004431278,-0.8223463,-0.009557883,0,0,-0.03875688,-0.1988234,-0.01698831,-0.8867442,-1.951544,-0.136919,0.4635458,1.353485,0.004256666,0.2682766,-0.3288061,0.2223867,-0.6335042,-0.5301144,0.2885271,0.5708125,1.45953,0.1656573,-0.01140944,1.167442,0.1285742,84.74257,83.45837,158.9758,True
2,2.244446,-0.1616398,-0.109176,-0.03945056,-1.528515,-1.773338,2.238282,0.3652296,1.213447,0.004213363,-0.8226467,-0.02720616,0,0,0.03249115,-0.2950133,0.04445763,-0.8832731,-1.959471,-0.1346878,0.46066,1.352234,0.004356921,0.2736278,-0.3362898,0.2265702,-0.6316821,-0.5376203,0.291651,0.5677936,1.459257,0.16521,-0.01484571,1.165012,0.1264777,84.62878,81.53487,157.2026,True
2,2.255557,-0.1263923,0.09016279,0.007882666,-1.523351,-1.779624,2.23861,0.3627241,1.212106,0.00437969,-0.8228449,-0.01376643,0,0,0.104458,-0.4231917,0.07395984,-0.8804384,-1.970443,-0.131268,0.4579253,1.350938,0.004388928,0.2513086,-0.3202423,0.2269544,-0.6301529,-0.54381,0.2946399,0.5657015,1.458347,0.1647054,-0.01792788,1.162157,0.1237342,84.22253,79.19007,155.6992,True
2,2.266668,-0.1263923,0.09016279,0.007882666,-1.523351,-1.779624,2.23861,0.3627241,1.212106,0.00437969,-0.8220028,0.08095638,0,0,0.104458,-0.4231917,0.07395984,-0.8804384,-1.970443,-0.131268,0.4579253,1.350938,0.004388928,0.2513086,-0.3202423,0.2269544,-0.6301529,-0.54381,0.2946399,0.5657015,1.458347,0.1647054,-0.02056853,1.159004,0.1210594,83.75346,78.0651,155.6967,True
2,2.277779,-0.03077538,0.428223,0.1513725,-1.512427,-1.798128,2.237144,0.3577414,1.209885,0.00453791,-0.8197407,0.2062609,0,0,0.1504506,-0.5449097,0.03010932,-0.879078,-1.990663,-0.1228644,0.4526169,1.348572,0.004411757,0.2099608,-0.3039431,0.2287167,-0.626139,-0.5539159,0.2987814,0.5623152,1.456027,0.1638907,-0.02253798,1.155786,0.1189979,83.04433,78.33678,156.9049,True
2,2.28889,-0.03077538,0.428223,0.1513725,-1.512427,-1.798128,2.237144,0.3577414,1.209885,0.00453791,-0.8163899,0.3006295,0,0,0.1504506,-0.5449097,0.03010932,-0.879078,-1.990663,-0.1228644,0.4526169,1.348572,0.004411757,0.2099608,-0.3039431,0.2287167,-0.626139,-0.5539159,0.2987814,0.5623152,1.456027,0.1638907,-0.02389382,1.152974,0.1180456,82.41245,78.73547,158.2079,True
2,2.300001,-0.05795113,0.6530647,0.2461904,-1.504226,-1.812589,2.239641,0.3557174,1.209127,0.004967481,-0.8157066,0.05106861,0,0,0.1397834,-0.4948233,-0.01567617,-0.8803793,-1.995856,-0.1207722,0.4504626,1.347456,0.004433811,0.1959386,-0.2771668,0.2098705,-0.6251696,-0.5582961,0.3006235,0.5604689,1.455157,0.1634875,-0.02595703,1.150723,0.1195148,82.33062,81.17307,161.2907,True
2,2.311112,-0.1496148,0.8382831,0.2777961,-1.490231,-1.832313,2.247191,0.3519185,1.207331,0.005725026,-0.8156921,0.003635744,0,0,0.1181744,-0.3381204,-0.02206212,-0.8808997,-1.999396,-0.1203413,0.4465265,1.34542,0.004358649,0.1514562,-0.2608066,0.2116449,-0.6215967,-0.565227,0.303145,0.5587597,1.454915,0.1620738,-0.02699559,1.149071,0.1226773,81.99698,83.97625,163.3897,True
2,2.322223,-0.1761825,0.8499577,0.2865792,-1.484948,-1.841062,2.250749,0.3503304,1.206192,0.006182283,-0.8190051,-0.3019131,0,0,0.1188502,-0.2698988,0.03327146,-0.8783675,-1.999901,-0.1214689,0.4449432,1.344519,0.004324108,0.1450015,-0.2778278,0.2105828,-0.6205107,-0.5723729,0.3075948,0.5571811,1.454435,0.1617212,-0.02798232,1.147971,0.1271904,82.35709,86.75776,165.2669,True
2,2.333334,-0.1855982,0.7806984,0.2899574,-1.482208,-1.847581,2.253578,0.3490188,1.204961,0.006434083,-0.8204027,-0.1121563,0,0,0.1019111,-0.2527629,0.0354857,-0.877714,-2.002962,-0.1201432,0.4435863,1.34367,0.004322618,0.1334617,-0.2725349,0.2235535,-0.6186427,-0.5786541,0.3117249,0.5558264,1.453809,0.161168,-0.02852075,1.146721,0.1336861,83.25166,93.44238,171.2346,True
2,2.344445,-0.2165383,0.6069458,0.2521394,-1.482492,-1.849414,2.257077,0.3477135,1.203572,0.006543338,-0.8209402,-0.04653427,0,0,0.07720727,-0.2654405,0.01220413,-0.8779217,-2.007379,-0.1174134,0.4419649,1.342807,0.004276007,0.1257414,-0.2830818,0.20656,-0.6180568,-0.5853211,0.316004,0.554491,1.453377,0.1608368,-0.02817597,1.14503,0.1413544,83.63438,101.5698,177.6366,True
2,2.355556,-0.2443236,0.4331952,0.2100244,-1.483948,-1.849392,2.260711,0.3465598,1.202192,0.006527185,-0.820757,0.01983554,0,0,0.06750912,-0.2686019,-0.004791401,-0.8783366,-2.011546,-0.1153146,0.4399626,1.341786,0.004188806,0.1140176,-0.26561,0.1834329,-0.6167114,-0.5855102,0.3135923,0.5550044,1.452178,0.1597485,-0.02728121,1.142858,0.149019,83.58225,108.761,182.5273,True
2,2.366668,-0.2443236,0.4331952,0.2100244,-1.483948,-1.849392,2.260711,0.3465598,1.202192,0.006527185,-0.821134,-0.03333605,0,0,0.06750912,-0.2686019,-0.004791401,-0.8783366,-2.011546,-0.1153146,0.4399626,1.341786,0.004188806,0.1140176,-0.26561,0.1834329,-0.6167114,-0.5855102,0.3135923,0.5550044,1.452178,0.1597485,-0.02640619,1.140314,0.1555995,83.30508,114.1622,185.6348,True
2,2.377779,-0.2571187,-0.06977095,0.1117068,-1.496297,-1.838786,2.265986,0.3447711,1.199476,0.005958021,-0.8190743,0.1936508,0,0,-0.01103625,-0.2204041,-0.1790813,-0.8868539,-2.017529,-0.1089129,0.4372289,1.340148,0.003887653,0.06441489,-0.242888,0.138459,-0.6161116,-0.593949,0.3208401,0.5507817,1.450416,0.1592279,-0.02614828,1.138367,0.1596957,83.18482,122.6635,192.7956,True
2,2.38889,-0.2206357,-0.3978563,0.07338247,-1.508443,-1.82797,2.266334,0.3444324,1.198206,0.005636573,-0.8222638,-0.2993028,0,0,-0.01855069,-0.1724694,-0.2302105,-0.8911651,-2.018428,-0.1078993,0.43593,1.339411,0.003680021,0.05071212,-0.2312867,0.1406633,-0.6170736,-0.5997986,0.3243429,0.5508583,1.453216,0.1575626,-0.02618185,1.13775,0.1603942,82.99783,129.331,198.9657,True
2,2.400001,-0.2174155,-0.5118561,0.05430457,-1.514988,-1.822493,2.268476,0.3436058,1.197069,0.005579799,-0.8213908,0.1024383,0,0,-0.03218935,-0.1659819,-0.2003026,-0.8918559,-2.02073,-0.1057709,0.4348404,1.338754,0.003545731,0.03493202,-0.214202,0.1516476,-0.6153388,-0.6030791,0.3273845,0.5497489,1.453487,0.1569205,-0.02712814,1.136936,0.1585064,84.19843,117.2575,186.463,True
2,2.411112,-0.2368061,-0.6131397,0.01413995,-1.521823,-1.815082,2.271478,0.3431716,1.196168,0.005435467,-0.8192613,0.1889158,0,0,-0.05430815,-0.1594471,-0.1628915,-0.8922026,-2.022783,-0.1031213,0.4337335,1.338108,0.003377527,0.03804082,-0.2120501,0.14522,-0.6147652,-0.6075888,0.3305356,0.5487349,1.453317,0.1565829,-0.02854701,1.136103,0.1551304,84.60214,89.57611,158.6824,True
2,2.422223,-0.2403939,-0.6238474,-0.02629647,-1.526109,-1.809187,2.273968,0.342669,1.195266,0.00524348,-0.8186365,0.0524315,0,0,-0.0849825,-0.1432903,-0.1392873,-0.8926554,-2.024224,-0.1001444,0.4326446,1.337502,0.003283262,0.03037672,-0.2055428,0.1293818,-0.6146197,-0.6110362,0.3332632,0.5478251,1.453279,0.1561623,-0.03025145,1.135461,0.1506317,84.03882,74.97175,144.6795,True
2,2.433334,-0.2056096,-0.5684124,-0.05123031,-1.528514,-1.805248,2.274957,0.3421938,1.19467,0.005083919,-0.8189508,-0.02509104,0,0,-0.1231612,-0.1121954,-0.1358787,-0.8939007,-2.024527,-0.09711377,0.4320338,1.337118,0.003213108,0.01125759,-0.194786,0.1179236,-0.6149111,-0.6136885,0.3338161,0.5464721,1.452992,0.1557092,-0.03194565,1.13509,0.1458856,83.65149,63.90081,134.7125,True
2,2.444445,-0.1675684,-0.4543559,-0.0592159,-1.528894,-1.803941,2.275497,0.3416827,1.194113,0.004895955,-0.8187766,0.02124886,0,0,-0.1090999,-0.05794448,-0.1466565,-0.8960094,-2.023262,-0.09715585,0.4312692,1.336721,0.003002942,-0.02795291,-0.138252,0.1230268,-0.6133564,-0.6139488,0.3357173,0.5456905,1.452906,0.1555668,-0.03315936,1.134832,0.1414787,83.28227,56.93216,128.6921,True
2,2.455556,-0.1506804,-0.354179,-0.0552485,-1.529091,-1.803194,2.276592,0.3410025,1.193688,0.004751712,-0.8175281,0.11558,0,0,-0.09710926,-0.02709491,-0.1275706,-0.8968168,-2.022505,-0.09710844,0.4303098,1.336307,0.002808511,-0.03110404,-0.1265313,0.124193,-0.6123486,-0.6164817,0.3382396,0.5448165,1.452803,0.1553738,-0.03402079,1.13461,0.1380719,82.9352,49.43708,121.8025,True
2,2.466667,-0.1389906,-0.1804652,-0.0236173,-1.526774,-1.806368,2.278141,0.3403413,1.19329,0.004500031,-0.8162913,0.109867,0,0,-0.09917642,-0.03559239,-0.1094415,-0.8973489,-2.023436,-0.09535661,0.429548,1.33593,0.002602339,-0.03613907,-0.1085568,0.1359745,-0.6120125,-0.6192921,0.3398396,0.5438275,1.452822,0.1552031,-0.03458147,1.134483,0.1360604,82.66799,46.26658,118.8699,True
2,2.477778,-0.1433087,-0.0004087985,0.006034311,-1.522979,-1.810973,2.28015,0.3397794,1.192946,0.004125208,-0.8159776,0.02639888,0,0,-0.1087105,-0.06746951,-0.07420576,-0.8967748,-2.025837,-0.09239464,0.4291739,1.335617,0.002426028,-0.04910517,-0.08607836,0.1202954,-0.6113009,-0.6201963,0.3415411,0.5431924,1.45277,0.1550114,-0.03490941,1.134405,0.1356154,82.52042,44.34462,116.8025,True
2,2.488889,-0.1533149,0.1380435,-0.007884137,-1.51797,-1.814465,2.28233,0.3392282,1.192634,0.003781796,-0.8162248,-0.0212418,0,0,-0.1053403,-0.06639833,-0.04546285,-0.8962379,-2.026713,-0.09075014,0.4286306,1.335294,0.002234399,-0.04281219,-0.09246315,0.1094167,-0.612281,-0.6222071,0.3422873,0.5438139,1.452682,0.1548078,-0.03518739,1.134346,0.1360241,83.5595,47.62765,120.2157,True
2,2.5,-0.1533149,0.1380435,-0.007884137,-1.51797,-1.814465,2.28233,0.3392282,1.192634,0.003781796,-0.8168618,-0.05615931,0,0,-0.1053403,-0.06639833,-0.04546285,-0.8962379,-2.026713,-0.09075014,0.4286306,1.335294,0.002234399,-0.04281219,-0.09246315,0.1094167,-0.612281,-0.6222071,0.3422873,0.5438139,1.452682,0.1548078,-0.03548872,1.134202,0.137322,84.51999,46.35608,119.0945,True
2,2.511111,-0.1537742,0.2019159,-0.03992197,-1.513981,-1.815668,2.284174,0.3387113,1.192294,0.003309578,-0.8162871,0.05569915,0,0,-0.09008591,-0.01426184,-0.03280618,-0.8963726,-2.024535,-0.0916447,0.4282098,1.335038,0.001989305,-0.04230133,-0.08700522,0.07639957,-0.6131608,-0.6242771,0.3453225,0.543376,1.452917,0.1540101,-0.03543678,1.134117,0.1386064,85.4948,51.5198,124.2109,True
2,2.522222,-0.1139579,0.2658405,-0.09261165,-1.505822,-1.817824,2.285662,0.337604,1.191923,0.002125323,-0.8172767,-0.09409923,0,0,-0.08874106,0.05921996,-0.0499181,-0.8984275,-2.020332,-0.09240051,0.4271317,1.33458,0.001519293,-0.02793182,-0.06770474,0.03897094,-0.6141452,-0.6258925,0.3473308,0.5426445,1.452538,0.1531298,-0.03519754,1.133989,0.1393875,86.18371,59.9967,132.7046,True
2,2.533333,-0.1139579,0.2658405,-0.09261165,-1.505822,-1.817824,2.285662,0.337604,1.191923,0.002125323,-0.818546,-0.1100147,0,0,-0.08874106,0.05921996,-0.0499181,-0.8984275,-2.020332,-0.09240051,0.4271317,1.33458,0.001519293,-0.02793182,-0.06770474,0.03897094,-0.6141452,-0.6258925,0.3473308,0.5426445,1.452538,0.1531298,-0.03499798,1.13374,0.1395844,86.79332,67.16641,139.6953,True
2,2.544444,-0.08823526,0.2190245,-0.08643027,-1.502033,-1.818994,2.286952,0.3365254,1.191771,0.001163512,-0.8178067,0.07271637,0,0,-0.07603735,-0.03135489,0.01399125,-0.8961303,-2.024578,-0.088479,0.4256158,1.33425,0.001124859,-0.01933635,-0.05899733,0.03569468,-0.6127907,-0.623428,0.3444184,0.5424447,1.451376,0.1532663,-0.03528085,1.133524,0.1391945,87.43494,67.3625,139.6649,True
2,2.555555,-0.09164684,0.1795672,-0.1151111,-1.500035,-1.817715,2.288035,0.3359907,1.191633,0.0007469356,-0.8178008,-0.004338617,0,0,-0.06745954,-0.03458316,0.02566361,-0.8954549,-2.024918,-0.08785342,0.4251752,1.334106,0.0009792149,-0.00874019,-0.06311278,0.0280665,-0.6122906,-0.62154,0.3418947,0.5424957,1.450949,0.153257,-0.03533234,1.133363,0.1385776,86.90314,58.0859,130.0109,True
2,2.566666,-0.08148858,0.08149807,-0.1822135,-1.498954,-1.812909,2.288387,0.3352635,1.19155,0.0003347099,-0.8179718,-0.01356398,0,0,-0.01918862,0.0237696,0.03172675,-0.8950906,-2.021976,-0.09112965,0.4244297,1.33395,0.0008458197,0.008909872,-0.08753379,0.001053754,-0.613717,-0.6239501,0.3431688,0.54233,1.450799,0.153124,-0.03561842,1.133289,0.1381282,86.56834,52.59182,124.1028,True
2,2.577777,-0.05165543,0.03041311,-0.192039,-1.49832,-1.810505,2.287783,0.3345573,1.191483,-0.0001493096,-0.8182861,-0.02751029,0,0,0.007522907,0.03642003,0.03368203,-0.8949489,-2.020886,-0.09275177,0.4235461,1.333751,0.0005992055,0.008403115,-0.08514409,-0.03300649,-0.6147215,-0.6217179,0.3412519,0.5422773,1.450741,0.1530025,-0.03621288,1.133279,0.1376425,86.90219,52.64787,124.1164,True
2,2.588888,-0.0001152121,-0.03656535,-0.1658523,-1.499687,-1.807972,2.28591,0.3336754,1.191381,-0.0004605353,-0.8182302,0.007020496,0,0,0.02995517,0.03737945,0.04313741,-0.8941995,-2.020231,-0.09429961,0.4227347,1.333567,0.0004305243,0.009222731,-0.07763042,-0.0478952,-0.6157665,-0.6221806,0.3420253,0.542156,1.450233,0.1527622,-0.03672762,1.133249,0.1371515,86.85957,52.66502,123.7778,True
2,2.599999,0.04625995,-0.04919295,-0.1130536,-1.500528,-1.80777,2.284014,0.3327851,1.191314,-0.00069803,-0.8174445,0.07167528,0,0,0.04695412,0.01705898,0.05263872,-0.8932919,-2.020879,-0.09485488,0.4217818,1.333228,0.0002666414,0.01353861,-0.06279045,-0.04680154,-0.6161005,-0.6245133,0.3434255,0.5380325,1.449281,0.1525173,-0.03742761,1.133235,0.1364074,86.61835,52.64721,123.2176,True
2,2.61111,0.08302626,0.003152782,-0.04957759,-1.500178,-1.809878,2.282192,0.3318524,1.191217,-0.000728637,-0.8160975,0.1198016,0,0,0.05536383,-0.01387161,0.0600704,-0.8922601,-2.022332,-0.09484103,0.4210262,1.33296,0.0001680851,0.01794886,-0.04792774,-0.03720874,-0.6161143,-0.6245623,0.3436058,0.5376444,1.448877,0.1523951,-0.03829792,1.133273,0.1354281,86.43976,53.13575,123.5107,True
2,2.622221,0.1035098,0.07141916,-0.01258602,-1.498432,-1.812757,2.28065,0.3309944,1.191155,-0.0007720888,-0.8151829,0.07798613,0,0,0.07527719,-0.03744049,0.02481821,-0.8929819,-2.024148,-0.09515155,0.4204643,1.332711,0.00019449,0.01409942,-0.04163511,-0.0157214,-0.614484,-0.6263928,0.3440964,0.5361271,1.44892,0.1522069,-0.03974584,1.133522,0.1344029,86.23621,51.88968,122.3682,True
2,2.633332,0.1109487,0.1790496,0.00638333,-1.494727,-1.816901,2.279491,0.3301213,1.191172,-0.0006678998,-0.8147861,0.03276612,0,0,0.09227131,-0.0236933,0.005535312,-0.8935401,-2.023815,-0.09673027,0.4194243,1.332333,0.0002352893,0.01745885,-0.05130947,-0.003039052,-0.6147002,-0.6284863,0.3456645,0.5357606,1.448027,0.15129,-0.04074167,1.13371,0.1338419,85.48421,50.69496,121.4147,True
2,2.644443,0.1054811,0.2333697,0.003175966,-1.491309,-1.819406,2.278841,0.3292768,1.191123,-0.0007068515,-0.8149694,-0.01951626,0,0,0.1169466,0.008142851,0.007496268,-0.8935294,-2.022306,-0.09978732,0.4187522,1.331996,0.0002227128,0.02694007,-0.07906216,-0.01292366,-0.6163988,-0.6328372,0.3469108,0.5352445,1.448506,0.1507571,-0.04152968,1.133847,0.1339942,85.46655,52.17772,123.3065,True
2,2.655554,0.1147471,0.2898246,-0.01722962,-1.486785,-1.822106,2.277457,0.32848,1.191185,-0.0006769896,-0.8155947,-0.05834942,0,0,0.1148714,0.01347879,0.0107026,-0.8931827,-2.022013,-0.1012683,0.4180608,1.331779,0.0002603233,0.02664699,-0.1045753,-0.02794709,-0.6179705,-0.6357996,0.3491394,0.5349813,1.448041,0.1503187,-0.0417574,1.133757,0.1351928,86.24652,66.68401,137.8967,True
2,2.666665,0.1113003,0.3068345,-0.03852405,-1.483261,-1.823601,2.276386,0.3277407,1.191101,-0.0008052886,-0.8166935,-0.1006659,0,0,0.09448272,-0.003471747,0.0001824293,-0.8934916,-2.022812,-0.1011692,0.4174228,1.331508,0.0002065599,0.03362358,-0.1012613,-0.05894035,-0.6198939,-0.6364927,0.3490922,0.5347145,1.447729,0.150244,-0.0423879,1.133702,0.1366587,86.40632,71.96259,143.1963,True
2,2.677776,0.09545641,0.2887006,-0.02874943,-1.481441,-1.825259,2.276007,0.3270962,1.191086,-0.0009143651,-0.8171404,-0.03920171,0,0,0.07743113,-0.01403515,0.007748925,-0.8930911,-2.023507,-0.1010483,0.4164603,1.3311,0.0002177656,0.04205742,-0.09260171,-0.06968834,-0.6204841,-0.6336932,0.3450277,0.5345705,1.44718,0.1494856,-0.04308707,1.133675,0.1379721,86.69453,79.47691,150.5519,True
2,2.688887,0.06038938,0.2460184,-0.02833647,-1.480236,-1.825891,2.27656,0.3266342,1.190873,-0.001104951,-0.8177641,-0.05919462,0,0,0.05717301,-0.03735592,0.02493117,-0.892152,-2.024938,-0.100105,0.4159369,1.330791,0.0002726018,0.03813133,-0.08841181,-0.04936449,-0.6206454,-0.6351373,0.3458791,0.5342212,1.447004,0.1495181,-0.04391225,1.13366,0.1389809,86.85702,87.30868,158.2065,True
2,2.699998,0.04113682,0.2161361,-0.04195141,-1.478536,-1.826137,2.276663,0.3261297,1.190738,-0.001253545,-0.8187404,-0.08898549,0,0,0.04860727,-0.0500926,0.02818636,-0.8916482,-2.02607,-0.09973778,0.4153757,1.33044,0.0003400445,0.03739953,-0.08532095,-0.02803709,-0.6207418,-0.6372489,0.3473899,0.5337811,1.447011,0.1492863,-0.04471986,1.133603,0.1395125,86.88241,93.69436,164.4747,True
2,2.711109,0.02282823,0.146815,-0.07470376,-1.477852,-1.824153,2.276875,0.3257623,1.190518,-0.001502573,-0.8201076,-0.1230289,0,0,0.05086851,-0.01921345,0.0238878,-0.8916444,-2.02496,-0.1010619,0.4148695,1.330198,0.0003299117,0.02925135,-0.0896345,-0.0001840144,-0.6196643,-0.6389105,0.3496525,0.5331693,1.447585,0.1493871,-0.04515184,1.13356,0.1395676,86.71854,94.2078,165.0297,True
2,2.72222,0.02156439,0.08712462,-0.105514,-1.477014,-1.821898,2.27645,0.3254142,1.190366,-0.00164026,-0.8207005,-0.05017184,0,0,0.06165956,-0.002216946,0.03233499,-0.8910655,-2.024041,-0.1027908,0.4144537,1.329958,0.0003261268,0.02731726,-0.09394246,0.0126151,-0.6195237,-0.641122,0.3512291,0.5329318,1.447426,0.1494113,-0.04532253,1.133573,0.1393722,86.82202,90.97317,161.6107,True
2,2.733331,0.04075755,0.05520003,-0.1099344,-1.476364,-1.820701,2.27524,0.3250647,1.190344,-0.001820058,-0.8210883,-0.03503261,0,0,0.05403251,-0.02562435,0.02387615,-0.8909712,-2.025559,-0.1021517,0.4136732,1.329646,0.0003089309,0.02158184,-0.09381206,-0.009659939,-0.6205325,-0.6416402,0.3523088,0.5326219,1.4475,0.1492882,-0.04492524,1.133425,0.1382733,87.52599,70.38285,141.038,True
2,2.744442,0.03656632,0.01577823,-0.110909,-1.476291,-1.819162,2.274796,0.3247063,1.190275,-0.002050787,-0.8207676,0.03077224,0,0,0.02848341,-0.01697886,0.01975814,-0.8908918,-2.025606,-0.1015557,0.4131942,1.329498,0.000172466,0.003235281,-0.06813858,-0.0273772,-0.6213182,-0.6410069,0.3523429,0.5324488,1.447348,0.1492903,-0.04590147,1.133578,0.1379331,86.95535,67.7157,138.0716,True
2,2.755553,0.0194406,-0.02156338,-0.1256003,-1.476171,-1.816832,2.275025,0.3244302,1.190151,-0.002277404,-0.8197322,0.09322315,0,0,0.001104835,0.06197599,0.006010832,-0.8915139,-2.021633,-0.1032747,0.4126482,1.329355,7.233024E-05,-0.004582647,-0.05206481,-0.04743852,-0.6225608,-0.6402809,0.3531293,0.5321763,1.447311,0.1492095,-0.04691764,1.133601,0.1376626,86.96397,72.44194,142.597,True
2,2.766664,0.0194406,-0.02156338,-0.1256003,-1.476171,-1.816832,2.275025,0.3244302,1.190151,-0.002277404,-0.8193918,0.02725446,0,0,0.001104835,0.06197599,0.006010832,-0.8915139,-2.021633,-0.1032747,0.4126482,1.329355,7.233024E-05,-0.004582647,-0.05206481,-0.04743852,-0.6225608,-0.6402809,0.3531293,0.5321763,1.447311,0.1492095,-0.04785595,1.133642,0.1374288,86.89758,73.35909,143.408,True
2,2.777775,-0.007382434,-0.07811403,-0.1550851,-1.476544,-1.812924,2.275665,0.3241279,1.190191,-0.002537429,-0.8193545,0.003863196,0,0,0.004528437,0.1109604,0.002756514,-0.8919065,-2.018058,-0.1056409,0.4122157,1.329355,-4.446507E-05,0.008547023,-0.04897822,-0.02632784,-0.6223424,-0.6412057,0.3533272,0.5318944,1.447294,0.1493199,-0.04854271,1.133679,0.1372429,86.87325,72.28705,142.3355,True
2,2.788886,-0.005079329,-0.1100625,-0.1444178,-1.477277,-1.808269,2.27536,0.3233805,1.190265,-0.003044754,-0.8202302,-0.07944129,0,0,0.03972926,0.07885273,0.03773463,-0.8900609,-2.016809,-0.1083789,0.4114916,1.329408,-9.346008E-05,-0.009869048,-0.03954227,0.02194682,-0.6208191,-0.6435406,0.3563778,0.5314794,1.447069,0.1494609,-0.04877825,1.133632,0.1371515,86.81206,74.55047,144.4035,True
2,2.799997,0.03897245,-0.04919667,-0.09593799,-1.476509,-1.809853,2.273525,0.3229342,1.190455,-0.003063709,-0.8200864,0.01802598,0,0,0.05565304,0.01914559,0.07923797,-0.8874686,-2.019107,-0.1081297,0.4113002,1.329543,-5.787611E-05,-0.00752471,-0.01407127,0.03477127,-0.6204718,-0.6436532,0.3571222,0.5312157,1.446654,0.1490222,-0.04940111,1.133611,0.1366124,87.06295,72.57735,142.0449,True
2,2.811108,0.0795555,0.06171453,-0.06453059,-1.47328,-1.813107,2.271492,0.3224859,1.190804,-0.003109396,-0.8193279,0.0680473,0,0,0.0619828,-0.0415754,0.1207954,-0.8843676,-2.022079,-0.1071893,0.4109945,1.329647,1.731515E-05,-0.007533383,0.006181484,0.03165307,-0.6199636,-0.6425442,0.3562915,0.5310659,1.446618,0.1491245,-0.05008717,1.133616,0.1356263,86.81838,65.80308,135.0535,True
2,2.822219,0.09539817,0.1405848,-0.06265656,-1.469506,-1.815366,2.270164,0.322089,1.191153,-0.003204107,-0.8175787,0.1575323,0,0,0.06091175,-0.07351068,0.1474639,-0.8816406,-2.024131,-0.1064551,0.410991,1.329696,5.52237E-05,-0.009762459,0.001939049,0.02846787,-0.619985,-0.6427975,0.3572705,0.5308461,1.446381,0.148914,-0.05072294,1.133703,0.1346646,86.22421,58.67594,127.9665,True
2,2.83333,0.1067573,0.2364657,-0.07887121,-1.46377,-1.818311,2.268831,0.3217227,1.191638,-0.003421456,-0.8161092,0.1273159,0,0,0.05577399,-0.05536057,0.1634647,-0.8792741,-2.023644,-0.1072748,0.4110489,1.329716,-2.846122E-05,-0.01155377,-0.0002882537,0.05085209,-0.6189932,-0.6441159,0.3587824,0.5304422,1.446507,0.1483313,-0.05127519,1.133844,0.1342491,85.84263,57.96277,127.5392,True
2,2.844441,0.1327888,0.2918535,-0.1271484,-1.457997,-1.819011,2.26652,0.3214984,1.192189,-0.00394246,-0.8158264,0.02074699,0,0,0.04739241,-0.02868466,0.1645582,-0.8774583,-2.022564,-0.1081968,0.4109502,1.32975,-0.0001173615,0.0003468171,-0.01101363,0.0634046,-0.6180978,-0.6456396,0.3596056,0.5304425,1.446481,0.1484578,-0.05191106,1.133973,0.1345744,86.10339,63.59758,133.4873,True
2,2.855552,0.1433372,0.2875972,-0.1389681,-1.454624,-1.819448,2.264617,0.3212934,1.192512,-0.004302382,-0.8158637,-0.00409821,0,0,0.0261742,0.008693658,0.1465464,-0.8766434,-2.020608,-0.1090738,0.4114861,1.329884,-0.0002266169,-0.00196762,0.001814948,0.05069965,-0.6179631,-0.6450292,0.3592777,0.5304873,1.446161,0.1483143,-0.05244918,1.133969,0.1352832,86.39153,75.50599,145.5275,True
2,2.866663,0.1475786,0.2694903,-0.1443153,-1.451632,-1.819579,2.262836,0.3211389,1.192967,-0.004640937,-0.8155947,0.02286397,0,0,0.01875082,0.03641447,0.1284578,-0.8760175,-2.018681,-0.1102503,0.4116096,1.329962,-0.0003449917,-0.01606939,0.03189229,0.02758689,-0.6173143,-0.6390588,0.3542526,0.5317078,1.445241,0.1493931,-0.05278056,1.134105,0.1360932,86.43575,81.42535,151.1662,True
2,2.877774,0.1541765,0.25568,-0.1273208,-1.449234,-1.82052,2.260964,0.3210015,1.193427,-0.004878044,-0.8158876,-0.0306547,0,0,0.01771964,0.05878069,0.1156647,-0.8752506,-2.016793,-0.1115987,0.4121041,1.330213,-0.0003949404,-0.02242645,0.03403228,0.03090567,-0.6165239,-0.6386278,0.3547496,0.531383,1.445003,0.1496379,-0.0532234,1.134305,0.1363055,86.54611,81.34724,150.834,True
2,2.888885,0.1640149,0.2557296,-0.1029186,-1.446814,-1.82208,2.258962,0.3209445,1.193819,-0.005095422,-0.8164517,-0.05255127,0,0,0.01443442,0.05346212,0.1050349,-0.8744862,-2.016108,-0.112094,0.4122558,1.33035,-0.0004627407,-0.0329462,0.03935369,0.03855306,-0.615644,-0.63804,0.3550281,0.5314789,1.444957,0.1499559,-0.05343462,1.134423,0.1358298,86.52081,83.79689,153.0603,True
2,2.899997,0.1609429,0.2450796,-0.09221828,-1.444566,-1.823091,2.257524,0.3208742,1.194121,-0.005442977,-0.8168906,-0.04084156,0,0,-0.00479617,0.04822677,0.1008877,-0.8735424,-2.015671,-0.1115923,0.412308,1.330503,-0.0005746186,-0.03508404,0.04254464,0.03861874,-0.6148562,-0.6378714,0.3555933,0.5307813,1.446138,0.1487393,-0.0540333,1.134643,0.1353942,86.65778,88.71008,158.0539,True
2,2.911108,0.1353668,0.2119954,-0.09937215,-1.442799,-1.822824,2.256866,0.3209956,1.194388,-0.005709171,-0.8171718,-0.02730709,0,0,-0.02288844,0.01957751,0.1287147,-0.8710795,-2.016281,-0.1102794,0.4124484,1.330622,-0.0005875826,-0.03617467,0.05534156,0.03548548,-0.6142171,-0.6362671,0.3547245,0.5308969,1.446148,0.1489276,-0.05479816,1.134915,0.135056,86.717,91.97211,161.6928,True
2,2.922219,0.1139346,0.1778388,-0.1182876,-1.440893,-1.821657,2.256267,0.3211339,1.194734,-0.005932808,-0.8178759,-0.06656354,0,0,-0.0229127,0.004668526,0.1372479,-0.8692206,-2.016603,-0.1098959,0.4124515,1.330691,-0.0006280541,-0.03833646,0.05642997,0.03556161,-0.6130352,-0.6353933,0.3551014,0.5299773,1.446806,0.1488018,-0.05521972,1.135179,0.1347336,86.37442,104.2179,174.333,True
2,2.93333,0.0892528,0.1212938,-0.146729,-1.439782,-1.81899,2.255909,0.3213954,1.194862,-0.006245494,-0.8190797,-0.1095624,0,0,-0.01870853,0.02060787,0.1137738,-0.868844,-2.015559,-0.1105167,0.4125903,1.330827,-0.0007533133,-0.03515276,0.03938545,0.03971199,-0.6124226,-0.635635,0.3562609,0.5292974,1.446614,0.1489556,-0.05575873,1.135434,0.1341178,86.0608,124.1023,194.8465,True
2,2.944441,0.06391346,0.05840074,-0.1368043,-1.440249,-1.8171,2.255782,0.3217468,1.195024,-0.006453186,-0.8200288,-0.08418491,0,0,-0.02947174,0.03342179,0.08399814,-0.8690656,-2.014453,-0.1105681,0.4127786,1.33094,-0.0008678734,-0.04574968,0.04046156,0.04308566,-0.6116828,-0.6351787,0.3567757,0.5293694,1.446736,0.1491292,-0.05615035,1.135679,0.1331565,85.78676,134.433,205.6118,True
2,2.955552,0.04717478,0.02643692,-0.1131552,-1.440747,-1.816214,2.255778,0.3219974,1.195148,-0.006640971,-0.8208368,-0.07259122,0,0,-0.03382125,0.03449612,0.0680431,-0.8689197,-2.013857,-0.1104133,0.4129658,1.33104,-0.0009719133,-0.04499693,0.04692267,0.02499379,-0.6115118,-0.6336721,0.3564926,0.5291259,1.446777,0.1493381,-0.05645241,1.13584,0.1319253,85.62373,136.0773,207.4938,True
2,2.966663,0.02127737,-0.008689174,-0.04785507,-1.442987,-1.816998,2.256629,0.3223329,1.195236,-0.006730527,-0.8213114,-0.04153391,0,0,-0.03823432,0.02917456,0.04676687,-0.8691929,-2.013731,-0.1099111,0.413229,1.331144,-0.00106743,-0.05144373,0.05226417,0.01552468,-0.6115832,-0.6330358,0.3553493,0.532253,1.447312,0.1495599,-0.05679278,1.13589,0.1305209,85.74449,131.5168,203.08,True
2,2.977774,0.01193666,-0.01933058,-0.02643399,-1.44357,-1.817095,2.256668,0.32267,1.195329,-0.006801575,-0.8214014,-0.007046918,0,0,-0.04676307,0.02177072,0.05214544,-0.8683615,-2.013572,-0.1092117,0.4139988,1.331462,-0.001154244,-0.04828416,0.04050617,0.01755518,-0.6115103,-0.6336857,0.3570196,0.5324688,1.447464,0.1492824,-0.05700115,1.135898,0.1288924,85.76302,129.0951,201.0148,True
2,2.988885,0.001246728,-0.03853644,-0.03375825,-1.444079,-1.815861,2.256896,0.3231237,1.195345,-0.006944001,-0.8216395,-0.02144195,0,0,-0.06069461,0.02395894,0.03624586,-0.8685229,-2.013184,-0.1083182,0.4143391,1.331514,-0.00122425,-0.05040383,0.03731107,0.01864439,-0.6111843,-0.6333331,0.3573613,0.5326965,1.44762,0.1494499,-0.05691751,1.1359,0.1273615,85.65887,130.6049,203.0405,True
2,2.999996,-0.01286551,-0.06843561,-0.06553669,-1.444258,-1.813136,2.257138,0.3236954,1.195442,-0.00713858,-0.8211133,0.05025973,0,0,-0.06610947,0.03781606,0.009633625,-0.8694614,-2.012068,-0.1080844,0.415251,1.331808,-0.001318723,-0.06769839,0.04487532,0.004034518,-0.6112679,-0.6312999,0.3574263,0.5329068,1.447874,0.149243,-0.0565533,1.135871,0.1262575,85.64063,131.4303,204.3903,True
2,3.011107,-0.02367422,-0.09404894,-0.08563602,-1.444723,-1.810501,2.257476,0.3241572,1.195518,-0.007356852,-0.8207101,0.03524662,0,0,-0.0597056,0.06120585,-0.008532535,-0.870451,-2.010162,-0.1088897,0.415601,1.331879,-0.001437902,-0.0591985,0.0512565,0.001785603,-0.6110612,-0.6300082,0.3567741,0.5331888,1.447932,0.1494582,-0.05614431,1.135879,0.125711,85.80498,129.208,202.4601,True
2,3.022218,-0.03650003,-0.1249868,-0.0961197,-1.445848,-1.807724,2.25797,0.3247685,1.195617,-0.00757727,-0.8204198,0.026876,0,0,-0.06824591,0.0655065,-0.01487282,-0.8707615,-2.00905,-0.1085387,0.4164827,1.332106,-0.001508802,-0.05372266,0.06294464,0.009196824,-0.6101952,-0.6283087,0.3557182,0.5333908,1.44799,0.1493512,-0.0557765,1.135875,0.1252676,85.90366,127.5782,200.8766,True
2,3.033329,-0.03853646,-0.1505545,-0.09180615,-1.447348,-1.805423,2.258171,0.3252814,1.195692,-0.007785082,-0.8201301,0.02709547,0,0,-0.08103817,0.06131185,-0.01266375,-0.8708526,-2.008386,-0.1075864,0.4168191,1.332168,-0.001563698,-0.04399156,0.06502685,0.01756722,-0.609433,-0.6271924,0.3549333,0.533617,1.44813,0.149572,-0.05549847,1.135916,0.1249362,85.97323,128.94,201.991,True
