loc,t,aDotUA,bDotUA,gDotUA,aUA,bUA,gUA,xUA,yUA,zUA,qE,qDotE,emgA,emgB,aDotSH,bDotSH,gDotSH,aSH,bSH,gSH,xSH,ySH,zSH,aDotUB,bDotUB,gDotUB,aUB,bUB,gUB,xUB,yUB,zUB,xHand,yHand,zHand,aHand,bHand,gHand,enable
0,0,-0.02011681,0.7629982,0.2241712,-1.568511,-1.959315,3.024822,0.7306538,1.22257,-0.02019903,-1.203741,0.8824623,0,60,0.1956675,-0.4281404,-0.08253549,-1.029096,-1.787784,-0.05951499,0.7465448,1.401935,-0.009659648,0.2718888,-0.342305,0.1218614,-0.7765054,-0.2954743,0.1594195,0.8259454,1.510104,0.1658759,0.4770729,0.9991405,0.1174367,61.30696,96.76778,166.3131,True
0,0.01111111,-0.03075476,0.7565902,0.2253513,-1.570004,-1.967642,3.02558,0.7293742,1.222334,-0.01933587,-1.194067,0.8709601,0,60,0.2031423,-0.4239196,-0.08258075,-1.029795,-1.793186,-0.05917757,0.7451165,1.401652,-0.009273916,0.2645127,-0.3390431,0.1251633,-0.7756047,-0.3009106,0.160542,0.8255994,1.510045,0.1658419,0.4770553,0.9973783,0.1195204,61.28148,101.3609,170.7666,True
0,0.02222222,-0.04033223,0.7501911,0.2265408,4.71144,-1.976068,3.026454,0.7280917,1.222213,-0.01868874,-1.184304,0.8791957,0,60,0.2147596,-0.4346336,-0.09010795,-1.030731,-1.799282,-0.05881618,0.7438729,1.40149,-0.008892834,0.2688456,-0.3369964,0.1293769,-0.7747918,-0.3063653,0.1612786,0.8251779,1.51007,0.1657499,0.4772957,0.9948316,0.1221678,60.85372,102.5135,171.5831,True
0,0.03333334,-0.05419974,0.7554936,0.225592,4.709968,-1.984922,3.027517,0.7268381,1.22196,-0.01800227,-1.174828,0.8529524,0,60,0.2273246,-0.4592001,-0.1050972,-1.031963,-1.80633,-0.05808168,0.7428827,1.401605,-0.008516073,0.2720605,-0.3338246,0.1283117,-0.7739295,-0.311736,0.1620603,0.8248143,1.510209,0.1657154,0.4780035,0.9915898,0.1252917,60.11775,102.904,171.4414,True
0,0.04444445,-0.06906104,0.7661488,0.2331693,4.708071,-1.994149,3.028768,0.725857,1.221887,-0.01731467,-1.165312,0.8577543,0,60,0.2378424,-0.4816286,-0.1072961,-1.032877,-1.813532,-0.05738579,0.7416377,1.401467,-0.008140713,0.270942,-0.3305503,0.1198223,-0.7735103,-0.3170307,0.162859,0.824465,1.510192,0.1656226,0.4792052,0.9878281,0.1287481,59.18315,103.4773,171.3008,True
0,0.05555556,-0.07438643,0.7895881,0.2374137,4.706411,-2.003839,3.029757,0.724659,1.221681,-0.0166629,-1.155714,0.864881,0,60,0.251497,-0.5083335,-0.1137793,-1.03401,-1.82108,-0.05660149,0.7401073,1.401144,-0.007787824,0.2634545,-0.3239733,0.1082414,-0.7731657,-0.32202,0.1636012,0.8242218,1.510156,0.1654118,0.479793,0.9849672,0.1309745,59.1798,107.4407,175.5989,True
0,0.06666667,-0.07655427,0.8332705,0.2405105,4.704842,-2.014946,3.030632,0.7234495,1.221437,-0.01590407,-1.146147,0.8624896,0,60,0.2546408,-0.5264645,-0.1063458,-1.034588,-1.828668,-0.05572877,0.7391169,1.401014,-0.007405668,0.2612723,-0.3185438,0.09764297,-0.7730768,-0.3271191,0.1643429,0.8239272,1.510154,0.1653068,0.4802561,0.9841621,0.1320803,59.28283,109.3336,177.7167,True
0,0.07777778,-0.08082417,0.8726924,0.2457712,4.703179,-2.026216,3.031548,0.7222774,1.22115,-0.01515943,-1.136224,0.8950503,0,60,0.2503915,-0.5264431,-0.1041881,-1.035322,-1.835521,-0.05484168,0.7380421,1.40079,-0.00696069,0.2602669,-0.3174891,0.1008619,-0.7723657,-0.3324018,0.1651301,0.8236935,1.51018,0.1652051,0.4807285,0.9838234,0.1326561,59.5052,109.6215,178.4574,True
0,0.08888889,-0.0722585,0.9217401,0.2572562,4.701365,-2.038333,3.031851,0.7212594,1.220932,-0.0144085,-1.126084,0.9133887,0,60,0.247143,-0.5360131,-0.1041736,-1.036133,-1.842898,-0.05371862,0.7370305,1.40061,-0.006584495,0.2509239,-0.3014183,0.1053656,-0.7713414,-0.3365473,0.1655442,0.8234656,1.510234,0.1651907,0.4811796,0.9835721,0.1332311,59.75847,110.19,179.4444,True
0,0.1,-0.04868983,0.9527149,0.2739742,4.699184,-2.050309,3.031296,0.7202439,1.220664,-0.01360664,-1.115885,0.9187501,0,60,0.2491883,-0.5370876,-0.1159003,-1.037496,-1.850004,-0.05284511,0.7358012,1.400355,-0.006199032,0.2467494,-0.2928281,0.1044028,-0.7708456,-0.3408372,0.1660518,0.8233914,1.510295,0.1651253,0.4817085,0.9833096,0.1340894,59.97399,111.3339,181.0019,True
0,0.1111111,-0.01241367,0.9421273,0.2779178,4.697063,-2.060599,3.030061,0.7192214,1.22046,-0.01292339,-1.105352,0.9496809,0,60,0.2513057,-0.5285727,-0.1265621,-1.038976,-1.856537,-0.05238891,0.7349303,1.400205,-0.005854815,0.2351714,-0.2712991,0.09404986,-0.7705223,-0.3442415,0.1662247,0.8233142,1.510278,0.1651688,0.4823184,0.9830484,0.1352169,60.20819,113.1533,183.2579,True
0,0.1222222,0.02906738,0.9037979,0.2637646,4.695727,-2.069425,3.028121,0.7182028,1.2204,-0.01220378,-1.094375,0.9879864,0,60,0.2727929,-0.4743537,-0.1458341,-1.04106,-1.860542,-0.05404726,0.7342329,1.400031,-0.005592138,0.2203166,-0.2442944,0.07097284,-0.7709164,-0.346598,0.166034,0.823292,1.510249,0.1651723,0.4830256,0.9827983,0.1365485,60.33184,115.3058,185.8855,True
0,0.1333333,0.07249194,0.839846,0.2283618,4.695215,-2.0767,3.025895,0.7172246,1.220408,-0.01146778,-1.083233,1.001136,0,60,0.2804673,-0.4349827,-0.14372,-1.042223,-1.864702,-0.05514794,0.7332413,1.399788,-0.005215228,0.2128575,-0.2259315,0.05096186,-0.7712973,-0.3492508,0.1658193,0.8232739,1.510213,0.1651635,0.4836696,0.9825597,0.1379873,60.30989,117.6512,188.7104,True
0,0.1444445,0.09473,0.7972087,0.2069478,4.694605,-2.0842,3.023969,0.7161117,1.220331,-0.01080409,-1.072028,1.00618,0,60,0.2863014,-0.3615148,-0.1256132,-1.04289,-1.866371,-0.0576617,0.7328804,1.399791,-0.004951358,0.1989243,-0.2063469,0.02355944,-0.7722874,-0.3509167,0.1655006,0.8232641,1.510179,0.1651959,0.4840851,0.9823518,0.1393945,60.1455,120.1746,191.5681,True
0,0.1555556,0.1414346,0.7162315,0.176896,4.694185,-2.089612,3.020824,0.7151918,1.220298,-0.01026246,-1.061253,0.9664701,0,60,0.277676,-0.2389798,-0.0743795,-1.042149,-1.865119,-0.06101435,0.7326086,1.399913,-0.004717737,0.1777716,-0.1857893,0.01542894,-0.7725894,-0.3528507,0.1655541,0.8233459,1.510103,0.1651693,0.4843138,0.9821925,0.1406066,59.793,121.6843,193.3992,True
0,0.1666667,0.1658998,0.6832072,0.1660863,4.693583,-2.096228,3.017951,0.7141047,1.220272,-0.009597659,-1.051219,0.8992568,0,60,0.274735,-0.2091407,-0.05837119,-1.042177,-1.866661,-0.06317178,0.7321744,1.399915,-0.004453957,0.160975,-0.1578247,0.0094298,-0.7729042,-0.3536178,0.1649653,0.8234055,1.510116,0.1652123,0.4843433,0.9820478,0.1415646,59.44893,122.497,194.4728,True
0,0.1777778,0.1946293,0.6629913,0.159466,4.692896,-2.103065,3.014738,0.7130868,1.220247,-0.00905481,-1.04067,0.9486359,0,60,0.2689887,-0.1270921,-0.02421376,-1.041368,-1.865092,-0.06671858,0.7319195,1.400079,-0.004249483,0.1494945,-0.1396023,0.0118343,-0.7728307,-0.3551114,0.1647088,0.8235071,1.510087,0.1651229,0.4842248,0.9819012,0.1425389,59.24691,123.0637,195.1163,True
0,0.1888889,0.2308093,0.6566328,0.1538036,4.692306,-2.11016,3.010761,0.7119381,1.220373,-0.008498728,-1.030822,0.8805537,0,60,0.2544119,-0.08014289,-0.01026374,-1.040984,-1.86413,-0.06952208,0.7317989,1.400185,-0.004081041,0.1335732,-0.1190204,-0.004892549,-0.7736877,-0.3555243,0.1639999,0.8236411,1.510205,0.1651154,0.4840867,0.9817333,0.1433721,58.92708,123.6736,195.8899,True
0,0.2,0.2551476,0.6747359,0.1396702,4.692307,-2.118292,3.007003,0.7109585,1.220455,-0.007845581,-1.021116,0.8707768,0,60,0.2362586,-0.06086037,-0.03572724,-1.042398,-1.864595,-0.07122118,0.7312417,1.400129,-0.004037052,0.1239401,-0.1038198,-0.02493452,-0.7750108,-0.3559902,0.1632797,0.8237567,1.510335,0.1651644,0.4839419,0.9815889,0.144226,58.5661,124.2559,196.7116,True
0,0.2111111,0.2592267,0.7141175,0.126732,4.692606,-2.127481,3.003867,0.7100677,1.220546,-0.007311076,-1.011101,0.8981958,0,60,0.2296806,-0.06081197,-0.06871482,-1.044254,-1.865511,-0.07306862,0.7310472,1.400225,-0.003882945,0.1220174,-0.08890468,-0.02265431,-0.7751626,-0.3567686,0.1623908,0.8238938,1.510323,0.1652538,0.4838604,0.9814643,0.1451517,58.10568,125.0608,197.7715,True
0,0.2222222,0.2568593,0.765192,0.1084952,4.693485,-2.137526,3.00076,0.7090611,1.220773,-0.006723046,-1.001465,0.86149,0,60,0.2358222,-0.07042509,-0.1017742,-1.046453,-1.867099,-0.07498156,0.7305958,1.400254,-0.003813714,0.1084826,-0.05889328,-0.02545787,-0.775463,-0.3561754,0.1612118,0.8240948,1.510358,0.1653761,0.4837843,0.9813787,0.1461797,57.52533,126.0291,199.0101,True
0,0.2333333,0.2640191,0.8311943,0.08800756,4.694716,-2.148786,2.997403,0.7080252,1.22097,-0.006188333,-0.9925138,0.8015727,0,60,0.237887,-0.0810882,-0.1039226,-1.047456,-1.86865,-0.0770117,0.7307932,1.400461,-0.00377515,0.1032301,-0.04920432,-0.02852193,-0.7758971,-0.3562047,0.1602882,0.8241181,1.510334,0.1654033,0.4835881,0.9813629,0.1477183,57.31797,126.8967,199.936,True
0,0.2444444,0.2713905,0.8748708,0.08460998,4.695561,-2.159863,2.993883,0.706959,1.221138,-0.005606681,-0.9835113,0.8082212,0,60,0.2272357,-0.09275182,-0.09214838,-1.047974,-1.870345,-0.07833555,0.7307587,1.400658,-0.003692329,0.098941,-0.04268494,-0.03801072,-0.7766821,-0.3564164,0.1594805,0.8243387,1.510346,0.1654841,0.4837553,0.9811985,0.1490145,56.6934,128.7503,201.9776,True
0,0.2555556,0.2905402,0.9441582,0.09169772,4.696172,-2.172637,2.989702,0.7059476,1.221184,-0.004991055,-0.974122,0.8427523,0,60,0.2156864,-0.08737645,-0.06544243,-1.047687,-1.871245,-0.07972332,0.7303164,1.400615,-0.003602892,0.08828311,-0.0232057,-0.06010558,-0.7779626,-0.3556588,0.158142,0.824568,1.51029,0.1656085,0.4840316,0.9810774,0.1501239,55.8055,130.9225,204.3799,True
0,0.2666667,0.309813,1.011351,0.1104875,4.696499,-2.186193,2.985262,0.7050579,1.221291,-0.004289836,-0.9644036,0.8716018,0,60,0.2116762,-0.06818727,-0.03984507,-1.047289,-1.871372,-0.08188768,0.7304025,1.40082,-0.003539711,0.07870127,-0.01558486,-0.06739531,-0.7789134,-0.3554994,0.1574922,0.8248563,1.510211,0.1656974,0.4840876,0.9810421,0.1515889,55.17524,133.0627,206.5448,True
0,0.2777778,0.3195305,1.049763,0.129476,4.696391,-2.199235,2.981136,0.704088,1.22138,-0.003657907,-0.9542495,0.9111747,0,60,0.2065878,-0.04259959,-0.02276057,-1.04705,-1.870917,-0.08428532,0.7303698,1.400946,-0.003438562,0.06922425,0.004860949,-0.07884434,-0.780059,-0.3541145,0.1560631,0.8251297,1.510202,0.1658311,0.4842143,0.9810075,0.1531185,54.55984,133.9867,207.8705,True
0,0.2888889,0.3347337,1.099941,0.1654193,4.695649,-2.213228,2.976586,0.7032449,1.221495,-0.002860159,-0.9439841,0.919058,0,60,0.2004755,-0.008481167,-0.006733522,-1.046641,-1.869605,-0.08696206,0.7305431,1.401118,-0.003408641,0.0619114,0.02311326,-0.08500201,-0.7809448,-0.3525831,0.1544929,0.8253248,1.510225,0.1660681,0.4844006,0.9808749,0.1546168,53.78574,135.3453,209.6763,True
0,0.3,0.3391163,1.106364,0.1770697,4.695514,-2.225871,2.972358,0.702389,1.221701,-0.002073765,-0.9340292,0.8908586,0,60,0.1943364,0.02776255,0.002904184,-1.046471,-1.868046,-0.08970059,0.7304349,1.401168,-0.003383458,0.05574565,0.03806415,-0.07948394,-0.7814428,-0.3510222,0.1530303,0.8256099,1.510082,0.1662046,0.4845496,0.9807445,0.1565379,53.00772,137.3616,211.9151,True
0,0.3111111,0.3519171,1.087205,0.1759317,4.695588,-2.237503,2.967836,0.7014897,1.221834,-0.001303881,-0.9239603,0.9031494,0,60,0.1933063,0.03629149,0.0007825419,-1.046594,-1.867262,-0.09220289,0.7305427,1.401301,-0.003333151,0.05478121,0.04766788,-0.08045541,-0.7821885,-0.3497289,0.1515288,0.8258498,1.510162,0.166305,0.4848655,0.9805821,0.1584163,51.95726,139.0368,214.1373,True
0,0.3222222,0.365754,1.04457,0.1652587,4.696014,-2.247733,2.962974,0.7006428,1.221962,-0.0005768538,-0.914179,0.8749422,0,60,0.1901317,0.05761363,-0.01623342,-1.047496,-1.865965,-0.09483064,0.7305069,1.401297,-0.003228664,0.04843964,0.05200224,-0.08035181,-0.7829683,-0.3485158,0.1503288,0.8261404,1.510163,0.166398,0.4850439,0.9804397,0.1605031,50.93525,141.0853,216.5627,True
0,0.3333333,0.3753027,1.007272,0.1556799,4.69645,-2.257837,2.958276,0.6997967,1.222079,0.000221014,-0.9041991,0.8949488,0,60,0.1943306,0.06398759,-0.03329986,-1.048513,-1.86508,-0.09758568,0.7302971,1.401291,-0.003174394,0.04199136,0.05211454,-0.08560552,-0.7839835,-0.3475978,0.1494209,0.8264275,1.510226,0.1663684,0.4852717,0.9803271,0.1624316,49.81344,142.3053,218.3899,True
0,0.3444445,0.3912961,0.9582663,0.1482005,4.696762,-2.266914,2.953199,0.698936,1.222284,0.0009844005,-0.893947,0.918414,0,60,0.2027323,0.06394822,-0.05465363,-1.049928,-1.864407,-0.1004654,0.7304173,1.401291,-0.003112137,0.03760875,0.04795604,-0.09198517,-0.7851393,-0.3467737,0.1485988,0.8267345,1.510189,0.1663865,0.4852322,0.9802436,0.164303,48.85035,143.6783,220.0505,True
0,0.3555556,0.3998882,0.9252602,0.150338,4.696783,-2.276117,2.948296,0.6981459,1.222387,0.001813978,-0.8839884,0.8909513,0,60,0.2079489,0.06073122,-0.07066476,-1.051287,-1.863914,-0.1031666,0.7304049,1.401252,-0.003079355,0.03308327,0.04713334,-0.1153806,-0.7870775,-0.3456581,0.1475961,0.827055,1.510135,0.1663773,0.4851661,0.9802154,0.1659158,47.99287,144.0587,220.9269,True
0,0.3666667,0.4107761,0.8539311,0.1632131,4.695892,-2.283406,2.943226,0.6974955,1.222535,0.002637774,-0.8738534,0.9081495,0,60,0.214149,0.04898597,-0.0930758,-1.053148,-1.864002,-0.1057384,0.7304671,1.401203,-0.003035575,0.03294566,0.03756953,-0.1175868,-0.7883665,-0.3451317,0.1468938,0.8272851,1.510075,0.1663803,0.4850219,0.9801893,0.1673179,47.19413,144.3597,221.68,True
0,0.3777778,0.4172871,0.7868329,0.165465,4.695343,-2.290207,2.938276,0.6968322,1.222583,0.003458589,-0.8639012,0.8899695,0,60,0.2043743,0.03412646,-0.1111377,-1.054953,-1.864466,-0.1073792,0.7300408,1.401024,-0.002968013,0.03721396,0.03428403,-0.1123372,-0.789394,-0.3444664,0.1460161,0.8275627,1.510016,0.1663977,0.4846958,0.9802189,0.1690687,46.73611,144.8824,222.3373,True
0,0.3888889,0.426878,0.7101128,0.153862,4.695233,-2.295861,2.933125,0.6962564,1.222697,0.004212409,-0.8538377,0.9014748,0,60,0.1913038,0.01610002,-0.1440953,-1.057639,-1.865309,-0.1086253,0.7300527,1.400964,-0.002947897,0.03531999,0.04379433,-0.1005165,-0.789973,-0.3433279,0.1449101,0.8277996,1.510082,0.1664372,0.4846022,0.9800158,0.1705519,45.75561,145.4559,223.3243,True
0,0.4,0.4332299,0.6546834,0.1411744,4.695272,-2.301532,2.928005,0.6956148,1.222717,0.00490284,-0.8439824,0.881811,0,60,0.1931179,-0.008405015,-0.1750166,-1.060586,-1.866742,-0.1100458,0.7296631,1.40081,-0.00298965,0.03226335,0.04802295,-0.09192978,-0.7906808,-0.3422279,0.1438794,0.8280449,1.510022,0.1664683,0.484591,0.9798503,0.1718787,44.57697,146.0119,224.3653,True
0,0.4111111,0.4352241,0.5693898,0.1147559,4.695664,-2.304939,2.923051,0.6950402,1.222862,0.00554353,-0.8340179,0.8923401,0,60,0.198377,-0.009493947,-0.1857044,-1.062945,-1.867105,-0.112273,0.7297015,1.400833,-0.003022879,0.02904075,0.04592436,-0.09190878,-0.791599,-0.3415311,0.1432187,0.8283049,1.51007,0.1665079,0.4843582,0.9798415,0.1735745,43.91519,146.7115,225.2212,True
0,0.4222222,0.4287724,0.4840993,0.09587547,4.695825,-2.307647,2.91845,0.6945298,1.223016,0.00612101,-0.8240763,0.889433,0,60,0.2027691,0.006458774,-0.1782661,-1.064789,-1.866685,-0.114881,0.7297182,1.400885,-0.00300172,0.01823673,0.03970896,-0.09929979,-0.7929115,-0.3411399,0.1430757,0.8284786,1.510019,0.1665394,0.4841952,0.9797071,0.1749322,43.06105,147.006,225.889,True
0,0.4333333,0.4212389,0.427584,0.08012605,4.696113,-2.310503,2.913993,0.6939979,1.223217,0.006683409,-0.8141912,0.8848043,0,60,0.200785,0.01499031,-0.1612055,-1.065987,-1.866247,-0.1172872,0.7300396,1.401058,-0.003044069,0.01282345,0.03446943,-0.1024755,-0.7940444,-0.3406685,0.1426677,0.8286779,1.510028,0.1665422,0.4839586,0.9796204,0.1760517,42.23358,147.1815,226.3837,True
0,0.4444444,0.4019886,0.3603851,0.06130856,4.696622,-2.312307,2.910058,0.6936288,1.223358,0.007197022,-0.8045868,0.8596671,0,60,0.1840293,0.0225258,-0.11743,-1.065838,-1.865649,-0.1190566,0.7300858,1.401141,-0.002984077,0.01386727,0.03232063,-0.1025041,-0.7951198,-0.3401589,0.142045,0.8289431,1.509955,0.1665621,0.483405,0.979724,0.1774547,42.09349,147.4616,226.579,True
0,0.4555556,0.3741677,0.3166158,0.04252587,4.697285,-2.314289,2.906796,0.6931236,1.223528,0.007651746,-0.7949829,0.8604832,0,60,0.1651552,0.03220347,-0.07364146,-1.065337,-1.864825,-0.1206716,0.7300453,1.401188,-0.002957672,0.02128626,0.02474273,-0.09837792,-0.7959549,-0.3399999,0.1413678,0.8291657,1.509918,0.1665541,0.4830262,0.979543,0.1782825,41.45931,147.6861,226.919,True
0,0.4666667,0.348494,0.3090805,0.03000609,4.698192,-2.317409,2.903643,0.6926949,1.223662,0.008090377,-0.7855287,0.8466126,0,60,0.1515115,0.03439839,-0.0394734,-1.064687,-1.864167,-0.122234,0.7300332,1.401247,-0.002916068,0.03186177,0.01284901,-0.09326382,-0.7969206,-0.3404043,0.14089,0.8294301,1.50986,0.1665222,0.482733,0.9794253,0.1789609,40.85749,147.7394,227.1435,True
0,0.4777778,0.3111343,0.3111374,0.02290924,4.698975,-2.320869,2.90135,0.6922088,1.223795,0.008474857,-0.7763839,0.8198938,0,60,0.1451986,0.03230213,-0.02345816,-1.064584,-1.863779,-0.123899,0.7301741,1.40133,-0.002955675,0.03482387,-0.0009841202,-0.1008603,-0.7983075,-0.3409813,0.1407393,0.8296274,1.509772,0.1664081,0.4825432,0.9793608,0.1795258,40.38033,147.7183,227.2822,True
0,0.4888889,0.2908435,0.3121506,0.01778653,4.699678,-2.324278,2.89857,0.6917191,1.223853,0.008805007,-0.7669787,0.8447616,0,60,0.1398016,0.01741697,-0.02130242,-1.064717,-1.864145,-0.1251015,0.7301018,1.40133,-0.002924085,0.03890099,-0.01486376,-0.1031472,-0.799596,-0.3416304,0.1406216,0.8298354,1.509774,0.1662681,0.4824566,0.9792836,0.1799949,39.97748,147.69,227.3914,True
0,0.5,0.2609917,0.3078381,0.01489493,4.700416,-2.327482,2.896684,0.6912599,1.223939,0.00909403,-0.757753,0.8272761,0,60,0.1384924,-0.01452575,-0.03409397,-1.065474,-1.86555,-0.1260402,0.7304127,1.401425,-0.002984762,0.04744052,-0.02036142,-0.09581964,-0.8004242,-0.3422787,0.1402682,0.8300208,1.509827,0.1661946,0.4825381,0.9791256,0.1803843,39.46791,147.7628,227.6107,True
0,0.5111111,0.2247286,0.3056344,0.009926237,4.701264,-2.330606,2.895278,0.6908643,1.224012,0.009340227,-0.7477198,0.9034249,0,60,0.1404565,-0.02944401,-0.04688955,-1.06625,-1.866466,-0.1270567,0.7301688,1.401475,-0.002934426,0.05178835,-0.02155096,-0.08628187,-0.8010085,-0.3424691,0.1397369,0.8301666,1.509867,0.1662167,0.4825072,0.9786263,0.1808383,38.62608,149.4085,228.8636,True
0,0.5222223,0.1916021,0.2885019,-0.002486601,4.702312,-2.332965,2.894241,0.6904356,1.224118,0.009457886,-0.738045,0.8672521,0,60,0.1423064,-0.05288224,-0.07354147,-1.06775,-1.868278,-0.1278102,0.729996,1.401472,-0.00289607,0.06374722,-0.01865318,-0.06720674,-0.8011017,-0.3426915,0.1387997,0.8303826,1.509878,0.1662205,0.4823354,0.9777893,0.1811538,37.57441,150.9295,230.4392,True
0,0.5333334,0.1680817,0.2756661,-0.0118223,4.703487,-2.335453,2.893241,0.6900463,1.224278,0.009478539,-0.7283927,0.8682778,0,60,0.1463975,-0.06461561,-0.0916772,-1.069159,-1.86964,-0.1288557,0.7299712,1.40157,-0.002843916,0.06812055,-0.01019205,-0.06611508,-0.8017265,-0.3423946,0.1376884,0.8306186,1.509839,0.166254,0.4817237,0.977076,0.1814282,36.83308,152.1899,231.9889,True
0,0.5444446,0.1327457,0.2521169,-0.0337834,4.705083,-2.337087,2.892929,0.6897535,1.224494,0.009454548,-0.7185624,0.8845127,0,60,0.1559851,-0.06680012,-0.08960161,-1.07002,-1.870728,-0.1304017,0.7298236,1.401667,-0.002815783,0.04748672,-0.02792501,-0.08307545,-0.8032008,-0.3433624,0.1385984,0.8308637,1.509783,0.1661675,0.4816422,0.9772575,0.1826045,37.61037,150.8958,231.1502,True
0,0.5555557,0.08774282,0.235996,-0.06206816,4.707189,-2.338782,2.893435,0.6895077,1.224705,0.009362787,-0.7083428,0.9200238,0,60,0.1572274,-0.07320789,-0.05232514,-1.06916,-1.87167,-0.1317463,0.7299213,1.401829,-0.00283137,0.060904,-0.04066081,-0.1088885,-0.8052696,-0.3442574,0.1382191,0.8310895,1.509753,0.1659889,0.4819041,0.9773073,0.1828746,37.71384,150.5113,230.8915,True
0,0.5666668,0.06313181,0.2263362,-0.07458611,4.70889,-2.3406,2.893459,0.6892259,1.224884,0.009342402,-0.6983884,0.8950716,0,60,0.1531539,-0.07959042,-0.01288779,-1.067789,-1.872724,-0.1327762,0.7298577,1.401925,-0.002820969,0.05737194,-0.04681057,-0.1334068,-0.8076169,-0.3447186,0.1379989,0.8312421,1.509678,0.1659204,0.4817127,0.9764861,0.1822763,36.96545,152.8178,232.719,True
0,0.577778,0.04050283,0.2134439,-0.1020369,4.711408,-2.341993,2.893803,0.6889672,1.225087,0.00925988,-0.6887084,0.8716255,0,60,0.1331856,-0.07842644,0.03410684,-1.065574,-1.873268,-0.1332505,0.7300067,1.402117,-0.002827108,0.04681903,-0.03709172,-0.1342746,-0.8090391,-0.3445326,0.1377845,0.8313617,1.509746,0.1659009,0.4821344,0.9764623,0.1829047,37.85614,151.466,231.6894,True
0,0.5888891,0.02867091,0.1984726,-0.1157318,-1.569699,-2.343248,2.893796,0.6887779,1.225309,0.009139538,-0.6782991,0.939708,0,60,0.1088718,-0.06764669,0.05661996,-1.064212,-1.873518,-0.1335072,0.7302442,1.402336,-0.002833724,0.04973747,-0.004403271,-0.09568489,-0.808647,-0.3429823,0.1361392,0.8314548,1.509785,0.1659825,0.4822699,0.9757629,0.182063,37.18571,153.3527,233.0791,True
0,0.6000003,0.03070605,0.1707391,-0.1295234,-1.567604,-2.343676,2.893391,0.6885619,1.225534,0.008928597,-0.6679677,0.9294515,0,60,0.08244724,-0.03447682,0.06104333,-1.063517,-1.872591,-0.1340068,0.7302604,1.402473,-0.00290975,0.05656189,0.0102297,-0.07218822,-0.8084984,-0.3424807,0.1347959,0.8316483,1.509824,0.1659843,0.4827309,0.9755861,0.1824414,37.97018,152.4391,232.4047,True
0,0.6111114,0.03705953,0.1249096,-0.1401167,-1.565749,-2.343112,2.892753,0.6884408,1.225736,0.00859344,-0.6573076,0.9606667,0,60,0.06353299,0.0167606,0.0558397,-1.063411,-1.870544,-0.1352678,0.7303829,1.402709,-0.003030926,0.05778228,0.01332431,-0.06152033,-0.8087685,-0.3421659,0.1338483,0.8318001,1.509772,0.1658517,0.4833743,0.975273,0.1820331,37.64273,152.9284,232.6135,True
0,0.6222225,0.03279023,0.08760023,-0.1463615,-1.564053,-2.342333,2.89254,0.6882598,1.225986,0.008337796,-0.6463545,0.9857288,0,60,0.06153779,0.04447087,0.05266531,-1.063134,-1.868835,-0.1367059,0.7304223,1.402881,-0.003160805,0.05856606,0.00492039,-0.07971384,-0.8104468,-0.3425548,0.1332947,0.83198,1.50983,0.1657642,0.4836909,0.9747523,0.1815889,37.47789,153.7278,233.1771,True
0,0.6333337,0.02747615,0.02897621,-0.1536019,-1.562595,-2.340222,2.892417,0.6880269,1.226345,0.007922113,-0.6353578,0.9887704,0,0,0.06803214,0.05295705,0.06328596,-1.062203,-1.86774,-0.1382287,0.7302606,1.403009,-0.003340662,0.0540098,-0.001251191,-0.1010225,-0.8122604,-0.3426253,0.1327993,0.8321984,1.509774,0.1654465,0.4836727,0.9743944,0.1814707,37.93649,153.985,233.3368,True
0,0.6444448,0.01892284,-0.02859164,-0.1650725,-1.56098,-2.337543,2.892495,0.6879375,1.226612,0.007584542,-0.6249704,0.9332761,0,0,0.06915261,0.04442227,0.08138681,-1.060717,-1.867261,-0.139286,0.7302928,1.403194,-0.003484279,0.04849628,-0.008569038,-0.1105964,-0.8136138,-0.3428524,0.1326065,0.8320836,1.509572,0.1653396,0.4836494,0.9741913,0.1813018,38.49947,153.8537,233.1159,True
0,0.655556,0.006141797,-0.09255449,-0.1743542,-1.559502,-2.333982,2.892795,0.6879053,1.226786,0.007093102,-0.6148168,0.9138762,0,0,0.06814156,0.04123054,0.09524269,-1.059237,-1.866639,-0.1402101,0.7299829,1.403233,-0.003571987,0.04773843,0.004117116,-0.09662925,-0.8140506,-0.3420177,0.131357,0.8321874,1.509587,0.1653411,0.4837641,0.9740965,0.1809875,39.01627,153.5724,232.6892,True
0,0.6666671,0.01798555,-0.1511186,-0.1700431,-1.558699,-2.330153,2.892158,0.687911,1.226925,0.006830931,-0.6049882,0.8843888,0,0,0.07238555,0.03268275,0.1005421,-1.057953,-1.86634,-0.1413244,0.7300179,1.403396,-0.003676802,0.04608191,0.02204201,-0.07195816,-0.8138412,-0.3409348,0.1301111,0.8324256,1.509624,0.1653491,0.4838459,0.9739732,0.1803761,39.41807,153.6809,232.4706,True
0,0.6777782,0.02983773,-0.1787722,-0.1604926,-1.558017,-2.326919,2.891384,0.6878574,1.227109,0.00657317,-0.595503,0.8537682,0,0,0.06598059,0.03165315,0.1005798,-1.056913,-1.865757,-0.1420165,0.7298942,1.403491,-0.003721118,0.04228672,0.04859747,-0.05677516,-0.8136905,-0.3390203,0.1284927,0.8325357,1.509715,0.1654511,0.4840308,0.973825,0.1796636,39.89009,153.5739,232.087,True
0,0.6888894,0.05134627,-0.2010662,-0.1435973,-1.557728,-2.323787,2.889948,0.6878386,1.22731,0.006375849,-0.5855519,0.8970485,0,0,0.05212825,0.03066379,0.1006585,-1.055862,-1.865202,-0.1424107,0.7299364,1.403641,-0.003797263,0.0348465,0.05618968,-0.06302612,-0.8145214,-0.3377286,0.1275036,0.832691,1.509698,0.1654927,0.4837455,0.9737376,0.179465,41.03358,154.3532,232.1166,True
0,0.7000005,0.06000452,-0.2010135,-0.1298343,-1.557305,-2.321447,2.888944,0.6878152,1.227456,0.006246269,-0.5758185,0.8737373,0,0,0.04894353,0.03920612,0.0942878,-1.055136,-1.864204,-0.1433305,0.7300267,1.40376,-0.003916502,0.03252626,0.0477627,-0.07159372,-0.8155835,-0.337194,0.1268669,0.8328589,1.509698,0.1654107,0.4839859,0.9733249,0.1787817,41.28746,154.266,231.8478,True
0,0.7111117,0.06219544,-0.1903331,-0.1213671,-1.556631,-2.319552,2.888356,0.687784,1.227637,0.006146371,-0.5662024,0.8645678,0,0,0.05218048,0.05410265,0.08895199,-1.054451,-1.862861,-0.1445311,0.7296154,1.403692,-0.003971547,0.0321356,0.02441581,-0.08349583,-0.8169161,-0.3379393,0.126926,0.8331848,1.509687,0.1652444,0.4837817,0.9730865,0.1784558,41.90795,154.6402,231.9289,True
0,0.7222228,0.0622373,-0.154082,-0.1118828,-1.555843,-2.318954,2.887677,0.6877823,1.227774,0.006119579,-0.5576984,0.761831,0,0,0.05219734,0.06475826,0.08149873,-1.053958,-1.861543,-0.1457663,0.7296977,1.403742,-0.004084557,0.03075743,0.01177018,-0.09955955,-0.818513,-0.3381691,0.1267223,0.8331808,1.509589,0.1651198,0.4840928,0.9728241,0.1779484,41.90462,154.2453,231.5333,True
0,0.7333339,0.06549243,-0.12528,-0.1013433,-1.555154,-2.318379,2.886887,0.6877539,1.228002,0.005937934,-0.5503076,0.6635692,0,0,0.05435447,0.07113552,0.07935028,-1.05339,-1.860379,-0.1470677,0.7297614,1.40381,-0.004299104,0.02959397,0.005410033,-0.1017259,-0.8196459,-0.3381523,0.1264578,0.8332933,1.509699,0.165068,0.4837313,0.9726526,0.1777421,42.28849,154.9937,231.9528,True
0,0.7444451,0.06557814,-0.09115113,-0.08759204,-1.554645,-2.318513,2.886152,0.687716,1.228127,0.005889893,-0.5435038,0.6117666,0,0,0.05972751,0.08389097,0.07506333,-1.0529,-1.858693,-0.1487663,0.72981,1.403833,-0.004409879,0.02765638,0.01280121,-0.09206341,-0.8204235,-0.3377258,0.1258786,0.8335347,1.509758,0.1650039,0.484296,0.9721234,0.1768674,41.42877,155.0924,231.9834,True
0,0.7555562,0.06360901,-0.04208256,-0.06427758,-1.554405,-2.319882,2.885496,0.6877401,1.228172,0.005915403,-0.5371985,0.5659751,0,0,0.0639308,0.08494046,0.06438416,-1.052722,-1.857502,-0.1501623,0.7298758,1.403887,-0.004561961,0.02899356,0.02440228,-0.07919694,-0.8207633,-0.336735,0.1248359,0.8336724,1.509736,0.1648676,0.4838854,0.9721082,0.1772956,42.41352,155.3751,232.1621,True
0,0.7666674,0.05529043,0.002724422,-0.03767968,-1.554635,-2.321572,2.885094,0.6877649,1.228168,0.00576067,-0.5315883,0.5032356,0,0,0.0658698,0.07428437,0.04093242,-1.053187,-1.857056,-0.1511706,0.7298467,1.403939,-0.004661977,0.03266767,0.04118325,-0.05352305,-0.8202935,-0.3356954,0.1235206,0.8336318,1.509784,0.1648804,0.4843871,0.9720364,0.1770909,42.41606,154.5439,231.5233,True
0,0.7777785,0.03855944,0.04116145,-0.0003379034,-1.555402,-2.323594,2.885207,0.6877463,1.228275,0.005629331,-0.5269517,0.4159468,0,0,0.05703516,0.03492482,0.02498729,-1.053307,-1.858145,-0.1508931,0.730135,1.404201,-0.004782319,0.0329526,0.0484622,-0.03535334,-0.8200778,-0.3352858,0.1228018,0.8337358,1.509793,0.1647736,0.4846055,0.9717558,0.1764887,41.69365,155.7591,232.2721,True
0,0.7888896,0.03330527,0.06248921,0.01030621,-1.555508,-2.32504,2.885048,0.6877763,1.22842,0.005578101,-0.5234917,0.3095692,0,0,0.05049687,0.01472311,0.01968838,-1.053177,-1.858621,-0.150945,0.730351,1.40438,-0.004901677,0.03398269,0.04740211,-0.03750377,-0.8205029,-0.3345383,0.1218844,0.8338791,1.509795,0.1647117,0.4842203,0.971661,0.177196,42.7201,155.5995,232.3907,True
0,0.8000008,0.02693824,0.09018907,0.01668238,-1.555375,-2.326818,2.884936,0.6878409,1.228466,0.005491287,-0.5213196,0.1938868,0,0,0.04610684,-0.01614916,0.02715912,-1.052479,-1.859891,-0.1506894,0.7303622,1.404495,-0.004987687,0.0336702,0.03796376,-0.05673869,-0.8215591,-0.3344181,0.1214295,0.8339546,1.50963,0.1645439,0.4838218,0.9717306,0.177963,43.52475,155.8162,232.5966,True
0,0.8111119,0.02574899,0.1167922,0.008093433,-1.55462,-2.328825,2.884727,0.687897,1.22859,0.00540024,-0.519725,0.1436211,0,0,0.04610922,-0.02254809,0.03355068,-1.051805,-1.860248,-0.1510803,0.7303994,1.404561,-0.005098999,0.03556085,0.02737293,-0.06750023,-0.8226659,-0.3343303,0.1209328,0.8341262,1.50959,0.1644578,0.4838811,0.9716028,0.1781725,43.60948,155.9502,232.8423,True
0,0.8222231,0.02038876,0.132759,0.007032906,-1.554139,-2.330704,2.884689,0.6879587,1.228756,0.005304277,-0.5188062,0.081228,0,0,0.04298608,-0.02573201,0.04954692,-1.050656,-1.860533,-0.1513331,0.7304919,1.404676,-0.005220026,0.03767993,0.02626414,-0.06751154,-0.8231629,-0.3342765,0.120438,0.834229,1.50966,0.1644145,0.4835322,0.9705297,0.1765307,41.28979,159.1161,235.3601,True
0,0.8333342,0.0160675,0.1348677,0.001736609,-1.553557,-2.332146,2.88474,0.6880941,1.228886,0.005171448,-0.5183699,0.03835447,0,0,0.04091967,-0.01613941,0.05063134,-1.050041,-1.860312,-0.151907,0.7305927,1.404769,-0.005371422,0.03575273,0.03795374,-0.06100251,-0.8234963,-0.3331275,0.1193466,0.8343679,1.509624,0.1643428,0.4830695,0.9702984,0.1775138,42.26754,158.1558,235.3384,True
0,0.8444453,0.00854082,0.1284391,-0.006699489,-1.552848,-2.333182,2.884839,0.6883178,1.229085,0.004992157,-0.5184695,-0.0102475,0,0,0.03250343,0.007345539,0.04642612,-1.049813,-1.85923,-0.1525254,0.7307777,1.4049,-0.005502462,0.0328761,0.05063105,-0.0448688,-0.8231021,-0.3320973,0.1183927,0.8345526,1.50971,0.1643541,0.4827009,0.9706098,0.1780383,42.70554,157.9756,235.2695,True
0,0.8555565,0.004202962,0.1134837,-0.01620521,-1.552197,-2.333694,2.884988,0.6884303,1.229301,0.00484255,-0.5188999,-0.03914582,0,0,0.02192201,0.02444787,0.04223673,-1.049562,-1.858281,-0.1529091,0.7309935,1.405071,-0.005616367,0.01917085,0.06788378,-0.04990692,-0.8236097,-0.330119,0.1172656,0.8347108,1.509705,0.1644132,0.4823742,0.9705604,0.1778721,42.49139,158.6496,235.762,True
0,0.8666676,0.0009396933,0.0740265,-0.02884371,-1.551594,-2.333039,2.885089,0.6886578,1.229502,0.00456503,-0.5194852,-0.05286224,0,0,0.01250205,0.04367134,0.0529538,-1.048732,-1.856931,-0.15345,0.7314899,1.405355,-0.00577417,0.01173199,0.07332814,-0.05404337,-0.8242324,-0.3287378,0.1164286,0.8350077,1.509693,0.1643987,0.4821061,0.9697477,0.1763746,40.73958,160.4555,237.2361,True
0,0.8777788,0.0008528829,0.04629674,-0.04154526,-1.550873,-2.332553,2.88508,0.6889021,1.229698,0.004381806,-0.5201297,-0.0580727,0,0,0.005235806,0.06288237,0.06791615,-1.047689,-1.855176,-0.1541432,0.7317569,1.405518,-0.005923957,0.004224956,0.07882691,-0.06457186,-0.8251629,-0.3271632,0.1155418,0.8351991,1.509757,0.1642673,0.4830585,0.9701101,0.1776036,42.14284,157.9589,235.4075,True
0,0.8888899,-0.0003269017,-0.02407968,-0.06370457,-1.550135,-2.329722,2.885031,0.689276,1.229897,0.003968716,-0.520705,-0.05155436,0,0,0.005454034,0.07885308,0.09135587,-1.046191,-1.85332,-0.155139,0.7321436,1.405766,-0.006168127,0.002112865,0.07990573,-0.064524,-0.8255165,-0.3260986,0.1147535,0.8354284,1.509823,0.164195,0.4828786,0.9700569,0.1763237,40.66499,160.1992,236.864,True
0,0.900001,-0.002561055,-0.06887697,-0.08059823,-1.549326,-2.327285,2.885109,0.6895344,1.230136,0.003572613,-0.5211226,-0.03733039,0,0,-0.0006748587,0.09911931,0.1180306,-1.0443,-1.850885,-0.1561536,0.7325315,1.405968,-0.006357551,-0.00419911,0.07991888,-0.05699923,-0.8258084,-0.3248369,0.1141593,0.8355953,1.509861,0.1641479,0.4831872,0.970397,0.1771714,42.20869,158.2877,235.4575,True
0,0.9111122,-0.01345757,-0.1307752,-0.1144056,-1.54787,-2.323381,2.885506,0.6899357,1.230364,0.003061712,-0.5214693,-0.03134188,0,0,-0.007963881,0.1108702,0.1372533,-1.042453,-1.848758,-0.1568333,0.732748,1.406159,-0.006548375,-0.009388722,0.08633205,-0.0515622,-0.8260018,-0.3231489,0.1132041,0.8357555,1.509848,0.1642014,0.4831648,0.9706949,0.1764625,41.90525,158.8195,235.5968,True
0,0.9222233,-0.02544992,-0.1884211,-0.1503453,-1.546178,-2.318993,2.8861,0.6902804,1.230571,0.002550662,-0.521823,-0.03185289,0,0,-0.03126904,0.1280423,0.143783,-1.040992,-1.846184,-0.1570421,0.7331553,1.406325,-0.006734759,-0.01346991,0.09268358,-0.04187359,-0.8259714,-0.3216833,0.1124283,0.8357462,1.509872,0.1642408,0.4831086,0.97091,0.1761247,42.56322,158.3827,235.0481,True
0,0.9333345,-0.03619053,-0.2289598,-0.1650371,-1.544933,-2.314699,2.886754,0.6906765,1.230775,0.001969278,-0.5223125,-0.04390786,0,0,-0.04725177,0.1334648,0.13855,-1.039977,-1.844003,-0.1570775,0.7335987,1.40649,-0.00683549,-0.01863012,0.1012139,-0.03535805,-0.8259981,-0.3197685,0.111542,0.8359042,1.509895,0.1642077,0.482974,0.9710119,0.1751759,42.61831,158.7186,234.9445,True
0,0.9444456,-0.04585103,-0.282283,-0.1807666,-1.543777,-2.309466,2.887376,0.6912205,1.230899,0.001287699,-0.5227748,-0.04057268,60,0,-0.06540404,0.1399618,0.1248057,-1.03935,-1.841785,-0.1568663,0.7340488,1.406626,-0.007037729,-0.02803438,0.116235,-0.03406894,-0.8261115,-0.3171273,0.1104288,0.8359462,1.509826,0.1642784,0.4829103,0.9712762,0.1746314,43.53,158.1231,234.1183,True
0,0.9555568,-0.05750147,-0.3281074,-0.1805204,-1.543146,-2.303939,2.888253,0.6917114,1.23102,0.0006483793,-0.5230682,-0.02515762,60,0,-0.07079379,0.1421262,0.1120515,-1.038828,-1.839789,-0.1569387,0.7344308,1.406796,-0.00728485,-0.03639579,0.1258885,-0.02963962,-0.8260806,-0.3147007,0.1094213,0.836116,1.509829,0.1642887,0.482785,0.9715022,0.1735658,44.04536,158.1309,233.6223,True
0,0.9666679,-0.06381658,-0.3675232,-0.1782093,-1.542711,-2.298443,2.889001,0.692183,1.231182,2.652407E-05,-0.52317,-0.007982411,60,0,-0.0750922,0.1538744,0.09396958,-1.038777,-1.837258,-0.1572101,0.734894,1.406946,-0.007494241,-0.04267711,0.130176,-0.02421756,-0.8261003,-0.3125981,0.1086298,0.8364763,1.509885,0.1642975,0.4822937,0.9717921,0.1726523,45.27342,157.6362,233.0116,True
0,0.977779,-0.06702394,-0.386715,-0.1823851,-1.541806,-2.293169,2.889651,0.6926928,1.231365,-0.0005652308,-0.5233064,-0.01154879,60,0,-0.07185981,0.1655721,0.08863037,-1.038263,-1.834604,-0.1579372,0.7354624,1.407051,-0.007736206,-0.04595276,0.1313554,-0.03375937,-0.8266058,-0.3104866,0.1076841,0.8366638,1.509868,0.1642932,0.4819908,0.9717598,0.1710392,45.51973,158.1689,232.9581,True
0,0.9888902,-0.07133403,-0.4155114,-0.191844,-1.540938,-2.287158,2.890362,0.6932721,1.231548,-0.001146972,-0.5232164,0.009887849,60,0,-0.07070591,0.1783476,0.09182413,-1.037508,-1.831678,-0.1586613,0.7361391,1.407261,-0.007973909,-0.04611896,0.1250271,-0.04233023,-0.827197,-0.3089132,0.1071488,0.8368458,1.509832,0.1643912,0.4820852,0.9721053,0.1705766,47.15427,156.717,231.4524,True
0,1.000001,-0.06710185,-0.4144471,-0.195087,-1.539834,-2.282215,2.890767,0.6938784,1.231715,-0.001668334,-0.5229633,0.02373789,60,0,-0.08339804,0.1709532,0.1153301,-1.03573,-1.829383,-0.1584815,0.7366223,1.407427,-0.008234501,-0.05043918,0.1208219,-0.04338121,-0.8275448,-0.3072501,0.1067081,0.8370709,1.50981,0.1643959,0.4816208,0.9726434,0.1699488,48.8535,155.9148,230.4506,True
0,1.011112,-0.06062983,-0.4112178,-0.1866344,-1.539279,-2.277446,2.89106,0.6944122,1.231851,-0.002121538,-0.5227503,0.0197407,60,0,-0.1025304,0.162534,0.1314144,-1.034016,-1.827255,-0.1577835,0.7373054,1.407646,-0.008443058,-0.04937689,0.1197418,-0.04232943,-0.8277227,-0.3053369,0.1059488,0.8372455,1.509828,0.1644377,0.4812402,0.9723052,0.1676974,48.20902,157.746,231.3531,True
0,1.022224,-0.0529478,-0.4154026,-0.1643256,-1.539387,-2.272559,2.891283,0.6949291,1.231957,-0.002544671,-0.522321,0.03994928,60,0,-0.09929328,0.1699733,0.1313988,-1.032899,-1.824506,-0.1581734,0.7377613,1.40779,-0.008657575,-0.04711355,0.1249818,-0.03592365,-0.8278106,-0.3033581,0.1050236,0.8373977,1.509822,0.164472,0.4814366,0.9726591,0.1676054,50.26788,155.1793,229.0177,True
0,1.033335,-0.03564966,-0.4195716,-0.1399682,-1.539948,-2.26768,2.890896,0.6954544,1.232034,-0.003070503,-0.52219,0.01203829,60,0,-0.09292741,0.175268,0.1228437,-1.032197,-1.821802,-0.1586858,0.738076,1.407845,-0.008877128,-0.05338831,0.1292665,-0.02942917,-0.8277323,-0.3011509,0.1043437,0.8375833,1.509802,0.1644692,0.4805789,0.9732551,0.167345,52.34642,154.4644,227.9067,True
0,1.044446,-0.0098945,-0.4120201,-0.1200018,-1.540372,-2.263263,2.889969,0.695956,1.232148,-0.003404289,-0.5227636,-0.05171868,60,0,-0.08014423,0.1751971,0.1227714,-1.03116,-1.819265,-0.1595273,0.7385106,1.407951,-0.009053767,-0.06102301,0.1198177,-0.03581793,-0.8282207,-0.299665,0.104258,0.8378049,1.509771,0.164446,0.4795475,0.972612,0.164816,51.17129,157.6043,230.0751,True
0,1.055557,0.003962478,-0.4002717,-0.1180378,-1.540086,-2.25908,2.88932,0.696429,1.232267,-0.003761828,-0.5238502,-0.09780914,60,0,-0.07164188,0.1740884,0.1205983,-1.030095,-1.816844,-0.1602094,0.738939,1.407963,-0.009240001,-0.05911005,0.1135194,-0.04975449,-0.8293611,-0.2979901,0.1036534,0.838029,1.509853,0.1643761,0.4805875,0.9728131,0.1647683,52.45557,153.9434,226.9273,True
0,1.066668,0.0007359926,-0.3725756,-0.1170124,-1.539704,-2.255676,2.889317,0.6967926,1.232373,-0.00412178,-0.5256371,-0.1626662,60,0,-0.05677831,0.1697456,0.1162525,-1.029212,-1.814631,-0.1611532,0.7393334,1.408,-0.009431541,-0.05842069,0.09982448,-0.07011582,-0.8307827,-0.2969435,0.1035727,0.8381915,1.509856,0.1642552,0.4802797,0.9733223,0.1644022,53.08676,154.2897,226.7001,True
0,1.077779,-0.002427418,-0.3448611,-0.1096042,-1.539495,-2.252632,2.889347,0.6971595,1.232424,-0.004416436,-0.5287536,-0.2839494,60,0,-0.0493391,0.1654427,0.1172743,-1.028166,-1.812441,-0.1619814,0.73966,1.408021,-0.009622157,-0.05647939,0.08274355,-0.06920793,-0.8314506,-0.2964281,0.1038028,0.838284,1.509945,0.1639926,0.4790872,0.9731953,0.1633038,52.71293,156.1544,228.164,True
0,1.08889,-0.002230511,-0.2755306,-0.07998051,-1.539727,-2.251809,2.889268,0.6974347,1.232315,-0.00462088,-0.5334045,-0.420719,60,0,-0.04740021,0.1483904,0.1002165,-1.027768,-1.811129,-0.1621431,0.7399204,1.407974,-0.009751171,-0.05637073,0.07191726,-0.04691903,-0.8310661,-0.2956544,0.1039434,0.8382608,1.509866,0.1639289,0.4784976,0.9732622,0.1630085,53.14006,155.1242,227.2713,True
0,1.100002,0.00323463,-0.238181,-0.06096979,-1.53997,-2.250331,2.888915,0.6977091,1.232329,-0.00485003,-0.5390707,-0.5099297,60,0,-0.03911704,0.1313077,0.07459609,-1.027943,-1.810131,-0.1624997,0.7401025,1.407894,-0.009950757,-0.05617891,0.07176965,-0.02881059,-0.8306852,-0.2946334,0.1038689,0.8383551,1.509871,0.1638309,0.4778523,0.9736623,0.1631151,54.05835,154.0728,226.0984,True
0,1.111113,0.01513449,-0.1752278,-0.03356509,-1.540471,-2.250579,2.888305,0.6978827,1.232237,-0.005071402,-0.5455076,-0.5800194,60,0,-0.03092162,0.1088999,0.03832253,-1.028703,-1.809747,-0.162647,0.7401493,1.40773,-0.01014665,-0.05933972,0.06317312,-0.01606317,-0.830429,-0.2942383,0.1043885,0.8384846,1.509823,0.1636768,0.4785998,0.9741915,0.163102,54.73341,151.2238,223.3238,True
0,1.122224,0.01524167,-0.1112513,-0.01351263,-1.540716,-2.25145,2.888131,0.6980543,1.232156,-0.005207628,-0.5526145,-0.6409232,60,0,-0.02369757,0.09075706,0.01483838,-1.029388,-1.809436,-0.1627969,0.7403173,1.407643,-0.01032451,-0.05843401,0.06006937,-0.02781669,-0.8310586,-0.2931724,0.1042399,0.8387402,1.50982,0.1634933,0.4771899,0.9742339,0.1621424,54.19795,154.387,225.8199,True
0,1.133335,0.007854881,-0.07180724,-0.0007653022,-1.54103,-2.251978,2.888295,0.6981933,1.23213,-0.005455285,-0.5602828,-0.6917009,60,0,-0.01550082,0.06302324,-0.01505298,-1.030572,-1.809928,-0.1625716,0.7403128,1.407519,-0.01060677,-0.05761924,0.04735365,-0.03751694,-0.831807,-0.2929445,0.1046907,0.838881,1.509798,0.1632822,0.4767448,0.9743792,0.1622879,54.56599,152.9319,224.7848,True
0,1.144446,0.01314365,-0.0153225,0.00327804,-1.540704,-2.253743,2.887949,0.6983881,1.232077,-0.005565971,-0.5689034,-0.7784566,60,0,-0.009287313,0.03848896,-0.02255391,-1.031016,-1.810478,-0.1624038,0.7404053,1.407388,-0.01080436,-0.06115549,0.02294032,-0.04301088,-0.8325713,-0.2935532,0.1058971,0.8391434,1.509793,0.1630784,0.4775882,0.974983,0.1629774,55.04824,149.8241,221.9433,True
0,1.155557,0.009929986,0.02943284,0.00850218,-1.540477,-2.255414,2.888071,0.6985223,1.232026,-0.00569886,-0.5783443,-0.8503171,60,0,-0.002927348,0.03526175,-0.02472464,-1.031386,-1.810046,-0.1627199,0.7409797,1.407454,-0.0110867,-0.0548671,0.01219822,-0.04103298,-0.8329425,-0.2937846,0.106466,0.8392586,1.509802,0.1628442,0.4776144,0.9753416,0.1629239,54.6064,150.676,222.4209,True
0,1.166668,0.01307961,0.04647597,0.006291277,-1.540177,-2.256484,2.887847,0.6986198,1.231954,-0.005852014,-0.5878278,-0.8527942,60,0,0.005606493,0.03841067,-0.02583699,-1.03179,-1.8095,-0.1633551,0.7411036,1.407351,-0.01130477,-0.05384038,0.007909246,-0.04001224,-0.833342,-0.2938553,0.1070836,0.8393307,1.509771,0.1625759,0.47742,0.9756523,0.1631493,54.51541,150.5494,222.3387,True
0,1.17778,0.01628382,0.06034527,0.009414593,-1.540043,-2.257722,2.887618,0.6986697,1.231901,-0.005958885,-0.5978796,-0.9069846,60,0,0.0130905,0.04156418,-0.02375047,-1.032077,-1.808826,-0.1640558,0.7415278,1.407418,-0.01156288,-0.05078258,-0.004918683,-0.03908378,-0.8337878,-0.2944845,0.1079755,0.8394408,1.509775,0.1623183,0.47701,0.9759228,0.1634667,54.46906,150.5411,222.3567,True
0,1.188891,0.0259298,0.0603798,0.01571314,-1.540299,-2.258462,2.887097,0.6987245,1.231682,-0.006058544,-0.6079262,-0.903511,60,0,0.001314355,0.04588981,-0.03859593,-1.033096,-1.808326,-0.1638973,0.741631,1.407303,-0.0117799,-0.04109572,-0.005103115,-0.02960666,-0.8339199,-0.2944324,0.1081158,0.8396201,1.509712,0.1620466,0.4769403,0.9761534,0.1636285,54.10733,150.2691,222.123,True
0,1.200002,0.03990901,0.04871879,0.02733123,-1.540955,-2.258854,2.886232,0.698734,1.231649,-0.006210119,-0.6181405,-0.9202182,60,0,0.009680686,0.03945834,-0.0599517,-1.034515,-1.808329,-0.1642824,0.7417057,1.407211,-0.01204082,-0.03890104,0.002345953,-0.03169993,-0.8343204,-0.294006,0.1081923,0.8397393,1.509693,0.1618345,0.4765768,0.9764813,0.1639422,54.00401,150.1655,222.0093,True
0,1.211113,0.05493991,0.02853198,0.03682785,-1.541681,-2.258768,2.885227,0.6987569,1.231683,-0.006251812,-0.6281987,-0.9056267,60,0,0.02667346,0.03723558,-0.06857565,-1.035627,-1.808181,-0.1653591,0.7423544,1.407259,-0.0123536,-0.03566949,0.01194815,-0.03910936,-0.834902,-0.2934372,0.1081068,0.8398716,1.509658,0.1615879,0.4765256,0.9767572,0.1640519,53.54876,149.8043,221.6777,True
0,1.222224,0.06449438,0.008287859,0.03040023,-1.541908,-2.258249,2.884216,0.6988065,1.231614,-0.00640282,-0.6381323,-0.8947418,60,0,0.02991794,0.03082086,-0.05368184,-1.035782,-1.808063,-0.1658622,0.7424865,1.407231,-0.01259995,-0.03696348,0.008912511,-0.05723208,-0.8361724,-0.2932578,0.1084247,0.8400232,1.509631,0.161359,0.4762076,0.9771006,0.164345,53.3285,149.6215,221.5156,True
0,1.233335,0.07931609,-0.01302711,0.01753321,-1.541853,-2.257422,2.882782,0.6988757,1.231589,-0.00651446,-0.6481553,-0.9035465,60,0,0.02896341,0.03188494,-0.03449678,-1.035495,-1.807546,-0.1663059,0.742774,1.407238,-0.01278183,-0.04580109,-0.001501493,-0.0753373,-0.837757,-0.2937765,0.1096322,0.840127,1.509619,0.1610881,0.4759684,0.977448,0.1645957,52.95963,149.2298,221.1743,True
0,1.244446,0.09622145,-0.04714955,-0.001710288,-1.541628,-2.25562,2.881117,0.6987941,1.231636,-0.00668335,-0.6583797,-0.9217262,60,0,0.03346958,0.04996194,-0.008948283,-1.034927,-1.806078,-0.1675885,0.742975,1.407245,-0.01302525,-0.04786313,-0.00153093,-0.06892636,-0.838288,-0.2937505,0.1101963,0.8402663,1.509672,0.1608838,0.4756103,0.9778346,0.1648843,52.63063,148.8672,220.8347,True
0,1.255558,0.113201,-0.07484831,-0.0124518,-1.54156,-2.253875,2.879278,0.6987836,1.231706,-0.006806821,-0.6683426,-0.8975163,60,0,0.02831223,0.06596832,0.006005088,-1.034576,-1.804425,-0.1685011,0.7430599,1.407178,-0.01328304,-0.05193893,0.006967388,-0.06028955,-0.8385714,-0.2932332,0.1106189,0.8403349,1.509648,0.1606606,0.4749112,0.9782323,0.1652061,52.51042,148.5703,220.513,True
0,1.266669,0.1280373,-0.09297147,-0.02318864,-1.541547,-2.252228,2.877377,0.6987607,1.231713,-0.006888151,-0.6782826,-0.896498,60,0,0.02212294,0.0915668,0.01670225,-1.034325,-1.802079,-0.1697169,0.7432649,1.407132,-0.01351538,-0.05495606,0.01546174,-0.05273545,-0.838948,-0.2926317,0.1109342,0.8404129,1.509623,0.1604747,0.4744979,0.9786369,0.1653246,52.2323,147.6277,219.5569,True
0,1.27778,0.1300797,-0.09619343,-0.03278954,-1.541175,-2.25091,2.875832,0.6987412,1.231737,-0.007049263,-0.6882849,-0.9021578,60,0,0.02109131,0.1139437,0.001802512,-1.035208,-1.800017,-0.1708498,0.7436211,1.407196,-0.0136857,-0.05494313,0.01652293,-0.05272469,-0.8394817,-0.2923295,0.1113233,0.8404627,1.509638,0.160256,0.4739318,0.9790855,0.1653374,52.01052,146.8834,218.665,True
0,1.288891,0.1258598,-0.1025904,-0.02953029,-1.541404,-2.24943,2.874547,0.6987045,1.23166,-0.00716731,-0.6984406,-0.9162199,60,0,0.02106505,0.1224711,-0.01098287,-1.036099,-1.798326,-0.1719222,0.7438717,1.40704,-0.01395556,-0.05484763,0.02290756,-0.05054847,-0.8399871,-0.2914313,0.1113428,0.8406175,1.509672,0.1600089,0.4732097,0.9795334,0.1653738,51.90672,146.1128,217.7807,True
0,1.300002,0.1205934,-0.1015146,-0.02308881,-1.541633,-2.248367,2.873351,0.6987417,1.23163,-0.00729233,-0.7088557,-0.9399372,60,0,0.01881482,0.1150309,-0.02482191,-1.037005,-1.797289,-0.1725944,0.7440014,1.406953,-0.01416612,-0.05577303,0.0271112,-0.04198129,-0.8401208,-0.2908278,0.111583,0.8406874,1.509663,0.1598286,0.4726094,0.979916,0.1653752,51.63287,145.3893,216.9451,True
0,1.311113,0.1185268,-0.09510709,-0.01562648,-1.541983,-2.247548,2.872071,0.6987321,1.231602,-0.007500678,-0.7194354,-0.9532881,60,0,0.02292693,0.1022256,-0.03869605,-1.037933,-1.796705,-0.1732884,0.7442949,1.406983,-0.01434723,-0.05351808,0.03128839,-0.03451599,-0.8402103,-0.2901362,0.1116762,0.840796,1.509645,0.1595098,0.4717857,0.9803509,0.1656208,51.74413,144.5366,216.0233,True
0,1.322224,0.1132216,-0.08231996,-0.01134948,-1.542114,-2.247023,2.870972,0.698714,1.23155,-0.00762248,-0.7299789,-0.9495168,60,0,0.0302586,0.08833852,-0.04726496,-1.038834,-1.796288,-0.1740898,0.7443981,1.406921,-0.01453519,-0.04931924,0.02591864,-0.03460814,-0.8406396,-0.2898254,0.1118685,0.8409283,1.50965,0.159318,0.4713646,0.9806306,0.1656102,51.37455,143.9673,215.3432,True
0,1.333336,0.1057409,-0.07274737,-0.012367,-1.542121,-2.246504,2.870015,0.6987312,1.231452,-0.007749766,-0.7402171,-0.922287,60,0,0.02907646,0.06810529,-0.04833437,-1.039443,-1.796293,-0.1744075,0.7447817,1.406996,-0.01472414,-0.04830698,0.02488165,-0.03888801,-0.8411669,-0.2893066,0.1119518,0.841035,1.509552,0.1591783,0.4709185,0.9809581,0.1657047,51.16851,143.5523,214.8725,True
0,1.344447,0.08869106,-0.05465896,-0.01012249,-1.54209,-2.24642,2.869594,0.6987321,1.23146,-0.007887483,-0.7504399,-0.9212227,60,0,0.02054977,0.05110255,-0.03231252,-1.039266,-1.796247,-0.1744064,0.7448554,1.406952,-0.01487863,-0.04419356,0.01313544,-0.04009301,-0.8416761,-0.2893852,0.1123478,0.841128,1.509546,0.1589828,0.4705813,0.9812511,0.1657747,50.83527,143.2043,214.4584,True
0,1.355558,0.07050444,-0.03445605,-0.01426725,-1.541697,-2.246611,2.869488,0.6987352,1.23146,-0.008001566,-0.7606686,-0.9213092,60,0,0.01842516,0.04151744,-0.02058998,-1.039153,-1.796089,-0.1744948,0.7448215,1.406842,-0.01509181,-0.0389703,0.001330752,-0.03704834,-0.8420691,-0.2898506,0.1129191,0.8411864,1.509544,0.1587425,0.4702206,0.9815412,0.165893,50.52546,142.8985,214.1026,True
0,1.366669,0.0555904,-0.02062408,-0.01203055,-1.541586,-2.246777,2.869369,0.698786,1.231403,-0.008126736,-0.7711689,-0.9459169,60,0,0.009932911,0.03836179,-0.01202185,-1.039109,-1.795761,-0.174477,0.7449589,1.406774,-0.01526883,-0.03062215,-0.01368388,-0.03619199,-0.8424697,-0.2905178,0.1135963,0.8411787,1.509577,0.1585633,0.4698707,0.981818,0.1660034,50.22192,142.6198,213.7733,True
0,1.37778,0.0333179,0.002810917,0.0009072609,-1.541874,-2.247594,2.869581,0.6988997,1.231317,-0.008249342,-0.7815877,-0.9373729,60,0,0.01098037,0.03516001,-0.01202891,-1.039296,-1.79546,-0.1747862,0.7450089,1.406675,-0.01544169,-0.02753711,-0.02223364,-0.03735974,-0.843005,-0.2911356,0.1142238,0.8412111,1.509569,0.1583265,0.4695332,0.9820944,0.166109,49.98859,142.3158,213.4315,True
0,1.388891,0.02490322,0.007093791,0.01269808,-1.54236,-2.247945,2.869602,0.6989326,1.231259,-0.008285284,-0.7917317,-0.9120291,60,0,0.009759406,0.02345389,-0.02800087,-1.040049,-1.795771,-0.1746975,0.7451241,1.406565,-0.01562041,-0.02770101,-0.03177758,-0.0416918,-0.843585,-0.2917295,0.1150265,0.8411167,1.509421,0.1581697,0.469085,0.9824041,0.1663478,50.04253,141.7381,212.8426,True
0,1.400002,0.004818773,0.007109651,0.02887418,-1.543126,-2.248238,2.870217,0.6989934,1.231072,-0.008395672,-0.8019055,-0.9156467,60,0,0.01381651,0.01491779,-0.05572499,-1.041574,-1.796177,-0.1747891,0.7450762,1.406397,-0.01575822,-0.02544093,-0.02867682,-0.03316864,-0.8437672,-0.2920316,0.1154004,0.841162,1.509375,0.157999,0.46885,0.9825704,0.1664071,49.8001,141.5775,212.6323,True
0,1.411114,-0.00257016,0.006054759,0.03535014,-1.543784,-2.248508,2.870422,0.6990387,1.230999,-0.008577168,-0.8118322,-0.8922259,60,0,0.01052372,0.01279616,-0.069555,-1.042666,-1.796516,-0.1745327,0.7448409,1.406206,-0.01595348,-0.02324475,-0.02875682,-0.02680178,-0.8439153,-0.2925084,0.1159261,0.8412092,1.509382,0.1576344,0.4686623,0.9827728,0.1665583,49.63243,141.3812,212.4813,True
0,1.422225,-0.01737866,0.0007328112,0.04509518,-1.54456,-2.248543,2.871018,0.6991391,1.230893,-0.008712798,-0.8219543,-0.9116939,60,0,0.007178504,3.552064E-05,-0.08338974,-1.043933,-1.797279,-0.1741108,0.7447753,1.406092,-0.01612192,-0.02096174,-0.02567379,-0.01614815,-0.8437597,-0.2928016,0.1162449,0.8412257,1.509344,0.1574615,0.4684899,0.9829193,0.1667287,49.34551,141.552,212.6553,True
0,1.433336,-0.02689483,-0.006720286,0.05054604,-1.545468,-2.248499,2.871492,0.6992612,1.230788,-0.008898973,-0.8316498,-0.8703085,60,0,0.007101264,-0.01274911,-0.08338735,-1.044597,-1.79807,-0.1736916,0.7448778,1.406005,-0.01624241,-0.02068263,-0.01729333,0.0009668753,-0.8431584,-0.292846,0.1164725,0.8411909,1.509329,0.1572206,0.4682775,0.9831102,0.166951,49.19852,141.5401,212.6929,True
0,1.444447,-0.02900504,-0.007783592,0.05270139,-1.54613,-2.248546,2.871881,0.6993408,1.230695,-0.009042382,-0.8415605,-0.8924718,60,0,0.001782268,-0.02977039,-0.06525305,-1.044557,-1.799122,-0.1730115,0.7448235,1.405926,-0.01639843,-0.01750034,-0.02162021,0.004096931,-0.8430396,-0.2934548,0.1169351,0.8411658,1.509295,0.1570199,0.4680847,0.9833232,0.1671009,49.1354,141.2781,212.5235,True
0,1.455558,-0.03008405,-0.01524653,0.0506039,-1.546725,-2.248298,2.872293,0.6994555,1.230564,-0.009165108,-0.8512491,-0.870662,60,0,-0.006699514,-0.04144341,-0.04603015,-1.044201,-1.799942,-0.1721941,0.7447939,1.405851,-0.01658577,-0.01448339,-0.03224852,-0.001351065,-0.8433751,-0.2940821,0.1173868,0.8412362,1.509324,0.1568151,0.4677922,0.9835559,0.1672808,49.11893,140.8636,212.1123,True
0,1.466669,-0.0279946,-0.0227159,0.0452783,-1.547166,-2.24788,2.872517,0.6995552,1.23045,-0.009302795,-0.8608311,-0.8618066,60,0,-0.01408435,-0.03927512,-0.03533455,-1.044148,-1.800361,-0.1715771,0.7448039,1.405761,-0.01672095,-0.01442523,-0.03121974,0.002920979,-0.8431951,-0.2945689,0.1178534,0.841156,1.50934,0.1566647,0.4675438,0.9837666,0.1674564,49.16589,140.3658,211.6347,True
0,1.47778,-0.0279665,-0.02910059,0.04742546,-1.547865,-2.247546,2.87286,0.699666,1.230316,-0.00942412,-0.8704979,-0.8697434,60,0,-0.02458554,-0.01257669,-0.03419315,-1.044572,-1.799379,-0.1714367,0.7449136,1.405692,-0.0168137,-0.009728413,-0.01009377,0.02114338,-0.8424063,-0.2934251,0.1170933,0.8412399,1.509406,0.1565468,0.4673365,0.9839032,0.1675466,49.0835,140.2105,211.5117,True
0,1.488891,-0.03111776,-0.03762033,0.05067584,-1.548682,-2.24701,2.873289,0.6996868,1.230243,-0.009590149,-0.8801577,-0.8688501,60,0,-0.02880888,-0.0008272007,-0.03842282,-1.045179,-1.798991,-0.1711576,0.7448101,1.405601,-0.01696411,-0.009486428,0.003694745,0.02869697,-0.8420138,-0.2928308,0.1167588,0.8411846,1.509389,0.1564401,0.4670673,0.9841158,0.1677507,49.06083,139.766,211.0358,True
0,1.500003,-0.03007294,-0.04508191,0.04749171,-1.549286,-2.246472,2.873559,0.6998267,1.23014,-0.00971669,-0.8899128,-0.8783633,60,0,-0.02770256,0.01195213,-0.04375109,-1.045956,-1.79848,-0.171152,0.7448294,1.405574,-0.01710394,-0.007280603,0.01113517,0.02766899,-0.8417059,-0.2923895,0.1164808,0.8411559,1.509382,0.156333,0.4667656,0.9842866,0.1678533,49.18362,139.5536,210.946,True
0,1.511114,-0.03546993,-0.04724096,0.04009311,-1.549641,-2.245971,2.874132,0.6998773,1.230164,-0.009774148,-0.8998092,-0.8902408,60,0,-0.02129025,0.01725043,-0.04484426,-1.046449,-1.798097,-0.1712825,0.7446492,1.405479,-0.01719835,-0.01059782,0.009127506,0.01915661,-0.8419051,-0.2920799,0.1165993,0.8412663,1.509425,0.1562321,0.4663496,0.9844882,0.1680829,49.11725,139.0445,210.335,True
0,1.522225,-0.03766885,-0.05046222,0.03266595,-1.549924,-2.245345,2.874625,0.6999476,1.230153,-0.00993824,-0.909674,-0.8871589,60,0,-0.02125403,0.01511684,-0.03632271,-1.046575,-1.798006,-0.1710897,0.7446337,1.405483,-0.0173378,-0.01284671,0.006018825,0.01170016,-0.8419999,-0.2920915,0.1168606,0.8411796,1.509466,0.156078,0.4660575,0.9846329,0.1681719,49.03558,138.7258,210.0741,True
0,1.533336,-0.04315006,-0.04838973,0.01673688,-1.549757,-2.244748,2.875194,0.7000229,1.230079,-0.01012856,-0.9198553,-0.9166791,60,0,-0.01900833,0.009774981,-0.01183212,-1.045827,-1.797907,-0.1711044,0.74488,1.405561,-0.01750699,-0.01188131,0.0007103747,0.008451163,-0.8420058,-0.292254,0.1171144,0.841138,1.509419,0.1559032,0.4656655,0.9849892,0.1684145,49.27885,137.2985,208.8026,True
0,1.544447,-0.04217079,-0.04734969,0.008201357,-1.549717,-2.244188,2.875623,0.7000437,1.230112,-0.0103063,-0.9299167,-0.9045659,60,0,-0.01467433,-0.0009097988,0.01157657,-1.044853,-1.798162,-0.1709643,0.7448308,1.40555,-0.01760924,-0.01107277,-0.0162995,0.002975129,-0.8422726,-0.2932231,0.11788,0.8411338,1.509432,0.1557033,0.4653319,0.9852772,0.1686443,49.61324,136.0475,207.6425,True
0,1.555558,-0.03801789,-0.0367209,-0.001455418,-1.549489,-2.244012,2.875872,0.7000508,1.230072,-0.01051483,-0.9400042,-0.9073971,60,0,-0.01252504,-0.007314335,0.02114617,-1.044358,-1.798354,-0.1707914,0.7452545,1.40578,-0.0177806,-0.00385469,-0.03448372,0.0006065276,-0.842654,-0.2946427,0.1186934,0.841118,1.509354,0.1554316,0.4650341,0.9854476,0.1689053,49.87641,135.096,206.6313,True
0,1.566669,-0.0380819,-0.02821443,-0.006805531,-1.549266,-2.243891,2.876292,0.6999922,1.230008,-0.01069719,-0.9500113,-0.8997888,60,0,-0.007268776,-0.01266585,0.01472019,-1.044425,-1.798669,-0.1706287,0.7452281,1.405693,-0.01793492,0.0002718847,-0.04410224,-0.001646497,-0.8428484,-0.2957596,0.1192864,0.8411078,1.509341,0.1552501,0.4647804,0.9855771,0.1691897,50.05469,134.3857,205.7761,True
0,1.577781,-0.03705132,-0.01329663,-0.007925091,-1.54903,-2.244266,2.876707,0.6999221,1.229956,-0.01088083,-0.9599545,-0.8945233,60,0,-0.007371815,-0.01905508,0.002998944,-1.044724,-1.799255,-0.170217,0.7449522,1.405575,-0.01806083,0.0003899904,-0.03775083,0.003734046,-0.842629,-0.2959527,0.1196106,0.8409513,1.509324,0.1551085,0.4645045,0.9857265,0.1694904,50.17362,133.7001,204.9546,True
0,1.588892,-0.0370616,-0.00157328,-0.006895058,-1.548872,-2.244623,2.877182,0.6998162,1.229904,-0.01104137,-0.9699829,-0.9030213,60,0,0.0009196065,-0.02867848,-0.0279438,-1.045951,-1.800239,-0.1699584,0.7447226,1.405417,-0.0181556,0.0007675858,-0.01761972,0.01774184,-0.8419626,-0.2953752,0.1192587,0.8408272,1.509333,0.1550454,0.4641251,0.986134,0.170504,51.0083,132.0516,202.8707,True
0,1.600003,-0.03062557,0.01017194,-0.00059947,-1.548956,-2.245146,2.877317,0.6997073,1.229886,-0.01117229,-0.9800199,-0.9025819,60,0,0.008190457,-0.03190529,-0.05781474,-1.047506,-1.801095,-0.169878,0.744622,1.405369,-0.01826793,0.005274966,-0.008190933,0.03056577,-0.8410545,-0.2953167,0.1190092,0.8406688,1.509383,0.1549558,0.4637239,0.9874365,0.1766258,55.04915,122.709,190.2264,True
0,1.611114,-0.02092696,0.02301127,0.0131155,-1.549321,-2.245967,2.877321,0.6996083,1.229904,-0.011226,-0.9901249,-0.9091141,60,0,0.01132561,-0.03405166,-0.0663541,-1.048337,-1.801789,-0.169731,0.7445784,1.405426,-0.01835802,0.003278226,-0.0007489296,0.03490456,-0.8406066,-0.2952034,0.118949,0.8406838,1.509369,0.1548223,0.4674669,0.9885435,0.1869262,56.15625,116.5825,178.5016,True
0,1.622225,-0.01136301,0.03900386,0.01297452,-1.54917,-2.246883,2.877155,0.6995029,1.229941,-0.0113036,-0.9999003,-0.8789836,60,0,0.01033828,-0.03191929,-0.05462932,-1.048524,-1.802162,-0.169637,0.7445533,1.4055,-0.01845312,0.004190644,-0.001720192,0.02210577,-0.8407605,-0.2952386,0.1189757,0.8406804,1.509327,0.1547562,0.4731667,0.989943,0.1983132,56.68913,118.688,175.3891,True
0,1.633336,-0.003926253,0.05285466,0.0128653,-1.549112,-2.247822,2.876972,0.6994638,1.229959,-0.01133451,-1.00962,-0.8750251,60,0,0.007299406,-0.02765191,-0.03223909,-1.048047,-1.802309,-0.1696388,0.744663,1.405603,-0.01855212,0.004124476,-0.001672528,0.01570899,-0.8408926,-0.2953207,0.1189618,0.8406817,1.509358,0.1546858,0.479304,0.9920393,0.208896,56.97633,121.4009,173.3074,True
0,1.644447,-0.002923762,0.0677569,0.008549269,-1.548718,-2.24898,2.877007,0.6994503,1.230031,-0.01136753,-1.01936,-0.8767679,60,0,9.386335E-05,-0.01483831,-0.0002345426,-1.04699,-1.801763,-0.1696641,0.744669,1.405716,-0.01865309,0.006161891,-0.002700069,0.008220755,-0.8410603,-0.295351,0.1188683,0.8406787,1.509353,0.1545939,0.484542,0.9947445,0.2174558,57.44347,123.3715,171.437,True
0,1.655559,-0.003014259,0.07944874,0.001060741,-1.548197,-2.250065,2.877079,0.6994131,1.23005,-0.01143759,-1.029269,-0.8924546,60,0,-0.007170262,-0.006279591,0.0253772,-1.045925,-1.801216,-0.1696202,0.7446914,1.405885,-0.01875919,0.007171789,-0.006968708,0.008168777,-0.8410481,-0.2955571,0.1189868,0.8406672,1.509368,0.1543921,0.4879154,0.9978817,0.2232617,58.11161,124.7094,170.2192,True
0,1.66667,-0.005145929,0.07944083,0.001080908,-1.548019,-2.250826,2.877241,0.6993239,1.230029,-0.01154542,-1.039356,-0.9085735,60,0,-0.01545085,0.003347002,0.05951413,-1.044294,-1.800425,-0.1695366,0.7448089,1.405938,-0.01891673,0.009111182,-0.01866332,0.002727676,-0.8412303,-0.2962815,0.1192646,0.8406653,1.509376,0.1542129,0.4890632,1.00128,0.2260731,58.92037,125.3247,169.7311,True
0,1.677781,-0.007232019,0.07519577,0.005376412,-1.54806,-2.251617,2.87744,0.699266,1.230066,-0.0116567,-1.049504,-0.9129711,60,0,-0.01123761,0.0001293421,0.05416268,-1.043816,-1.800458,-0.1695376,0.7447369,1.405938,-0.01901233,0.01321021,-0.0314787,0.0004459412,-0.8414289,-0.29729,0.1195301,0.8406516,1.50942,0.1540663,0.4881755,1.004787,0.2260931,59.79364,125.257,169.8961,True
0,1.688892,-0.009270551,0.06029988,0.01289805,-1.54836,-2.251932,2.877653,0.6992135,1.229997,-0.01174274,-1.059738,-0.9209886,60,0,-0.003926196,-0.008429415,0.03813883,-1.043921,-1.800957,-0.169377,0.7448661,1.405992,-0.01910648,0.01526073,-0.04003061,0.001420542,-0.8414492,-0.2981845,0.1197762,0.840578,1.509364,0.1539531,0.4857436,1.008256,0.2239073,60.67444,124.5954,170.4882,True
0,1.700003,-0.009213259,0.05179155,0.01718136,-1.548544,-2.252347,2.877723,0.6992342,1.229967,-0.01183143,-1.070019,-0.9250693,60,0,0.005356074,-0.02551421,0.000794515,-1.044998,-1.802189,-0.1691232,0.7447298,1.405919,-0.01919496,0.01423339,-0.03897534,0.00357657,-0.8413171,-0.2988226,0.1200489,0.8405429,1.509356,0.1538512,0.4824259,1.011576,0.220331,61.49736,123.4559,171.236,True
0,1.711114,-0.0112028,0.03478161,0.02897276,-1.549305,-2.252434,2.877894,0.6992211,1.229817,-0.01196897,-1.080187,-0.9149168,60,0,0.01366745,-0.03619609,-0.02588368,-1.045967,-1.803097,-0.1690639,0.7445941,1.405753,-0.01925635,0.01545409,-0.03051018,0.008964133,-0.840973,-0.2989135,0.1199139,0.840452,1.509377,0.1537588,0.4789199,1.014679,0.2162661,62.23138,122.0865,171.9726,True
0,1.722225,-0.01113445,0.01774981,0.03328128,-1.549819,-2.252254,2.877988,0.6992161,1.229705,-0.01204604,-1.090197,-0.9003628,60,0,0.02506846,-0.05648892,-0.06217577,-1.047722,-1.805029,-0.1687973,0.7444816,1.405648,-0.01931989,0.009150366,-0.02190483,0.0080346,-0.8409181,-0.2988539,0.1199847,0.8405542,1.509298,0.1537001,0.4757846,1.01752,0.2125491,62.87904,120.7346,172.5449,True
0,1.733337,-0.003685076,0.0113648,0.03216086,-1.550129,-2.25225,2.877871,0.6991735,1.229696,-0.01207408,-1.100289,-0.9085013,60,0,0.02609086,-0.05648801,-0.06857449,-1.048478,-1.805772,-0.1686047,0.744503,1.405622,-0.01944566,0.008215699,-0.01340416,0.01130608,-0.8407594,-0.2988863,0.1199799,0.8406674,1.509323,0.153578,0.4734373,1.020111,0.2097962,63.43468,119.6153,172.8627,True
0,1.744448,0.00160316,0.01029514,0.02784857,-1.550219,-2.252397,2.877655,0.6991572,1.229633,-0.01213133,-1.110221,-0.8936096,60,0,0.02299672,-0.05008264,-0.05683633,-1.048662,-1.806244,-0.168527,0.7444909,1.405609,-0.01950929,0.007214725,-0.005918136,0.009247029,-0.8407013,-0.2986567,0.1197725,0.8406678,1.509315,0.1535006,0.4720493,1.02248,0.2083562,63.91701,118.8008,172.8366,True
0,1.755559,0.004774719,0.01029038,0.02568826,-1.550423,-2.25254,2.877551,0.6991296,1.229698,-0.01204556,-1.119986,-0.8784693,60,0,0.01150958,-0.03191302,-0.03225723,-1.04808,-1.805743,-0.168364,0.7442887,1.405454,-0.01955909,0.006268563,0.003666983,0.01040237,-0.8404664,-0.2983004,0.1195418,0.8406693,1.509317,0.153346,0.4715836,1.024698,0.2082902,64.31462,118.4113,172.5778,True
0,1.76667,0.00580731,0.01134754,0.02247931,-1.550528,-2.252729,2.877465,0.6991279,1.229759,-0.01208147,-1.129756,-0.87968,60,0,0.003196419,-0.01482818,-0.01196345,-1.047577,-1.805149,-0.1684021,0.7443073,1.40548,-0.01964632,0.00619646,-0.0005763797,0.00823769,-0.840467,-0.2985092,0.119606,0.8406755,1.509313,0.1532519,0.4718687,1.026879,0.209416,64.66017,118.4288,172.1708,True
0,1.777781,0.004714943,0.01346958,0.02035328,-1.550602,-2.25298,2.877489,0.6991098,1.229852,-0.01209533,-1.139741,-0.8992158,60,0,-0.007172932,0.01185726,0.011544,-1.04677,-1.803712,-0.1687179,0.7444117,1.405554,-0.01978165,0.01250612,-0.005979829,0.007065003,-0.8404441,-0.2992076,0.119797,0.8404419,1.50929,0.1531456,0.4726747,1.029134,0.2113723,65.01295,118.7187,171.6652,True
0,1.788892,0.003650588,0.007073074,0.01932064,-1.550867,-2.252904,2.877465,0.6990786,1.229837,-0.01213899,-1.149714,-0.8977758,60,0,-0.01446492,0.02574264,0.02650153,-1.04617,-1.802737,-0.1688718,0.7447491,1.405713,-0.01990825,0.01660753,-0.00913604,-0.003656387,-0.8408505,-0.2993954,0.1197243,0.8403968,1.50934,0.1530769,0.4737399,1.031562,0.2137438,65.40316,119.1266,171.1111,True
0,1.800003,0.002618661,-0.001444314,0.02148606,-1.551246,-2.252688,2.877458,0.6990645,1.229841,-0.01218876,-1.159781,-0.9060532,60,0,-0.01555066,0.02468095,0.02437754,-1.045999,-1.802504,-0.1687413,0.7443349,1.405632,-0.01996669,0.01652301,-0.01444459,-0.005829643,-0.8410247,-0.2998319,0.1198332,0.8403556,1.509344,0.1530023,0.4748491,1.034212,0.2160864,65.87591,119.5723,170.581,True
0,1.811115,0.003692208,-0.01316655,0.02044598,-1.551598,-2.25218,2.877358,0.699019,1.229823,-0.01226071,-1.169848,-0.9058175,60,0,-0.0103486,0.008671235,0.01794993,-1.045987,-1.803177,-0.1685057,0.7442527,1.405691,-0.02001464,0.01871107,-0.01558537,0.0005315703,-0.8407972,-0.3001134,0.119712,0.8403296,1.509324,0.1528605,0.4757677,1.037078,0.2180735,66.44491,119.9347,170.109,True
0,1.822226,-0.002729801,-0.03450004,0.01417798,-1.551832,-2.251091,2.877573,0.6989348,1.229813,-0.01232755,-1.179979,-0.9119335,60,0,0.01180759,-0.01594981,0.003967409,-1.046263,-1.804406,-0.1687539,0.7440345,1.405714,-0.02004611,0.01861097,-0.01980831,-0.00482623,-0.8410369,-0.3006561,0.1197887,0.8402641,1.509332,0.1527603,0.4763168,1.040104,0.2194888,67.09934,120.0908,169.6779,True
0,1.833337,0.001495667,-0.04409858,0.008838153,-1.551974,-2.250294,2.877364,0.6988578,1.229795,-0.0124172,-1.18997,-0.8991824,60,0,0.0159565,-0.02982064,-0.002459608,-1.04645,-1.805344,-0.1685991,0.7440565,1.405841,-0.02015468,0.02176019,-0.02734287,-0.000662399,-0.8410422,-0.3015219,0.1201038,0.8401928,1.509348,0.1526154,0.4764222,1.043221,0.2202367,67.79316,120.0089,169.3066,True
0,1.844448,0.000360244,-0.04518624,0.001393574,-1.551876,-2.249716,2.87737,0.6987474,1.229766,-0.01245353,-1.200175,-0.9189183,60,0,0.02113411,-0.04902273,-0.009952632,-1.046614,-1.8068,-0.1682923,0.7438257,1.405846,-0.0201987,0.02603382,-0.03277737,0.006706615,-0.8407578,-0.3022613,0.1202215,0.8401787,1.509354,0.1525114,0.4760673,1.046351,0.2203368,68.49577,119.725,169.0025,True
0,1.855559,-0.004984936,-0.03880829,0.000361695,-1.551906,-2.249481,2.877587,0.6986473,1.229722,-0.01253608,-1.21008,-0.8901767,60,0,0.02425627,-0.06075845,-0.01104133,-1.046597,-1.80803,-0.1679778,0.7437668,1.405899,-0.02025008,0.03351554,-0.04256136,0.01932532,-0.8403131,-0.3035169,0.1204068,0.8402617,1.509446,0.1523704,0.475316,1.049431,0.2198648,69.18156,119.2614,168.7443,True
0,1.86667,0.0003174082,-0.01642631,0.00130763,-1.551786,-2.250012,2.877442,0.6984336,1.229756,-0.01247078,-1.220037,-0.897213,60,0,0.03053484,-0.0757061,-0.01640845,-1.046734,-1.809687,-0.1677235,0.7435231,1.405895,-0.02031109,0.03557077,-0.04790562,0.0182017,-0.8401496,-0.3045681,0.1206734,0.8401828,1.509448,0.1522198,0.4742921,1.052421,0.2189915,69.83488,118.643,168.5205,True
0,1.877781,0.0003029222,0.005951595,0.003374629,-1.551685,-2.250837,2.87747,0.6981928,1.229694,-0.01244727,-1.230133,-0.9084623,60,0,0.03795249,-0.08320443,-0.01538966,-1.046667,-1.810947,-0.1676787,0.7431295,1.405859,-0.02031645,0.04287016,-0.05109301,0.007426196,-0.8407711,-0.3052061,0.1205166,0.8402989,1.509516,0.1521093,0.473182,1.055292,0.2179233,70.45695,117.9381,168.3119,True
0,1.888893,0.00880355,0.04325712,0.00638088,-1.551417,-2.252507,2.877055,0.6979043,1.229715,-0.0124532,-1.239961,-0.8834734,60,0,0.04646449,-0.08005558,-0.01970385,-1.046987,-1.811939,-0.1679086,0.7428467,1.405806,-0.02039915,0.03958401,-0.05205604,-1.329044E-05,-0.8411962,-0.3058627,0.1206242,0.8402783,1.509434,0.1519624,0.4721723,1.058039,0.2168801,71.02567,117.1662,168.0482,True
0,1.900004,0.01629348,0.08484459,0.01577363,-1.551251,-2.2549,2.876635,0.6976695,1.229718,-0.01235852,-1.249974,-0.9020229,60,0,0.05181403,-0.06943017,-0.02612223,-1.047415,-1.81252,-0.168384,0.7426848,1.405797,-0.02046549,0.03957132,-0.05204592,-0.001079335,-0.8413192,-0.3065954,0.1206921,0.840261,1.509463,0.1518301,0.4713312,1.060689,0.2161414,71.54011,116.4467,167.757,True
0,1.911115,0.02265699,0.1104233,0.01670272,-1.550913,-2.256927,2.876211,0.6974075,1.229735,-0.01233011,-1.259638,-0.8693351,60,0,0.04869575,-0.0534284,-0.02716101,-1.047686,-1.81258,-0.1686886,0.7421577,1.405587,-0.02044755,0.04169706,-0.05313923,-5.201157E-05,-0.8414342,-0.3073329,0.1206894,0.8401418,1.509428,0.1516724,0.4707794,1.063275,0.2158367,72.03434,115.8686,167.4225,True
0,1.922226,0.02908061,0.1445445,0.02506451,-1.550754,-2.259753,2.87572,0.6970742,1.22981,-0.01223454,-1.269375,-0.8774163,60,0,0.04768977,-0.04276968,-0.02715163,-1.047973,-1.812753,-0.1690966,0.7419841,1.40561,-0.02051145,0.03958777,-0.05205764,0.001046994,-0.8414226,-0.3080584,0.1208455,0.8401057,1.509439,0.1515767,0.4705733,1.065853,0.2160375,72.50187,115.4492,167.0524,True
0,1.933337,0.02907214,0.170117,0.02818933,-1.550502,-2.262449,2.875491,0.6967938,1.229857,-0.01210749,-1.279273,-0.8915451,60,0,0.04564323,-0.03210527,-0.02181173,-1.048064,-1.812743,-0.1694181,0.7417884,1.405652,-0.02056068,0.04069324,-0.04457623,-0.003164095,-0.8416031,-0.3082868,0.1205493,0.8400488,1.509392,0.1514961,0.4707516,1.068479,0.2167421,72.97483,115.1897,166.6467,True
0,1.944448,0.03229813,0.1711964,0.03134991,-1.550435,-2.264422,2.875045,0.6965446,1.2299,-0.01200867,-1.28927,-0.9002206,60,0,0.04675048,-0.03104815,-0.01542572,-1.04796,-1.813087,-0.1698018,0.7415895,1.40569,-0.02060118,0.03951365,-0.045552,-0.0127458,-0.8420942,-0.3089618,0.1205957,0.8400894,1.509357,0.1513707,0.4712415,1.071199,0.2178511,73.46564,115.1184,166.2218,True
0,1.955559,0.03228856,0.1711888,0.03028796,-1.550285,-2.266224,2.874725,0.6962881,1.230005,-0.01193103,-1.299446,-0.9169825,60,0,0.04785343,-0.04384664,0.004807913,-1.046964,-1.814074,-0.1697914,0.7413933,1.405687,-0.02055538,0.03930947,-0.06150116,-0.01500695,-0.842499,-0.3103348,0.121014,0.8399698,1.509364,0.151257,0.4719439,1.074049,0.219251,73.99097,115.1108,165.7492,True
0,1.966671,0.03547933,0.158399,0.02816264,-1.550203,-2.26746,2.874321,0.6959927,1.230044,-0.0118942,-1.309495,-0.9040355,60,0,0.04141287,-0.05659384,0.00909861,-1.046653,-1.81519,-0.1694332,0.7410886,1.405635,-0.02056807,0.04688179,-0.06168155,-0.003372061,-0.8422498,-0.3112745,0.1209714,0.8398937,1.509313,0.1511294,0.4727894,1.077021,0.2207655,74.57383,115.1585,165.2658,True
0,1.977782,0.02912213,0.1424133,0.02933647,-1.550273,-2.26855,2.874227,0.6957417,1.230058,-0.01183823,-1.319669,-0.9165747,60,0,0.04454853,-0.05660792,-0.001572238,-1.046889,-1.815992,-0.1696292,0.7407742,1.405622,-0.02058965,0.0512446,-0.05859403,0.003002328,-0.8420287,-0.3121547,0.1208764,0.8397208,1.50928,0.1509867,0.473638,1.080099,0.2222129,75.18962,115.1868,164.7433,True
0,1.988893,0.02174703,0.115777,0.03374632,-1.550681,-2.268974,2.874257,0.6954496,1.229976,-0.01182586,-1.329852,-0.9165569,60,0,0.04665951,-0.06088285,-0.0005156854,-1.046683,-1.816871,-0.1697576,0.7404697,1.405551,-0.02060133,0.05876213,-0.0630248,0.01353337,-0.8417203,-0.3132598,0.1207376,0.8398199,1.509358,0.1508649,0.4743656,1.083258,0.2234303,75.82899,115.1528,164.2068,True
0,2.000004,0.0111113,0.08592527,0.03074078,-1.550915,-2.269048,2.874437,0.6952219,1.229918,-0.01182443,-1.34015,-0.9277945,60,0,0.03693451,-0.0693462,-0.01644345,-1.047219,-1.818156,-0.169197,0.7400854,1.405502,-0.02059489,0.06930902,-0.07703883,0.01863423,-0.8415008,-0.3150825,0.1208087,0.8397295,1.509362,0.150713,0.4748652,1.086453,0.2242985,76.50073,114.9248,163.5945,True
0,2.011115,0.01007027,0.06994021,0.03080112,-1.551237,-2.269351,2.874333,0.694937,1.229824,-0.01184088,-1.350465,-0.9278666,60,0,0.03462965,-0.08317775,-0.03454862,-1.048015,-1.819952,-0.1686676,0.7398152,1.405473,-0.02066103,0.07667755,-0.08458132,0.0184942,-0.8414843,-0.3167138,0.1208212,0.8396677,1.509359,0.1505079,0.4751333,1.089619,0.2247469,77.1909,114.3816,162.8357,True
0,2.022226,0.001617171,0.05182809,0.03519777,-1.551789,-2.269404,2.874621,0.6946366,1.229777,-0.0118297,-1.360794,-0.9293039,60,0,0.05143861,-0.1130942,-0.04636954,-1.048472,-1.822634,-0.1684449,0.7397912,1.405586,-0.02069357,0.07666067,-0.08994209,0.02271214,-0.8412287,-0.3183039,0.1210513,0.8396108,1.509349,0.1503184,0.4751678,1.092685,0.2247738,77.86933,113.5083,161.902,True
0,2.033337,-0.002624672,0.04437089,0.03632555,-1.552148,-2.26985,2.874828,0.6943591,1.229733,-0.01171675,-1.370706,-0.8912565,60,0,0.06303807,-0.137662,-0.04324746,-1.04846,-1.825443,-0.1681797,0.7393663,1.405533,-0.02066007,0.07645538,-0.1015988,0.01623039,-0.8413703,-0.3201524,0.1214702,0.8395587,1.509342,0.1501443,0.4750072,1.095603,0.2244308,78.50005,112.4133,160.8868,True
0,2.044448,-0.004794871,0.05075006,0.03313106,-1.552178,-2.270697,2.874958,0.6940541,1.229677,-0.01166505,-1.380806,-0.9097098,60,0,0.07052214,-0.1451618,-0.03050752,-1.04804,-1.827421,-0.1681307,0.7387421,1.40536,-0.0205678,0.07292713,-0.1195794,0.004409555,-0.8418875,-0.3228079,0.1225254,0.839432,1.509359,0.1499363,0.4746788,1.098361,0.223858,79.061,111.0599,159.7191,True
0,2.055559,-0.009162856,0.06883213,0.02566025,-1.55177,-2.272039,2.875347,0.6937165,1.229578,-0.01144618,-1.390798,-0.898147,60,0,0.06949264,-0.1408955,-0.02836963,-1.048028,-1.829102,-0.1680492,0.738378,1.405265,-0.02050674,0.07705228,-0.1270405,3.982661E-05,-0.84227,-0.3248154,0.1228918,0.8392799,1.509346,0.1498161,0.474272,1.100974,0.2231871,79.54782,109.4651,158.3816,True
0,2.06667,-0.01125428,0.08376081,0.03203076,-1.551964,-2.273581,2.875577,0.6934016,1.2295,-0.01133284,-1.400714,-0.8921133,60,0,0.06314009,-0.1216797,-0.04005126,-1.048842,-1.830042,-0.1680335,0.7373288,1.404957,-0.02047053,0.08134417,-0.1249523,0.001090263,-0.8421107,-0.3262438,0.1228527,0.8390806,1.509373,0.1497423,0.4738978,1.103474,0.2225711,79.98891,107.8283,157.0168,True
0,2.077781,-0.01111013,0.1157756,0.05217949,-1.552626,-2.27618,2.875796,0.6930704,1.229535,-0.01122025,-1.410703,-0.8993165,60,0,0.05883634,-0.1131282,-0.0560037,-1.049797,-1.831396,-0.1678758,0.7369268,1.404882,-0.02043089,0.08052842,-0.106864,0.004449302,-0.8419344,-0.3272305,0.1225608,0.8389666,1.509351,0.149684,0.4736544,1.105896,0.2221336,80.42665,106.2982,155.6938,True
0,2.088892,-0.006853703,0.1338972,0.05528122,-1.552775,-2.278193,2.8759,0.6927006,1.229397,-0.0111168,-1.420542,-0.8845096,60,0,0.06092272,-0.1056744,-0.07093197,-1.050953,-1.832682,-0.1679722,0.7362421,1.404731,-0.0204252,0.0828564,-0.09627359,0.01091153,-0.841544,-0.3279928,0.1220045,0.8389121,1.509298,0.1496129,0.473615,1.108267,0.2219704,80.86746,104.8382,154.3373,True
0,2.100003,-0.007848006,0.1488403,0.06483676,-1.553228,-2.28057,2.876082,0.692421,1.229396,-0.0109297,-1.43038,-0.8852805,60,0,0.07049199,-0.1046609,-0.07524684,-1.051731,-1.834159,-0.1683568,0.7358541,1.404743,-0.02037174,0.07994208,-0.07388735,0.01326373,-0.8412569,-0.3282932,0.1214423,0.8388045,1.509284,0.149605,0.473859,1.110628,0.222093,81.25497,103.1995,152.682,True
0,2.111114,-0.002584314,0.1626847,0.06048387,-1.55314,-2.282919,2.875997,0.6920927,1.229473,-0.01076269,-1.440238,-0.8870667,60,0,0.07262309,-0.1089351,-0.07100181,-1.052112,-1.835861,-0.168405,0.735498,1.404811,-0.02033451,0.07999208,-0.06854343,0.01223738,-0.841274,-0.3289503,0.1210084,0.8387138,1.509284,0.1495436,0.4744116,1.113039,0.2225268,81.62782,101.4894,150.8369,True
0,2.122225,0.007955474,0.1701245,0.04970286,-1.552734,-2.28491,2.875554,0.6918113,1.229598,-0.01061597,-1.45012,-0.8897947,60,0,0.07071877,-0.11853,-0.02306288,-1.050628,-1.83753,-0.1684052,0.7356191,1.405067,-0.02031195,0.07242231,-0.06943801,0.002720909,-0.8416649,-0.3299172,0.1211112,0.8386284,1.50929,0.1494512,0.4751924,1.115518,0.2232288,82.06172,99.96203,149.0345,True
0,2.133336,0.01316884,0.1690332,0.03793614,-1.552284,-2.286677,2.875269,0.6914921,1.229672,-0.01047367,-1.459867,-0.8766342,60,0,0.0634478,-0.1142373,0.005743077,-1.049429,-1.838607,-0.1683198,0.7352996,1.405131,-0.02023169,0.07216122,-0.07783863,-0.01226254,-0.8424319,-0.3313428,0.1213192,0.838549,1.509293,0.1493355,0.4761399,1.118096,0.2241124,82.5014,98.4136,147.132,True
0,2.144447,0.0237641,0.1668967,0.03144711,-1.551994,-2.288358,2.874641,0.6911585,1.229772,-0.01035249,-1.469493,-0.8666362,60,0,0.06257411,-0.1057179,0.03131848,-1.048033,-1.839331,-0.168625,0.7349994,1.405179,-0.02014494,0.07414353,-0.08526208,-0.01873648,-0.8429539,-0.3327526,0.1212844,0.8385606,1.509226,0.1493073,0.4771371,1.120805,0.2250835,82.96349,96.99383,145.292,True
0,2.155558,0.02790101,0.1594059,0.01757875,-1.551296,-2.289733,2.874213,0.6907837,1.229811,-0.0102106,-1.479295,-0.8836783,60,0,0.05327914,-0.07903936,0.05588056,-1.04669,-1.838923,-0.1692149,0.7349732,1.405187,-0.02005026,0.07193098,-0.08839826,-0.02300026,-0.8434998,-0.3341271,0.1214732,0.8384936,1.50922,0.1492506,0.4780812,1.123664,0.2260059,83.47016,95.40801,143.267,True
0,2.166669,0.0289419,0.1530059,0.01438549,-1.550903,-2.291154,2.873952,0.6904387,1.229821,-0.01005611,-1.488987,-0.8720844,60,0,0.04795574,-0.06622294,0.04419967,-1.046607,-1.839315,-0.1693608,0.7347069,1.405188,-0.0199281,0.07304059,-0.08736049,-0.02086836,-0.8436655,-0.3352886,0.1212689,0.8384044,1.509145,0.1492095,0.4789036,1.126649,0.2267438,84.01201,93.09659,140.5636,True
0,2.17778,0.02366306,0.1284993,0.01557332,-1.550948,-2.291754,2.873878,0.6900835,1.229796,-0.009943575,-1.49898,-0.9009273,60,0,0.04886424,-0.05875976,0.009041755,-1.047658,-1.839951,-0.1696127,0.7343702,1.405081,-0.01983032,0.07097182,-0.0895364,-0.01339753,-0.8435632,-0.3369057,0.1214958,0.8382508,1.509128,0.1491829,0.4795499,1.129735,0.2272276,84.55944,89.72121,136.8979,True
0,2.188891,0.03224469,0.1029519,0.01769107,-1.551095,-2.292122,2.87322,0.6897359,1.229667,-0.009867936,-1.509242,-0.9239861,60,0,0.0571682,-0.05559748,-0.0314924,-1.049333,-1.84093,-0.1699683,0.7338104,1.404992,-0.01974502,0.06669565,-0.08839004,-0.01654613,-0.8440628,-0.3379782,0.121527,0.8381877,1.509197,0.1491328,0.4800211,1.13286,0.2274173,85.10623,85.09303,132.0963,True
0,2.200002,0.03337184,0.06672932,0.01884381,-1.551378,-2.291677,2.872859,0.6894023,1.229671,-0.009714663,-1.519569,-0.9298296,60,0,0.07077126,-0.07057843,-0.06033792,-1.050773,-1.842723,-0.1703313,0.7334142,1.404914,-0.01964429,0.06676327,-0.0798464,-0.01966852,-0.8443834,-0.3388309,0.1212993,0.8380668,1.50918,0.1491165,0.480367,1.135962,0.2273158,85.58731,78.74016,125.6785,True
0,2.211113,0.04939479,0.03052996,0.01772664,-1.551751,-2.290913,2.871772,0.6891196,1.229671,-0.009565115,-1.529449,-0.8882289,60,0,0.07809244,-0.08446555,-0.06997685,-1.051583,-1.844559,-0.1704383,0.732981,1.404825,-0.01956663,0.06458391,-0.07440012,-0.03026625,-0.8453006,-0.3393589,0.1209765,0.8380736,1.509223,0.1490243,0.4805927,1.138985,0.22696,85.96522,70.67856,117.6233,True
0,2.222224,0.06215444,0.008162735,0.01233931,-1.551845,-2.290371,2.870731,0.6888227,1.229753,-0.009384543,-1.539598,-0.9152853,60,0,0.08556803,-0.09409906,-0.05723863,-1.051565,-1.8462,-0.1708647,0.7326486,1.404836,-0.01946735,0.06146914,-0.06367814,-0.03440647,-0.8458807,-0.3397304,0.1206327,0.8379997,1.509164,0.1490406,0.4806679,1.141914,0.2264385,86.21307,61.4901,108.502,True
0,2.233335,0.08653026,-0.01954791,-0.004864391,-1.55155,-2.289044,2.868883,0.6885989,1.229815,-0.00919044,-1.549355,-0.8774404,60,0,0.06657094,-0.08547985,-0.03369546,-1.051034,-1.846845,-0.1705584,0.7324808,1.404935,-0.0194734,0.05626214,-0.05509554,-0.03322833,-0.8463611,-0.3399228,0.1201632,0.8379852,1.509263,0.1489662,0.4805832,1.144775,0.225824,86.32299,52.28022,99.408,True
0,2.244446,0.1151453,-0.0451301,-0.02424762,-1.55101,-2.287527,2.866632,0.6884692,1.229862,-0.008966148,-1.559167,-0.8854964,60,0,0.05181849,-0.07048768,-0.0197579,-1.050701,-1.847076,-0.1704881,0.7322214,1.404981,-0.01943398,0.0562562,-0.0540181,-0.03534531,-0.8468277,-0.340726,0.120002,0.8379066,1.509259,0.1489686,0.4803651,1.14762,0.2251815,86.31794,43.4437,90.72694,True
0,2.255557,0.1503583,-0.1122035,-0.0286594,-1.551511,-2.284046,2.86371,0.6882999,1.23001,-0.008786291,-1.568599,-0.8492316,60,0,0.02976846,-0.04374406,0.01126648,-1.049714,-1.84643,-0.1703182,0.7320714,1.405097,-0.01952377,0.05541366,-0.0402085,-0.02990294,-0.8470674,-0.3407841,0.1193557,0.8377447,1.509245,0.1489897,0.4800967,1.150497,0.2245606,86.24569,35.07252,82.5191,True
0,2.266668,0.1930193,-0.2144379,-0.0394398,-1.552323,-2.278484,2.860147,0.6881845,1.230139,-0.008542746,-1.578041,-0.852676,60,0,0.02046705,-0.01280151,0.03156692,-1.048969,-1.845331,-0.1708508,0.7321625,1.405157,-0.0195055,0.04363758,-0.04323863,-0.03194291,-0.8476458,-0.3412278,0.119532,0.8376336,1.509263,0.1490411,0.4798171,1.153464,0.223982,86.13527,26.79378,74.37814,True
0,2.277779,0.22916,-0.3007341,-0.0608515,-1.552728,-2.272092,2.856258,0.6880322,1.230291,-0.008441031,-1.58731,-0.8370782,60,0,0.0174616,0.01704266,0.03585555,-1.048642,-1.843879,-0.1716682,0.7320738,1.405218,-0.01947528,0.02662396,-0.03661654,-0.03597038,-0.8481998,-0.3413885,0.1199352,0.8375169,1.509258,0.1490847,0.4795394,1.156582,0.2234368,85.96308,18.7331,66.40353,True
0,2.28889,0.2801612,-0.4626968,-0.09924173,-1.553317,-2.261339,2.851294,0.6878552,1.230473,-0.008369744,-1.596565,-0.8365576,60,0,0.01557224,0.07457924,0.02096764,-1.049504,-1.840971,-0.1733409,0.7319906,1.405351,-0.01938292,0.02356895,-0.01304558,-0.0485271,-0.8490413,-0.3404092,0.119035,0.8372741,1.509228,0.149146,0.4791159,1.159951,0.2228725,85.70363,11.21766,58.91678,True
0,2.300001,0.3322976,-0.6225058,-0.1301889,-1.554448,-2.248923,2.845653,0.6876807,1.23072,-0.008438647,-1.606101,-0.8629863,60,0,0.01467132,0.1299887,-0.004575331,-1.050995,-1.837386,-0.1752493,0.731988,1.405464,-0.01937073,0.02135246,-0.009729939,-0.06019634,-0.8501231,-0.3402429,0.1187128,0.8371527,1.509222,0.149306,0.4784367,1.16362,0.2221356,85.36951,3.756244,51.4938,True
0,2.311112,0.3524739,-0.7216063,-0.1514111,-1.555352,-2.237638,2.84104,0.6874928,1.230865,-0.008522362,-1.615475,-0.8475252,60,0,0.01371035,0.1608907,-0.01841377,-1.052179,-1.834522,-0.1769705,0.7321742,1.405583,-0.01944262,0.00435555,-0.008499621,-0.05680747,-0.8505886,-0.3404711,0.1193967,0.8369085,1.509161,0.1493977,0.4774231,1.1676,0.2210375,84.97433,356.1284,43.92503,True
0,2.322223,0.3458828,-0.8751434,-0.1945827,-1.55633,-2.222616,2.837309,0.6872554,1.23117,-0.008670598,-1.62485,-0.8502775,60,0,0.03107771,0.2076625,-0.008911729,-1.052651,-1.830266,-0.1801208,0.7323017,1.405915,-0.01939875,-0.0050577,-0.002058282,-0.04708318,-0.8509625,-0.3397632,0.1192875,0.8368531,1.509272,0.1494963,0.4758053,1.171945,0.2193609,84.48555,348.668,36.59552,True
0,2.333334,0.3297164,-0.9370322,-0.2230103,-1.5568,-2.209949,2.834027,0.6870329,1.2314,-0.008747041,-1.635451,-0.9621159,60,0,0.03974348,0.2182625,0.005957469,-1.052608,-1.827014,-0.1824702,0.7322171,1.406088,-0.0193263,-0.007193521,0.00334405,-0.05340845,-0.8517348,-0.3393763,0.1191623,0.8366966,1.509292,0.1496363,0.4735937,1.176603,0.2168406,83.79945,342.5616,30.88603,True
0,2.344445,0.3199576,-0.9882568,-0.2483378,-1.557153,-2.196734,2.830616,0.6868112,1.231629,-0.008877754,-1.646943,-1.038293,0,0,0.03881606,0.2257194,0.02301036,-1.052264,-1.823692,-0.1845259,0.732094,1.406267,-0.0192135,-0.007364616,-0.007253959,-0.05776374,-0.8526968,-0.3394917,0.1193592,0.8365099,1.509315,0.1497847,0.4710774,1.181395,0.2133838,82.93642,337.7062,26.75421,True
0,2.355556,0.3058855,-1.042702,-0.279995,-1.557387,-2.182696,2.827435,0.6864259,1.231925,-0.009038717,-1.658585,-1.049826,0,0,0.007000506,0.2205574,0.05300961,-1.051218,-1.820911,-0.1848657,0.7318428,1.406472,-0.01902685,-0.0001868978,-0.02646948,-0.06332408,-0.8537098,-0.340595,0.1198457,0.8362963,1.509322,0.1499413,0.4683346,1.186202,0.2090338,81.98425,333.6114,23.64328,True
0,2.366668,0.2973154,-1.028872,-0.2831467,-1.557778,-2.1715,2.824193,0.68612,1.2322,-0.009075373,-1.669697,-1.00188,0,0,0.004849143,0.2099143,0.06047045,-1.050824,-1.818536,-0.1860053,0.7314985,1.406611,-0.01888797,0.002895355,-0.03069701,-0.06979804,-0.8549002,-0.3406594,0.1197008,0.8361562,1.509269,0.1500213,0.4655965,1.190872,0.2040405,80.93132,330.559,21.82558,True
0,2.377779,0.2781377,-0.9713504,-0.2746022,-1.557932,-2.162264,2.821645,0.6855814,1.232417,-0.009111822,-1.68046,-0.9716282,0,0,0.01641215,0.1885457,0.0540056,-1.05071,-1.816906,-0.1873784,0.7310312,1.406785,-0.01867887,0.009376548,-0.03084031,-0.06134468,-0.8553269,-0.3410626,0.1196199,0.8359267,1.5093,0.1502178,0.4629035,1.195346,0.1987916,79.87812,328.0155,20.58105,True
0,2.38889,0.2483381,-0.8648025,-0.2554387,-1.557775,-2.156002,2.8198,0.6851046,1.232647,-0.009126842,-1.690775,-0.9300042,0,0,0.03951376,0.14048,0.04213459,-1.050728,-1.816964,-0.1886045,0.7307241,1.406969,-0.01848084,0.01167219,-0.02562532,-0.05173449,-0.8555496,-0.3413018,0.1195554,0.8356611,1.509212,0.1504594,0.460256,1.199594,0.1936094,78.87888,325.9833,19.82611,True
0,2.400001,0.2056532,-0.7263372,-0.2415696,-1.556793,-2.152025,2.818891,0.6844904,1.232912,-0.009092867,-1.700966,-0.9204609,0,0,0.05617642,0.08925755,0.02497727,-1.050881,-1.817838,-0.1893707,0.7301214,1.407127,-0.01823884,0.01618575,-0.01512589,-0.03890745,-0.8554819,-0.3410086,0.1191171,0.8353423,1.509251,0.1506867,0.4578786,1.203542,0.1888334,77.91949,324.701,19.78943,True
0,2.411112,0.159761,-0.5548335,-0.223509,-1.55514,-2.150876,2.818604,0.6838331,1.233323,-0.009039342,-1.71102,-0.9058756,0,0,0.07397459,0.05933626,-0.001771715,-1.051771,-1.818284,-0.1905204,0.7297735,1.407492,-0.01803499,0.02801973,-0.009980502,-0.03366585,-0.8557221,-0.3409392,0.1183626,0.8351769,1.509356,0.1509785,0.4559935,1.207107,0.184795,77.04241,323.7656,19.93213,True
0,2.422223,0.1299251,-0.4248528,-0.2044148,-1.553802,-2.149648,2.817997,0.6832819,1.23356,-0.009109318,-1.720862,-0.8863037,0,0,0.09208442,0.05497264,0.002385516,-1.051704,-1.817728,-0.1924216,0.7291193,1.407733,-0.01779935,0.03774161,-0.003748551,-0.02732468,-0.8557786,-0.3406411,0.1175011,0.8349091,1.509372,0.151229,0.4548417,1.210216,0.1817541,76.29906,322.9984,19.96281,True
0,2.433334,0.0713629,-0.1872663,-0.1651082,-1.551489,-2.154875,2.819206,0.6824758,1.23399,-0.00890708,-1.729977,-0.8190151,0,0,0.1241161,0.02708159,0.04161252,-1.049828,-1.817862,-0.1948571,0.7287242,1.408099,-0.01761803,0.04419202,-0.004942287,-0.02100111,-0.8557078,-0.3408781,0.1169072,0.8342011,1.509153,0.1514757,0.4544565,1.212876,0.1799038,75.72281,322.1567,19.5335,True
0,2.444445,0.05320986,-0.08925235,-0.1545562,-1.549648,-2.155931,2.819068,0.6817684,1.23428,-0.008861333,-1.7378,-0.7014223,0,0,0.1240369,-0.007012196,0.0618382,-1.048375,-1.81884,-0.1956334,0.7280974,1.408375,-0.01736078,0.05047756,-0.01031175,-0.02537246,-0.8561706,-0.341297,0.1164262,0.8338364,1.509179,0.1516839,0.454786,1.215134,0.1792826,75.32058,321.223,18.57112,True
0,2.455556,0.03611362,0.02794123,-0.1419426,-1.547216,-2.159578,2.819341,0.6809504,1.234627,-0.008697093,-1.745783,-0.7196551,0,0,0.09419334,-0.05373558,0.1056667,-1.045464,-1.820702,-0.1947224,0.7271945,1.408651,-0.01704904,0.05570469,-0.0188945,-0.02549817,-0.8565093,-0.3418949,0.116003,0.8334771,1.509184,0.1519396,0.4556782,1.217033,0.1797232,75.0262,320.3289,17.30562,True
0,2.466667,0.03283733,0.09931807,-0.1389219,-1.544821,-2.161878,2.819132,0.6801865,1.235029,-0.00861454,-1.751695,-0.5258114,0,0,0.07513164,-0.06749451,0.1387981,-1.042665,-1.821446,-0.194602,0.7267396,1.40906,-0.01678461,0.05987427,-0.03177964,-0.02031782,-0.856651,-0.3430777,0.1159895,0.8332977,1.509332,0.152053,0.4570489,1.218603,0.1811616,74.8157,319.5691,15.92374,True
0,2.477778,0.03282523,0.1142352,-0.1378994,-1.54284,-2.163093,2.818808,0.6793833,1.235337,-0.008529842,-1.756815,-0.46165,0,0,0.05935217,-0.07700852,0.1836272,-1.038871,-1.822028,-0.1943969,0.7259891,1.40937,-0.01648369,0.05973857,-0.04349674,-0.02041242,-0.8569893,-0.34419,0.1160552,0.8329492,1.509347,0.1522394,0.4585097,1.21994,0.1832728,74.71599,318.3157,13.77946,True
0,2.488889,0.0349647,0.09399483,-0.1399959,-1.541203,-2.162704,2.818336,0.6785171,1.235556,-0.008445024,-1.760579,-0.3366573,0,0,0.05313148,-0.06846236,0.2049753,-1.0359,-1.821863,-0.1949993,0.7254276,1.409687,-0.01620585,0.07127281,-0.06391524,-0.01537248,-0.8571246,-0.3460056,0.1161367,0.8326434,1.509343,0.1523706,0.4598369,1.22107,0.1856809,74.68373,317.0474,11.53664,True
0,2.5,0.0317408,0.05774511,-0.1483833,-1.539519,-2.161547,2.818026,0.6776793,1.235833,-0.008399695,-1.763262,-0.2412015,0,0,0.05091588,-0.05672303,0.1783591,-1.034713,-1.821879,-0.1954923,0.7246482,1.4099,-0.0158841,0.0838485,-0.08002364,-0.01776717,-0.8575773,-0.3478409,0.1159468,0.8323269,1.509307,0.1526013,0.4608084,1.222015,0.1879839,74.70465,315.7537,9.299085,True
0,2.511111,0.02324715,0.02363966,-0.1503302,-1.53817,-2.160215,2.818046,0.6768436,1.236007,-0.008300543,-1.765002,-0.1558313,0,0,0.05817117,-0.05674889,0.1431655,-1.034271,-1.822484,-0.1960678,0.7240567,1.410113,-0.0156,0.09239195,-0.07800679,-0.01785455,-0.8581243,-0.3490694,0.1154954,0.8322057,1.509441,0.152827,0.4612325,1.222768,0.1898089,74.71818,314.5287,7.298397,True
0,2.522222,0.006370336,-0.03282219,-0.1414769,-1.537755,-2.1576,2.81852,0.6760178,1.236248,-0.008196115,-1.766129,-0.1011261,0,0,0.07381971,-0.06640857,0.09406924,-1.034777,-1.823888,-0.1967147,0.7232282,1.410245,-0.0152787,0.092375,-0.07263191,-0.02634432,-0.8589392,-0.3501171,0.1150161,0.8319144,1.509404,0.1530657,0.4609674,1.223317,0.1908797,74.72462,313.4973,5.77393,True
0,2.533333,-0.01368836,-0.07649607,-0.1294317,-1.537568,-2.155094,2.819263,0.6752207,1.236317,-0.007990956,-1.766858,-0.06494688,0,0,0.09058235,-0.0814086,0.05881511,-1.034907,-1.825688,-0.1973922,0.7225487,1.41042,-0.01491979,0.09126364,-0.07365867,-0.02953714,-0.8594537,-0.3511685,0.1147284,0.8315856,1.509364,0.1532891,0.4600311,1.223637,0.1910613,74.74538,312.8508,4.996745,True
0,2.544444,-0.02848931,-0.0935422,-0.1207145,-1.537043,-2.153295,2.819937,0.6744533,1.23658,-0.007691264,-1.767363,-0.04431902,0,0,0.106363,-0.09960266,0.0406136,-1.034556,-1.827629,-0.1981645,0.7213807,1.410368,-0.01451421,0.09117208,-0.07790691,-0.03383002,-0.8600892,-0.3528696,0.1147748,0.8311675,1.509337,0.1533936,0.4585376,1.22371,0.1904075,74.7768,312.7072,5.077725,True
0,2.555555,-0.03057912,-0.08607295,-0.1153888,-1.536225,-2.15229,2.820312,0.6736977,1.236699,-0.007458121,-1.767527,-0.01287352,0,0,0.1104566,-0.1166665,0.02780068,-1.034302,-1.829778,-0.1984542,0.7204983,1.410451,-0.01414621,0.09231026,-0.07260195,-0.03273325,-0.8605132,-0.3536585,0.114199,0.8307688,1.509319,0.1536397,0.4566058,1.223568,0.1890878,74.8213,312.9917,5.876022,True
0,2.566666,-0.03360994,-0.05725979,-0.09413449,-1.535826,-2.152501,2.820758,0.6728313,1.236845,-0.007164538,-1.767191,0.03244663,0,0,0.1029868,-0.1166277,0.02463947,-1.033925,-1.831238,-0.1986649,0.7192793,1.410519,-0.01376796,0.09253026,-0.06632456,-0.01883464,-0.8603534,-0.3544035,0.1136704,0.83033,1.50933,0.1539029,0.4544333,1.223225,0.1873874,74.87019,313.6133,7.231245,True
0,2.577777,-0.03978946,-0.01137876,-0.06544191,-1.535614,-2.154012,2.821492,0.672009,1.23688,-0.006801248,-1.766363,0.07601248,0,0,0.08494887,-0.1058746,0.02687576,-1.033374,-1.832106,-0.1986076,0.7183287,1.41061,-0.01336682,0.101494,-0.05279498,0.007819075,-0.8594404,-0.3548235,0.1125316,0.8298675,1.509327,0.154271,0.4522173,1.222767,0.1856902,74.95827,314.3845,8.808529,True
0,2.588888,-0.05648947,0.0419875,-0.02281491,-1.536067,-2.156552,2.822651,0.6712458,1.236933,-0.006427437,-1.765489,0.07872359,0,0,0.07641433,-0.1036986,0.02373137,-1.032925,-1.833334,-0.1984769,0.7176883,1.410921,-0.01284599,0.116809,-0.03179078,0.02276754,-0.8583704,-0.3546722,0.1106594,0.8288928,1.508981,0.1547141,0.4501833,1.222243,0.1843239,75.05628,315.1572,10.28545,True
0,2.599999,-0.07329217,0.09425291,0.01022243,-1.536299,-2.159418,2.82415,0.6705244,1.236974,-0.005976319,-1.764829,0.05966894,0,0,0.0538814,-0.1067606,-0.001709852,-1.033546,-1.834975,-0.1974777,0.716713,1.411047,-0.01238048,0.1239427,0.005176738,0.0517632,-0.8566675,-0.3532859,0.1080618,0.8283716,1.508906,0.1552819,0.4484922,1.22172,0.1835626,75.14825,316.0021,11.6461,True
0,2.61111,-0.08384018,0.1294382,0.02620785,-1.536305,-2.16218,2.825507,0.6697736,1.237057,-0.005572915,-1.764478,0.03235443,0,0,0.03345977,-0.1173007,-0.02289934,-1.034092,-1.837248,-0.1960044,0.7157373,1.411237,-0.01180983,0.1158114,0.02431287,0.06799473,-0.8552204,-0.3524542,0.1065496,0.8277427,1.509166,0.1557671,0.4473514,1.22118,0.1835553,75.24194,316.8302,12.75361,True
0,2.622221,-0.1070763,0.1625007,0.05191354,-1.536879,-2.165339,2.827584,0.6691632,1.237129,-0.005071461,-1.764335,0.01429863,0,0,0.007702142,-0.138459,-0.03554497,-1.034503,-1.840038,-0.1937125,0.714752,1.411462,-0.01127908,0.1231705,0.0113878,0.0731644,-0.8540251,-0.3533875,0.1056527,0.827168,1.509109,0.1561219,0.4468587,1.220626,0.1843486,75.36031,317.5213,13.44558,True
0,2.633332,-0.128303,0.1795444,0.06272522,-1.537108,-2.168119,2.829768,0.6686494,1.237254,-0.004573733,-1.764035,0.02915145,0,0,-0.009369917,-0.1703338,-0.008830793,-1.033097,-1.843278,-0.1914227,0.713397,1.411599,-0.01074734,0.1270456,-0.01308234,0.06333497,-0.8537514,-0.3547052,0.1049975,0.8265545,1.509093,0.1564832,0.4469489,1.22009,0.1858817,75.51199,317.7545,13.37927,True
0,2.644443,-0.1411754,0.1677782,0.0522315,-1.536857,-2.169503,2.831777,0.6680844,1.237307,-0.004234642,-1.764178,-0.0123894,0,0,-0.02409481,-0.18945,0.04344657,-1.030391,-1.845933,-0.1893795,0.7124221,1.411851,-0.01026168,0.1306902,-0.04814872,0.04278642,-0.8539666,-0.3575527,0.1052308,0.8261862,1.509309,0.1567094,0.4474406,1.219617,0.1879613,75.68559,317.6134,12.68335,True
0,2.655554,-0.155104,0.1176426,0.03653225,-1.536859,-2.169153,2.833919,0.6675651,1.237356,-0.003842413,-1.764297,-0.007644802,0,0,-0.04198704,-0.1957565,0.08828862,-1.027492,-1.84811,-0.1872088,0.711385,1.41206,-0.009689301,0.1325393,-0.0587035,0.02776527,-0.8542632,-0.3588815,0.1045781,0.8255312,1.509324,0.1571089,0.4482277,1.219169,0.1903065,75.85728,317.4218,11.82637,True
0,2.666665,-0.1647017,0.06966268,0.02823647,-1.537088,-2.168319,2.83596,0.6669657,1.237373,-0.003416747,-1.76417,0.0140391,0,0,-0.04836124,-0.1999923,0.09578405,-1.025878,-1.85061,-0.1852098,0.7102921,1.412259,-0.00910902,0.1378639,-0.05985321,0.0287837,-0.8536987,-0.3600663,0.1036774,0.8254857,1.509506,0.1575029,0.4491214,1.218733,0.1926496,76.0302,316.9244,10.61917,True
0,2.677776,-0.1720636,-0.02730532,0.0232616,-1.538287,-2.164822,2.838009,0.6664665,1.237314,-0.003127337,-1.764087,0.009092903,0,0,-0.05803275,-0.2020648,0.08305422,-1.024964,-1.85315,-0.1828998,0.7091846,1.412395,-0.008516341,0.1380135,-0.0567444,0.03946135,-0.8529551,-0.3608505,0.102631,0.8248458,1.509606,0.1579682,0.4498359,1.21831,0.1946952,76.18253,316.0243,9.015937,True
0,2.688887,-0.1750319,-0.1327557,0.02998934,-1.540352,-2.16039,2.839836,0.6658731,1.237158,-0.00275147,-1.76389,0.0203591,0,0,-0.05074933,-0.2031631,0.05318113,-1.025056,-1.855982,-0.1811706,0.708004,1.412446,-0.007902384,0.1264435,-0.05887537,0.05557995,-0.8513918,-0.3621269,0.1024081,0.8236084,1.509479,0.158529,0.4500993,1.217898,0.196177,76.29423,315.161,7.61173,True
0,2.699998,-0.1834536,-0.1988164,0.03026226,-1.542047,-2.156126,2.84206,0.6653662,1.23709,-0.002474785,-1.763723,0.01686336,0,0,-0.03820086,-0.2074823,0.01582257,-1.02568,-1.859057,-0.1795626,0.7068636,1.412529,-0.007331401,0.1220917,-0.07487971,0.06402284,-0.8505082,-0.3642359,0.1024814,0.8228886,1.509523,0.1589267,0.4497626,1.217468,0.1969347,76.3737,314.6302,6.801889,True
0,2.711109,-0.1994222,-0.2936852,0.01789844,-1.543571,-2.150049,2.844754,0.6648557,1.237142,-0.00204888,-1.763415,0.03016951,0,0,-0.02340883,-0.2086242,-0.005566109,-1.025893,-1.861934,-0.1783631,0.7059915,1.412673,-0.006652683,0.1197299,-0.08866312,0.05648111,-0.8503031,-0.3665847,0.1026318,0.8224494,1.509792,0.1593636,0.4487664,1.216972,0.1968357,76.4397,314.466,6.658718,True
0,2.72222,-0.2004674,-0.3149926,0.01690677,-1.544911,-2.146387,2.846907,0.6643527,1.237155,-0.001588941,-1.763396,0.00290806,0,0,-0.01595228,-0.2044032,-0.009868048,-1.025775,-1.864432,-0.1771426,0.7049019,1.412751,-0.006092638,0.1196501,-0.08967631,0.05008136,-0.8500736,-0.36796,0.1022092,0.8217871,1.509815,0.1597981,0.4471318,1.21639,0.1959099,76.49538,314.856,7.416869,True
0,2.733331,-0.1984379,-0.3171506,0.006239632,-1.545679,-2.142822,2.848965,0.6638348,1.237116,-0.00118053,-1.763709,-0.02580566,0,0,-0.01591628,-0.1958802,-0.01199338,-1.025493,-1.866596,-0.1758144,0.7037475,1.412747,-0.005533367,0.121995,-0.07159483,0.05126997,-0.8494818,-0.3681087,0.1009524,0.8211648,1.509701,0.1602549,0.4450786,1.215683,0.1943041,76.59361,315.5756,8.793625,True
0,2.744442,-0.1782433,-0.2990161,0.003868744,-1.54653,-2.140307,2.850162,0.6632636,1.237022,-0.0008461475,-1.763482,0.02480848,60,0,-0.02012495,-0.1947957,-0.003446147,-1.024867,-1.869082,-0.1741233,0.7027926,1.412749,-0.005088747,0.1160275,-0.03856027,0.05698081,-0.8478722,-0.3677343,0.09985842,0.8194828,1.509603,0.1606297,0.4427543,1.214898,0.1922636,76.71485,316.4611,10.54008,True
0,2.755553,-0.1430787,-0.2925661,0.005637147,-1.547527,-2.137445,2.850539,0.6626623,1.236968,-0.0004295111,-1.763158,0.03051313,60,0,-0.03284786,-0.194728,0.007279001,-1.024069,-1.871495,-0.1720868,0.7017956,1.412782,-0.004567027,0.1077806,-0.02362728,0.06677772,-0.8467702,-0.367554,0.09878703,0.8186734,1.509639,0.1611176,0.4404426,1.214059,0.1901434,76.80366,317.685,12.71677,True
0,2.766664,-0.1015639,-0.3031698,-6.616488E-05,-1.548435,-2.133821,2.850231,0.6621056,1.236835,-0.0001648068,-1.76233,0.07710795,60,0,-0.03915045,-0.185105,0.01371384,-1.023368,-1.873431,-0.1704476,0.700901,1.41281,-0.004075676,0.09711807,-0.03102633,0.0753912,-0.8451952,-0.3686639,0.09898996,0.817822,1.509557,0.1614973,0.4383481,1.213203,0.1882866,76.87695,318.7742,14.66283,True
0,2.777775,-0.07715465,-0.3255411,-0.01302436,-1.549135,-2.129463,2.850178,0.6614847,1.236838,0.0001537204,-1.761211,0.1009716,60,0,-0.04222111,-0.1648476,0.01586901,-1.022925,-1.874736,-0.1691834,0.7000086,1.412874,-0.003576994,0.08195196,-0.05108385,0.07326163,-0.8445411,-0.3706394,0.09982061,0.817477,1.509341,0.162044,0.4365351,1.212426,0.1869746,76.94926,319.7072,16.23857,True
0,2.788886,-0.05823851,-0.3596918,-0.04507536,-1.549055,-2.124023,2.850137,0.6607785,1.236955,0.0003446639,-1.760095,0.09946898,60,0,-0.03758434,-0.09456485,0.01373935,-1.023054,-1.873221,-0.1696588,0.6989782,1.412975,-0.003065825,0.07125258,-0.03588614,0.05330483,-0.8438444,-0.370701,0.09948079,0.8166959,1.509312,0.1624261,0.4349719,1.211841,0.1863307,77.04585,320.2654,17.16698,True
0,2.799997,-0.05315001,-0.3810668,-0.07277013,-1.548785,-2.118802,2.8505,0.6599545,1.237025,0.0006408095,-1.759702,0.03296964,60,0,-0.01902234,-0.01263907,0.01259813,-1.0234,-1.870161,-0.1716604,0.6981266,1.413104,-0.002611995,0.07334579,-0.02406446,0.03847112,-0.8437395,-0.3703609,0.09859368,0.8154359,1.509547,0.1628111,0.4336426,1.211485,0.1862342,77.17265,320.2915,17.28364,True
0,2.811108,-0.05547172,-0.3512847,-0.08774801,-1.54821,-2.11555,2.851105,0.6591592,1.237134,0.0009273291,-1.759747,-0.004329533,60,0,-0.01344734,0.02142126,0.02216929,-1.023007,-1.868499,-0.1726306,0.6973627,1.413063,-0.002094716,0.08065817,-0.01972511,0.02033018,-0.8439068,-0.3701141,0.09731431,0.8142414,1.509061,0.1634068,0.4324501,1.211398,0.1864536,77.3214,319.7733,16.65162,True
0,2.822219,-0.05868268,-0.2862797,-0.07938214,-1.547986,-2.114326,2.851864,0.6583536,1.237176,0.001290381,-1.760296,-0.05015538,60,0,-0.0367932,0.02794387,0.03189492,-1.022344,-1.867814,-0.1717723,0.6963718,1.41318,-0.001546055,0.08479781,-0.01965473,0.009632881,-0.8440591,-0.3698149,0.09615077,0.8131726,1.509024,0.1640166,0.4312751,1.211573,0.1866759,77.43492,318.7331,15.40736,True
0,2.83333,-0.05969337,-0.232977,-0.06567594,-1.547953,-2.113475,2.852545,0.6575186,1.237242,0.001684338,-1.761345,-0.09360404,60,0,-0.03897698,0.01303995,0.03722851,-1.021708,-1.868098,-0.1711196,0.6953769,1.413285,-0.001038671,0.08796623,-0.02396959,0.01169538,-0.8439094,-0.3703861,0.09544263,0.8121786,1.509012,0.1645234,0.4300879,1.211931,0.1866591,77.43891,317.7476,14.312,True
0,2.844441,-0.05538808,-0.1860559,-0.05413787,-1.547846,-2.112978,2.852964,0.6566465,1.237235,0.002104759,-1.763004,-0.1485917,60,0,-0.03800629,-0.0146671,0.0478663,-1.020604,-1.869268,-0.170115,0.6943529,1.413371,-0.0004951358,0.08810608,-0.02298109,0.02337477,-0.8438897,-0.3703163,0.09437683,0.8118935,1.509313,0.1648915,0.4290115,1.212366,0.1863471,77.34425,317.3142,13.96523,True
0,2.855552,-0.03621544,-0.1231476,-0.04491767,-1.547463,-2.11389,2.852737,0.6556149,1.237314,0.002566874,-1.76525,-0.2016383,60,0,-0.02013847,-0.07549757,0.06478764,-1.018798,-1.872528,-0.1688905,0.693434,1.413472,8.687377E-05,0.08278328,-0.03044532,0.03189319,-0.8433059,-0.3711988,0.09422664,0.8109851,1.509328,0.1653666,0.4281335,1.212843,0.1858915,77.17788,317.3853,14.27577,True
0,2.866663,-0.01712527,-0.123134,-0.05362596,-1.546986,-2.112211,2.852273,0.6547625,1.2374,0.002945721,-1.768019,-0.249145,60,0,-0.005370744,-0.0990153,0.06149299,-1.018103,-1.874493,-0.1683371,0.6925673,1.413615,0.0006157756,0.07841551,-0.03782734,0.0297497,-0.8431035,-0.3719449,0.09396724,0.8101122,1.509347,0.165863,0.427423,1.213407,0.1854866,76.98675,317.4861,14.63118,True
0,2.877774,0.01664976,-0.1434247,-0.0890543,-1.545506,-2.109364,2.850811,0.6537194,1.237502,0.003308535,-1.771079,-0.2757603,60,0,0.01471967,-0.1151038,0.05072051,-1.017567,-1.876647,-0.1680449,0.6915154,1.413645,0.001188964,0.07511585,-0.04093426,0.02336677,-0.843111,-0.3727041,0.09374487,0.8092477,1.509309,0.1663338,0.4268147,1.214126,0.1852808,76.77883,317.4632,14.78736,True
0,2.888885,0.03876816,-0.1626474,-0.1179836,-1.544008,-2.106331,2.849611,0.6526897,1.237581,0.003645897,-1.774978,-0.3530997,60,0,0.02960242,-0.1066611,0.03679294,-1.017438,-1.877569,-0.1683139,0.6906631,1.413773,0.001697302,0.07162816,-0.04816417,0.004153358,-0.8439563,-0.3729658,0.09334912,0.8087845,1.509451,0.1667124,0.426251,1.215086,0.1853767,76.58379,317.2514,14.61738,True
0,2.899997,0.04718997,-0.1701196,-0.1287006,-1.542932,-2.103854,2.848898,0.6515615,1.237753,0.004049957,-1.779379,-0.3971152,60,0,0.0499072,-0.08333395,0.02496792,-1.017541,-1.877762,-0.1694633,0.6896977,1.413792,0.002240151,0.06293804,-0.04793427,-0.011736,-0.8447137,-0.3735258,0.09334513,0.8081396,1.509294,0.1672087,0.4256854,1.216328,0.1856257,76.42144,316.4177,13.65728,True
0,2.911108,0.04292506,-0.1605352,-0.1276211,-1.542042,-2.102097,2.848525,0.6505003,1.237846,0.004496217,-1.785237,-0.5319476,60,0,0.05313539,-0.07483102,0.02175234,-1.017352,-1.878372,-0.1698295,0.689038,1.413968,0.002726078,0.05642253,-0.04130191,-0.03079854,-0.8458381,-0.3734016,0.09284339,0.8074048,1.509279,0.1675348,0.4249792,1.21794,0.1858129,76.21799,315.1038,12.13441,True
0,2.922219,0.04200684,-0.1135991,-0.1053678,-1.541685,-2.102465,2.848132,0.6493955,1.237932,0.00492388,-1.792574,-0.6631836,60,0,0.04487495,-0.02151714,0.01542599,-1.017753,-1.876252,-0.1711489,0.6881075,1.414004,0.003238648,0.05115614,-0.0369799,-0.02859129,-0.8461987,-0.3733411,0.09258932,0.8066587,1.509395,0.1678555,0.4242137,1.219885,0.1857001,75.91578,313.9485,10.83841,True
0,2.93333,0.04967557,-0.04744819,-0.07367218,-1.541458,-2.104221,2.847361,0.6481977,1.237983,0.005531669,-1.800941,-0.7544032,60,0,0.03868863,-0.0001758561,0.03038396,-1.016972,-1.875221,-0.1719009,0.6870272,1.413958,0.003806025,0.05135955,-0.03498793,-0.01153099,-0.8457635,-0.373819,0.09234511,0.8057094,1.509409,0.1683493,0.4235134,1.222111,0.1852049,75.48919,313.2333,10.15992,True
0,2.944441,0.05731674,0.02722043,-0.04412882,-1.541161,-2.106923,2.846444,0.6470509,1.237956,0.006138951,-1.809766,-0.7948315,60,0,0.03343723,-0.001212499,0.04532442,-1.015998,-1.87517,-0.1720844,0.6860597,1.414039,0.00435707,0.05157605,-0.03621801,0.009760225,-0.8450524,-0.3743664,0.09204125,0.8049502,1.509391,0.1687974,0.4230629,1.224521,0.1843871,74.93261,312.8827,10.01956,True
0,2.955552,0.05637036,0.09972605,-0.02089019,-1.540665,-2.110425,2.845936,0.6458585,1.237972,0.006845087,-1.8188,-0.8137908,60,0,0.02908691,-0.01823355,0.04640834,-1.015328,-1.875946,-0.171849,0.6849124,1.414069,0.004967004,0.05488552,-0.03419345,0.01826508,-0.8445842,-0.3748294,0.09162286,0.8040371,1.509391,0.1692803,0.4229408,1.22709,0.1834962,74.2524,312.8903,10.32735,True
0,2.966663,0.04796759,0.1381219,-0.002805325,-1.540385,-2.113135,2.845775,0.6447685,1.238084,0.007611722,-1.82824,-0.8516168,60,0,0.03113836,-0.03315619,0.04745575,-1.014691,-1.876795,-0.1718074,0.6838284,1.414105,0.005511105,0.05904792,-0.04167508,0.01710162,-0.8444298,-0.3755407,0.09133551,0.8030951,1.509392,0.1698438,0.4231415,1.229823,0.1828572,73.47882,312.9352,10.64521,True
0,2.977774,0.03431023,0.1701303,0.02173922,-1.540553,-2.116351,2.845987,0.6436388,1.238096,0.008323908,-1.838288,-0.9067495,60,0,0.03409521,-0.06512873,0.03677467,-1.01432,-1.878933,-0.1711563,0.6825876,1.41412,0.006091118,0.0567087,-0.04901191,0.005347274,-0.8448746,-0.3765539,0.09146573,0.8021283,1.509355,0.1702785,0.4237064,1.232653,0.1826824,72.67613,312.816,10.64127,True
0,2.988885,0.01839209,0.1743861,0.02827655,-1.540486,-2.118293,2.846299,0.6425881,1.238097,0.008951157,-1.848823,-0.9488572,60,0,0.0382463,-0.08646086,0.03887178,-1.013627,-1.880762,-0.1707105,0.6812277,1.414121,0.006601304,0.05872378,-0.05322524,-0.001102734,-0.8451952,-0.3771093,0.09111926,0.801121,1.50941,0.1706453,0.4246168,1.235522,0.1830731,71.91217,312.5124,10.22954,True
0,2.999996,0.0163004,0.1626708,0.03046135,-1.540481,-2.119775,2.846234,0.6414945,1.238108,0.009577632,-1.859664,-0.9758053,60,0,0.03209589,-0.09176826,0.08684382,-1.010944,-1.881651,-0.1703936,0.6798701,1.414079,0.007178277,0.06291616,-0.06288092,0.003014054,-0.8453848,-0.3781425,0.09099436,0.800354,1.509477,0.1710599,0.4258213,1.238363,0.183949,71.21323,312.0613,9.446651,True
0,3.011107,0.01522914,0.1317655,0.02523256,-1.540398,-2.120152,2.846081,0.6404386,1.238178,0.01014242,-1.870392,-0.9649594,60,0,0.03033391,-0.09710823,0.1571689,-1.006511,-1.882192,-0.1703747,0.6786847,1.414139,0.007841885,0.06179632,-0.07249872,0.008274632,-0.8452191,-0.3796717,0.0913624,0.7993407,1.509485,0.1714537,0.4272536,1.241082,0.1851299,70.54955,311.5551,8.43391,True
0,3.022218,-0.03844711,0.07933716,-0.0241643,-1.538792,-2.118662,2.848341,0.6391778,1.238124,0.01069054,-1.880682,-0.924943,60,0,0.04359777,-0.08229019,0.2274099,-1.001381,-1.88167,-0.1715539,0.6772256,1.414005,0.008679658,0.06180584,-0.08860849,0.02621526,-0.8449875,-0.3813954,0.09177493,0.7984529,1.50951,0.1717225,0.428737,1.243642,0.1863843,69.936,310.8912,7.178022,True
0,3.033329,-0.1401756,0.01082303,-0.08795637,-1.536433,-2.11564,2.853254,0.6379375,1.23798,0.01108772,-1.890854,-0.9159416,60,0,0.1118242,-0.05390524,0.2057213,-1.000208,-1.880967,-0.175693,0.6760883,1.414002,0.009537399,0.06698227,-0.1035994,0.02816985,-0.8447595,-0.3837013,0.09239358,0.7973871,1.509471,0.1721527,0.4300341,1.24609,0.1875038,69.36638,310.2304,5.946484,True
0,3.04444,-0.2044469,-0.008561994,-0.1266897,-1.534112,-2.114313,2.857567,0.6365204,1.23787,0.0114561,-1.902665,-1.065498,60,0,0.1444818,-0.08390543,0.1703708,-0.9992527,-1.883129,-0.177317,0.6744375,1.413861,0.01038259,0.08065507,-0.1079121,0.01626729,-0.8451712,-0.385139,0.09206042,0.7962408,1.509415,0.1725455,0.4310093,1.248418,0.1882586,68.81873,309.4596,4.702766,True
0,3.055551,-0.2474159,0.02217613,-0.1583187,-1.530942,-2.114623,2.861981,0.634979,1.23762,0.01155668,-1.915671,-1.166472,60,0,0.1077312,-0.3010003,0.1023248,-0.99876,-1.896061,-0.1703635,0.6725953,1.413677,0.01107675,0.09023891,-0.1176936,0.02674169,-0.8446812,-0.3873195,0.09225243,0.7951052,1.509414,0.1729961,0.4316798,1.250405,0.1883683,68.26749,308.3491,3.250837,True
0,3.066662,-0.2219121,0.06909572,-0.1576351,-1.528776,-2.116637,2.863384,0.6336565,1.237419,0.0117653,-1.927059,-1.013246,60,0,0.07292585,-0.4073364,0.08117651,-0.997128,-1.905469,-0.1647754,0.6709778,1.413506,0.01171437,0.09144565,-0.1210414,0.04374847,-0.8437523,-0.3893988,0.0926053,0.7939594,1.509408,0.1734075,0.432057,1.251854,0.1876373,67.75026,307.3193,2.081228,True
0,3.077773,-0.1664426,0.1214237,-0.1423471,-1.526872,-2.119441,2.863404,0.6321762,1.237291,0.01183057,-1.937471,-0.9320648,60,0,0.04904708,-0.4508696,0.04614094,-0.9968116,-1.913489,-0.1600823,0.6692963,1.41334,0.01232663,0.08184598,-0.145621,0.06922922,-0.8421757,-0.3925128,0.09414115,0.7924716,1.509303,0.1738333,0.4320019,1.252849,0.1862351,67.2739,306.8381,1.726982,True
0,3.088884,-0.1310314,0.1034365,-0.1192054,-1.526238,-2.119726,2.863652,0.630795,1.237215,0.01213208,-1.945265,-0.6932907,60,0,0.04483123,-0.4231392,0.02594368,-0.9964467,-1.917172,-0.1586536,0.6679811,1.413287,0.01303616,0.08066398,-0.1616387,0.07550371,-0.8413341,-0.3957918,0.09548764,0.7912631,1.509247,0.1742419,0.4315614,1.253462,0.1844859,66.89607,306.8636,2.106446,True
0,3.099995,-0.1265462,0.05874623,-0.1031406,-1.525928,-2.11871,2.864842,0.6294284,1.237188,0.01237062,-1.9522,-0.62644,60,0,0.0378262,-0.3282828,0.01216727,-0.9968143,-1.917469,-0.1586834,0.6666467,1.413305,0.01356852,0.08274167,-0.163748,0.07220156,-0.841781,-0.3977661,0.09572626,0.7904704,1.509449,0.174683,0.4307492,1.254018,0.1828743,66.63718,307.3657,3.089012,True
0,3.111106,-0.1359683,-0.001967128,-0.09541638,-1.52574,-2.116282,2.866766,0.6280978,1.237345,0.01284862,-1.96017,-0.7210142,60,0,0.01529488,-0.1854129,0.03046041,-0.9961203,-1.913573,-0.1602669,0.6653447,1.413398,0.01427332,0.08816066,-0.1488354,0.06480825,-0.8414215,-0.399316,0.09558059,0.7892921,1.509469,0.1751854,0.4297055,1.254773,0.1817344,66.4654,307.9073,4.026361,True
0,3.122217,-0.1315812,-0.01791183,-0.08475815,-1.52538,-2.115414,2.868117,0.6267822,1.237542,0.01336086,-1.969592,-0.8492299,60,0,-0.006095195,-0.07452014,0.09453733,-0.9933383,-1.909534,-0.1616403,0.6641464,1.413647,0.01491991,0.09790631,-0.128652,0.05737847,-0.841577,-0.4003981,0.09480907,0.7884126,1.509615,0.1755187,0.4286847,1.255805,0.1810683,66.33831,308.155,4.493034,True
0,3.133328,-0.1349165,0.01827884,-0.09335479,-1.523609,-2.11648,2.869799,0.6254239,1.237652,0.01401493,-1.97983,-0.9201092,60,0,-0.002358325,-0.04686479,0.1627056,-0.9892451,-1.908295,-0.1624068,0.6626885,1.413867,0.0156444,0.09907962,-0.1212252,0.05955745,-0.8409565,-0.4019442,0.09468976,0.7872529,1.509686,0.1759885,0.4279335,1.257083,0.1806712,66.19542,308.0819,4.457653,True
0,3.144439,-0.1616608,0.07788888,-0.09539189,-1.521747,-2.118963,2.872622,0.6239326,1.237721,0.01457796,-1.989683,-0.8828276,60,0,0.02000135,-0.08961445,0.2030482,-0.9853792,-1.910815,-0.1620395,0.6611269,1.414106,0.0164254,0.1023491,-0.119175,0.06270549,-0.8406785,-0.4040645,0.0946269,0.786257,1.509643,0.1763631,0.4275272,1.258636,0.1803689,65.96487,307.8529,4.197611,True
0,3.15555,-0.1732396,0.1439899,-0.07096547,-1.520734,-2.122627,2.875143,0.6225438,1.237726,0.01521188,-1.999802,-0.9107724,60,0,0.0291789,-0.1812885,0.2210746,-0.9814973,-1.916195,-0.1597151,0.6594896,1.414226,0.01713511,0.1086845,-0.1278054,0.06683388,-0.8399227,-0.4064804,0.09486713,0.7850769,1.509752,0.1767301,0.4275407,1.260449,0.1801141,65.56482,307.7007,4.014614,True
0,3.166661,-0.1495478,0.1867344,-0.03829583,-1.520443,-2.125983,2.876194,0.6211462,1.237728,0.01563549,-2.010771,-0.9864921,60,0,0.03375389,-0.2761119,0.1815975,-0.9799815,-1.923342,-0.1562274,0.6575885,1.414118,0.01787928,0.1086406,-0.1352872,0.06993898,-0.8396276,-0.4088305,0.09514116,0.7840393,1.509767,0.177048,0.4280607,1.262395,0.1799837,64.99147,307.5141,3.763696,True
0,3.177772,-0.1206297,0.1932178,-0.02155127,-1.52012,-2.128404,2.876723,0.6198056,1.237692,0.01617616,-2.021233,-0.9368714,60,0,0.03858807,-0.3134089,0.1314873,-0.9794233,-1.929072,-0.1536402,0.6560342,1.414096,0.01854447,0.1064705,-0.1363116,0.06782852,-0.8390033,-0.411034,0.09557313,0.7828629,1.509842,0.17745,0.4290796,1.264333,0.1800454,64.32436,307.3594,3.425185,True
0,3.188883,-0.06823373,0.1731048,-0.004962564,-1.520215,-2.129601,2.875707,0.6185493,1.237637,0.01676446,-2.030519,-0.8322756,60,0,0.05497794,-0.302805,0.004621945,-0.9830282,-1.933047,-0.1526697,0.6547487,1.413977,0.01910535,0.09921436,-0.1223966,0.0712145,-0.8381495,-0.4122021,0.09540748,0.7816572,1.509823,0.1778503,0.4304405,1.266236,0.1803701,63.64069,307.3078,3.062867,True
0,3.199994,-0.04047236,0.1507841,-0.001973525,-1.520055,-2.13048,2.875203,0.6173213,1.237602,0.01733288,-2.039683,-0.8258712,60,0,0.0580761,-0.2900291,-0.02521987,-0.9838836,-1.936615,-0.151454,0.6533368,1.413941,0.01970756,0.1036804,-0.115087,0.08185497,-0.8373735,-0.4138909,0.09509509,0.7806554,1.509952,0.1782212,0.4318582,1.268191,0.1809499,62.97911,307.1975,2.528603,True
0,3.211105,-0.01484144,0.1263223,-1.643226E-05,-1.520015,-2.130913,2.87451,0.6163151,1.237503,0.01794526,-2.048296,-0.7748508,60,0,0.05478539,-0.2313959,-0.0997521,-0.9873766,-1.937794,-0.1513014,0.6525617,1.413972,0.02015623,0.09426188,-0.1161823,0.09899189,-0.835831,-0.4159024,0.09567379,0.7796483,1.509987,0.1786506,0.433123,1.270226,0.1816769,62.34983,306.9601,1.843021,True
0,3.222216,-0.01799256,0.1284637,0.005332984,-1.519778,-2.132509,2.875083,0.6151421,1.237539,0.01857716,-2.057773,-0.8577996,60,0,0.04218682,-0.1983086,-0.09859093,-0.9877441,-1.9395,-0.150276,0.6512058,1.413805,0.02089509,0.08688808,-0.1140037,0.1044168,-0.8345867,-0.4175842,0.09606022,0.7785869,1.50994,0.1791377,0.434103,1.272359,0.1823796,61.75666,306.6922,1.164742,True
0,3.233327,-0.02432441,0.1508528,0.0149187,-1.519619,-2.135032,2.875696,0.6141567,1.237504,0.01927993,-2.067632,-0.88772,60,0,0.03303102,-0.1556559,-0.06443384,-0.9872413,-1.939652,-0.1502446,0.6502988,1.413791,0.02141684,0.07515655,-0.1052613,0.09395859,-0.8339843,-0.4188325,0.09646289,0.7777023,1.509942,0.1795199,0.4348839,1.274458,0.1828487,61.22148,306.4984,0.6560585,True
0,3.244438,-0.02205982,0.1871291,0.0339633,-1.519631,-2.138469,2.876026,0.6132255,1.237479,0.01998192,-2.078623,-0.9917171,60,0,0.01861255,-0.1193723,-0.0121281,-0.985393,-1.93959,-0.1499472,0.6488783,1.413712,0.02204001,0.07090785,-0.09340625,0.08237312,-0.8336546,-0.4198484,0.09643173,0.7767847,1.509907,0.1799301,0.4355901,1.276451,0.1829629,60.72327,306.451,0.4333399,True
0,3.255549,-0.008038111,0.2031873,0.05402187,-1.520115,-2.141535,2.875821,0.6123474,1.237363,0.02062604,-2.089656,-0.9907698,60,0,0.001797382,-0.1139632,0.02312452,-0.9837738,-1.940586,-0.148822,0.6480229,1.413661,0.02255157,0.06256994,-0.07624987,0.08047565,-0.8327609,-0.4204382,0.09623652,0.7759604,1.509934,0.1803273,0.4363351,1.278333,0.1827494,60.23033,306.6182,0.5463867,True
0,3.26666,0.004869873,0.2053707,0.06667348,-1.520621,-2.14399,2.875378,0.6113832,1.237315,0.0211848,-2.100203,-0.9482769,60,0,-0.004626207,-0.1139232,0.01782577,-0.9838383,-1.942241,-0.1476526,0.6468384,1.413479,0.0230706,0.04888751,-0.06869651,0.08814016,-0.831563,-0.4212755,0.09667487,0.775198,1.50997,0.1807246,0.4372548,1.280109,0.1823399,59.70849,306.9573,0.923182,True
0,3.277771,0.01661133,0.183014,0.06555762,-1.520973,-2.14539,2.874838,0.6106789,1.237201,0.02169591,-2.110289,-0.9074107,60,0,-0.003724124,-0.1128532,-0.01200772,-0.9848263,-1.943924,-0.1467101,0.6460526,1.413342,0.02348909,0.0403108,-0.07178189,0.08607785,-0.8307353,-0.4227239,0.09741817,0.7744782,1.509975,0.1811194,0.4383813,1.28187,0.1819293,59.13829,307.3372,1.333682,True
0,3.288882,0.02823826,0.1339843,0.04853999,-1.52092,-2.145197,2.874141,0.6099737,1.237119,0.02212825,-2.120284,-0.9006225,60,0,0.001408756,-0.1075399,-0.05145369,-0.9867284,-1.945447,-0.1461418,0.6452231,1.413178,0.02387074,0.02214416,-0.07044706,0.07880687,-0.8304263,-0.4237542,0.09838623,0.7737539,1.510004,0.181529,0.4396682,1.283703,0.1816377,58.51952,307.5954,1.529785,True
0,3.299993,0.03562215,0.06469503,0.03055917,-1.521135,-2.143584,2.873449,0.6093709,1.237094,0.02253565,-2.130239,-0.8970551,60,0,-0.005048059,-0.08192688,-0.08869097,-0.988803,-1.945921,-0.1456528,0.644654,1.413102,0.02420893,0.01702515,-0.04690606,0.07265595,-0.8299012,-0.4235591,0.09814441,0.7729599,1.509985,0.1819772,0.4410378,1.285651,0.181474,57.8847,307.6754,1.443281,True
0,3.311104,0.03238904,-0.006726992,0.0158808,-1.521467,-2.141132,2.873054,0.6088736,1.237025,0.02285594,-2.140199,-0.8969598,60,0,-0.009215251,-0.04993943,-0.1035704,-0.9905292,-1.945587,-0.1456009,0.6440847,1.413073,0.02453405,0.02055912,-0.02034236,0.07603303,-0.8288892,-0.4228612,0.09732708,0.7722821,1.510057,0.1823806,0.4424914,1.287627,0.1813294,57.26421,307.5653,1.114915,True
0,3.322215,0.02718236,-0.04933234,0.02138557,-1.522475,-2.139529,2.872823,0.6083457,1.236922,0.02325496,-2.150296,-0.9096836,60,0,-0.02601808,-0.02428879,-0.08534753,-0.9907172,-1.945112,-0.1449758,0.6431253,1.412948,0.02496204,0.01852207,-0.01716613,0.08140767,-0.8278164,-0.4231198,0.09737395,0.7716308,1.510109,0.1828064,0.4439255,1.289635,0.1810719,56.6526,307.2758,0.598985,True
0,3.333326,0.0145579,-0.09193554,0.03121927,-1.523834,-2.137244,2.872992,0.6079662,1.236878,0.02358028,-2.160702,-0.9374124,60,0,-0.03633424,-0.004002976,-0.04586524,-0.9900935,-1.944213,-0.1447412,0.6426203,1.413013,0.02534389,0.01206011,-0.0235014,0.0824837,-0.8269978,-0.4241665,0.09830952,0.7710059,1.510281,0.1831009,0.4452671,1.291656,0.1805428,56.04855,306.9446,0.1049862,True
0,3.344437,-0.001247033,-0.1121659,0.04634906,-1.52536,-2.135719,2.873509,0.6076381,1.236823,0.02401322,-2.171051,-0.9313225,60,0,-0.03403971,-0.001901628,-0.01924814,-0.9895065,-1.94432,-0.1444485,0.6418734,1.413072,0.02574366,0.009814091,-0.02553853,0.07396685,-0.8265552,-0.4247368,0.09866372,0.7705038,1.510196,0.1833231,0.4465068,1.293621,0.1796279,55.42718,306.7118,359.8357,True
0,3.355548,-0.02153667,-0.1015541,0.04331119,-1.525753,-2.135068,2.874385,0.6073554,1.236769,0.02445126,-2.181562,-0.9460226,60,0,-0.03172126,-0.008319338,0.02015304,-0.9879161,-1.944392,-0.1441353,0.6413782,1.413173,0.02613568,0.01711585,-0.00830977,0.04100346,-0.8271842,-0.4239672,0.09771538,0.7701335,1.510178,0.1836508,0.4476492,1.295511,0.1783596,54.78755,306.6874,359.9195,True
0,3.366659,-0.04188561,-0.08456402,0.03493847,-1.525937,-2.134751,2.875538,0.6070406,1.236741,0.02484387,-2.192123,-0.9495822,60,0,-0.03271034,-0.0115201,0.03613477,-0.987074,-1.944688,-0.1436493,0.640748,1.413131,0.02650577,0.01910204,-0.003919415,0.02290808,-0.8274777,-0.4236762,0.09724746,0.769702,1.510031,0.1841174,0.4487391,1.297306,0.1768163,54.1685,306.7478,0.2215779,True
0,3.37777,-0.06969145,-0.05799357,0.02767341,-1.525882,-2.135049,2.877196,0.6067641,1.236728,0.02517661,-2.202705,-0.9512258,60,0,-0.04024417,-0.02852413,0.03936739,-0.9863694,-1.945702,-0.1423659,0.6402328,1.413148,0.02689537,0.02432519,-0.004975546,0.01432086,-0.8276433,-0.4237936,0.096889,0.7693074,1.510063,0.1844277,0.4498592,1.298989,0.1751508,53.5532,306.8881,0.6862131,True
0,3.388881,-0.0963085,-0.03031742,0.03424306,-1.526314,-2.135757,2.879219,0.6065702,1.236662,0.02547336,-2.213108,-0.9347914,60,0,-0.03629549,-0.05516436,0.01057489,-0.9870303,-1.947485,-0.1410562,0.639704,1.413058,0.02732667,0.02217821,-0.01138468,0.01962149,-0.8271938,-0.4243622,0.09710604,0.7688506,1.510187,0.1847846,0.4511031,1.300538,0.1735587,52.94675,307.0024,1.099987,True
0,3.399992,-0.09839208,-0.02497267,0.03957064,-1.526865,-2.135797,2.880254,0.6063397,1.236655,0.02569181,-2.22354,-0.9372707,60,0,-0.03534406,-0.06581964,0.0009778403,-0.9871944,-1.948838,-0.1399536,0.6391826,1.413048,0.02770609,0.0191328,-0.009314761,0.03029308,-0.8269461,-0.4245806,0.09696703,0.7684541,1.510413,0.1850866,0.4524964,1.301975,0.1721871,52.37136,307.0711,1.352862,True
0,3.411103,-0.09834587,-0.01430141,0.04593173,-1.52751,-2.136187,2.881365,0.6061635,1.236596,0.02591592,-2.233924,-0.9319947,60,0,-0.01863586,-0.08826929,-0.03641289,-0.9886916,-1.951148,-0.1390759,0.6385775,1.41292,0.02802607,0.02028951,-0.008322995,0.03774668,-0.8262926,-0.4247597,0.09684399,0.7681217,1.510455,0.1854004,0.4540735,1.30328,0.1710975,51.85316,307.136,1.467869,True
0,3.422215,-0.09935891,-0.01109266,0.05125923,-1.528234,-2.136308,2.882387,0.6060169,1.236566,0.02607211,-2.243259,-0.8362653,60,0,-0.01545119,-0.08509406,-0.04283345,-0.9893622,-1.952265,-0.1384996,0.6383715,1.412965,0.02824339,0.02357761,-0.0030609,0.03987606,-0.8259816,-0.424795,0.09637048,0.7676768,1.510354,0.1856571,0.4558098,1.304478,0.1702951,51.38211,307.1856,1.450798,True
0,3.433326,-0.1004036,0.002766801,0.05549109,-1.528845,-2.136994,2.883563,0.6058965,1.236574,0.02630073,-2.252558,-0.8371039,60,0,-0.01643275,-0.07550249,-0.03749792,-0.9895497,-1.952897,-0.1379406,0.6380486,1.413005,0.02852446,0.02673145,0.00123341,0.03135464,-0.8259022,-0.4245835,0.09581841,0.7674348,1.510348,0.1859399,0.45758,1.305696,0.1697389,50.92865,307.1577,1.277117,True
0,3.444437,-0.1046965,0.01127742,0.05337391,-1.52915,-2.137498,2.884879,0.6058311,1.236606,0.02660903,-2.26193,-0.8422973,60,0,-0.0173801,-0.06911639,-0.02364254,-0.9892056,-1.953608,-0.1373488,0.6377242,1.413075,0.02879119,0.02556729,0.0002465546,0.02280387,-0.8264391,-0.424642,0.09555528,0.7672608,1.510445,0.1862034,0.4593638,1.306916,0.1693245,50.5002,307.1241,1.05022,True
0,3.455548,-0.103747,0.03256032,0.04478079,-1.529024,-2.138653,2.886023,0.6057587,1.236632,0.02684146,-2.271553,-0.8654814,60,0,-0.02236991,-0.04992605,0.01687453,-0.9876493,-1.953204,-0.1371453,0.6375592,1.413176,0.02899042,0.02238957,0.007792067,0.01650752,-0.8264886,-0.424139,0.09505568,0.7671256,1.51042,0.186434,0.4611462,1.308145,0.1689358,50.1008,307.1052,0.8308359,True
0,3.466659,-0.09633704,0.04428394,0.04254128,-1.529171,-2.139587,2.886965,0.6056752,1.236704,0.02709126,-2.281299,-0.8762335,60,0,-0.02110933,-0.03928995,0.04030561,-0.9864892,-1.953174,-0.1370367,0.6375933,1.413352,0.02919561,0.02236287,0.01103833,0.01015159,-0.8263874,-0.4239015,0.09459175,0.7669179,1.510485,0.1866744,0.4629456,1.309383,0.1685006,49.70221,307.1318,0.6963872,True
0,3.47777,-0.08353458,0.04430494,0.04454926,-1.529665,-2.140136,2.887485,0.6056101,1.23666,0.02731889,-2.290968,-0.8684442,60,0,-0.02620212,-0.0168962,0.05951811,-0.985213,-1.952249,-0.1371001,0.6374545,1.413366,0.02940661,0.02352254,0.01525183,0.01443551,-0.8260508,-0.423498,0.09401678,0.7667844,1.51051,0.1869222,0.464793,1.310621,0.1679836,49.2894,307.1544,0.6007587,True
