loc,t,aDotUA,bDotUA,gDotUA,aUA,bUA,gUA,xUA,yUA,zUA,qE,qDotE,emgA,emgB,aDotSH,bDotSH,gDotSH,aSH,bSH,gSH,xSH,ySH,zSH,aDotUB,bDotUB,gDotUB,aUB,bUB,gUB,xUB,yUB,zUB,xHand,yHand,zHand,aHand,bHand,gHand,enable
2,0,0.01160074,0.08763799,-0.02381447,-1.453028,-2.158387,-3.076398,0.6901038,1.241782,-0.003138453,-1.416787,0.01538441,0,0,0.02458668,-0.04277458,0.01550155,-0.9385928,-1.997355,0.1074855,0.693718,1.41203,0.0268299,0.05304073,0.004732564,0.0339775,-0.6486651,-0.3127076,0.05993737,0.7824061,1.51392,0.2110682,0.4723531,1.026145,0.1408671,65.0814,128.604,193.3599,True
2,0.01111111,0.005067915,0.08760145,-0.03866735,-1.452181,-2.159503,-3.076081,0.6898911,1.242052,-0.003024131,-1.416545,0.02143452,0,0,0.03106279,-0.04283632,0.02931293,-0.9378577,-1.998145,0.1073384,0.6936729,1.412282,0.02698454,0.05400478,0.009035945,0.02653239,-0.6485852,-0.3123434,0.05905107,0.782429,1.513965,0.2112901,0.4735398,1.025043,0.143001,64.47727,124.4945,187.4053,True
2,0.02222222,-0.0005812757,0.08646165,-0.07270247,-1.45031,-2.160553,-3.075757,0.6897228,1.242359,-0.002905399,-1.416419,0.01033216,0,0,0.03010198,-0.04180799,0.04636616,-0.9368223,-1.998824,0.1074439,0.6935942,1.41252,0.02718729,0.06248457,0.01649778,0.02218667,-0.6485058,-0.3115905,0.05748513,0.7823918,1.513828,0.2115571,0.4755964,1.023091,0.1465136,63.72013,124.4869,185.6458,True
2,0.03333334,-0.002983443,0.07894561,-0.102498,-1.44829,-2.161337,-3.075531,0.6895373,1.24256,-0.002752632,-1.41681,-0.03630395,0,0,0.02068235,-0.03437163,0.06986999,-0.9354561,-1.99924,0.1077821,0.6934323,1.412722,0.02740917,0.05916402,0.01868824,0.01372705,-0.6485969,-0.3111633,0.05666647,0.7824292,1.513865,0.2117986,0.4779397,1.020974,0.1505752,62.8236,125.4526,184.7491,True
2,0.04444445,0.003375195,0.06509763,-0.1089249,-1.446886,-2.161722,-3.075712,0.6893458,1.242788,-0.002702653,-1.417163,-0.03063102,0,0,0.01763549,-0.02695077,0.09014694,-0.9337767,-1.99952,0.1078676,0.6933656,1.412949,0.02761853,0.06338474,0.02189,0.01049713,-0.6484254,-0.3106647,0.05544302,0.7823894,1.513954,0.2119893,0.4801628,1.019143,0.1544077,62.05898,126.4514,183.9771,True
2,0.05555556,0.006701976,0.0587352,-0.09616075,-1.446338,-2.162216,-3.07575,0.6892028,1.242962,-0.002638757,-1.417355,-0.01681652,0,0,0.0124992,-0.01846822,0.1168352,-0.9315349,-1.999651,0.1079664,0.6933808,1.413167,0.02785665,0.06343193,0.02400393,0.01370057,-0.6481852,-0.3100676,0.05435299,0.7825837,1.514051,0.2122365,0.4818771,1.017874,0.1574107,61.52457,127.4135,183.4753,True
2,0.06666667,0.01430012,0.0491865,-0.08343121,-1.445857,-2.162463,-3.076133,0.6890111,1.243134,-0.002598435,-1.417233,0.01149228,0,0,0.01679239,-0.01209633,0.1178907,-0.9301495,-1.999728,0.10767,0.6933208,1.413346,0.02806142,0.06347895,0.02931711,0.01586361,-0.6479242,-0.3092424,0.05297028,0.782685,1.514087,0.2124686,0.4827901,1.017285,0.1592326,61.25974,128.1315,183.244,True
2,0.07777778,0.01006679,0.05025365,-0.08019379,-1.44513,-2.163229,-3.075991,0.6888285,1.243361,-0.002686054,-1.417208,0.001331219,0,0,0.02526228,-0.008902589,0.1061274,-0.9294603,-1.999762,0.1070548,0.6931646,1.413439,0.02827546,0.06559423,0.02824258,0.01476172,-0.647766,-0.309054,0.05195028,0.7827661,1.514041,0.2126453,0.4828429,1.017384,0.1597684,61.24157,128.4216,183.2255,True
2,0.08888889,0.0003641695,0.05660729,-0.09076925,-1.443751,-2.164185,-3.075547,0.6886723,1.24354,-0.002672791,-1.416998,0.01918369,0,0,0.0368012,-0.02274629,0.0857852,-0.9292062,-2.000616,0.1068748,0.6929688,1.41352,0.02847314,0.0645346,0.03570905,0.01375827,-0.6476179,-0.3079683,0.05039739,0.7828448,1.514039,0.2128457,0.4821913,1.018057,0.1591787,61.42619,128.3352,183.4426,True
2,0.1,-0.0008269399,0.06404506,-0.1024908,-1.442274,-2.165341,-3.075385,0.6884761,1.243788,-0.002586514,-1.41715,-0.01508707,0,0,0.04204705,-0.03340505,0.07933666,-0.9286155,-2.001616,0.1068476,0.6928499,1.413641,0.02867836,0.06873018,0.03785139,0.009449545,-0.6476083,-0.3072465,0.0490272,0.7827554,1.513936,0.2131139,0.4810438,1.019115,0.1577963,61.7327,128.1069,183.899,True
2,0.1111111,-0.008403502,0.07785936,-0.1120308,-1.440829,-2.166753,-3.07485,0.6882954,1.24404,-0.002448857,-1.417479,-0.02915041,0,0,0.04519606,-0.03446548,0.07292326,-0.9280062,-2.002095,0.1066378,0.6925466,1.413741,0.02893147,0.07197776,0.03035277,0.01362211,-0.647251,-0.3072641,0.04798058,0.7828212,1.513953,0.2133552,0.4797325,1.020355,0.1559649,62.09956,127.9164,184.5407,True
2,0.1222222,-0.01909427,0.0927548,-0.1130199,-1.439711,-2.168445,-3.074125,0.6881599,1.244264,-0.002341747,-1.417492,0.0001448723,0,0,0.03665828,-0.04296125,0.07614874,-0.9271423,-2.003158,0.1071496,0.6923923,1.413876,0.02918676,0.07420659,0.031378,0.01997656,-0.6469532,-0.3065158,0.04649373,0.7828722,1.513973,0.2135993,0.4784596,1.021551,0.1540729,62.45438,127.8141,185.2606,True
2,0.1333333,-0.02543238,0.1119353,-0.103406,-1.439059,-2.170402,-3.073408,0.6879907,1.244438,-0.002237737,-1.417671,-0.01689915,0,0,0.03241012,-0.05362328,0.08573499,-0.9259683,-2.004588,0.107792,0.6919298,1.41389,0.02948707,0.079624,0.03025987,0.02627157,-0.6465899,-0.3060035,0.04504071,0.7830882,1.514139,0.213898,0.4773458,1.022535,0.152476,62.72084,127.748,185.8968,True
2,0.1444445,-0.0369985,0.1417844,-0.0809816,-1.43912,-2.173069,-3.072239,0.6878932,1.244593,-0.002134681,-1.417886,-0.01846556,0,0,0.03562362,-0.06324703,0.09528056,-0.9247018,-2.006004,0.1081472,0.69174,1.414033,0.02973127,0.07858332,0.038785,0.02633986,-0.64624,-0.3048281,0.04326891,0.783159,1.514163,0.2141482,0.4765716,1.02321,0.151391,62.88359,127.7316,186.3797,True
2,0.1555556,-0.05285282,0.1652231,-0.06276654,-1.439152,-2.175665,-3.070769,0.6877778,1.244737,-0.002037555,-1.417953,-0.005118935,0,0,0.03562976,-0.07072359,0.1016547,-0.9235193,-2.007501,0.1086636,0.6915653,1.414211,0.02995709,0.08498274,0.03662777,0.02729117,-0.6459715,-0.3042672,0.04172774,0.783124,1.514224,0.2142546,0.4762621,1.023533,0.1509247,62.94393,127.7712,186.6601,True
2,0.1666667,-0.05285282,0.1652231,-0.06276654,-1.439152,-2.175665,-3.070769,0.6877778,1.244737,-0.002037555,-1.418169,-0.01921183,0,0,0.03562976,-0.07072359,0.1016547,-0.9235193,-2.007501,0.1086636,0.6915653,1.414211,0.02995709,0.08498274,0.03662777,0.02729117,-0.6459715,-0.3042672,0.04172774,0.783124,1.514224,0.2142546,0.4764376,1.023506,0.1511037,62.90746,127.8482,186.7236,True
2,0.1777778,-0.05591502,0.1673778,-0.04782939,-1.438741,-2.179573,-3.068847,0.6876442,1.245009,-0.001967102,-1.417724,0.04230468,0,0,0.005512994,-0.1131645,0.08148324,-0.9227379,-2.012206,0.1122213,0.6911306,1.414317,0.03029743,0.0881907,0.02379817,0.03036419,-0.6451705,-0.3045536,0.03986885,0.7832682,1.514279,0.2145793,0.4770872,1.023173,0.1518524,62.79253,127.9852,186.5847,True
2,0.1888889,-0.03990701,0.1269157,-0.05323183,-1.437979,-2.179647,-3.068896,0.6876969,1.245147,-0.001910061,-1.418668,-0.08805072,0,0,0.00219648,-0.1291077,0.07187611,-0.9224998,-2.014725,0.1138272,0.6910293,1.414403,0.03044152,0.08075284,0.03021056,0.03051476,-0.6448157,-0.303651,0.03850478,0.7833152,1.514284,0.214731,0.4780007,1.022614,0.1529743,62.60429,128.1911,186.3252,True
2,0.2,-0.03034165,0.09176569,-0.06284675,-1.436933,-2.179689,-3.068807,0.6876991,1.245267,-0.001889616,-1.418319,0.03834932,0,0,6.06738E-05,-0.1344305,0.07507193,-0.9216732,-2.01685,0.1151601,0.6908104,1.414364,0.03067189,0.07116327,0.03343467,0.0296087,-0.6445521,-0.3029222,0.03739797,0.7833147,1.514151,0.2149336,0.4792474,1.021939,0.1543081,62.33996,128.5554,186.1298,True
2,0.2111111,-0.01213605,0.01935009,-0.06820951,-1.435845,-2.177488,-3.069555,0.687815,1.245326,-0.001934826,-1.417488,0.07376153,0,0,-0.01157682,-0.1109393,0.07307167,-0.9208657,-2.017399,0.1160776,0.690788,1.414292,0.03074721,0.06365161,0.02494344,0.02753538,-0.6443449,-0.3030683,0.03706481,0.7833998,1.514172,0.215049,0.4804459,1.021231,0.1556752,62.06964,128.9663,185.8535,True
2,0.2222222,0.005009785,-0.03601128,-0.06933621,-1.434845,-2.175281,-3.070489,0.6879046,1.245451,-0.001994669,-1.416974,0.04479281,0,0,-0.01685682,-0.08852882,0.06569983,-0.9203991,-2.017716,0.1166563,0.6908653,1.414301,0.03085232,0.05287584,0.01968689,0.02020299,-0.6444115,-0.3031796,0.03687173,0.7834566,1.514156,0.2152006,0.4812894,1.020604,0.1568105,61.82587,129.3406,185.5905,True
2,0.2333333,0.0296521,-0.1403757,-0.0768295,-1.433386,-2.170155,-3.072352,0.6881814,1.245556,-0.002136528,-1.41631,0.06018792,0,0,-0.02203919,-0.02347812,0.04564535,-0.9203895,-2.015433,0.1156856,0.6912708,1.414402,0.03081095,0.03465397,0.02618883,0.01198988,-0.6445388,-0.3021159,0.03633484,0.783468,1.514294,0.2153026,0.4816655,1.020155,0.157476,61.64661,129.6492,185.4386,True
2,0.2444444,0.05199219,-0.2799459,-0.109806,-1.430529,-2.162314,-3.074783,0.6884305,1.245716,-0.00230661,-1.415769,0.04732653,0,0,-0.03037255,0.04050168,0.03413103,-0.9200976,-2.012286,0.1144011,0.6914768,1.414444,0.03083029,0.02489939,0.02308576,0.001461718,-0.6448706,-0.3018764,0.03619023,0.7835753,1.51433,0.2153912,0.4815019,1.019961,0.1575015,61.54688,129.7727,185.3706,True
2,0.2555556,0.05624099,-0.339618,-0.1235823,-1.428404,-2.15696,-3.076209,0.6885681,1.245862,-0.002404809,-1.415163,0.05358226,0,0,-0.0345268,0.0735498,0.02997661,-0.9196135,-2.010164,0.1136672,0.6918893,1.414659,0.03090429,0.02156648,0.02101529,-0.00702382,-0.6452147,-0.3016118,0.03588184,0.7836628,1.514382,0.2155156,0.4808368,1.020071,0.1568441,61.5173,129.7288,185.4298,True
2,0.2666667,0.04768291,-0.4014545,-0.1404293,-1.425785,-2.150395,-3.077369,0.6887746,1.245991,-0.002523214,-1.414764,0.0336573,0,0,-0.03972428,0.1055298,0.03008465,-0.9190286,-2.007282,0.1125508,0.6920538,1.414746,0.03091052,0.01942725,0.01569614,-0.007031154,-0.645375,-0.3015873,0.03562963,0.7837198,1.514369,0.2156695,0.4796359,1.020503,0.1554824,61.55871,129.6358,185.6333,True
2,0.2777778,0.04779193,-0.4259456,-0.1339931,-1.424273,-2.145023,-3.07864,0.6889646,1.246154,-0.002553701,-1.415131,-0.03588513,0,0,-0.04502752,0.1119417,0.02905814,-0.918716,-2.005751,0.1122272,0.6923523,1.414899,0.03089294,0.02039592,0.01252423,-0.01239325,-0.6457132,-0.3016778,0.03554281,0.7838528,1.514361,0.2157113,0.4778444,1.021255,0.1534049,61.67875,129.5115,186.0251,True
2,0.2888889,0.04583248,-0.430179,-0.1169214,-1.423284,-2.140012,-3.07981,0.6891146,1.246242,-0.002573282,-1.415904,-0.0698762,0,0,-0.03863665,0.1055139,0.03326629,-0.9180811,-2.004606,0.1117143,0.6924233,1.414984,0.03095332,0.02032043,0.0125484,-0.01772255,-0.6461191,-0.3015791,0.03515426,0.7838936,1.514415,0.2157848,0.4757653,1.022278,0.1507663,61.90329,129.2471,186.5842,True
2,0.3,0.05776921,-0.4034696,-0.08831654,-1.423129,-2.136465,-3.081399,0.6892033,1.246239,-0.002545685,-1.416386,-0.04248729,0,0,-0.02065326,0.07028055,0.03520765,-0.9176433,-2.00536,0.1116789,0.6926179,1.415061,0.03110582,0.01916009,0.009381704,-0.02305097,-0.6465239,-0.3017093,0.03517343,0.7840705,1.514357,0.2158747,0.473654,1.023459,0.1478056,62.19244,128.8852,187.2304,True
2,0.3111111,0.069547,-0.3437588,-0.06936163,-1.422972,-2.134739,-3.082784,0.6892471,1.246311,-0.002441138,-1.416794,-0.03744197,0,0,0.00678556,0.02225983,0.02321077,-0.9179682,-2.007084,0.1116685,0.6925759,1.415059,0.03115329,0.01477647,-0.0001541842,-0.02943742,-0.6470816,-0.3022392,0.03559288,0.7842112,1.51437,0.215924,0.4717019,1.024665,0.1448985,62.49923,128.3665,187.8126,True
2,0.3222222,0.08013786,-0.2531587,-0.05685102,-1.422725,-2.135094,-3.083974,0.6892962,1.246446,-0.002259582,-1.416698,0.008868335,0,0,0.03741381,-0.01083382,0.0005787946,-0.9188806,-2.008571,0.1110959,0.6926305,1.415119,0.03123155,0.008120146,-0.007496651,-0.0453789,-0.6483114,-0.3028198,0.03627358,0.784477,1.51424,0.2160105,0.4700397,1.025748,0.142415,62.79611,127.8214,188.2863,True
2,0.3333333,0.09697613,-0.1540582,-0.05719653,-1.422182,-2.13649,-3.08531,0.6892357,1.246583,-0.002014071,-1.416588,0.008059424,0,0,0.05329445,-0.01299333,-0.01443644,-0.919548,-2.008621,0.1101172,0.6927116,1.415188,0.03132817,0.00581675,-0.007420359,-0.05706628,-0.64935,-0.3029061,0.0363154,0.7846847,1.514188,0.2160225,0.4687575,1.026596,0.1406904,63.03463,127.3398,188.6177,True
2,0.3444445,0.1105718,-0.04536983,-0.06072862,-1.421524,-2.139573,-3.086514,0.6890948,1.246768,-0.001771897,-1.416492,0.007289652,0,0,0.05966254,-0.0002045184,-0.02722661,-0.9202303,-2.007973,0.1088437,0.6928668,1.415303,0.03138733,0.0002054274,-0.001952418,-0.07719716,-0.6509687,-0.3025111,0.03617026,0.7851272,1.514076,0.2161568,0.4679864,1.027174,0.1399275,63.16187,127.0725,188.8422,True
2,0.3555556,0.1242255,0.01963119,-0.06737621,-1.420626,-2.141714,-3.087969,0.689018,1.246981,-0.001545608,-1.416279,0.01798664,0,0,0.05972665,0.02538344,-0.0346213,-0.920666,-2.006356,0.1071816,0.6933296,1.415491,0.03136528,-0.002048619,0.002366712,-0.08672316,-0.6521703,-0.3023336,0.03600594,0.7852309,1.514035,0.2161991,0.4677856,1.027505,0.1402039,63.18081,127.0849,188.9523,True
2,0.3666667,0.1528834,0.09533545,-0.06246443,-1.420303,-2.14546,-3.090077,0.6887982,1.247169,-0.001306653,-1.416107,0.01346219,0,0,0.05886183,0.062652,-0.02600317,-0.9204497,-2.003944,0.1051072,0.6936429,1.415687,0.03139421,-0.005721495,0.007907178,-0.1196624,-0.6546332,-0.3017151,0.03570979,0.7854877,1.51405,0.2162816,0.4680427,1.02765,0.1414603,63.12423,127.373,188.9323,True
2,0.3777778,0.176342,0.1262952,-0.05422364,-1.420135,-2.147715,-3.092521,0.688694,1.247321,-0.001283437,-1.415997,0.007890538,0,0,0.06643941,0.09031904,-0.02385172,-0.9204252,-2.001484,0.1026843,0.6940417,1.415917,0.03138176,-0.006049186,0.01017153,-0.1420085,-0.6568484,-0.301415,0.03554415,0.7857375,1.514112,0.2162533,0.468658,1.027706,0.1434829,63.02731,127.8886,188.7992,True
2,0.3888889,0.2158086,0.134912,-0.04716261,-1.419946,-2.149569,-3.096029,0.6884611,1.247555,-0.001082808,-1.415423,0.05044413,0,0,0.08479635,0.1360276,-0.01319535,-0.9198676,-1.997542,0.09870101,0.6944478,1.416179,0.03133601,-0.01940316,0.01577629,-0.1811974,-0.6601902,-0.3006323,0.03554628,0.7861085,1.514106,0.2162252,0.4694374,1.027786,0.1459366,62.93149,128.4993,188.5625,True
2,0.4,0.2477446,0.1200472,-0.0527598,-1.41916,-2.150179,-3.099731,0.6882279,1.247712,-0.0009649396,-1.415033,0.03080672,0,0,0.1010119,0.1838868,-0.006787781,-0.9194793,-1.993046,0.09422637,0.6950181,1.416435,0.03123137,-0.02606893,0.01591137,-0.1992246,-0.6631809,-0.30005,0.03564455,0.786319,1.514194,0.2161967,0.4701784,1.027983,0.1485558,62.88029,129.0924,188.2757,True
2,0.4111111,0.3233833,0.04134037,-0.0693141,-1.417651,-2.147879,-3.106319,0.6879048,1.248199,-0.0006586611,-1.414285,0.06489141,0,0,0.1266375,0.2211115,-0.02282449,-0.9199395,-1.988378,0.08915997,0.6958311,1.416835,0.03114119,-0.03160372,0.02987821,-0.2161056,-0.6661913,-0.2986095,0.03496011,0.7866337,1.51421,0.2161957,0.4707302,1.028382,0.1510163,62.88327,129.6215,187.9794,True
2,0.4222222,0.3861734,-0.04592659,-0.09425822,-1.415568,-2.14468,-3.11299,0.6876321,1.248441,-0.0004085004,-1.413931,0.0260264,0,0,0.1511855,0.2636763,-0.04417154,-0.920765,-1.982787,0.08328584,0.6963956,1.417149,0.03099939,-0.03502944,0.04278851,-0.2340962,-0.669475,-0.2967877,0.03400058,0.7870739,1.514113,0.2162305,0.4708132,1.029046,0.1531473,62.93626,130.0855,187.7861,True
2,0.4333333,0.4255198,-0.109801,-0.1158183,-1.413483,-2.141415,-3.119568,0.6873646,1.2488,-0.0002481043,-1.412356,0.1396805,0,0,0.1640096,0.2838863,-0.05165271,-0.9212178,-1.977998,0.07814966,0.6968756,1.417395,0.03089005,-0.03959946,0.05146357,-0.2563462,-0.6730357,-0.2951882,0.03336488,0.7874162,1.514167,0.2163129,0.4702543,1.030031,0.1547651,63.02295,130.5111,187.7321,True
2,0.4444444,0.5191268,-0.2673621,-0.1643516,-1.409922,-2.133325,-3.129586,0.6869376,1.249112,-6.899238E-05,-1.411532,0.06336156,0,0,0.1864827,0.3200344,-0.05915394,-0.9217904,-1.971825,0.07154395,0.6975594,1.417771,0.03070265,-0.06471568,0.06991039,-0.3006031,-0.6778634,-0.292897,0.03317074,0.7878168,1.514131,0.2163099,0.4687281,1.031449,0.1557924,63.14627,130.8211,187.8127,True
2,0.4555556,0.5468179,-0.3099342,-0.1741239,-1.407689,-2.128672,-3.137276,0.6866276,1.249441,0.000110358,-1.411538,-0.007994561,0,0,0.2058018,0.3679182,-0.06766942,-0.9223778,-1.964558,0.0642168,0.6986814,1.418344,0.03052065,-0.0777086,0.08816914,-0.3173515,-0.6820281,-0.2900455,0.03235794,0.7880719,1.514157,0.2164372,0.4664317,1.033367,0.1560667,63.43799,131.0647,188.1458,True
2,0.4666667,0.6682662,-0.4833987,-0.2111771,-1.403957,-2.116884,3.132218,0.6860452,1.249791,0.0002609193,-1.41025,0.1119758,0,0,0.2155665,0.4211595,-0.0739888,-0.9230026,-1.956383,0.05656767,0.6995161,1.41879,0.03029668,-0.07787335,0.1138351,-0.3331709,-0.6862119,-0.2864124,0.03039173,0.7884727,1.514143,0.2165492,0.4635503,1.035787,0.1555992,63.85704,131.2536,188.6796,True
2,0.4777778,0.7600101,-0.6036137,-0.223534,-1.401415,-2.106413,3.119323,0.6853812,1.250145,0.0003732443,-1.410916,-0.07536285,0,0,0.2158723,0.4914559,-0.07062621,-0.9232839,-1.946833,0.04840508,0.7005646,1.419337,0.03000033,-0.1110158,0.1363844,-0.3453378,-0.6905555,-0.2825358,0.02966096,0.7889345,1.514254,0.2166334,0.4599082,1.038683,0.1544892,64.38777,131.3697,189.375,True
2,0.4888889,0.8219627,-0.6759245,-0.2218573,-1.399263,-2.096144,3.106285,0.6847615,1.250439,0.0006324649,-1.408872,0.1833905,0,0,0.2118355,0.5361969,-0.06303608,-0.9233909,-1.93735,0.04043557,0.7014251,1.419782,0.02975699,-0.1247668,0.1587723,-0.3428692,-0.6943095,-0.2785469,0.02840581,0.7893,1.514103,0.2166116,0.4559167,1.042003,0.1528836,65.00922,131.3372,190.156,True
2,0.5,0.9128458,-0.7651799,-0.2065791,-1.398038,-2.084861,3.091391,0.6841235,1.25078,0.001057148,-1.408171,0.04247381,0,0,0.1951571,0.5852014,-0.03512882,-0.9225835,-1.927314,0.03273531,0.7024121,1.420257,0.02934918,-0.1226285,0.1566477,-0.3429151,-0.6980428,-0.2756193,0.02717836,0.7896047,1.514033,0.2166201,0.4510498,1.045725,0.1510619,65.64998,131.2839,190.9364,True
2,0.5111111,0.9726921,-0.8193724,-0.198525,-1.396779,-2.07355,3.076524,0.6833305,1.251057,0.001465827,-1.408431,-0.03513769,0,0,0.1636887,0.6118026,0.03117099,-0.9197871,-1.91801,0.02639006,0.703264,1.420637,0.02905434,-0.1194286,0.1523724,-0.3419234,-0.7017275,-0.2731049,0.02644386,0.7898886,1.514001,0.2166504,0.4457225,1.049885,0.1490557,66.40172,131.0495,191.7057,True
2,0.5222223,1.103928,-0.9224336,-0.1995814,-1.39559,-2.059638,3.057614,0.6823277,1.251411,0.002065718,-1.408193,0.01086769,0,0,0.1279099,0.6309731,0.09321602,-0.9164348,-1.908444,0.02034522,0.7041018,1.421051,0.02875832,-0.1290883,0.1524365,-0.3460348,-0.7055747,-0.27007,0.0260316,0.7901781,1.513931,0.2167081,0.4403599,1.054444,0.1470604,67.26205,130.6979,192.5071,True
2,0.5333334,1.184845,-0.9617115,-0.2130605,-1.393911,-2.047328,3.039685,0.681268,1.251685,0.002493203,-1.408655,-0.05776826,0,0,0.1130281,0.6214138,0.1050062,-0.9148933,-1.90044,0.01462555,0.7051756,1.421481,0.02857706,-0.1364041,0.1513337,-0.3363457,-0.7089409,-0.267404,0.02573013,0.7902548,1.513937,0.21674,0.4350726,1.05935,0.1453677,68.19337,130.3433,193.2778,True
2,0.5444446,1.298688,-1.006262,-0.2385672,-1.391815,-2.034315,3.019117,0.6799617,1.252065,0.00302124,-1.407314,0.1104607,0,0,0.1222233,0.6204709,0.03890011,-0.9164987,-1.891886,0.007838482,0.7058372,1.421803,0.02840701,-0.1436423,0.1661953,-0.3244252,-0.7120702,-0.2637556,0.02479962,0.7903931,1.513913,0.216776,0.4298282,1.064543,0.144164,69.15205,130.2451,194.0745,True
2,0.5555557,1.382787,-1.034872,-0.2520838,-1.3904,-2.021628,2.999017,0.6785126,1.252338,0.003502876,-1.407393,-0.03064448,0,0,0.1560858,0.6449729,-0.01769204,-0.9185147,-1.881898,-0.001172323,0.7067153,1.42219,0.02823263,-0.1488374,0.180032,-0.3189431,-0.7155136,-0.2597851,0.02344354,0.790566,1.513874,0.2168168,0.4242802,1.070063,0.1435228,70.11683,130.4341,194.8924,True
2,0.5666668,1.428766,-1.025153,-0.2322989,-1.39021,-2.010138,2.979477,0.6767445,1.252636,0.004235268,-1.406678,0.05074878,0,0,0.2367047,0.6778685,-0.09904905,-0.922462,-1.871057,-0.01304496,0.707113,1.422434,0.02801359,-0.1509407,0.1949584,-0.3198841,-0.7190316,-0.2555917,0.02205044,0.7906938,1.513821,0.2168468,0.4186353,1.075929,0.1432521,71.12219,131.0632,195.9479,True
2,0.577778,1.442979,-0.9632409,-0.1814185,-1.391359,-2.00144,2.961751,0.6750522,1.252835,0.004989028,-1.40711,-0.06198892,0,0,0.3087787,0.673468,-0.1580748,-0.9260695,-1.861949,-0.02419482,0.7074597,1.422669,0.02772674,-0.1425758,0.2067295,-0.3327213,-0.7231095,-0.2515649,0.02030101,0.7907913,1.513674,0.2168906,0.4127606,1.082199,0.1432367,72.16468,132.0047,197.2097,True
2,0.5888891,1.447479,-0.9067016,-0.1442807,-1.392622,-1.993237,2.944139,0.673218,1.253146,0.005824566,-1.408493,-0.1427579,0,0,0.3415297,0.6446375,-0.1849704,-0.929236,-1.854347,-0.0336328,0.7076926,1.422888,0.02748737,-0.1372628,0.2077866,-0.3338595,-0.726791,-0.247946,0.01892043,0.7908669,1.513586,0.2168917,0.4068311,1.088865,0.1432829,73.32015,133.0269,198.5935,True
2,0.6000003,1.450971,-0.8000626,-0.09124225,-1.394513,-1.988128,2.927221,0.6712916,1.253477,0.006776005,-1.410989,-0.242651,0,0,0.3538899,0.5754051,-0.2086471,-0.9322752,-1.849569,-0.04051493,0.7075317,1.423022,0.02716538,-0.1319734,0.1928447,-0.3340453,-0.7306313,-0.2457236,0.01847115,0.7909589,1.513509,0.2167919,0.4010856,1.095832,0.1433635,74.61151,133.9474,200.0505,True
2,0.6111114,1.471389,-0.6997931,-0.05218798,-1.396361,-1.983651,2.909266,0.6692967,1.253831,0.007505208,-1.413253,-0.2170382,0,0,0.3248042,0.4753483,-0.1948737,-0.9339956,-1.8471,-0.04449103,0.7075043,1.423148,0.02681592,-0.1244337,0.1842533,-0.3267531,-0.734013,-0.2430114,0.01764477,0.7909105,1.513462,0.2167435,0.3959427,1.102885,0.1435709,75.98844,134.947,201.6852,True
2,0.6222225,1.512897,-0.608062,-0.03677696,-1.397531,-1.979887,2.890083,0.666954,1.254182,0.00850749,-1.415139,-0.1847931,0,0,0.2736248,0.3848721,-0.1404627,-0.9338949,-1.845404,-0.04691398,0.7073011,1.423297,0.02655613,-0.1198946,0.1649324,-0.3045659,-0.7366596,-0.2410186,0.01738272,0.7907145,1.513226,0.2167107,0.3913389,1.109845,0.144114,77.3289,136.2849,203.5866,True
2,0.6333337,1.545823,-0.5653816,-0.03822666,-1.398424,-1.974624,2.870588,0.6647537,1.254561,0.009342074,-1.415787,-0.07166495,0,0,0.2427383,0.3145714,-0.09037983,-0.9332739,-1.843461,-0.04983627,0.7073877,1.423381,0.02632356,-0.1188087,0.1499861,-0.3004155,-0.7399433,-0.2392423,0.01740562,0.7905209,1.513164,0.2165962,0.3871875,1.116563,0.1452165,78.58223,137.9613,205.6511,True
2,0.6444448,1.625699,-0.4927517,-0.02527601,-1.399544,-1.971651,2.849057,0.6621006,1.254845,0.0103597,-1.415302,0.02709168,0,0,0.1988791,0.2102499,-0.04989492,-0.9322608,-1.845141,-0.04948526,0.70716,1.423416,0.02618989,-0.1175021,0.1339013,-0.2803043,-0.7425852,-0.2372453,0.01739124,0.7905617,1.51335,0.2163474,0.3831615,1.123002,0.1470017,79.68707,140.1935,207.9851,True
2,0.655556,1.660886,-0.462834,-0.01605076,-1.401169,-1.967364,2.828591,0.659761,1.255091,0.01122841,-1.414939,0.01259366,0,0,0.174113,0.1667052,-0.06477009,-0.9337362,-1.844515,-0.05105466,0.7068143,1.423309,0.02606466,-0.1237283,0.123175,-0.2674943,-0.7451871,-0.2357988,0.0179063,0.790333,1.513182,0.2161968,0.3789129,1.129228,0.1494554,80.61237,143.1939,210.8167,True
2,0.6666671,1.683365,-0.4371885,0.0007318258,-1.403059,-1.963741,2.808357,0.6572583,1.255351,0.01224652,-1.41322,0.1387066,0,0,0.2017889,0.1986149,-0.09042221,-0.9358007,-1.840543,-0.05657886,0.7063868,1.423183,0.02593955,-0.1386683,0.113629,-0.2673307,-0.7481304,-0.2343037,0.01889033,0.7899394,1.513085,0.2159843,0.3744375,1.135344,0.1522582,81.39718,146.754,214.0255,True
2,0.6777782,1.687887,-0.4168794,0.03262413,-1.405918,-1.960358,2.788907,0.654664,1.255734,0.01330438,-1.412968,-0.003259874,0,0,0.2571164,0.2389653,-0.128992,-0.9386711,-1.835521,-0.06430069,0.7057941,1.423036,0.02573028,-0.1439337,0.09760398,-0.2598889,-0.750744,-0.2336729,0.02026879,0.7894752,1.51303,0.2157696,0.3696653,1.141515,0.1552535,82.14687,150.5052,217.4452,True
2,0.6888894,1.656263,-0.4168772,0.06808138,-1.409506,-1.956639,2.770853,0.6519423,1.255986,0.01435924,-1.413272,-0.04526944,0,0,0.2953133,0.2506128,-0.1632777,-0.9419228,-1.831787,-0.07113863,0.7052443,1.422859,0.02549219,-0.1489915,0.07937032,-0.2386223,-0.7527638,-0.2332976,0.02180303,0.788959,1.512886,0.2155046,0.3650385,1.147784,0.1580948,82.88592,154.815,221.4766,True
2,0.7000005,1.61172,-0.4393064,0.08453751,-1.412935,-1.95184,2.753955,0.6494377,1.256364,0.01522052,-1.414202,-0.103111,0,0,0.3366322,0.2740111,-0.2188539,-0.9464395,-1.827727,-0.07861651,0.7046757,1.422696,0.02514756,-0.1562014,0.0792754,-0.2225242,-0.7544885,-0.2322567,0.0229157,0.7884812,1.512798,0.2153296,0.3606204,1.154237,0.1606598,83.64436,159.9541,226.464,True
2,0.7111117,1.553239,-0.4916237,0.08521664,-1.416594,-1.945458,2.73759,0.6468298,1.256842,0.01604459,-1.416006,-0.1805371,0,0,0.3854469,0.2995011,-0.2680784,-0.9512071,-1.823072,-0.08701693,0.7036417,1.422478,0.02480513,-0.1642049,0.07587397,-0.1872613,-0.7552501,-0.2312985,0.02430427,0.7879086,1.512784,0.2150738,0.3564315,1.160913,0.1629123,84.44297,166.7125,233.1805,True
2,0.7222228,1.485026,-0.5567803,0.06787974,-1.420038,-1.937687,2.722126,0.6442628,1.257155,0.01681152,-1.418222,-0.214433,0,0,0.389619,0.2696429,-0.2628493,-0.9542117,-1.820767,-0.0928876,0.702611,1.422211,0.02451524,-0.159364,0.06175566,-0.1458691,-0.7554408,-0.2309151,0.02566568,0.7871661,1.512713,0.214754,0.352524,1.167719,0.1647922,85.18777,176.8346,243.2968,True
2,0.7333339,1.406127,-0.6048959,0.05064631,-1.423509,-1.930258,2.7077,0.6418812,1.257357,0.01763117,-1.420151,-0.1864452,0,0,0.3703121,0.234557,-0.2596277,-0.957024,-1.819316,-0.09703494,0.7016494,1.421992,0.02425036,-0.1582737,0.04466435,-0.1406451,-0.7566898,-0.2311114,0.02760686,0.7863772,1.512647,0.2144548,0.3488914,1.174535,0.1661707,85.6712,190.7731,257.2047,True
2,0.7444451,1.339164,-0.6614873,0.05458701,-1.428019,-1.922081,2.693678,0.6393988,1.257533,0.01832294,-1.421905,-0.1709024,0,0,0.3264166,0.1740006,-0.2552573,-0.9597239,-1.819689,-0.09901579,0.7003386,1.421787,0.02397132,-0.1455557,0.02225824,-0.1409739,-0.7582898,-0.2317813,0.02928625,0.785502,1.512482,0.2141146,0.3452584,1.181285,0.1669356,85.79574,207.2758,273.7019,True
2,0.7555562,1.300979,-0.709477,0.06251162,-1.433074,-1.914131,2.679207,0.6368227,1.257701,0.01893377,-1.423342,-0.1405961,0,0,0.308255,0.1484799,-0.2456221,-0.9621868,-1.818955,-0.1022212,0.699017,1.421552,0.02375504,-0.1347508,0.01042911,-0.128423,-0.7593162,-0.2321766,0.03075978,0.7846689,1.512321,0.2137882,0.3415511,1.187781,0.1669523,85.55939,223.6061,290.1881,True
2,0.7666674,1.260708,-0.7755938,0.07047886,-1.438954,-1.904655,2.665171,0.6342981,1.257841,0.01943824,-1.424115,-0.0795466,0,0,0.3179986,0.131303,-0.2073698,-0.9632808,-1.81806,-0.1066079,0.6974127,1.421366,0.02356678,-0.1237308,0.003838956,-0.1041132,-0.7594515,-0.2327569,0.03189775,0.7837086,1.512172,0.2135089,0.3377958,1.193813,0.1662493,85.11509,237.2097,304.1922,True
2,0.7777785,1.207591,-0.8108338,0.07852906,-1.444622,-1.896302,2.652355,0.6318786,1.257987,0.01984084,-1.423677,0.0300537,0,0,0.3458062,0.1097999,-0.1724264,-0.9640222,-1.817387,-0.1117529,0.6958807,1.421259,0.02337003,-0.1062073,0.004661798,-0.07240596,-0.759158,-0.2325149,0.03229775,0.7827258,1.512036,0.2131834,0.3338335,1.199305,0.1649851,84.63918,247.7446,315.3049,True
2,0.7888896,1.121264,-0.8099546,0.07508868,-1.449391,-1.888854,2.641735,0.6294978,1.258018,0.02011606,-1.423117,0.0374153,0,0,0.3595948,0.04788114,-0.1406935,-0.9644206,-1.819205,-0.1151205,0.6943979,1.421231,0.02312618,-0.0832205,0.003280416,-0.03120415,-0.7580965,-0.2325201,0.03242372,0.7816894,1.511926,0.2128496,0.3295514,1.204279,0.1633665,84.22552,255.7762,324.0125,True
2,0.8000008,1.006148,-0.7814308,0.07505804,-1.453811,-1.882443,2.633543,0.6270893,1.258126,0.02041513,-1.422897,0.008380239,0,0,0.3606897,-0.03643501,-0.07805323,-0.9629266,-1.82286,-0.1170478,0.6925993,1.421169,0.02288124,-0.07018943,-0.02992886,-0.009198608,-0.7571649,-0.2348406,0.03435265,0.7802584,1.511781,0.2124685,0.325074,1.208757,0.1614734,83.89228,261.9974,330.9322,True
2,0.8111119,0.9635154,-0.7708662,0.07544118,-1.458491,-1.875765,2.62372,0.6246779,1.25828,0.02081558,-1.423615,-0.07525323,0,0,0.359674,-0.05672607,-0.05572541,-0.9625974,-1.824461,-0.1200356,0.6909795,1.421066,0.02265155,-0.06480113,-0.04276847,-0.00296813,-0.7571095,-0.2361301,0.03582751,0.7792161,1.51166,0.2120742,0.3207367,1.212716,0.1594014,83.5966,267.0801,336.7351,True
2,0.8222231,0.8313855,-0.7018631,0.08721817,-1.462293,-1.871912,2.618749,0.6224675,1.258518,0.02102184,-1.425137,-0.1438802,0,0,0.3364072,-0.1313994,0.02412758,-0.9591098,-1.828931,-0.120279,0.6892354,1.421061,0.02243957,-0.06262212,-0.04814705,0.0001994073,-0.7565354,-0.237711,0.03738572,0.7780571,1.511436,0.2117196,0.3168202,1.216104,0.1572911,83.27375,271.1588,341.5092,True
2,0.8333342,0.7938761,-0.6294999,0.07892215,-1.465194,-1.868324,2.610599,0.6201227,1.258694,0.02135235,-1.424521,0.05544475,0,0,0.3322107,-0.1474157,0.0464872,-0.9577388,-1.831098,-0.1225081,0.6879973,1.421143,0.02219701,-0.05510174,-0.06420144,0.007452378,-0.75617,-0.2395974,0.03915007,0.7770123,1.511301,0.2113595,0.3132959,1.218982,0.1553486,82.97329,274.5589,345.5433,True
2,0.8444453,0.7925331,-0.5496265,0.06706065,-1.467358,-1.865498,2.601608,0.6176667,1.258966,0.02160498,-1.426255,-0.1700636,0,0,0.3375897,-0.1762705,0.07514846,-0.9555422,-1.834457,-0.1244255,0.6862276,1.421114,0.02201864,-0.05076718,-0.07170966,0.013734,-0.755861,-0.2411672,0.04070748,0.775851,1.51118,0.2109752,0.3099445,1.221543,0.15376,82.72668,277.5023,349.0321,True
2,0.8555565,0.7955394,-0.4920777,0.05946797,-1.469658,-1.86276,2.592438,0.615232,1.259304,0.02179873,-1.42487,0.131853,0,0,0.3481771,-0.1773532,0.06442912,-0.9550911,-1.836757,-0.1273103,0.6845393,1.421052,0.02165884,-0.05696601,-0.06858809,0.02558568,-0.7549774,-0.2425105,0.04240578,0.7745609,1.511076,0.2106502,0.3070374,1.223694,0.1526236,82.4986,279.8473,351.8054,True
2,0.8666676,0.7611971,-0.3909538,0.05533403,-1.470585,-1.86227,2.585144,0.6127582,1.259701,0.02192381,-1.422325,0.2191922,0,0,0.3514278,-0.152846,0.05701317,-0.9545797,-1.837791,-0.130688,0.6828887,1.421061,0.02138111,-0.06642446,-0.07928001,0.03631487,-0.7542781,-0.2443458,0.04480103,0.7733815,1.510962,0.2102896,0.3040754,1.225742,0.152135,82.30456,281.3149,353.5305,True
2,0.8777788,0.6928626,-0.2877398,0.06217256,-1.471458,-1.862844,2.579774,0.6103132,1.260184,0.02191821,-1.41996,0.2028524,0,60,0.3644154,-0.06868368,0.03476805,-0.9552897,-1.835388,-0.1364468,0.681428,1.421217,0.02092871,-0.06962439,-0.07073341,0.03321129,-0.7541747,-0.2452018,0.0460402,0.7723153,1.510891,0.2098345,0.3008632,1.227916,0.1522892,82.16491,282.1026,354.3526,True
2,0.8888899,0.6330499,-0.2132954,0.06259233,-1.47199,-1.863359,2.574844,0.6078565,1.260614,0.02201194,-1.419156,0.06152363,0,60,0.3796647,0.01007982,0.03806839,-0.9551598,-1.831908,-0.1431731,0.6797926,1.421323,0.02059808,-0.07595909,-0.05367319,0.03340756,-0.7538557,-0.2452921,0.04701278,0.7711604,1.510728,0.209413,0.2975827,1.23028,0.1528994,82.03282,282.6222,354.7441,True
2,0.900001,0.5379661,-0.06968275,0.06642051,-1.470805,-1.867082,2.572439,0.6054602,1.260866,0.0219115,-1.41972,-0.05684968,0,60,0.4005178,0.104704,0.0786651,-0.9533637,-1.826231,-0.1515067,0.6783535,1.421468,0.02041698,-0.07627908,-0.05886681,0.01318389,-0.7536746,-0.2463372,0.04870229,0.7696598,1.51025,0.2090387,0.2946519,1.23271,0.1537951,81.83221,282.8616,354.7807,True
2,0.9111122,0.4812852,0.0495168,0.06991775,-1.46899,-1.871693,2.569687,0.6030633,1.261213,0.0220086,-1.420256,-0.05029831,0,60,0.390164,0.1344999,0.1096948,-0.9514617,-1.823121,-0.1571776,0.6768076,1.421591,0.02017373,-0.07115846,-0.06946196,0.001323024,-0.754106,-0.2479664,0.05050259,0.7684126,1.51012,0.2086929,0.2922826,1.23509,0.1548432,81.53392,282.9435,354.6021,True
2,0.9222233,0.378868,0.2730857,0.1045346,-1.465317,-1.881919,2.569829,0.6008162,1.261408,0.02206671,-1.421791,-0.1434494,0,60,0.3550701,0.115408,0.13329,-0.9493317,-1.82188,-0.1607013,0.6751127,1.421679,0.01992452,-0.06811458,-0.07474013,-0.008337933,-0.7544368,-0.2494346,0.05212073,0.7671263,1.510092,0.2082497,0.2904217,1.23733,0.1559565,81.10808,282.776,354.1656,True
2,0.9333345,0.336255,0.380635,0.1281663,-1.463176,-1.889555,2.568127,0.5985832,1.261528,0.0219112,-1.422294,-0.04280782,0,60,0.3059553,0.07723226,0.1409367,-0.9476156,-1.82218,-0.1623285,0.6734762,1.421896,0.01956517,-0.06264507,-0.06948178,0.0001372639,-0.7541199,-0.2503418,0.05329704,0.7657042,1.509956,0.2077689,0.289099,1.239209,0.1571722,80.60844,282.5076,353.6586,True
2,0.9444456,0.3266654,0.4061915,0.1335353,-1.461782,-1.894845,2.565243,0.5962803,1.261834,0.02186751,-1.42364,-0.1256418,0,60,0.2759734,0.0390015,0.1410181,-0.9459245,-1.822887,-0.1640084,0.6716919,1.421985,0.01928577,-0.05595284,-0.06962465,0.02028007,-0.7532879,-0.2515788,0.05460332,0.7642787,1.509871,0.2074091,0.2880854,1.240677,0.1586809,80.15025,282.4448,353.4248,True
2,0.9555568,0.3095631,0.4370612,0.1347073,-1.45999,-1.900515,2.562867,0.5941751,1.261859,0.02173316,-1.423122,0.05205727,0,60,0.2545285,-0.002472252,0.1463678,-0.9439399,-1.824299,-0.1653296,0.669884,1.422113,0.01891229,-0.05458708,-0.07189187,0.04048242,-0.752327,-0.253147,0.05626567,0.7632596,1.509908,0.2069911,0.2874937,1.241511,0.1607707,79.79627,282.4614,353.1985,True
2,0.9666679,0.2859187,0.4081915,0.1062224,-1.458165,-1.903714,2.560886,0.592355,1.261983,0.02147669,-1.421185,0.1714105,0,60,0.2244662,-0.07161462,0.1538311,-0.9414754,-1.827926,-0.1646017,0.6680698,1.422157,0.01858708,-0.05424889,-0.06456657,0.06183136,-0.7509113,-0.2539771,0.05745903,0.7618723,1.509856,0.2065975,0.2867595,1.241927,0.1634867,79.64446,281.9875,352.1339,True
2,0.977779,0.2528158,0.332436,0.08111665,-1.457605,-1.904768,2.55918,0.5904558,1.26211,0.02123922,-1.419178,0.1755571,0,60,0.2147536,-0.1067327,0.157002,-0.9392127,-1.830111,-0.1654651,0.6662204,1.422073,0.01833177,-0.06575119,-0.0507587,0.07380673,-0.7497768,-0.2542549,0.05878555,0.7605643,1.509759,0.2061878,0.285516,1.242141,0.1665347,79.6703,280.9879,350.2994,True
2,0.9888902,0.2326032,0.2727156,0.07077114,-1.457403,-1.905864,2.557387,0.5886054,1.262179,0.0210501,-1.417074,0.1869551,0,60,0.2051152,-0.1162767,0.1549042,-0.937291,-1.831785,-0.1664441,0.6645718,1.422057,0.01801881,-0.06910369,-0.053882,0.06425206,-0.7493496,-0.2552656,0.06047426,0.7592175,1.509669,0.2058329,0.284016,1.242066,0.1694792,79.78175,279.6097,348.0362,True
2,1.000001,0.2209937,0.1640048,0.05832361,-1.458773,-1.904532,2.555167,0.5867856,1.26228,0.02097729,-1.414536,0.2277245,0,60,0.1912739,-0.08954772,0.1390718,-0.9363504,-1.83145,-0.168238,0.6632059,1.422059,0.01772606,-0.07690482,-0.05799928,0.04196616,-0.7497309,-0.256764,0.06264554,0.7579145,1.509639,0.2053287,0.2823586,1.241715,0.1718709,79.95847,277.8732,345.4676,True
2,1.011112,0.2296599,0.04257466,0.04782209,-1.460628,-1.901996,2.552154,0.5850792,1.26238,0.02090931,-1.410904,0.3271388,0,60,0.1774365,-0.06495422,0.1242986,-0.9355285,-1.831065,-0.1699632,0.6616998,1.42197,0.01740366,-0.08151038,-0.06317378,0.0196289,-0.7502887,-0.2579249,0.06452733,0.7565911,1.509544,0.2048843,0.2804208,1.241194,0.1733667,80.15429,276.5649,343.561,True
2,1.022224,0.2511399,-0.07671137,0.03933118,-1.463436,-1.897997,2.5482,0.5833995,1.262274,0.02076265,-1.406164,0.426061,0,60,0.1359275,-0.01145446,0.09591152,-0.9357693,-1.828841,-0.1711978,0.6602414,1.421826,0.01701599,-0.0795433,-0.06738604,0.009991024,-0.7504378,-0.2593286,0.06649354,0.7549758,1.509542,0.2044327,0.2781368,1.240565,0.1738708,80.37695,276.0701,342.8456,True
2,1.033335,0.2672654,-0.1565757,0.03827083,-1.466044,-1.894819,2.544587,0.5816464,1.262296,0.02067649,-1.400144,0.5414111,0,60,0.1210116,0.009947952,0.08220017,-0.9354305,-1.827796,-0.1726133,0.6588428,1.421606,0.01659241,-0.08269495,-0.06312926,0.01219507,-0.7502865,-0.2601779,0.06810635,0.753603,1.509453,0.2039791,0.2753871,1.239925,0.1734149,80.65138,276.2408,343.1412,True
2,1.044446,0.2983491,-0.3003446,0.02547759,-1.470559,-1.887872,2.539474,0.5800054,1.262101,0.02049869,-1.392892,0.6505829,0,60,0.1124419,0.04948392,0.04719192,-0.9363983,-1.825628,-0.1748498,0.6575046,1.421319,0.01609263,-0.08895681,-0.05676597,0.01978556,-0.7498444,-0.2608565,0.06980705,0.7521982,1.509335,0.2035171,0.2721923,1.239313,0.1721003,80.95237,276.858,344.1525,True
2,1.055557,0.3090817,-0.3663801,0.01913099,-1.474046,-1.883176,2.535325,0.5783036,1.261965,0.02033076,-1.385349,0.6745015,0,60,0.1017813,0.06020057,0.03875733,-0.9363525,-1.824453,-0.1763979,0.6560295,1.421097,0.01562589,-0.0899213,-0.05792387,0.02936709,-0.7494364,-0.2626488,0.07269605,0.7510395,1.509067,0.2026981,0.2686259,1.238732,0.1700846,81.25053,278.0593,345.9604,True
2,1.066668,0.3273385,-0.4579662,0.01381317,-1.478695,-1.876394,2.530436,0.5766332,1.261792,0.02019468,-1.376679,0.7791231,0,60,0.07934228,0.08059303,0.01337091,-0.9373006,-1.822668,-0.1775484,0.6546569,1.420829,0.0151124,-0.09303518,-0.05154966,0.03371443,-0.7489262,-0.2631983,0.07423322,0.7496448,1.508946,0.2021905,0.2648298,1.238151,0.1676367,81.5519,279.6622,348.3009,True
2,1.077779,0.3425776,-0.5377888,0.02981004,-1.48416,-1.870228,2.525671,0.5748899,1.261661,0.02008155,-1.368174,0.7590156,0,60,0.06965668,0.1073426,-0.02059267,-0.9389139,-1.820545,-0.1791681,0.653316,1.420654,0.01475117,-0.0845544,-0.04729573,0.03042298,-0.7487062,-0.2638816,0.07544735,0.7481847,1.508893,0.2019281,0.2608548,1.237575,0.1648815,81.83562,281.5215,350.9161,True
2,1.08889,0.3492528,-0.5952614,0.04689923,-1.489796,-1.864037,2.521141,0.5731301,1.261549,0.02007356,-1.359079,0.8169407,0,60,0.06634022,0.1426199,-0.06522982,-0.9417396,-1.817545,-0.181528,0.6518986,1.420364,0.01427984,-0.08341125,-0.03666561,0.03366771,-0.7482364,-0.2639992,0.07641355,0.746804,1.508771,0.20142,0.2569062,1.236923,0.1620462,82.10728,283.6292,353.8219,True
2,1.100002,0.3622559,-0.6111761,0.06597793,-1.494938,-1.859012,2.516307,0.5714078,1.261388,0.02019605,-1.349729,0.8368614,0,60,0.07691543,0.1500751,-0.08231773,-0.943477,-1.815661,-0.1838042,0.6498845,1.41989,0.01387972,-0.07813091,-0.04407066,0.02928477,-0.7480303,-0.2642643,0.07672647,0.745434,1.508303,0.201479,0.2529615,1.236232,0.1593025,82.38439,285.9935,356.9301,True
2,1.111113,0.3751076,-0.5962095,0.07647741,-1.499365,-1.854869,2.511469,0.569591,1.261257,0.02020189,-1.340284,0.8460425,0,60,0.09283332,0.1340227,-0.08138651,-0.944383,-1.81493,-0.1857222,0.6482403,1.419532,0.01343217,-0.08136556,-0.04719704,0.02397582,-0.7480947,-0.2646075,0.07725964,0.7442524,1.508174,0.2016499,0.2490449,1.235516,0.1567975,82.65805,288.9135,0.5454202,True
2,1.122224,0.3931568,-0.5599422,0.07837644,-1.503073,-1.851475,2.506382,0.5676932,1.261097,0.02035931,-1.330425,0.884634,0,60,0.108771,0.115836,-0.07619777,-0.9451585,-1.814282,-0.187808,0.6465993,1.419264,0.01300165,-0.08354092,-0.04077318,0.01978609,-0.7480111,-0.2649242,0.07847936,0.742908,1.50805,0.2012275,0.2452274,1.23475,0.1546602,82.91175,292.013,4.294055,True
2,1.133335,0.4006071,-0.5311537,0.0835802,-1.506941,-1.848181,2.501433,0.5657713,1.260862,0.02022809,-1.320392,0.8982695,0,60,0.1236705,0.1008409,-0.06780545,-0.9458009,-1.813638,-0.1899513,0.645138,1.419071,0.01251352,-0.08468833,-0.03964373,0.01235493,-0.7481171,-0.265177,0.07927138,0.7414899,1.508006,0.2009613,0.241573,1.233919,0.1530351,83.1506,294.9235,7.760285,True
2,1.144446,0.4133753,-0.4767649,0.09400731,-1.510051,-1.846396,2.496385,0.5637574,1.260909,0.02015752,-1.310094,0.9226599,0,60,0.1341747,0.06991559,-0.0722041,-0.9466739,-1.814222,-0.1914791,0.6434088,1.418817,0.01211175,-0.07414056,-0.04817468,0.005773649,-0.7480564,-0.2667105,0.0806549,0.7397363,1.508584,0.1998622,0.2380599,1.233039,0.1520036,83.3901,297.3469,10.56436,True
2,1.155557,0.4240159,-0.415995,0.1065737,-1.512974,-1.845231,2.491309,0.5617046,1.260848,0.02005786,-1.299863,0.9154286,0,60,0.1308214,0.0443773,-0.08076892,-0.9478015,-1.814995,-0.1922126,0.6416318,1.418547,0.01174098,-0.06974958,-0.05678159,0.01205653,-0.7476739,-0.2688058,0.08198728,0.7382705,1.508226,0.1991656,0.2346451,1.23212,0.1515623,83.63734,299.2205,12.60759,True
2,1.166668,0.422947,-0.3403276,0.1234798,-1.515347,-1.845433,2.486593,0.5595114,1.2609,0.02005586,-1.289631,0.9167695,0,60,0.1317427,0.01775661,-0.08723164,-0.9488784,-1.816108,-0.1930565,0.6398234,1.418343,0.01135841,-0.06952976,-0.06860474,0.02902729,-0.7468638,-0.2706492,0.08410795,0.7367277,1.508145,0.1986659,0.2313183,1.231166,0.151555,83.92665,301.0181,14.36793,True
2,1.17778,0.4078802,-0.2455261,0.1298312,-1.516543,-1.846642,2.482712,0.557389,1.261067,0.02002779,-1.279428,0.9132311,0,60,0.1456218,0.00701797,-0.07456155,-0.9493269,-1.816407,-0.1949274,0.6376896,1.418057,0.01093951,-0.05848607,-0.06878331,0.0522977,-0.7456121,-0.2719581,0.0847527,0.7350039,1.508432,0.1978556,0.2280233,1.23025,0.1518794,84.25881,303.1044,16.35577,True
2,1.188891,0.394939,-0.1773769,0.1287527,-1.51744,-1.847778,2.478827,0.5551906,1.261165,0.02005959,-1.269469,0.8908688,0,60,0.1542219,0.003754407,-0.05970832,-0.9495352,-1.816407,-0.1969685,0.636214,1.41794,0.01045892,-0.05632641,-0.07520051,0.05542234,-0.7449735,-0.2735843,0.08648989,0.7334762,1.508361,0.1972931,0.2247783,1.229388,0.1524437,84.56383,305.3594,18.50868,True
2,1.200002,0.3851554,-0.08150878,0.1297279,-1.51728,-1.850536,2.474966,0.5529733,1.261116,0.02018565,-1.259991,0.8481908,0,60,0.1596777,-0.02619949,-0.01720102,-0.9480667,-1.81768,-0.1982313,0.6343379,1.417774,0.01009056,-0.03732252,-0.0869545,0.04762436,-0.744729,-0.276213,0.08860816,0.7319832,1.507715,0.1961841,0.2216241,1.228571,0.1532266,84.84178,307.6214,20.69422,True
2,1.211113,0.3936324,-0.005831232,0.1422839,-1.517438,-1.85369,2.470407,0.550585,1.261293,0.02024826,-1.250425,0.8587799,0,60,0.1543913,-0.04967515,0.007274127,-0.9470547,-1.819033,-0.1988308,0.6324279,1.41747,0.009726167,-0.02881727,-0.0933872,0.04958759,-0.7442592,-0.2782208,0.09057491,0.7305646,1.507022,0.1949813,0.2186731,1.227735,0.1542063,85.11489,309.2674,22.23309,True
2,1.222224,0.4276354,0.05073127,0.1471893,-1.51744,-1.856831,2.464831,0.5481727,1.261463,0.02025497,-1.240611,0.8798876,0,60,0.1406097,-0.08272748,0.0413637,-0.9450621,-1.8211,-0.1987389,0.6305616,1.417243,0.009374082,-0.03419187,-0.09018178,0.04649566,-0.7438816,-0.2801262,0.0927326,0.7292733,1.506709,0.1944533,0.2158536,1.226852,0.1553465,85.35088,310.328,23.14979,True
2,1.233335,0.4456422,0.07099789,0.1405906,-1.517638,-1.858757,2.459346,0.5458024,1.261596,0.02024111,-1.23015,0.9384136,0,60,0.1342845,-0.08379346,0.05417798,-0.9440299,-1.821879,-0.1994915,0.6283357,1.416841,0.009007841,-0.03937087,-0.08599897,0.05620665,-0.7427902,-0.2821941,0.09500987,0.7276349,1.506004,0.1944993,0.2130854,1.225887,0.1566856,85.5851,311.4065,24.07895,True
2,1.244446,0.4602991,0.0699245,0.1138364,-1.517612,-1.859709,2.453917,0.5431967,1.261901,0.02009243,-1.219155,0.9849933,0,60,0.1323479,-0.07426281,0.08084568,-0.9421294,-1.822002,-0.2008255,0.6264219,1.416589,0.008634686,-0.04431167,-0.07867786,0.08083002,-0.7411508,-0.2833467,0.09653133,0.72596,1.50575,0.1939611,0.2101558,1.224939,0.1582562,85.89449,313.5056,25.96961,True
2,1.255558,0.4655142,0.06777819,0.1010125,-1.517824,-1.860652,2.448625,0.5407774,1.262015,0.01996326,-1.208587,0.943251,0,60,0.1494912,-0.07011056,0.09460387,-0.9406072,-1.822444,-0.2028799,0.6245024,1.416242,0.008182615,-0.05165118,-0.08718093,0.08728862,-0.7399161,-0.284505,0.0974986,0.7241228,1.505972,0.1938932,0.2070295,1.224084,0.1599863,86.26723,316.1148,28.28238,True
2,1.266669,0.4621961,0.04964774,0.08510766,-1.518161,-1.861065,2.443894,0.5383317,1.262091,0.01996243,-1.198382,0.9126518,0,60,0.1612716,-0.06378408,0.1020054,-0.9392421,-1.822775,-0.2047209,0.6224091,1.415879,0.007789612,-0.05585455,-0.08932605,0.09159964,-0.7388802,-0.2862316,0.09953165,0.7224755,1.505728,0.1933728,0.2037428,1.223358,0.1616687,86.6674,318.4563,30.22476,True
2,1.27778,0.4833685,0.03156213,0.06791514,-1.518571,-1.861249,2.438057,0.5357468,1.262244,0.01982504,-1.188401,0.8928897,0,60,0.1697289,-0.04885174,0.08068632,-0.9390322,-1.8228,-0.2068648,0.620461,1.415492,0.007454455,-0.05715547,-0.09573312,0.08303162,-0.7388605,-0.2897023,0.104055,0.7204463,1.506263,0.1923773,0.2002982,1.222795,0.1630484,87.03799,320.4578,31.8151,True
2,1.288891,0.5067546,0.02413618,0.06025978,-1.51897,-1.861538,2.431604,0.5331635,1.262371,0.01973462,-1.178979,0.842436,0,60,0.1749991,-0.0392521,0.06469939,-0.9388644,-1.823018,-0.208807,0.6183505,1.41502,0.007060081,-0.05418165,-0.1031098,0.06909278,-0.7386991,-0.2917139,0.1059597,0.7186399,1.506074,0.1918159,0.1969023,1.222306,0.1639514,87.28777,322.7005,33.80982,True
2,1.300002,0.5417956,0.02420031,0.04821683,-1.518881,-1.861982,2.424537,0.5304344,1.262552,0.0197261,-1.168771,0.9161157,0,60,0.1792987,-0.04675487,0.07637436,-0.9376319,-1.823564,-0.2106766,0.616286,1.414502,0.006682307,-0.04993358,-0.1105568,0.07003915,-0.7381889,-0.2933365,0.1076796,0.7176189,1.505797,0.1913089,0.1935224,1.221854,0.1643677,87.45086,325.3965,36.44913,True
2,1.311113,0.5833636,0.02429175,0.04996307,-1.519228,-1.862608,2.416771,0.5276687,1.262629,0.01967198,-1.158187,0.9456505,0,60,0.1676223,-0.07019507,0.09875538,-0.9355024,-1.824917,-0.2113831,0.6143794,1.413998,0.006289929,-0.05201884,-0.1212283,0.0753372,-0.737286,-0.2957965,0.1101979,0.7157471,1.50566,0.1908415,0.1899655,1.221503,0.1643817,87.58297,329.4878,40.62502,True
2,1.322224,0.6227898,0.01161157,0.04856541,-1.519787,-1.862941,2.408822,0.5248551,1.262721,0.01967245,-1.147416,0.9623648,0,60,0.1431707,-0.09039277,0.1212202,-0.933063,-1.826438,-0.2111943,0.6123157,1.413433,0.005917519,-0.05918536,-0.1256696,0.1009827,-0.7356263,-0.2993472,0.1148488,0.713974,1.50555,0.1899652,0.1861798,1.221293,0.1641379,87.67898,334.8888,46.24472,True
2,1.333336,0.6440937,-0.004333839,0.04414269,-1.520507,-1.862707,2.400974,0.5220206,1.262736,0.01961666,-1.136625,0.9636545,0,60,0.1132518,-0.1073173,0.1181564,-0.9316057,-1.828376,-0.2101551,0.6100023,1.412764,0.005581617,-0.06210417,-0.1342778,0.1222576,-0.7341579,-0.3014144,0.1173557,0.712621,1.505347,0.1893086,0.1821634,1.221269,0.1638223,87.74077,340.7139,52.35934,True
2,1.344447,0.6749313,-0.03303255,0.03220896,-1.52139,-1.861891,2.39265,0.5190332,1.26272,0.01950893,-1.126186,0.930255,0,60,0.1141294,-0.1168463,0.09256023,-0.931129,-1.83033,-0.2102339,0.607733,1.412011,0.005185574,-0.06217346,-0.1363823,0.117984,-0.7331858,-0.3039432,0.1199168,0.7107894,1.505098,0.1886254,0.1780314,1.221442,0.1635857,87.74129,346.4351,58.35671,True
2,1.355558,0.7100611,-0.06597412,0.02236526,-1.522439,-1.860767,2.383889,0.5159628,1.262673,0.01952827,-1.116225,0.8877144,0,60,0.1501396,-0.108369,0.0508236,-0.931855,-1.83162,-0.212419,0.6058109,1.411364,0.004799336,-0.05824254,-0.1564494,0.0996962,-0.7329232,-0.3059599,0.1219182,0.7088337,1.50399,0.1885045,0.1738973,1.221801,0.1635172,87.71724,350.8417,62.95871,True
2,1.366669,0.7388908,-0.08294789,0.0253271,-1.523766,-1.859939,2.374612,0.5128801,1.262661,0.01952621,-1.10633,0.8832719,0,60,0.1745155,-0.09774335,0.02194367,-0.9324483,-1.832681,-0.2145909,0.6035192,1.410561,0.004398972,-0.06802578,-0.1531423,0.08601122,-0.7326607,-0.3084033,0.1248402,0.7069418,1.503584,0.1878622,0.1698231,1.222314,0.1636047,87.708,353.2504,65.42516,True
2,1.37778,0.7793943,-0.1041708,0.0228717,-1.525209,-1.858762,2.364573,0.5096631,1.262686,0.01952434,-1.096394,0.8855126,0,60,0.2010117,-0.0732553,-0.01756804,-0.9339301,-1.833044,-0.2175062,0.601033,1.409672,0.004074782,-0.08398548,-0.1488597,0.08746308,-0.7300571,-0.3112845,0.12871,0.7037997,1.502892,0.1871268,0.1656956,1.222992,0.1637867,87.70509,354.324,66.46075,True
2,1.388891,0.8230352,-0.1275278,0.01292789,-1.526608,-1.857148,2.353809,0.5063043,1.262731,0.01958588,-1.086326,0.8970889,0,60,0.214837,-0.05835509,-0.03146107,-0.9345714,-1.833351,-0.220082,0.598752,1.408733,0.003795356,-0.08709618,-0.1606086,0.09490095,-0.7289535,-0.3147057,0.1321919,0.7014999,1.502755,0.1869349,0.161452,1.223835,0.1640033,87.6794,355.1215,67.2234,True
2,1.400002,0.8442448,-0.1456269,-0.001081944,-1.52781,-1.855235,2.343768,0.5031195,1.262738,0.01953396,-1.075984,0.9212834,0,60,0.2106022,-0.06581861,-0.02186671,-0.9343205,-1.834512,-0.2215958,0.5963333,1.407751,0.003399968,-0.09213824,-0.1682272,0.1141246,-0.7271585,-0.3195843,0.1367384,0.6984823,1.502196,0.1861807,0.1570924,1.224846,0.1642269,87.62611,356.3978,68.49693,True
2,1.411114,0.8707002,-0.1882422,-0.03106052,-1.529481,-1.851873,2.333036,0.4997947,1.262761,0.01947242,-1.065601,0.923897,0,60,0.2010299,-0.07752842,-0.01012209,-0.9337218,-1.836046,-0.222449,0.5937946,1.406801,0.00297749,-0.08659167,-0.1853971,0.1320494,-0.7254941,-0.3239709,0.1408019,0.6960921,1.501711,0.1855316,0.152538,1.226076,0.1644374,87.56957,357.7552,69.86279,True
2,1.422225,0.8876706,-0.2169846,-0.04606941,-1.531159,-1.848941,2.322531,0.4965422,1.262781,0.0194371,-1.05613,0.8395397,0,60,0.2001512,-0.06052923,0.01016578,-0.932949,-1.835972,-0.2246914,0.5913002,1.40578,0.00260675,-0.08854359,-0.203621,0.1457994,-0.7241838,-0.3293454,0.1454864,0.6938305,1.501252,0.1848525,0.1478292,1.227538,0.1645717,87.52457,358.2028,70.31396,True
2,1.433336,0.9174547,-0.2478451,-0.05800408,-1.533322,-1.845433,2.310978,0.4930363,1.262729,0.01932183,-1.046405,0.8669504,0,60,0.2087674,-0.04246192,0.01442477,-0.932656,-1.835631,-0.2275304,0.5890474,1.40485,0.002245247,-0.09406642,-0.2205738,0.1340532,-0.7235569,-0.334003,0.1499022,0.6914692,1.500683,0.1840906,0.1431735,1.229145,0.1645022,87.49322,357.0366,69.12315,True
2,1.444447,0.9324088,-0.2296602,-0.0485805,-1.534565,-1.844212,2.300147,0.4895639,1.262729,0.01935688,-1.036873,0.8463854,0,60,0.2280255,0.0001096129,-0.0004978962,-0.9335034,-1.833946,-0.2317917,0.5864365,1.403792,0.001921326,-0.09754333,-0.2247007,0.1159847,-0.7231053,-0.3378615,0.1540439,0.6889906,1.500288,0.1835263,0.1384623,1.230901,0.1641103,87.43052,355.0269,67.11131,True
2,1.455558,0.92395,-0.1635788,-0.02517934,-1.534699,-1.845033,2.290159,0.4858801,1.262629,0.0194639,-1.026809,0.8969674,0,60,0.2366348,0.04379439,-0.01534799,-0.9345767,-1.83168,-0.2361028,0.5837431,1.402666,0.001620919,-0.07866154,-0.220353,0.09442022,-0.7231494,-0.3411444,0.1565611,0.6872699,1.499192,0.1824412,0.1337,1.232762,0.1633645,87.30318,352.7305,64.92793,True
2,1.466669,0.8804886,-0.08583024,0.01661564,-1.534627,-1.847284,2.281897,0.4823141,1.262347,0.01951343,-1.017333,0.8393627,0,60,0.2335221,0.08752546,-0.0312079,-0.9360111,-1.829147,-0.2400528,0.5809469,1.401588,0.001293004,-0.03661597,-0.2394365,0.05958416,-0.7241657,-0.3459283,0.1591225,0.6848397,1.49849,0.1816851,0.128759,1.23474,0.1623305,87.09943,350.6733,63.14322,True
2,1.47778,0.8294751,-0.03367341,0.04362966,-1.534527,-1.849357,2.274712,0.4787743,1.262104,0.01961687,-1.008408,0.7928606,0,60,0.2388943,0.1098935,-0.03864168,-0.937143,-1.826947,-0.2441735,0.5779161,1.400504,0.001009077,0.003293097,-0.2382479,0.02064192,-0.7256443,-0.3495812,0.1604847,0.6823466,1.497765,0.1809267,0.1238736,1.236713,0.1612702,86.83189,348.2546,61.23029,True
2,1.488891,0.6952871,0.04169236,0.06709281,-1.533375,-1.852422,2.271592,0.4751225,1.261524,0.01964849,-1.000314,0.718868,0,60,0.2463266,0.1045381,-0.0387053,-0.9378311,-1.826038,-0.2476356,0.5750225,1.399472,0.0007081628,0.02626989,-0.2423963,-0.01065294,-0.7275516,-0.3535866,0.1623988,0.6805263,1.496861,0.1796835,0.1192605,1.238493,0.1605747,86.54555,344.6601,58.20828,True
2,1.500003,0.6151729,0.06066085,0.04969303,-1.532387,-1.853179,2.26749,0.471688,1.261067,0.01962379,-0.9924116,0.7058132,0,60,0.2825277,0.04998069,-0.004960448,-0.9365837,-1.827209,-0.2512442,0.5714049,1.398328,0.0005286634,0.0485829,-0.2509663,-0.01316808,-0.7282637,-0.358043,0.1645059,0.677815,1.495976,0.1788287,0.1151471,1.239827,0.1605448,86.2888,340.9016,54.84308,True
2,1.511114,0.4973715,0.08051084,-0.01210335,-1.529856,-1.852467,2.265778,0.4679954,1.260356,0.01951569,-0.986306,0.5418338,0,60,0.3007059,0.01786634,0.02894711,-0.9349964,-1.827698,-0.254782,0.5683,1.397252,0.0003596842,0.05538556,-0.2799526,0.02171933,-0.7274457,-0.3640714,0.1686862,0.6746657,1.49522,0.1779065,0.1114694,1.240525,0.1612965,86.13254,336.8766,50.88452,True
2,1.522225,0.4072387,0.09402077,-0.07841631,-1.526746,-1.851014,2.263998,0.4642148,1.259413,0.01934314,-0.9780512,0.7491887,0,60,0.310332,-0.05048056,0.08198936,-0.9317021,-1.830248,-0.2570574,0.5644736,1.395953,0.0002457798,0.05798011,-0.3142478,0.05768003,-0.7266797,-0.3707688,0.1726913,0.672178,1.494373,0.1771176,0.1081769,1.240272,0.162747,86.13401,332.3035,46.01076,True
2,1.533336,0.3644562,0.1013438,-0.09507756,-1.524799,-1.85067,2.261188,0.4604411,1.258421,0.01916778,-0.9700974,0.710978,0,60,0.3110753,-0.1442556,0.09134309,-0.9293995,-1.835269,-0.2574041,0.5607643,1.394603,0.0001859069,0.06093968,-0.3518959,0.1191745,-0.7246632,-0.3785835,0.1775561,0.669611,1.493359,0.176382,0.1047982,1.239046,0.1645751,86.4086,328.9769,42.03126,True
2,1.544447,0.3177584,0.131124,-0.06914504,-1.522978,-1.852419,2.259141,0.4566753,1.257157,0.01894605,-0.9608126,0.8397628,0,60,0.3148633,-0.1984952,0.04751018,-0.9292675,-1.840394,-0.2579639,0.5568459,1.393191,0.0001038909,0.07587861,-0.3594131,0.1221026,-0.7239739,-0.3852855,0.1812329,0.6667664,1.492351,0.1754658,0.1009919,1.236776,0.1662771,86.90788,325.3985,37.64072,True
2,1.555558,0.2917331,0.1471866,0.0002973024,-1.522724,-1.855527,2.256735,0.4528294,1.255804,0.01876408,-0.9496135,1.009552,0,60,0.3268584,-0.2601135,-0.04539703,-0.931807,-1.847351,-0.2578875,0.5532007,1.391834,-0.0001764894,0.09158529,-0.381747,0.1089501,-0.7242296,-0.3927181,0.1854596,0.6639318,1.491138,0.1743129,0.09656757,1.233497,0.1674183,87.558,325.7162,37.30804,True
2,1.566669,0.2581772,0.1482916,0.05813765,-1.523109,-1.85854,2.255075,0.4490185,1.254398,0.01855591,-0.9382684,1.017321,0,60,0.3273046,-0.3569673,-0.08505608,-0.9320936,-1.856379,-0.2561617,0.549238,1.390242,-0.0003926158,0.110121,-0.4160943,0.1457566,-0.7225273,-0.401494,0.1905715,0.6610727,1.490033,0.1734627,0.09162531,1.229372,0.1678636,88.20452,339.5343,50.9211,True
2,1.577781,0.2166286,0.1460743,0.05745621,-1.522169,-1.85993,2.254,0.4453955,1.253017,0.01818949,-0.9264717,1.061848,0,60,0.2907618,-0.4794006,-0.05637811,-0.9295332,-1.867509,-0.2515624,0.5452864,1.388605,-0.0005812645,0.1226169,-0.4106765,0.125359,-0.7226216,-0.4081096,0.1937689,0.6580939,1.489169,0.1723226,0.08654819,1.224556,0.1678018,88.43102,13.33444,84.97419,True
2,1.588892,0.1843091,0.1437964,0.01834234,-1.520185,-1.860067,2.252968,0.4417341,1.25174,0.01791015,-0.9151399,1.016466,0,60,0.2224504,-0.5612414,-0.02208979,-0.92655,-1.877744,-0.2457709,0.5414915,1.386996,-0.000739038,0.1012583,-0.4159187,0.1235147,-0.7222877,-0.4152562,0.198866,0.6551676,1.488066,0.1706162,0.08153913,1.219343,0.1676139,87.87164,45.11889,117.2318,True
2,1.600003,0.1495311,0.111594,-0.06330441,-1.517782,-1.857401,2.252336,0.4383485,1.250433,0.01741424,-0.9042465,0.9793733,0,60,0.1851196,-0.5664082,-0.02614503,-0.9254144,-1.885732,-0.2417974,0.5378466,1.38542,-0.0009413958,0.08543383,-0.4234032,0.1354241,-0.7214327,-0.4231509,0.2043633,0.6523914,1.486956,0.1696185,0.07679041,1.213993,0.1675625,87.00063,61.92278,134.39,True
2,1.611114,0.1674071,0.05082763,-0.1027656,-1.517362,-1.854512,2.249794,0.4350951,1.249258,0.01707429,-0.8932983,0.9855503,0,60,0.1521435,-0.524682,-0.04608808,-0.9256769,-1.891181,-0.2392664,0.5345187,1.383895,-0.001252592,0.07275586,-0.4202112,0.1420248,-0.7205571,-0.4304993,0.2095351,0.6497056,1.485784,0.1686733,0.07232813,1.208742,0.1676409,86.18207,73.24723,145.7584,True
2,1.622225,0.1994885,0.008302286,-0.09978405,-1.517752,-1.853063,2.246308,0.4316597,1.248027,0.01673642,-0.8827564,0.9478251,0,60,0.1524165,-0.4287595,-0.06503106,-0.9265979,-1.893651,-0.2394938,0.5313654,1.38233,-0.001583159,0.06607914,-0.3923469,0.1177893,-0.7207952,-0.4358565,0.2130082,0.6469722,1.484663,0.1677362,0.06798857,1.20381,0.1676656,85.45826,82.09465,154.3757,True
2,1.633336,0.2489287,-0.04265549,-0.06603996,-1.519954,-1.852068,2.241581,0.4284472,1.246997,0.01655257,-0.8709282,1.066785,0,60,0.1644583,-0.3339781,-0.07445445,-0.9274448,-1.894859,-0.2411697,0.5286071,1.380986,-0.001844406,0.06053898,-0.3837471,0.104066,-0.7211697,-0.4424391,0.2177094,0.6440871,1.483608,0.1670191,0.06370114,1.199319,0.1672594,84.77603,88.28181,160.2289,True
2,1.644447,0.2716784,-0.07980819,-0.03314675,-1.521992,-1.851542,2.237916,0.4249954,1.245847,0.01641059,-0.858731,1.093176,0,60,0.1747635,-0.1742548,-0.06134158,-0.9285793,-1.890438,-0.246197,0.5256982,1.379536,-0.002295762,0.03932996,-0.3506647,0.1045835,-0.7206354,-0.4470586,0.2214576,0.6412649,1.482493,0.1661012,0.05926746,1.195455,0.1662864,84.06554,90.40591,162.297,True
2,1.655559,0.2750757,-0.1213152,-0.02135983,-1.524141,-1.850159,2.234876,0.4217844,1.244714,0.0162119,-0.8465113,1.095064,0,60,0.1426734,-0.05606994,0.01690834,-0.9265041,-1.886038,-0.249367,0.5229738,1.37811,-0.002653569,0.01940526,-0.3422262,0.1272925,-0.7194806,-0.4529384,0.2268667,0.6385171,1.481265,0.1650768,0.05469245,1.192309,0.1649258,83.39942,89.81377,162.0646,True
2,1.66667,0.2899798,-0.1628576,-0.03312571,-1.526278,-1.84759,2.230958,0.4186122,1.243476,0.01584023,-0.8359023,0.9459169,0,60,0.1248285,-0.04543608,0.05433441,-0.9245888,-1.886212,-0.2501709,0.5203619,1.376702,-0.002984732,0.004798576,-0.3359044,0.1467506,-0.7178359,-0.4591512,0.2318082,0.6356511,1.479752,0.1646698,0.05015866,1.189924,0.1635036,82.85172,88.02467,160.8911,True
2,1.677781,0.3164973,-0.2065168,-0.05672999,-1.528164,-1.844168,2.22632,0.4156306,1.242169,0.01548421,-0.8263341,0.8574787,0,60,0.106799,-0.06887235,0.08421165,-0.922298,-1.887431,-0.2500317,0.5174794,1.375062,-0.003328532,-0.03325804,-0.3124517,0.1623757,-0.7161767,-0.4640418,0.2371377,0.6329684,1.47858,0.1637953,0.04583782,1.188152,0.1622994,82.6041,86.52058,159.9457,True
2,1.688892,0.3428421,-0.2459555,-0.09737675,-1.529864,-1.839871,2.221469,0.4126472,1.240987,0.0149639,-0.8163584,0.8964195,0,60,0.1118714,-0.09760125,0.06067416,-0.9219874,-1.890057,-0.2499353,0.5149505,1.373472,-0.003697604,-0.05966517,-0.307133,0.1766651,-0.714483,-0.4697651,0.2429487,0.6301622,1.477431,0.1630542,0.04187466,1.18675,0.1613642,82.59443,85.71275,159.4014,True
2,1.700003,0.3682359,-0.2736452,-0.1231288,-1.531553,-1.835773,2.216382,0.4096889,1.239736,0.0145047,-0.8062022,0.9095919,0,60,0.1201392,-0.1049992,0.02225631,-0.9226564,-1.892117,-0.2503116,0.5121312,1.371849,-0.004052252,-0.06720945,-0.3156081,0.1724638,-0.7136707,-0.4760716,0.2487419,0.6275771,1.476261,0.1621843,0.03809333,1.185524,0.1605705,82.67207,85.48828,159.1519,True
2,1.711114,0.393534,-0.2949692,-0.1574089,-1.533067,-1.830991,2.210909,0.4068098,1.238665,0.01385,-0.7962548,0.8892772,0,60,0.1338188,-0.08471689,-0.02038747,-0.9242032,-1.892926,-0.2517894,0.509418,1.370212,-0.004478306,-0.05905432,-0.3389618,0.1540669,-0.7138811,-0.4832725,0.2549023,0.62322,1.476086,0.160335,0.03432465,1.184331,0.1597123,82.70964,85.69121,159.2086,True
2,1.722225,0.4039433,-0.2779446,-0.1799143,-1.533414,-1.827376,2.205863,0.4040329,1.237618,0.01318541,-0.7863989,0.8817902,0,60,0.1167852,-0.0355676,-0.05212791,-0.9261665,-1.891897,-0.2531606,0.5067408,1.368673,-0.004974902,-0.06368233,-0.3014687,0.1224033,-0.7141357,-0.4865788,0.2582728,0.6206081,1.475001,0.1593508,0.03041323,1.183091,0.1585772,82.65602,85.98139,159.386,True
2,1.733337,0.3887994,-0.2545835,-0.1989959,-1.533387,-1.823871,2.201895,0.401125,1.236622,0.01252148,-0.7764659,0.8887655,0,60,0.09376046,-0.0004384369,-0.00503348,-0.92487,-1.8901,-0.2544107,0.5040302,1.367289,-0.005500972,-0.05356429,-0.2928187,0.09454131,-0.7154992,-0.4909675,0.263478,0.616523,1.474141,0.1580555,0.02634456,1.181747,0.1570614,82.50347,86.0306,159.477,True
2,1.744448,0.3595976,-0.2227676,-0.2382053,-1.532094,-1.819882,2.198843,0.398308,1.235632,0.01167193,-0.7670645,0.8399501,0,60,0.07817937,-0.006941989,0.06748351,-0.9216545,-1.889428,-0.2551599,0.5013633,1.365763,-0.00605309,-0.0481623,-0.2832667,0.09771694,-0.7151296,-0.4956502,0.2673726,0.6138592,1.473138,0.1569073,0.02219383,1.180303,0.1551038,82.25306,86.06699,159.7041,True
2,1.755559,0.367844,-0.2025538,-0.2638942,-1.531135,-1.815944,2.194204,0.3955052,1.23466,0.01078424,-0.7584406,0.7705927,0,60,0.02760363,-0.1019404,0.2284127,-0.9126909,-1.892363,-0.2520301,0.4990494,1.364072,-0.006652027,-0.05179706,-0.296316,0.1424379,-0.7132483,-0.5023049,0.2730797,0.6112278,1.472177,0.1557409,0.01811437,1.178746,0.1527894,82.00121,86.1442,160.1538,True
2,1.76667,0.4702164,-0.1649888,-0.2446748,-1.530434,-1.813998,2.185398,0.3925643,1.233965,0.01016241,-0.7501512,0.7434257,0,60,0.02009761,-0.1264327,0.2369197,-0.9093044,-1.894211,-0.2508607,0.4965575,1.36249,-0.007145971,-0.07687463,-0.3135116,0.178928,-0.7112462,-0.5097477,0.2803552,0.6086402,1.471238,0.154631,0.01413564,1.177033,0.150255,81.80682,86.41477,160.8529,True
2,1.777781,0.6348103,-0.0920077,-0.1696517,-1.52962,-1.815337,2.172961,0.3896039,1.233337,0.009752303,-0.7403764,0.8808333,0,60,0.05250271,-0.1124391,0.1217171,-0.9118482,-1.896166,-0.2514085,0.4948351,1.361058,-0.007717371,-0.1106249,-0.3124865,0.2018096,-0.7092856,-0.5161569,0.2876174,0.606215,1.470333,0.1535794,0.01026978,1.175103,0.1475567,81.61503,87.12036,161.9305,True
2,1.788892,0.7751731,0.009739771,-0.05823283,-1.528601,-1.819666,2.159908,0.3866043,1.233147,0.009442747,-0.7275841,1.148827,0,60,0.1117247,-0.02713466,-0.01158923,-0.9169626,-1.894369,-0.2557718,0.4926536,1.359545,-0.008358866,-0.1235287,-0.2707062,0.1809974,-0.7078016,-0.5178913,0.2898771,0.6033721,1.467489,0.154726,0.006262086,1.173089,0.1448193,81.18996,87.4288,162.679,True
2,1.800003,0.8097851,0.08774591,0.01691261,-1.527055,-1.823696,2.150207,0.3837428,1.232863,0.009104073,-0.7130821,1.292568,0,60,0.1479297,0.06022526,-0.07444269,-0.9207011,-1.891002,-0.2606553,0.4908023,1.358308,-0.009049714,-0.1177412,-0.223543,0.1311278,-0.7082129,-0.5192713,0.2920561,0.6012461,1.466479,0.1539758,0.001867149,1.171393,0.1424306,80.41417,87.00401,162.9544,True
2,1.811115,0.7781638,0.1985819,0.07983798,-1.523907,-1.82958,2.142941,0.3811255,1.232865,0.008751035,-0.6998047,1.174955,0,60,0.1438996,0.1006928,-0.06260633,-0.9211975,-1.888313,-0.26354,0.4889278,1.357027,-0.009680361,-0.1201489,-0.1860663,0.1079218,-0.7083497,-0.5198542,0.2942569,0.5992751,1.464524,0.1538755,-0.002718417,1.170494,0.1409717,79.48394,86.25587,163.0785,True
2,1.822226,0.6989289,0.2825229,0.05695861,-1.518779,-1.83255,2.138136,0.378814,1.232823,0.00833109,-0.6906583,0.8031911,0,60,0.1253314,0.1474696,0.008991912,-0.9196092,-1.883519,-0.2672056,0.4872937,1.355968,-0.01025039,-0.1351697,-0.143313,0.0924275,-0.7079497,-0.5202439,0.2965353,0.597276,1.463526,0.1532175,-0.006982552,1.170739,0.1409437,78.81544,85.88216,163.3416,True
2,1.833337,0.6418034,0.3238079,-0.005447246,-1.513464,-1.833332,2.132884,0.3764994,1.232515,0.00767535,-0.6837991,0.6094068,0,60,0.1248609,0.1632347,0.1006476,-0.9160869,-1.87943,-0.2709516,0.4857142,1.354913,-0.01080394,-0.1529895,-0.1209817,0.1077458,-0.7064365,-0.5219933,0.3002014,0.5952053,1.462629,0.1525538,-0.01031776,1.172044,0.1423958,78.79945,86.37034,163.8502,True
2,1.844448,0.5575549,0.3553131,-0.1230203,-1.50636,-1.830904,2.129163,0.3745441,1.23219,0.007000118,-0.6782283,0.4957518,0,60,0.141183,0.1534244,0.1665812,-0.9126248,-1.876441,-0.2748443,0.484272,1.353996,-0.0112108,-0.1427858,-0.1468665,0.1543135,-0.7040961,-0.5271178,0.3053466,0.5932035,1.461875,0.1519334,-0.01247203,1.174051,0.1450977,79.39264,88.24454,165.0885,True
2,1.855559,0.5339677,0.3626868,-0.1377406,-1.501789,-1.831445,2.123879,0.3724475,1.231719,0.006560355,-0.6712455,0.6296164,0,60,0.1561495,0.1373302,0.1866996,-0.9103116,-1.874472,-0.2782793,0.4824984,1.35294,-0.01156339,-0.140188,-0.1587946,0.1882745,-0.7019017,-0.5318615,0.3103379,0.591656,1.460537,0.1514548,-0.01379375,1.176227,0.1483933,80.39095,92.16392,167.7128,True
2,1.86667,0.5130469,0.3765583,-0.09284736,-1.498257,-1.83413,2.119067,0.370553,1.231211,0.006056666,-0.6643032,0.619554,0,60,0.1653458,0.06915507,0.1673093,-0.9088788,-1.876038,-0.2793885,0.4808114,1.351998,-0.0118494,-0.1337982,-0.1620215,0.1892101,-0.7008327,-0.5355677,0.3145494,0.5902898,1.459637,0.1507185,-0.01500149,1.178069,0.1513921,81.41309,97.77563,171.6933,True
2,1.877781,0.4901061,0.3734188,-0.04042885,-1.495552,-1.837373,2.114656,0.3686182,1.230709,0.005566329,-0.6549965,0.840175,0,60,0.160587,-0.02132288,0.1447467,-0.9071786,-1.879783,-0.2787171,0.4792395,1.351261,-0.01217234,-0.09989201,-0.1673477,0.172682,-0.700479,-0.5392153,0.3163148,0.5947628,1.45989,0.1498777,-0.01654454,1.179123,0.1532249,82.15748,103.8911,176.4517,True
2,1.888893,0.400334,0.3541581,0.03926744,-1.494652,-1.841304,2.11373,0.3672886,1.2302,0.005053163,-0.6450538,0.8881672,0,60,0.1409966,-0.1085709,0.1329261,-0.9051477,-1.884168,-0.27703,0.4778202,1.350496,-0.01266697,-0.08003103,-0.1309984,0.1395896,-0.7000747,-0.5402893,0.3173162,0.5935903,1.459288,0.1490689,-0.01862948,1.179174,0.1537258,82.44422,106.9414,179.0448,True
2,1.900004,0.2969879,0.3048974,0.0264821,-1.492988,-1.842172,2.113684,0.3661366,1.229677,0.004413575,-0.6348544,0.9139656,0,60,0.08863056,-0.1712478,0.1479948,-0.9020728,-1.888274,-0.2738076,0.4765718,1.349893,-0.0130724,-0.09517178,-0.08499987,0.1155892,-0.6994425,-0.5395703,0.3183484,0.5923631,1.458636,0.1485331,-0.02095391,1.178114,0.1532347,82.30989,107.2058,179.6536,True
2,1.911115,0.2177682,0.2576976,-0.02385594,-1.490874,-1.840422,2.113991,0.3649318,1.22908,0.003787279,-0.626605,0.7362896,0,60,0.05465722,-0.1764931,0.1716186,-0.8989292,-1.889615,-0.2725149,0.4756052,1.349256,-0.01346207,-0.09077262,-0.07014523,0.1220112,-0.6979794,-0.5410358,0.3204414,0.5911345,1.458259,0.1477702,-0.02319228,1.175984,0.1522489,81.85426,106.1322,179.2806,True
2,1.922226,0.1384636,0.1998643,-0.08798259,-1.489013,-1.837696,2.114925,0.3639786,1.228516,0.003109306,-0.6181932,0.7616002,0,60,0.02090543,-0.1316774,0.1985563,-0.8959113,-1.888486,-0.2722685,0.47457,1.348681,-0.01383087,-0.07012363,-0.0757046,0.150438,-0.6957594,-0.5439646,0.3226931,0.5899031,1.457734,0.1472486,-0.02481245,1.172805,0.151148,81.22836,104.9868,178.7489,True
2,1.933337,0.04955281,0.1292194,-0.1562595,-1.487641,-1.833524,2.117132,0.363133,1.228065,0.002949417,-0.608927,0.8372917,0,60,0.009377509,-0.09542482,0.2051082,-0.8935758,-1.887186,-0.2730294,0.4737689,1.348099,-0.0142605,-0.06986585,-0.07493591,0.1749274,-0.6941417,-0.5496988,0.3291593,0.5878384,1.459141,0.1451851,-0.0260838,1.168725,0.1500144,80.44137,105.1551,179.1017,True
2,1.944448,-0.001427449,0.09610249,-0.1471918,-1.487036,-1.832335,2.118833,0.3622985,1.227249,0.002429724,-0.5992219,0.8760402,0,60,0.003968149,-0.07296048,0.1753649,-0.8927411,-1.886806,-0.2730877,0.4727678,1.347517,-0.01461855,-0.08146313,-0.07708487,0.1836092,-0.6922429,-0.5522288,0.3324664,0.5867093,1.458782,0.1445201,-0.02743027,1.163977,0.1486525,79.4885,105.9467,179.7663,True
2,1.955559,-0.01907106,0.08871332,-0.09908123,-1.486552,-1.833495,2.119485,0.3613,1.226694,0.002194583,-0.5896239,0.8661279,0,60,0.004708339,-0.07817718,0.1242126,-0.8928556,-1.888638,-0.2720334,0.4713817,1.346773,-0.01485783,-0.06212111,-0.08988546,0.1928476,-0.6898429,-0.5536058,0.3327377,0.5862968,1.457076,0.1453741,-0.02892238,1.158799,0.1468353,78.40959,106.2596,180.0209,True
2,1.966671,-0.05838021,0.1059398,0.03015119,-1.487452,-1.838563,2.12174,0.3605986,1.225801,0.001921386,-0.578666,0.9930928,0,60,-0.008483628,-0.116375,0.08051781,-0.8926511,-1.892145,-0.269351,0.4704683,1.34613,-0.01512879,-0.03462762,-0.09411426,0.1785762,-0.6885608,-0.5556496,0.333616,0.5849168,1.456985,0.144679,-0.03049843,1.153383,0.144528,77.32236,105.8526,179.8866,True
2,1.977782,-0.1038316,0.1176433,0.07103446,-1.487099,-1.84133,2.124663,0.3599322,1.224863,0.001554549,-0.5663265,1.113529,0,60,-0.02788049,-0.1418154,0.06032859,-0.8920301,-1.895269,-0.2663883,0.4694707,1.345449,-0.01545221,-0.035863,-0.07164229,0.162751,-0.6873672,-0.5563378,0.3345905,0.5839744,1.456586,0.1441379,-0.03196014,1.147872,0.1420399,76.24463,104.7348,179.4406,True
2,1.988893,-0.1880697,0.09719247,0.05801205,-1.486804,-1.841504,2.12971,0.3595328,1.223774,0.001058578,-0.555006,1.01656,0,60,-0.06107533,-0.1768338,0.05617569,-0.8906069,-1.899157,-0.2620303,0.4684827,1.344691,-0.01574999,-0.03910027,-0.05877447,0.155407,-0.6860591,-0.5566998,0.3350427,0.58393,1.455246,0.1443943,-0.0328546,1.14431,0.14053,75.89795,97.3524,172.4122,True
2,2.000004,-0.2610865,0.04468275,-0.01577281,-1.486427,-1.83841,2.134881,0.3595243,1.222607,0.0004440546,-0.544365,0.9604277,0,60,-0.08035424,-0.2023229,0.05622674,-0.8891554,-1.902911,-0.2580558,0.4677324,1.343861,-0.01601771,-0.03696992,-0.05878057,0.1553754,-0.684629,-0.5585632,0.3368172,0.5832052,1.454771,0.1439551,-0.03251348,1.142877,0.1403261,76.316,95.65768,171.0297,True
2,2.011115,-0.2721974,-0.006600164,-0.07735159,-1.486356,-1.834838,2.137726,0.359242,1.221566,-0.0001887679,-0.5351174,0.8344555,0,60,-0.08999286,-0.1862543,0.0360821,-0.8890074,-1.904751,-0.2556901,0.4673111,1.343136,-0.01635563,-0.03072068,-0.09607042,0.1529238,-0.6838273,-0.5630251,0.3404164,0.5825615,1.454242,0.1435181,-0.031582,1.141939,0.1410832,77.16062,99.12226,174.3587,True
2,2.022226,-0.2416563,-0.1099946,-0.1392124,-1.488406,-1.82902,2.138781,0.3592286,1.220413,-0.0009568632,-0.5255584,0.8694136,0,60,-0.1007303,-0.127487,-0.01911026,-0.8911827,-1.904741,-0.2542445,0.4667594,1.342324,-0.01676303,-0.0298921,-0.1066415,0.1389962,-0.683357,-0.5659127,0.3429342,0.5819404,1.453677,0.1431109,-0.03080452,1.141079,0.1416702,78.45302,105.8094,180.6821,True
2,2.033337,-0.2233747,-0.1642728,-0.1339456,-1.490778,-1.826146,2.140329,0.3589756,1.219351,-0.001580387,-0.513931,1.055768,0,60,-0.1156587,-0.07940222,-0.05619803,-0.8932754,-1.904433,-0.2527913,0.4662161,1.341539,-0.01726288,-0.03219916,-0.09696319,0.125239,-0.6827371,-0.5675646,0.3446546,0.5812895,1.453138,0.1426796,-0.03032978,1.140044,0.1411714,79.60551,108.9806,183.3751,True
2,2.044448,-0.2218426,-0.2409052,-0.1018402,-1.49537,-1.823254,2.142505,0.35883,1.218264,-0.002241164,-0.5012645,1.14115,0,60,-0.1688383,-0.02160228,-0.08132067,-0.8954059,-1.903001,-0.2500644,0.4659975,1.340789,-0.01766047,-0.01141949,-0.1031648,0.08975518,-0.6828963,-0.5689141,0.3450392,0.5803056,1.453661,0.1414786,-0.03016126,1.138992,0.1397438,80.43141,102.5431,176.2539,True
2,2.055559,-0.2377497,-0.3176588,-0.1121931,-1.499458,-1.818704,2.145422,0.3587699,1.21713,-0.002861798,-0.4893798,1.067272,0,60,-0.1889934,-0.009817436,-0.07478262,-0.8960749,-1.902853,-0.2473704,0.4654789,1.339935,-0.0180389,-0.01050317,-0.09457421,0.07807419,-0.6826923,-0.5702915,0.3461955,0.5796773,1.453226,0.1410068,-0.03019731,1.137965,0.1379029,80.70026,90.9594,163.9229,True
2,2.06667,-0.2329352,-0.3860584,-0.1781874,-1.503164,-1.810026,2.147516,0.3586087,1.215916,-0.003837407,-0.4786734,0.9641454,0,60,-0.1877583,0.008243226,-0.05877136,-0.8963097,-1.902257,-0.2458489,0.4650855,1.339124,-0.01841739,-0.01476085,-0.08283097,0.07607818,-0.6821789,-0.5714439,0.3473889,0.5790815,1.452792,0.1405486,-0.03036403,1.136987,0.1365024,80.71338,79.27744,151.6049,True
2,2.077781,-0.2046293,-0.4148763,-0.2337915,-1.505354,-1.803176,2.148273,0.3584826,1.214955,-0.004637271,-0.4689315,0.8786216,0,60,-0.1557433,0.02516319,-0.0610484,-0.8972301,-1.901433,-0.2457259,0.4645596,1.338336,-0.01878741,-0.02515298,-0.09996504,0.09528942,-0.6813027,-0.5749172,0.3503987,0.578799,1.451468,0.140115,-0.03029767,1.136032,0.1354826,80.79862,72.59115,144.4521,True
2,2.088892,-0.1368794,-0.4159113,-0.2791851,-1.506697,-1.79643,2.146985,0.3582118,1.214141,-0.00524044,-0.4588792,0.9095129,0,60,-0.1324037,0.02083943,-0.07504104,-0.898477,-1.901831,-0.2448193,0.4640195,1.337531,-0.01914525,-0.02073373,-0.1107078,0.1079435,-0.6803194,-0.5782403,0.3530601,0.5782552,1.450938,0.1396993,-0.03027764,1.134992,0.1347752,80.6375,62.65014,134.127,True
2,2.100003,-0.07822204,-0.3710091,-0.262785,-1.507571,-1.793105,2.145522,0.357954,1.213558,-0.00593549,-0.4478627,0.9943457,0,60,-0.1164804,0.01012683,-0.07729055,-0.8993436,-1.902404,-0.2437048,0.4635375,1.33693,-0.01948467,-0.01868011,-0.09894442,0.09837185,-0.6801324,-0.5796916,0.3538739,0.5780745,1.449759,0.1393559,-0.0302568,1.134059,0.1335203,80.35559,56.4048,126.8701,True
2,2.111114,-0.06097887,-0.3112476,-0.2289856,-1.508006,-1.791294,2.145528,0.3575981,1.21303,-0.006360382,-0.4359563,1.071756,0,60,-0.1142923,0.01115379,-0.06771077,-0.8997319,-1.902471,-0.2423367,0.4629529,1.33633,-0.01961976,-0.01141594,-0.08724198,0.08344188,-0.6800009,-0.5828148,0.3562156,0.5772414,1.450208,0.1391653,-0.03178965,1.133444,0.1327047,79.75574,47.94728,116.8029,True
2,2.122225,-0.06740709,-0.1503321,-0.1973067,-1.504083,-1.792665,2.146515,0.3572333,1.212839,-0.006820768,-0.4246208,1.015021,0,60,-0.105603,0.004647814,-0.03475242,-0.8989788,-1.902442,-0.2414731,0.4625049,1.335863,-0.01985326,-0.004282653,-0.07326395,0.05891696,-0.6802901,-0.5832083,0.356303,0.5768781,1.44981,0.1388167,-0.03320867,1.133362,0.1311657,80.16759,46.33766,114.5123,True
2,2.133336,-0.07081621,-0.06723613,-0.2017052,-1.500979,-1.791914,2.147401,0.3568089,1.212515,-0.007215261,-0.4150446,0.8570942,0,60,-0.08086999,-0.006212454,0.01195267,-0.8972632,-1.902324,-0.24146,0.4619315,1.335328,-0.02010313,-0.0004223548,-0.06777281,0.03224833,-0.6810337,-0.5834846,0.3567155,0.5766149,1.449199,0.1387351,-0.03379526,1.133089,0.1299819,79.39996,44.62521,112.2134,True
2,2.144447,-0.0487928,0.04037907,-0.2149232,-1.495886,-1.791782,2.147167,0.3563013,1.212323,-0.007764846,-0.4063089,0.7870707,0,60,-0.04864282,-0.008578733,0.05756448,-0.8953297,-1.901825,-0.2423831,0.4619327,1.334989,-0.02047649,0.002533406,-0.07408179,0.01724963,-0.681668,-0.5848732,0.3576756,0.5763361,1.448786,0.1383656,-0.03374587,1.132559,0.1297936,78.36409,41.85395,108.706,True
2,2.155558,0.005495794,0.1225689,-0.2017384,-1.49158,-1.792757,2.145169,0.355752,1.212171,-0.008431643,-0.3975929,0.7865049,0,60,-0.02190221,-0.003396329,0.07233511,-0.8941148,-1.901278,-0.2433852,0.4615223,1.33456,-0.02076373,-0.002812406,-0.0708221,0.0110169,-0.6810108,-0.5861158,0.3580223,0.576072,1.447772,0.1387525,-0.0344388,1.132542,0.129967,79.25223,37.19435,104.0271,True
2,2.166669,0.0386574,0.1706307,-0.1765833,-1.488099,-1.793763,2.143621,0.3552487,1.212043,-0.00894171,-0.3879049,0.87412,0,60,0.0112877,0.02948257,0.07754685,-0.893564,-1.899167,-0.2459389,0.4614332,1.334268,-0.02117944,-0.005073251,-0.057955,-0.0005744286,-0.6811631,-0.586158,0.3581422,0.5758343,1.44705,0.1385245,-0.03391541,1.132189,0.1299008,80.04867,40.06802,106.1389,True
2,2.17778,0.06883967,0.2464547,-0.1226787,-1.484101,-1.797351,2.142034,0.3547041,1.211841,-0.009541601,-0.3769598,0.9846535,0,60,0.02626342,0.05074099,0.07325049,-0.8932711,-1.897299,-0.2478988,0.4609988,1.333847,-0.02142146,-0.002933998,-0.04943233,-0.001619908,-0.6812867,-0.5865228,0.3584002,0.5755386,1.44667,0.1382778,-0.03396065,1.131873,0.129521,80.4072,39.21891,104.9466,True
2,2.188891,0.0691978,0.324358,-0.06744061,-1.479386,-1.801888,2.141598,0.3540838,1.211821,-0.00985083,-0.3668201,0.9065985,0,60,0.03262968,0.05926318,0.06257547,-0.8932993,-1.896128,-0.2491651,0.4609387,1.333597,-0.02170324,0.002467168,-0.03987925,0.001554159,-0.68121,-0.5867519,0.3583581,0.5752437,1.446298,0.1380053,-0.03490018,1.13161,0.1303458,78.94618,32.72718,97.73579,True
2,2.200002,0.06183922,0.3712604,-0.04616463,-1.474723,-1.805126,2.141504,0.3534746,1.211766,-0.0101068,-0.3569067,0.8906416,0,60,0.04752756,0.04000182,0.07309517,-0.8921126,-1.896044,-0.2502386,0.4604933,1.333267,-0.02188602,0.006793944,-0.04207845,0.004706666,-0.6808978,-0.5887381,0.3593163,0.5748818,1.445756,0.1373494,-0.03629452,1.132003,0.1307804,79.69099,29.23034,93.80486,True
2,2.211113,0.06607704,0.3776731,-0.04726774,-1.470778,-1.807144,2.14077,0.3528574,1.211687,-0.01044241,-0.3478808,0.8086563,0,60,0.07407399,0.02819394,0.06651942,-0.8915645,-1.895985,-0.2519553,0.4601381,1.33296,-0.02206755,0.01294682,-0.05804779,-0.007193228,-0.6818725,-0.5912679,0.3611808,0.5744646,1.445802,0.1365695,-0.03594892,1.132008,0.1308447,81.06876,35.39762,99.31892,True
2,2.222224,0.09160213,0.3606661,-0.05599401,-1.467429,-1.808142,2.138912,0.3523455,1.211646,-0.01073304,-0.339046,0.7954043,0,60,0.1026328,0.01642314,0.03969114,-0.891948,-1.896377,-0.2538056,0.4596515,1.332681,-0.0222798,0.01809281,-0.06545503,-0.01796896,-0.682761,-0.5923993,0.3616804,0.5742664,1.445453,0.136248,-0.03584681,1.131527,0.1318505,80.55448,32.56987,96.39406,True
2,2.233335,0.1300956,0.307507,-0.05303287,-1.465795,-1.808766,2.136147,0.3518379,1.211613,-0.01098645,-0.3296487,0.8471351,0,60,0.1120917,0.001492135,0.02894759,-0.8918676,-1.897003,-0.2548198,0.4589,1.33233,-0.02248362,0.03276982,-0.07070549,-0.0352544,-0.6837645,-0.592988,0.3608074,0.57424,1.444517,0.1360685,-0.03570721,1.131283,0.1316593,81.83101,32.84061,96.70848,True
2,2.244446,0.1389875,0.2340676,-0.03058973,-1.465957,-1.809154,2.134306,0.3514802,1.21156,-0.01126686,-0.3193791,0.9236656,0,60,0.1088508,-0.0187507,0.03530968,-0.8910559,-1.897949,-0.2553442,0.4585102,1.332137,-0.0227145,0.03386394,-0.04939011,-0.03727329,-0.6841405,-0.5924243,0.3599488,0.5740283,1.444164,0.135831,-0.03668399,1.13131,0.1314928,81.94853,25.97687,90.24151,True
2,2.255557,0.1233649,0.1616483,-0.008973144,-1.466658,-1.809616,2.133576,0.3511484,1.211507,-0.01146126,-0.3085821,0.9688866,0,60,0.08017738,-0.02934188,0.05782609,-0.8894218,-1.898299,-0.2549828,0.4582641,1.331895,-0.02294636,0.0394021,-0.03587424,-0.01805479,-0.6841469,-0.597367,0.364795,0.5719428,1.445174,0.1341853,-0.03765845,1.131562,0.130916,82.76563,24.95452,89.06126,True
2,2.266668,0.1031809,0.1125903,-0.0140078,-1.466866,-1.809107,2.133086,0.3508444,1.211388,-0.01169893,-0.2986677,0.8868465,0,60,0.0589031,-0.02926814,0.0632772,-0.8884822,-1.898394,-0.2548048,0.4579406,1.33169,-0.02313703,0.03853576,-0.0348446,-0.004202737,-0.6839328,-0.5970504,0.3643151,0.5717638,1.444693,0.1342003,-0.03834514,1.131668,0.1307022,83.047,26.26078,90.06004,True
2,2.277779,0.08066499,0.02512011,-0.04876539,-1.468062,-1.806282,2.132778,0.3505399,1.211325,-0.01185757,-0.2896891,0.8065025,0,60,0.05901216,-0.005834874,0.0654678,-0.8879086,-1.897046,-0.2563306,0.4578605,1.331539,-0.02323204,0.03978549,-0.0477221,0.010616,-0.6836728,-0.5989076,0.3652645,0.5714471,1.444529,0.1338067,-0.0387446,1.13161,0.1309734,82.79778,25.35043,88.8495,True
2,2.28889,0.09341623,-0.04732458,-0.06897126,-1.469611,-1.803661,2.131011,0.3501852,1.211307,-0.01198721,-0.2807014,0.8098886,0,60,0.08883692,0.01325208,0.05149153,-0.8880619,-1.896017,-0.2590609,0.4576604,1.331482,-0.02343136,0.04283956,-0.05404641,0.001989863,-0.6844191,-0.5992662,0.3649007,0.5715036,1.443969,0.1336904,-0.03865636,1.131348,0.1314244,82.59274,25.93227,88.84251,True
2,2.300001,0.1330371,-0.1068783,-0.06069397,-1.472048,-1.801704,2.128031,0.3496695,1.2113,-0.01218441,-0.2715801,0.8211915,0,60,0.1271742,0.01310141,0.04913651,-0.8876705,-1.895596,-0.2619946,0.4572916,1.33136,-0.02369791,0.03953625,-0.04225069,-0.007465249,-0.6845815,-0.5990014,0.3643732,0.57113,1.443957,0.1335341,-0.03793877,1.131078,0.1308766,83.44566,29.92843,92.34859,True
2,2.311112,0.1749382,-0.1408111,-0.03012818,-1.474455,-1.800863,2.124759,0.3492403,1.211406,-0.01227829,-0.2610207,0.9529618,0,60,0.1313892,-0.006104313,0.05332516,-0.8867703,-1.896341,-0.2631539,0.4574511,1.331465,-0.02401453,0.04555883,-0.06024788,-0.02897341,-0.6859669,-0.6002284,0.3646445,0.5709608,1.443772,0.133142,-0.03830485,1.130663,0.1302464,82.39259,24.45895,87.05043,True
2,2.322223,0.196494,-0.1407092,-0.00369665,-1.47616,-1.80073,2.121907,0.3489525,1.211529,-0.01245767,-0.2496261,1.023311,0,60,0.1185545,-0.02630565,0.05867812,-0.8857365,-1.89729,-0.2634804,0.4572382,1.331365,-0.02428666,0.04532493,-0.05908483,-0.04494435,-0.6871392,-0.6006433,0.3644333,0.5707695,1.443592,0.1328042,-0.03950653,1.130525,0.1315561,79.32012,19.71474,81.15024,True
2,2.333334,0.1976381,-0.1247035,0.00904344,-1.477115,-1.800698,2.119817,0.3486099,1.211736,-0.01258388,-0.2383492,1.00991,0,60,0.1068403,-0.02305986,0.05662774,-0.885083,-1.897264,-0.2642889,0.4572434,1.331253,-0.02447402,0.03262884,-0.02388843,-0.04560605,-0.6873704,-0.5991351,0.3632911,0.5705798,1.443468,0.1324794,-0.03990982,1.131678,0.1324202,79.98543,20.41141,80.97955,True
2,2.344445,0.1858464,-0.09063961,0.009081233,-1.477046,-1.800851,2.118186,0.3483222,1.212003,-0.01273632,-0.2277818,0.9462537,0,60,0.1047803,0.01106614,0.04500343,-0.8853232,-1.895627,-0.2664322,0.4571581,1.33119,-0.02469012,0.0284722,-0.02071977,-0.0391324,-0.6876319,-0.5991709,0.3631353,0.570369,1.443354,0.1321665,-0.04007716,1.131985,0.1328424,80.85013,22.71351,83.10933,True
2,2.355556,0.1866703,-0.04912896,-0.007000666,-1.476021,-1.800542,2.116122,0.34798,1.212376,-0.01275361,-0.2181598,0.8626498,0,60,0.1145276,0.05470831,0.04079152,-0.8855895,-1.892943,-0.2698842,0.4573808,1.331318,-0.02491212,0.02561773,-0.01765188,-0.01669716,-0.6871131,-0.5996469,0.3632882,0.5701158,1.443241,0.1318667,-0.04016604,1.132017,0.1331758,80.74731,22.99136,83.50336,True
2,2.366668,0.2100414,-7.67298E-05,-0.003063004,-1.474899,-1.801307,2.113076,0.3475673,1.212772,-0.0128971,-0.2089207,0.8299573,0,60,0.1200479,0.06207925,0.0684735,-0.8841754,-1.891264,-0.2725082,0.4575992,1.331361,-0.02514547,0.0151198,-0.02191816,-0.005923701,-0.6869709,-0.5997407,0.3634136,0.5702739,1.442535,0.1319631,-0.04298827,1.127496,0.1341605,77.98077,20.72835,81.42753,True
2,2.377779,0.2526875,0.04798401,0.0113527,-1.473469,-1.802862,2.109034,0.3470914,1.213228,-0.01302204,-0.1992694,0.8682765,0,60,0.1306154,0.05033315,0.0619915,-0.8837284,-1.890859,-0.2745706,0.4574955,1.331364,-0.02534384,0.00899102,-0.02414118,0.01226598,-0.6863989,-0.6006675,0.3642277,0.5701201,1.44241,0.1316892,-0.04272907,1.13016,0.1353231,80.3392,19.94792,80.24944,True
2,2.38889,0.2783454,0.07468523,0.02702918,-1.47264,-1.80415,2.105275,0.3466697,1.213651,-0.01315749,-0.1887547,0.944909,0,60,0.1465362,0.05029307,0.05123968,-0.8837966,-1.890186,-0.2772042,0.4578235,1.331558,-0.02557263,0.005661406,-0.01783755,0.01023794,-0.6868297,-0.6031804,0.3679421,0.5668812,1.442375,0.1310937,-0.04361369,1.13059,0.1386466,83.35778,19.83669,78.86994,True
2,2.400001,0.3007715,0.115247,0.04164976,-1.47087,-1.806343,2.101347,0.3463838,1.214225,-0.01330549,-0.1777719,0.9846764,0,60,0.1571946,0.04704621,0.05436541,-0.8832789,-1.889431,-0.2798564,0.4577961,1.331743,-0.02580258,-0.004189724,-0.01129937,-0.008753632,-0.6874759,-0.6026334,0.3679096,0.5665965,1.442373,0.1308661,-0.04422745,1.13042,0.1418433,85.47026,18.22322,76.82793,True
2,2.411112,0.2975355,0.1354531,0.04269148,-1.469495,-1.807503,2.098437,0.3460584,1.214682,-0.0134874,-0.1674218,0.9246371,0,60,0.1477353,0.04703747,0.07572217,-0.8820054,-1.888164,-0.2820067,0.458065,1.332038,-0.02603349,-0.002009675,-0.004913936,-0.006581124,-0.6868873,-0.60237,0.3676949,0.5658085,1.442023,0.1309247,-0.04453729,1.130155,0.1440732,86.03656,15.79652,74.45734,True
2,2.422223,0.2716802,0.1619779,0.01730484,-1.466787,-1.80825,2.096303,0.345902,1.215326,-0.01370436,-0.157225,0.9140544,0,60,0.1341109,0.04380056,0.1162763,-0.8795649,-1.886668,-0.283999,0.4581025,1.332239,-0.0261966,0.01489793,-0.01877152,-0.01330939,-0.6874556,-0.6031235,0.3675548,0.5655746,1.442023,0.1306678,-0.04490546,1.130036,0.145458,85.94238,14.34796,73.01128,True
2,2.433334,0.2619616,0.1757848,0.006715912,-1.464604,-1.809209,2.093821,0.3456297,1.215929,-0.01364264,-0.1479525,0.8287216,0,60,0.1256079,0.02889215,0.1290717,-0.8777896,-1.8862,-0.2855186,0.4580915,1.332306,-0.02636704,0.01376149,-0.01869034,-0.01864417,-0.6879898,-0.6020648,0.3664954,0.5658836,1.441648,0.1309651,-0.04541706,1.130039,0.1464445,85.72324,13.6921,72.13132,True
2,2.444445,0.2661123,0.1949534,-0.0008208007,-1.461994,-1.810395,2.090859,0.3453588,1.216515,-0.01374516,-0.1392716,0.7794011,0,60,0.1329864,0.02035747,0.1215507,-0.8767275,-1.885913,-0.2874153,0.4581349,1.332487,-0.02645013,0.004070822,-0.03781787,-0.02181585,-0.688694,-0.6034598,0.3678861,0.5657063,1.44168,0.130793,-0.04585408,1.130063,0.1468316,86.22717,14.76085,72.79459,True
2,2.455556,0.2789701,0.1832745,0.003351368,-1.460688,-1.811413,2.087256,0.3451078,1.217123,-0.01363766,-0.1300145,0.8330562,0,60,0.1521477,0.02242346,0.1129092,-0.876294,-1.885656,-0.290442,0.4595234,1.332654,-0.02611122,0.0008030459,-0.03564517,-0.02708136,-0.6892426,-0.6036691,0.3681554,0.5655589,1.441718,0.130597,-0.04694984,1.130042,0.1465366,87.90166,20.89659,78.13896,True
2,2.466667,0.293924,0.1673281,0.003255166,-1.459579,-1.812144,2.083529,0.344862,1.217804,-0.01355857,-0.1200958,0.890524,0,0,0.1585449,0.03306671,0.1065053,-0.8755366,-1.884359,-0.2932148,0.4596364,1.332849,-0.02619886,0.007082406,-0.0462594,-0.03912013,-0.6925156,-0.6032761,0.3659543,0.5746942,1.444124,0.1297296,-0.04668564,1.129799,0.1459818,87.40723,18.4558,76.77338,True
2,2.477778,0.3014556,0.1460456,0.006427519,-1.458805,-1.812769,2.08003,0.3447349,1.218439,-0.0135937,-0.1097579,0.9274724,0,0,0.154231,0.03738124,0.09162882,-0.8751765,-1.883464,-0.2956479,0.4599302,1.333093,-0.02616841,0.005029667,-0.04840454,-0.03376919,-0.6927623,-0.6038597,0.366349,0.5745523,1.443954,0.1296358,-0.04716984,1.129773,0.1471654,87.36523,20.3087,77.48412,True
2,2.488889,0.3068873,0.1237006,0.0117517,-1.458305,-1.813374,2.07641,0.3446016,1.219056,-0.01356673,-0.09945841,0.9222675,0,0,0.1488158,0.02676566,0.08417787,-0.8744836,-1.883363,-0.2971323,0.460073,1.333411,-0.02624696,0.006151557,-0.0505641,-0.02953721,-0.6931452,-0.6046416,0.3668496,0.574743,1.444079,0.1294616,-0.0470421,1.129945,0.1477146,86.92999,19.87794,76.98997,True
2,2.5,0.304947,0.08217389,0.02250839,-1.45891,-1.813681,2.073119,0.3446169,1.219711,-0.01355276,-0.08958128,0.884649,0,0,0.1413226,0.01294136,0.08632126,-0.8732995,-1.883427,-0.2985566,0.4603457,1.333815,-0.02633211,0.002946574,-0.05908361,-0.02847629,-0.6937311,-0.6058844,0.3678949,0.5750294,1.444271,0.1292756,-0.04595754,1.13008,0.1458781,86.09004,28.21476,86.88285,True
2,2.511111,0.3050177,0.05341356,0.02363441,-1.459421,-1.81373,2.069757,0.3445866,1.220381,-0.01351833,-0.07986554,0.8713425,0,0,0.1519586,0.0118394,0.08412683,-0.8724702,-1.882915,-0.3009455,0.460669,1.334162,-0.02642742,0.0100117,-0.06655329,-0.04678574,-0.6963495,-0.6086802,0.3710918,0.5753629,1.445163,0.1280369,-0.04723856,1.13018,0.1468609,86.25797,27.44056,84.99677,True
2,2.522222,0.3104327,0.01933854,0.02472218,-1.460338,-1.813552,2.06601,0.3446624,1.221122,-0.01342049,-0.07063023,0.8269178,0,0,0.1637174,0.03098216,0.07771192,-0.8721597,-1.881406,-0.304141,0.4609792,1.334488,-0.02655149,0.01093948,-0.05474688,-0.06161009,-0.6970281,-0.6085448,0.3701788,0.5756266,1.445106,0.1286189,-0.0481035,1.130329,0.1470764,87.81493,49.55183,106.4373,True
2,2.533333,0.3190667,-0.02431521,0.02686639,-1.462048,-1.813061,2.062141,0.3446267,1.221914,-0.01329523,-0.06154032,0.8152573,0,0,0.1702704,0.08423188,0.06927478,-0.8725917,-1.877872,-0.3084287,0.4611583,1.334899,-0.02671435,0.006424427,-0.04502882,-0.0806613,-0.6985434,-0.6078464,0.3697472,0.5760019,1.445379,0.1284155,-0.04737462,1.129959,0.1466326,87.04144,47.20573,105.052,True
2,2.544444,0.327766,-0.06369265,0.03646243,-1.464168,-1.812793,2.058131,0.3445473,1.222691,-0.01310408,-0.05248824,0.8116703,0,0,0.1640531,0.1161985,0.07684547,-0.8722327,-1.874382,-0.31227,0.4614465,1.335295,-0.02681997,0.01277765,-0.04716481,-0.08289915,-0.6996918,-0.6081703,0.3696319,0.5763502,1.445665,0.1282345,-0.04705496,1.130266,0.14597,86.34045,44.01679,102.3341,True
2,2.555555,0.3385816,-0.07642279,0.05130401,-1.465784,-1.813179,2.054067,0.3443761,1.223458,-0.01291519,-0.04394482,0.7646183,0,0,0.1661127,0.1140804,0.06616838,-0.8723072,-1.873061,-0.3150746,0.4614718,1.335631,-0.02669421,0.01399021,-0.04720989,-0.07331478,-0.7000343,-0.6084857,0.3695855,0.5766983,1.445626,0.1284828,-0.04793181,1.1305,0.1473878,86.38031,42.56081,100.1546,True
2,2.566666,0.3708916,-0.09545851,0.08407503,-1.468176,-1.814282,2.048917,0.3442199,1.224328,-0.01261982,-0.03584775,0.7243199,0,0,0.1713357,0.09489386,0.06183013,-0.8719227,-1.872369,-0.3176166,0.4616697,1.336006,-0.02673683,0.0163003,-0.04941119,-0.06057037,-0.7003325,-0.6089074,0.3697386,0.5770953,1.445786,0.1285741,-0.04813288,1.130731,0.1480276,86.7578,54.81397,112.3311,True
2,2.577777,0.3848683,-0.099663,0.09673613,-1.469903,-1.815008,2.044316,0.3441498,1.225093,-0.01237276,-0.02847665,0.6588491,0,0,0.182873,0.04369995,0.06696417,-0.8706182,-1.873743,-0.3191261,0.4618907,1.336362,-0.02671897,0.01737451,-0.05688426,-0.05850119,-0.7011789,-0.6098557,0.3702311,0.5774653,1.446025,0.1284523,-0.04952014,1.130845,0.1496753,86.77512,53.45652,110.6198,True
2,2.588888,0.3976798,-0.09748659,0.09980004,-1.471134,-1.815616,2.039541,0.3441062,1.226013,-0.01206028,-0.02109437,0.6604257,0,0,0.2062058,0.008432806,0.07419905,-0.8692499,-1.874676,-0.3215759,0.4621677,1.336733,-0.02671781,0.01747337,-0.05368434,-0.05420537,-0.7014244,-0.6097543,0.3695924,0.5779784,1.445821,0.1286521,-0.05026321,1.131101,0.150207,87.0527,74.46054,131.5042,True
2,2.599999,0.4156295,-0.08149546,0.08575223,-1.471662,-1.815907,2.034356,0.3441472,1.22694,-0.01174521,-0.01511504,0.5294051,0,0,0.2349716,0.01045413,0.0708445,-0.8685996,-1.87412,-0.3257701,0.4626868,1.337131,-0.02654061,0.01314148,-0.04298003,-0.06152672,-0.7022516,-0.6095634,0.3693639,0.5782583,1.44613,0.1285698,-0.05020924,1.131449,0.1497436,86.56162,85.52711,143.1682,True
2,2.61111,0.4335667,-0.04419405,0.07485146,-1.471197,-1.816614,2.028971,0.3441517,1.227903,-0.01136205,-0.01025477,0.4328527,0,0,0.2382177,0.04670077,0.05493195,-0.8691285,-1.871823,-0.3299478,0.463089,1.337515,-0.02657142,0.01940928,-0.05242525,-0.07125616,-0.7029339,-0.6080794,0.3671415,0.5788114,1.446205,0.1285697,-0.05018954,1.131587,0.1490929,85.84376,71.68188,130.899,True
2,2.622221,0.4452662,-0.01219933,0.08000207,-1.470809,-1.817997,2.023783,0.344099,1.228874,-0.01104957,-0.006341519,0.3465035,0,0,0.2349472,0.06061635,0.03261296,-0.8699045,-1.87055,-0.3332163,0.4634824,1.337897,-0.02657193,0.02677467,-0.05454398,-0.07778759,-0.7044476,-0.6085548,0.3667926,0.5793626,1.44673,0.1285525,-0.05049631,1.131863,0.1505679,85.11866,67.71761,126.2144,True
2,2.633332,0.4507506,0.01555917,0.1033301,-1.470658,-1.82028,2.018811,0.3441055,1.22992,-0.01074108,-0.00349673,0.2494031,0,0,0.230701,0.07450226,0.02520899,-0.8703882,-1.86895,-0.3366859,0.4639578,1.338353,-0.02661544,0.02894778,-0.03746808,-0.07878938,-0.7051821,-0.6070556,0.3651178,0.5797822,1.447683,0.1276728,-0.05033948,1.132113,0.1476871,81.28767,40.94769,100.8545,True
2,2.644443,0.4487535,0.01771691,0.1182587,-1.47124,-1.822072,2.014112,0.3442395,1.230982,-0.01048845,-0.001886051,0.1378993,0,0,0.2275506,0.07556102,0.03268999,-0.8699588,-1.867686,-0.3398958,0.4645486,1.338841,-0.02662271,0.01502706,-0.01393424,-0.08802827,-0.7061393,-0.6054196,0.3641684,0.5803475,1.448039,0.127706,-0.05133976,1.13316,0.1474408,80.38731,43.35578,103.2139,True
2,2.655554,0.4464436,-0.004710652,0.09382474,-1.472079,-1.821946,2.009248,0.3444877,1.232069,-0.01029426,-0.001293231,0.04822137,0,0,0.2159787,0.08835376,0.04876849,-0.8694006,-1.8655,-0.3433041,0.4652174,1.339362,-0.02657652,-0.0009078979,0.005288091,-0.08869443,-0.7061723,-0.6042904,0.3638608,0.5809155,1.448098,0.1285149,-0.05305458,1.133976,0.1486639,81.67117,56.24055,115.0593,True
2,2.666665,0.4407609,-0.02718581,0.05024593,-1.472681,-1.820704,2.004404,0.3448,1.233202,-0.01012912,-0.001538242,-0.02966084,0,0,0.2172909,0.1277207,0.06376901,-0.869178,-1.861783,-0.3481092,0.4659512,1.339938,-0.02647242,0.002426736,0.02561495,-0.08541466,-0.705866,-0.6001658,0.3600644,0.5816901,1.448268,0.1289806,-0.05332644,1.134421,0.1506443,82.29025,68.84224,127.905,True
2,2.677776,0.4233164,-0.03370825,0.005676549,-1.472673,-1.819196,2.000066,0.3450706,1.234316,-0.01000321,-0.002201902,-0.0638272,0,0,0.2154385,0.1628354,0.08517312,-0.8686337,-1.857307,-0.3534649,0.4668188,1.340554,-0.02635866,0.005590342,0.03095162,-0.08862568,-0.7066916,-0.5988287,0.3588777,0.5822873,1.448572,0.1291373,-0.05372398,1.134833,0.1530232,82.67528,73.82656,133.4174,True
2,2.688887,0.4104114,-0.02735483,-0.005935468,-1.472286,-1.818891,1.995891,0.345371,1.23528,-0.009487659,-0.003113768,-0.08761818,0,0,0.2061977,0.1990037,0.1183344,-0.8675343,-1.852134,-0.3588048,0.467495,1.341184,-0.02616063,0.01394752,0.02255346,-0.1005139,-0.7076557,-0.5965292,0.356165,0.5828247,1.448923,0.1292537,-0.05353311,1.135243,0.1537007,82.4375,76.95975,137.1557,True
2,2.699998,0.3922706,-0.01247883,-0.005799863,-1.471929,-1.818956,1.992181,0.3455245,1.236267,-0.009331167,-0.004401673,-0.1217185,0,0,0.1934429,0.1744931,0.1407174,-0.8658667,-1.850079,-0.361845,0.4679561,1.341761,-0.02602255,0.01382858,0.008737031,-0.1059227,-0.7090656,-0.5963047,0.3558385,0.5834465,1.449263,0.1293886,-0.05383154,1.135677,0.1536716,81.97251,76.77562,137.2397,True
2,2.711109,0.3816859,-0.006085671,0.002798568,-1.47186,-1.819351,1.988209,0.3457146,1.237247,-0.009155959,-0.005556419,-0.1070897,0,0,0.1826412,0.1137745,0.15768,-0.8634107,-1.849907,-0.3636379,0.4684451,1.342299,-0.02588993,0.009507038,0.005566072,-0.1080097,-0.7102523,-0.5956475,0.3556867,0.5841327,1.44949,0.1293696,-0.05373228,1.136153,0.1525839,81.11171,74.5768,135.7331,True
2,2.72222,0.38276,-0.01034461,0.002797645,-1.472117,-1.819279,1.983891,0.3459346,1.238204,-0.009009778,-0.006728743,-0.1096231,0,0,0.1834095,0.06586748,0.1405081,-0.8623379,-1.850517,-0.3653591,0.4689128,1.342793,-0.02575654,0.01766068,-0.02310463,-0.1274813,-0.712582,-0.5963409,0.3557781,0.5848949,1.449796,0.1295192,-0.05435948,1.136605,0.1521651,80.3198,72.28391,133.428,True
2,2.733331,0.3740579,-0.02745685,-0.0205232,-1.472536,-1.818019,1.979817,0.3462303,1.239124,-0.008902848,-0.007374825,-0.06035811,0,0,0.1896735,0.06162824,0.1212865,-0.8619086,-1.849362,-0.368472,0.4695132,1.343291,-0.02561909,0.02279362,-0.01124063,-0.1456116,-0.7144276,-0.5935583,0.352586,0.58569,1.450559,0.1292988,-0.05483031,1.137098,0.1521931,80.03206,73.21886,134.5637,True
2,2.744442,0.3643489,-0.03496554,-0.03533258,-1.472772,-1.816938,1.975944,0.3464963,1.240093,-0.008764446,-0.007543137,-0.01871383,0,0,0.1960784,0.08293586,0.1085178,-0.8617744,-1.846946,-0.3724867,0.4700694,1.343797,-0.02555382,0.02584508,0.02932184,-0.1613826,-0.7158417,-0.59004,0.3498619,0.5864592,1.450883,0.1293124,-0.05483235,1.13755,0.1522182,79.41994,73.5519,135.1604,True
2,2.755553,0.3449739,-0.04251266,-0.05857543,-1.472883,-1.815275,1.972582,0.346766,1.241055,-0.008632988,-0.007816911,-0.02917513,0,0,0.1961486,0.1085192,0.1021869,-0.8616498,-1.843905,-0.3766977,0.4706969,1.344276,-0.02542713,0.02395694,0.03883162,-0.1474504,-0.7167909,-0.5884175,0.3483122,0.5871315,1.451244,0.1294871,-0.05542924,1.138059,0.1523853,79.28219,76.18252,137.7371,True
2,2.766664,0.3395937,-0.03828173,-0.06384966,-1.472916,-1.814547,1.968781,0.3470192,1.242129,-0.008454442,-0.008065649,-0.02574711,0,0,0.188749,0.1341311,0.09483495,-0.8617137,-1.840742,-0.3805468,0.4713163,1.344821,-0.02530336,0.02096389,0.02600414,-0.132554,-0.7173815,-0.5873844,0.3471321,0.5879123,1.451202,0.1295438,-0.05556487,1.138432,0.1523925,78.7522,75.7935,137.6651,True
2,2.777775,0.3321962,-0.0244282,-0.05422276,-1.472616,-1.814366,1.96535,0.3472784,1.243062,-0.008259505,-0.00851093,-0.04352383,0,0,0.1813618,0.1416043,0.1012882,-0.8611374,-1.837858,-0.3841929,0.4719231,1.34536,-0.02518225,0.01795645,0.01953822,-0.1186974,-0.7181933,-0.5869429,0.3466948,0.5885863,1.451473,0.1296794,-0.05567355,1.138782,0.1521834,78.12598,74.20181,136.3647,True
2,2.788886,0.3323642,-0.007347617,-0.03294865,-1.472464,-1.814903,1.961584,0.347569,1.244026,-0.008030444,-0.008357532,0.0124975,0,0,0.176101,0.1255918,0.1247135,-0.8594516,-1.83581,-0.3872146,0.4725249,1.34594,-0.02505809,0.02231629,0.01306275,-0.1123791,-0.7189512,-0.5873162,0.3462655,0.5893312,1.451239,0.1297244,-0.05588848,1.139154,0.152093,77.59021,73.24857,135.4923,True
2,2.799997,0.3292585,0.001193181,-0.02121918,-1.472232,-1.815189,1.958063,0.3478572,1.244934,-0.007833719,-0.008281366,0.002560495,60,0,0.1835071,0.08929977,0.1416258,-0.857394,-1.835078,-0.3899763,0.4731009,1.346421,-0.0249258,0.02435748,0.01522555,-0.1187892,-0.7203334,-0.586156,0.3450301,0.5900471,1.451444,0.129827,-0.05622504,1.139591,0.1519479,77.16368,73.37462,135.7466,True
2,2.811108,0.3324771,0.0001415126,-0.02017971,-1.472186,-1.814947,1.954112,0.3481994,1.245785,-0.007541209,-0.00786751,0.03500279,60,0,0.1930546,0.07113517,0.1479212,-0.8557408,-1.833911,-0.3931718,0.4737079,1.346835,-0.02476919,0.02322035,0.00678654,-0.1241302,-0.7213295,-0.5847327,0.3432604,0.5907154,1.452226,0.1302041,-0.05649306,1.139974,0.1519955,76.77849,73.49952,136.0495,True
2,2.822219,0.3442332,-0.004088514,-0.01708295,-1.472332,-1.814812,1.949892,0.3485057,1.246669,-0.007322103,-0.00763475,0.01641742,60,0,0.2057425,0.08072895,0.1244328,-0.8557482,-1.832018,-0.3971689,0.4743714,1.347278,-0.02463624,0.02304369,0.0004583746,-0.1348196,-0.7231409,-0.5840985,0.342535,0.5914567,1.452474,0.1303749,-0.05687651,1.140427,0.152138,76.61966,75.84233,138.3397,True
2,2.83333,0.3496392,-0.02538242,-0.01388524,-1.473243,-1.814411,1.945676,0.3487725,1.247575,-0.007041454,-0.007180947,0.03827714,60,0,0.2088618,0.1308947,0.07659394,-0.8576944,-1.828611,-0.4017568,0.4750028,1.347651,-0.02455232,0.03211115,-0.0004879385,-0.1648103,-0.7263048,-0.5834258,0.342376,0.5908449,1.45546,0.1279433,-0.05712289,1.140767,0.1524861,76.42061,76.87187,139.5401,True
2,2.844441,0.3486211,-0.03390035,-0.01066191,-1.473858,-1.814158,1.941836,0.349067,1.248447,-0.006842345,-0.006619553,0.04635951,60,0,0.192904,0.1469516,0.06926847,-0.8579555,-1.825856,-0.4051336,0.4756351,1.348071,-0.02447525,0.02875118,0.03158135,-0.1816144,-0.7282553,-0.5800952,0.3396721,0.5914145,1.455914,0.1279067,-0.05738335,1.141113,0.1528233,76.19263,77.62244,140.4398,True
2,2.855552,0.3284695,-0.06697794,-0.009332005,-1.475784,-1.813472,1.938728,0.3494759,1.249233,-0.006718576,-0.006253635,0.02833398,60,0,0.1790944,0.1427243,0.07892746,-0.8574383,-1.823469,-0.4082139,0.4762888,1.348477,-0.02443105,0.01416121,0.03910635,-0.1664097,-0.7282968,-0.5761743,0.3358915,0.5924482,1.455694,0.129907,-0.05759113,1.141479,0.152983,75.83443,77.89548,140.9517,True
2,2.866663,0.3284751,-0.07976574,-0.01142821,-1.47689,-1.812903,1.935,0.3497791,1.250152,-0.006481051,-0.006289321,-0.007878426,60,0,0.170615,0.1416719,0.08749405,-0.8568113,-1.821051,-0.4113979,0.4769549,1.348888,-0.02429068,0.006985843,0.03154822,-0.1461049,-0.7291245,-0.5756055,0.3356323,0.5929599,1.456086,0.130057,-0.05778272,1.14185,0.152969,75.37006,77.64123,140.9875,True
2,2.877774,0.3337697,-0.1021439,-0.01995225,-1.478503,-1.811693,1.930978,0.3501551,1.250962,-0.006291956,-0.006893859,-0.05797566,60,0,0.2035871,0.1394261,0.0798371,-0.8568864,-1.818803,-0.4162569,0.4777303,1.349286,-0.02421412,-0.007579289,0.02505001,-0.1214217,-0.7295458,-0.5752773,0.3359695,0.5934095,1.456457,0.1302517,-0.05787001,1.142189,0.15286,74.87492,76.93525,140.5779,True
2,2.888885,0.3380435,-0.1245247,-0.02419326,-1.480496,-1.810646,1.92688,0.3504751,1.251679,-0.006075233,-0.007226754,-0.03101856,60,0,0.1794085,0.1916794,0.09928107,-0.8568524,-1.813006,-0.4211118,0.4784327,1.349744,-0.0240556,-0.01272175,0.03363191,-0.1106847,-0.7303256,-0.5713631,0.3332238,0.5951679,1.455495,0.1308247,-0.05796912,1.142511,0.1527778,74.44517,76.28765,140.1582,True
2,2.899997,0.3359642,-0.1255831,-0.01884513,-1.481843,-1.810087,1.923173,0.3507643,1.252491,-0.005839497,-0.00794421,-0.06873059,60,0,0.1591658,0.1842927,0.1047158,-0.8562601,-1.810174,-0.4240397,0.4790626,1.350144,-0.02396488,-0.01598477,0.03793366,-0.1159374,-0.7315054,-0.569845,0.3323843,0.5957725,1.455739,0.1310481,-0.05787815,1.142738,0.1518282,73.28621,70.9058,136.0594,True
2,2.911108,0.3423975,-0.1159939,-0.0125235,-1.483036,-1.809767,1.919052,0.3510203,1.253092,-0.005697846,-0.009294433,-0.1263597,60,0,0.1633191,0.167246,0.09825864,-0.8559868,-1.808126,-0.4273202,0.4796255,1.350515,-0.02381888,-0.0181638,0.0432914,-0.1201345,-0.7326953,-0.5681814,0.3314237,0.5963805,1.455999,0.1312651,-0.05813022,1.143219,0.1507523,72.29223,68.62059,134.4503,True
2,2.922219,0.3391992,-0.1053432,-0.01038598,-1.483797,-1.809456,1.915328,0.351275,1.253852,-0.005480379,-0.01185852,-0.2359524,60,0,0.1643674,0.1544436,0.1046122,-0.8553157,-1.805769,-0.4307218,0.48015,1.350839,-0.02370429,-0.01622593,0.03696444,-0.1319212,-0.7344216,-0.5669822,0.3306512,0.5969849,1.456272,0.1314612,-0.05822099,1.143873,0.1500446,71.30715,68.10212,134.5732,True
2,2.93333,0.3359379,-0.09578469,-0.01463509,-1.484532,-1.808832,1.911681,0.3514056,1.254712,-0.005192637,-0.01498774,-0.2852965,60,0,0.1707081,0.1384295,0.1077307,-0.8544891,-1.803845,-0.4340809,0.4806659,1.351114,-0.02340925,-0.01128621,0.01791549,-0.1523782,-0.7371172,-0.5658578,0.3301539,0.5983253,1.456045,0.1313752,-0.0579273,1.144602,0.1495824,70.79198,70.16103,136.6869,True
2,2.944441,0.3283653,-0.08945826,-0.02520385,-1.485521,-1.808078,1.908265,0.3514116,1.255601,-0.004912287,-0.01932336,-0.3961766,60,0,0.1738728,0.1501686,0.09495995,-0.8548167,-1.800849,-0.4380032,0.4811165,1.351362,-0.02323031,-0.002025262,-0.007574648,-0.1697164,-0.7397649,-0.5660472,0.3300035,0.5989523,1.456229,0.1315507,-0.05723958,1.145248,0.1491342,70.0815,72.95943,139.8312,True
