loc,t,aDotUA,bDotUA,gDotUA,aUA,bUA,gUA,xUA,yUA,zUA,qE,qDotE,emgA,emgB,aDotSH,bDotSH,gDotSH,aSH,bSH,gSH,xSH,ySH,zSH,aDotUB,bDotUB,gDotUB,aUB,bUB,gUB,xUB,yUB,zUB,xHand,yHand,zHand,aHand,bHand,gHand,enable
0,0,-0.06330088,0.4291705,0.165751,4.675154,-1.867862,2.989573,0.7447507,1.231813,0.004556447,-1.154719,0.8870649,0,60,0.06206264,-0.3059246,-0.162234,-1.01754,-1.781495,0.03218936,0.7616665,1.41634,0.01387805,0.08629108,-0.1784832,0.1166866,-0.6988923,-0.1347389,0.06827786,0.8147979,1.517235,0.2095678,0.4760741,1.005464,0.1288304,59.34348,89.21931,164.1745,True
0,0.01111111,-0.05585351,0.4302449,0.1656649,4.674154,-1.872815,2.98991,0.7441213,1.231439,0.004706562,-1.144377,0.9329493,0,60,0.06218076,-0.2963286,-0.1526613,-1.018951,-1.784933,0.03321361,0.7614031,1.416199,0.01382414,0.07984507,-0.1783689,0.1082084,-0.6981157,-0.1379246,0.07001211,0.8145065,1.517173,0.2091582,0.4771306,1.003019,0.1312941,59.2583,92.79163,166.8913,True
0,0.02222222,-0.05603793,0.4281019,0.1486226,4.67379,-1.877594,2.990345,0.7435842,1.231162,0.004870921,-1.133856,0.9460343,0,60,0.05082484,-0.2664015,-0.1185358,-1.019171,-1.787205,0.03422189,0.7608776,1.415928,0.01380703,0.07767449,-0.1911634,0.1102329,-0.6968955,-0.1420554,0.07235648,0.8140013,1.517029,0.2089092,0.4783259,1.000234,0.1341378,58.72517,93.99027,167.3496,True
0,0.03333334,-0.06156889,0.4110328,0.128454,4.673657,-1.88159,2.99114,0.743103,1.230786,0.004994661,-1.123962,0.8885245,0,60,0.03840291,-0.2396612,-0.08119747,-1.018838,-1.789325,0.03536571,0.760298,1.415603,0.01383165,0.07125397,-0.1932489,0.1081255,-0.6959239,-0.145701,0.07461405,0.8136861,1.517031,0.2086245,0.4796206,0.9971244,0.1371589,58.01445,94.55565,167.1482,True
0,0.04444445,-0.05955264,0.3684127,0.1135475,4.673264,-1.884402,2.991648,0.7424967,1.230399,0.005062014,-1.114185,0.8810992,0,60,0.0236026,-0.2278538,-0.07260002,-1.019422,-1.791788,0.03689437,0.7597849,1.415314,0.01379147,0.07023278,-0.192232,0.1134732,-0.6945987,-0.1490847,0.07643938,0.8133953,1.516995,0.2083765,0.4809668,0.9937486,0.1400731,57.26326,95.26724,167.0286,True
0,0.05555556,-0.0467779,0.3353975,0.1091671,4.672608,-1.887155,2.991619,0.7420149,1.230125,0.00509733,-1.10468,0.8560936,0,60,0.02253979,-0.2342268,-0.06619684,-1.02016,-1.795057,0.03837109,0.7592416,1.41503,0.01371688,0.06494957,-0.1858403,0.1157045,-0.6933715,-0.1521576,0.07823835,0.8131578,1.517049,0.2081558,0.4823664,0.9902319,0.1425813,56.49552,96.03986,166.9999,True
0,0.06666667,-0.01912154,0.2715042,0.09825532,4.672033,-1.888177,2.990802,0.7415893,1.229855,0.005101383,-1.094859,0.8856008,0,60,0.03841322,-0.2396519,-0.07907108,-1.021616,-1.798369,0.03911411,0.7587733,1.414741,0.01364154,0.0585835,-0.1761927,0.1126581,-0.6922562,-0.1549329,0.07989164,0.8129265,1.516993,0.2078369,0.4837126,0.98665,0.1444568,55.73203,96.69206,166.9903,True
0,0.07777778,0.01275948,0.19481,0.0830468,4.671541,-1.887764,2.989669,0.7411387,1.229635,0.005041957,-1.084586,0.9251658,0,60,0.0660028,-0.239818,-0.09734523,-1.023424,-1.801362,0.03901744,0.758394,1.414585,0.01351541,0.05005347,-0.1622078,0.1032663,-0.6915505,-0.1570868,0.08129166,0.812844,1.516972,0.2076494,0.4840873,0.9848143,0.1450112,56.00887,97.71178,168.0622,True
0,0.08888889,0.04468772,0.1266316,0.0731378,4.671138,-1.886614,2.98825,0.7406924,1.229559,0.00500384,-1.073773,0.9731072,0,60,0.0830999,-0.2292633,-0.09958751,-1.024628,-1.803946,0.03878655,0.7581744,1.414464,0.01344481,0.04150267,-0.1353209,0.08229035,-0.6913049,-0.1580109,0.08182562,0.8127677,1.516951,0.2075596,0.4841839,0.984181,0.1447356,56.1124,97.01559,167.4462,True
0,0.1,0.08301392,0.09364696,0.0674177,4.670563,-1.886807,2.986177,0.740185,1.229478,0.005114019,-1.063063,0.9618018,0,60,0.09613772,-0.199487,-0.08371671,-1.025037,-1.805337,0.03798866,0.7580006,1.414404,0.0134047,0.03717557,-0.1127022,0.06122417,-0.6915084,-0.1585281,0.08215,0.8129575,1.516785,0.2074268,0.4841538,0.9838061,0.1442607,56.13054,95.8969,166.3637,True
0,0.1111111,0.1075084,0.0936712,0.06714736,4.670018,-1.887918,2.984202,0.7396276,1.229454,0.005352974,-1.052512,0.9474792,0,60,0.0955494,-0.149377,-0.04861798,-1.024458,-1.805347,0.03698012,0.7575369,1.414233,0.01334882,0.03823759,-0.1030477,0.05386188,-0.6911175,-0.1600198,0.0827769,0.8128743,1.516916,0.2071641,0.4840605,0.9835008,0.1437948,56.06304,94.99179,165.3932,True
0,0.1222222,0.1417408,0.1150021,0.08059856,4.669078,-1.889865,2.981229,0.7390151,1.229365,0.005559415,-1.041891,0.9539016,0,60,0.08843195,-0.1130913,-0.02411221,-1.023853,-1.805355,0.03625281,0.7574158,1.414202,0.01329404,0.03820645,-0.09443851,0.046493,-0.6908762,-0.160999,0.08334016,0.8127637,1.516872,0.2070052,0.4839259,0.9832369,0.1434181,55.96476,94.44788,164.7559,True
0,0.1333333,0.1577746,0.142672,0.08890923,4.668337,-1.891824,2.978874,0.7384851,1.229267,0.005658388,-1.031845,0.9005691,0,60,0.07603017,-0.06399678,-0.00491614,-1.023249,-1.804187,0.03518995,0.7571664,1.414096,0.01319706,0.04258633,-0.07853885,0.05301081,-0.6901156,-0.1615589,0.083109,0.8128185,1.517017,0.2069279,0.4838026,0.9830126,0.1432747,55.86868,94.24167,164.5325,True
0,0.1444445,0.1737577,0.1863727,0.09402883,4.66772,-1.895659,2.976231,0.7379282,1.229262,0.005902112,-1.021482,0.9312443,0,60,0.07511155,-0.05545061,0.01212525,-1.022537,-1.80461,0.03460112,0.7571626,1.414118,0.01314387,0.03420047,-0.05832634,0.05965934,-0.6892815,-0.1617432,0.08311486,0.8127518,1.517049,0.2067581,0.4837036,0.9828541,0.1433972,55.85683,94.65397,164.9793,True
0,0.1555556,0.1832039,0.2246695,0.08535501,4.66787,-1.898655,2.973723,0.7374015,1.229271,0.005978584,-1.011849,0.8614979,0,60,0.09211451,-0.06086841,0.008830824,-1.022694,-1.805745,0.03342134,0.7572114,1.414118,0.0130688,0.0299546,-0.04653698,0.05447945,-0.6888644,-0.1619938,0.08309942,0.8128366,1.517077,0.2066641,0.4835642,0.982661,0.1438722,55.81769,94.41041,164.877,True
0,0.1666667,0.1947662,0.2672892,0.0756087,4.668132,-1.903105,2.970958,0.7369351,1.229312,0.006138891,-1.002232,0.8639739,0,60,0.1207684,-0.06955206,-0.001986556,-1.023222,-1.806885,0.03169082,0.7571309,1.414056,0.01302269,0.02554786,-0.03343898,0.02480694,-0.6896479,-0.16183,0.08277824,0.8129261,1.517029,0.2065713,0.483607,0.9825083,0.1443097,55.78696,94.95415,165.473,True
0,0.1777778,0.2180915,0.3130949,0.0753178,4.668082,-1.907639,2.968227,0.7362952,1.228962,0.006289124,-0.9928206,0.8442739,0,60,0.1367279,-0.06857698,-0.006343277,-1.023468,-1.807773,0.03004312,0.7573004,1.414081,0.01296538,0.01901186,-0.02140873,-0.003794431,-0.6906173,-0.1615207,0.08248316,0.813076,1.517051,0.206485,0.4837452,0.9824086,0.144703,55.79612,95.86359,166.4339,True
0,0.1888889,0.2468405,0.3749219,0.08134354,4.668154,-1.913973,2.964334,0.7357368,1.22913,0.006635606,-0.9832923,0.8553305,0,60,0.1367655,-0.05047782,-0.01489437,-1.024022,-1.807651,0.02866387,0.7572043,1.414025,0.01290795,0.02851857,-0.01276124,-0.02081919,-0.6914003,-0.1612422,0.08165305,0.8132744,1.51706,0.206384,0.4838392,0.982339,0.1450021,55.87375,96.7884,167.3759,True
0,0.2,0.2755948,0.4111934,0.0874147,4.667803,-1.920085,2.96047,0.7351756,1.229511,0.006932378,-0.9737374,0.857069,0,60,0.1335801,-0.01320986,-0.04687469,-1.025635,-1.80623,0.02653733,0.7575674,1.414129,0.01283783,0.04234242,-0.02886475,-0.0146845,-0.6914014,-0.1626283,0.08173827,0.8133991,1.517102,0.2063518,0.4839055,0.9822287,0.145307,55.92997,97.35213,168.0009,True
0,0.2111111,0.3064761,0.4378656,0.08918761,4.667838,-1.926036,2.955725,0.7347021,1.229769,0.007256746,-0.9633682,0.9318406,0,60,0.1282564,-0.006796472,-0.05324884,-1.026481,-1.806168,0.02515409,0.7580457,1.414325,0.01263705,0.02639807,-0.0310007,-0.008204849,-0.6913375,-0.163555,0.08270101,0.8135827,1.517172,0.2062362,0.4839588,0.9820827,0.1456949,55.93528,97.71736,168.4894,True
0,0.2222222,0.3326392,0.4027258,0.04527016,4.669195,-1.929165,2.951531,0.7341428,1.230172,0.007414699,-0.9532247,0.9076843,0,60,0.1209318,0.004973914,-0.04149931,-1.026542,-1.805612,0.02381132,0.7585011,1.414513,0.01248056,0.01257988,-0.02559658,-0.005949548,-0.6916336,-0.1627077,0.0825564,0.8140988,1.517324,0.2061539,0.4839989,0.9820178,0.1463325,55.87995,98.14849,169.1512,True
0,0.2333333,0.3689841,0.3078883,-0.0520069,4.673069,-1.928595,2.946305,0.7337213,1.230494,0.007302731,-0.9426956,0.9444786,0,60,0.1190081,0.01140832,-0.01273046,-1.025569,-1.80531,0.02235724,0.7590301,1.414755,0.01230735,0.0006785728,-0.02100229,-0.03458733,-0.6929945,-0.16276,0.08297984,0.8144603,1.517349,0.2060905,0.4839986,0.9820252,0.1472021,55.80019,98.81271,170.0648,True
0,0.2444444,0.4161282,0.1864533,-0.13765,4.676825,-1.926034,2.940506,0.7333064,1.230894,0.007209688,-0.9326928,0.8936985,0,60,0.1248448,0.04659185,0.04152866,-1.023069,-1.803324,0.01974574,0.7596893,1.414989,0.0121676,-0.01446683,-0.01953241,-0.06855533,-0.6947937,-0.1628398,0.08367705,0.8147812,1.51728,0.2060803,0.4839088,0.9820536,0.148077,55.68724,99.86739,171.2455,True
0,0.2555556,0.4489785,0.1161765,-0.1613844,4.678828,-1.924931,2.934718,0.732935,1.231098,0.007036924,-0.9222031,0.9415796,0,60,0.1307414,0.1200982,0.07124136,-1.021303,-1.798797,0.01572011,0.7603667,1.415304,0.01204044,-0.01878279,-0.003354501,-0.08647521,-0.6963032,-0.1618613,0.08328211,0.815176,1.517316,0.2060742,0.4835607,0.9820635,0.1485782,55.51462,100.713,171.9555,True
0,0.2666667,0.4888612,0.04700343,-0.1266067,4.678549,-1.923015,2.927954,0.7322643,1.23123,0.007168561,-0.9115958,0.9478971,0,60,0.1377312,0.2021116,0.09774388,-1.019445,-1.793178,0.0109914,0.7608206,1.415484,0.01204842,-0.02839214,0.02136989,-0.1032153,-0.6979458,-0.1597311,0.08245733,0.8156762,1.517267,0.206109,0.482686,0.9820725,0.1484719,55.40416,101.5832,172.1575,True
0,0.2777778,0.5249813,0.01728306,-0.04174912,4.67606,-1.922842,2.920881,0.7316003,1.231462,0.007335782,-0.9014544,0.9051566,0,60,0.1498298,0.2755508,0.09546474,-1.018378,-1.78654,0.005427788,0.7614474,1.415772,0.01190603,-0.03371363,0.03424346,-0.1094313,-0.6991405,-0.1582031,0.08196784,0.8160496,1.517321,0.2061166,0.4814648,0.9820383,0.1476907,55.08722,101.36,171.4981,True
0,0.2888889,0.5715654,0.01738455,0.02912731,4.673447,-1.923559,2.912909,0.7308159,1.231684,0.007684231,-0.8909419,0.9409162,0,60,0.1659039,0.3020868,0.0878849,-1.017735,-1.781845,0.0006250439,0.761759,1.416007,0.01182637,-0.03590346,0.03863305,-0.1210904,-0.7008103,-0.1570969,0.08153507,0.8165426,1.517364,0.2061671,0.4805312,0.981931,0.1466865,54.43002,100.7524,170.6113,True
0,0.3,0.6205962,0.0344967,0.03284474,4.673389,-1.924612,2.904337,0.7301326,1.232182,0.007947296,-0.880733,0.9104747,0,60,0.1987582,0.2880445,0.07172514,-1.017493,-1.778397,-0.004529238,0.7622092,1.416281,0.01164365,-0.03594883,0.04513074,-0.1316791,-0.7025744,-0.1557546,0.08091642,0.8171132,1.517428,0.2061205,0.4797079,0.9818357,0.1462353,53.64784,99.69179,169.5631,True
0,0.3111111,0.6372798,0.05367154,0.001754194,4.67469,-1.925602,2.896544,0.7293427,1.232607,0.008272529,-0.8703647,0.9258597,0,60,0.2219439,0.2580693,0.05564441,-1.017342,-1.776448,-0.008806541,0.7628508,1.41657,0.01153392,-0.03705938,0.0430432,-0.1359539,-0.7042005,-0.1550177,0.08088633,0.8176472,1.517582,0.2060284,0.4787943,0.9818081,0.1466572,53.07142,98.79553,168.975,True
0,0.3222222,0.6421188,0.1069172,-0.03774962,4.67711,-1.928126,2.889108,0.7286482,1.233154,0.008539677,-0.8600103,0.9226765,0,60,0.2652873,0.2098841,0.04265397,-1.017363,-1.775629,-0.01371288,0.7632623,1.416828,0.01138067,-0.04029883,0.05383826,-0.1486164,-0.7063119,-0.1532445,0.08009057,0.8181703,1.517624,0.2059565,0.4781259,0.9818887,0.1473515,52.58414,98.81446,169.3748,True
0,0.3333333,0.6324624,0.1953201,-0.03451602,4.678699,-1.932997,2.882151,0.7278268,1.233581,0.008949131,-0.8505812,0.8379994,0,60,0.2970823,0.1852044,0.03717186,-1.017017,-1.774097,-0.01884346,0.7634811,1.416968,0.01129532,-0.04665562,0.06668098,-0.1516403,-0.7080157,-0.1511809,0.07926686,0.8188,1.517649,0.205899,0.477188,0.9820447,0.148137,52.11213,99.18491,169.9451,True
0,0.3444445,0.6330128,0.3253365,0.03037181,4.678233,-1.94118,2.874816,0.7271645,1.233918,0.009229869,-0.8417006,0.7923096,0,60,0.2959363,0.1830674,0.02546233,-1.017175,-1.771802,-0.0232691,0.7639291,1.41722,0.01112401,-0.04998998,0.06796964,-0.1707931,-0.7106507,-0.1492254,0.07851744,0.8194635,1.517676,0.2056609,0.4765719,0.9822015,0.1483244,51.22461,100.085,170.7947,True
0,0.3555556,0.6275576,0.4617605,0.131535,4.676241,-1.951258,2.867687,0.7265654,1.234281,0.009856015,-0.8331007,0.7670643,0,60,0.2680371,0.1842393,-0.01058607,-1.01842,-1.769353,-0.02647369,0.7642441,1.417313,0.01094618,-0.02882197,0.06056809,-0.1859297,-0.7132089,-0.1483176,0.07739919,0.8201153,1.517736,0.2055874,0.4760068,0.9823633,0.1484724,50.33791,100.0874,170.7061,True
0,0.3666667,0.6132615,0.5416926,0.1976798,4.67443,-1.960578,2.861122,0.7259235,1.234636,0.01041344,-0.8240129,0.8128483,0,60,0.2573191,0.1779012,-0.01689816,-1.01865,-1.767267,-0.03015124,0.7646558,1.417426,0.01088095,-0.01595338,0.06146951,-0.175355,-0.7146215,-0.1471126,0.0761459,0.8206747,1.517672,0.2056449,0.4751885,0.9825512,0.1490423,49.94724,100.5273,171.127,True
0,0.3777778,0.5753129,0.6386192,0.2448892,4.673263,-1.971372,2.855573,0.7254765,1.235013,0.01108974,-0.8147781,0.8240076,0,60,0.2520296,0.1683577,-0.001942463,-1.018238,-1.76548,-0.03363759,0.7651587,1.417625,0.0107697,-0.01162554,0.05921539,-0.1647561,-0.7160798,-0.1460233,0.07530354,0.8214233,1.517728,0.2055722,0.4747563,0.9827679,0.1500323,49.71246,101.1864,172.3193,True
0,0.3888889,0.5228126,0.6875432,0.223047,4.674199,-1.980567,2.851247,0.7250979,1.235377,0.0115841,-0.8057224,0.8088328,0,60,0.2445907,0.1524423,0.01623305,-1.017382,-1.764007,-0.03686002,0.7653584,1.417665,0.01071134,-0.0009959787,0.0527599,-0.1638308,-0.7178466,-0.1454081,0.07456452,0.8221021,1.51774,0.2054666,0.4746082,0.9828645,0.152205,49.4966,100.6177,172.5156,True
0,0.4,0.464603,0.6938105,0.1597452,4.676749,-1.987951,2.847449,0.7248094,1.235643,0.0120413,-0.797026,0.7769723,0,60,0.2276206,0.1440326,0.03658316,-1.016329,-1.762404,-0.03966539,0.7658734,1.417792,0.0105986,0.00527063,0.04326371,-0.1756855,-0.7201209,-0.144822,0.07387555,0.8228393,1.517678,0.2053671,0.4750857,0.9830517,0.1540023,49.10305,103.0786,175.5779,True
0,0.4111111,0.4343979,0.6767,0.1228131,4.678465,-1.994584,2.843319,0.7245274,1.235808,0.01227105,-0.7885167,0.7623594,0,60,0.2032367,0.1239671,0.07510234,-1.014179,-1.761445,-0.04155836,0.7662354,1.417816,0.01049796,0.00511767,0.02740609,-0.1875646,-0.7226226,-0.1447565,0.07380072,0.8235619,1.51767,0.20522,0.4752077,0.9834633,0.156166,49.2408,105.4936,178.2393,True
0,0.4222222,0.4149634,0.626582,0.09323967,4.679788,-1.999599,2.839045,0.7243776,1.235803,0.01257905,-0.7796457,0.7973326,0,60,0.1891678,0.1016526,0.05816381,-1.014071,-1.76105,-0.04334481,0.766731,1.4177,0.01045695,0.01136577,0.008287287,-0.1963191,-0.7250685,-0.1453079,0.0738918,0.8244066,1.517756,0.2050698,0.4754986,0.9837168,0.157617,49.18013,107.0854,180.2967,True
0,0.4333333,0.4235703,0.5573479,0.09319843,4.679982,-2.003538,2.833995,0.7241831,1.235786,0.01286095,-0.7697926,0.8857319,0,60,0.191019,0.09734109,0.01554489,-1.015542,-1.759888,-0.04614832,0.7673037,1.417633,0.0103972,0.01873143,-0.01200294,-0.1955074,-0.727222,-0.146382,0.07433282,0.8251994,1.517775,0.2048841,0.4755258,0.9838879,0.1586796,49.35059,109.3547,182.2289,True
0,0.4444444,0.426973,0.5008947,0.1049191,4.679628,-2.007504,2.828914,0.7239377,1.23586,0.01311582,-0.759279,0.9429296,0,60,0.2045198,0.099334,-0.04526003,-1.018319,-1.758619,-0.04954145,0.7677271,1.417427,0.01029953,0.02183062,-0.02258419,-0.2020484,-0.7299863,-0.1465094,0.07412429,0.8261845,1.517851,0.2047019,0.4755761,0.9839635,0.1592388,49.30161,109.5272,182.5821,True
0,0.4555556,0.4272726,0.3837292,0.1199078,4.678045,-2.008284,2.8242,0.7237837,1.235952,0.01340103,-0.7479456,1.016992,0,60,0.2318434,0.08954784,-0.09973922,-1.021205,-1.757862,-0.05344032,0.7680442,1.417233,0.01022983,0.02476013,-0.04579958,-0.2257305,-0.7332529,-0.1480366,0.07489927,0.827125,1.517788,0.2044668,0.4756131,0.983946,0.1594012,49.21057,110.1509,183.3001,True
0,0.4666667,0.4038459,0.2324054,0.1032373,4.676802,-2.006211,2.82054,0.7236359,1.236091,0.01346096,-0.7367417,1.002694,0,60,0.2678151,0.09037521,-0.142566,-1.024112,-1.756845,-0.05804626,0.7682536,1.417101,0.01006866,0.02240765,-0.06476328,-0.2461397,-0.7366261,-0.1496545,0.07586813,0.8280594,1.517772,0.2041775,0.4755543,0.9839741,0.1595625,49.04363,111.0552,184.364,True
0,0.4777778,0.3790401,0.05549999,0.05569653,4.676169,-2.001105,2.81725,0.7235551,1.236247,0.01345557,-0.7259372,0.9669849,0,60,0.2933477,0.1051325,-0.1619081,-1.026672,-1.75508,-0.06311612,0.7687032,1.417103,0.009913832,0.0222702,-0.06778128,-0.2642787,-0.7401793,-0.1505464,0.07626574,0.8288912,1.517752,0.2039618,0.4751672,0.9840419,0.1606698,49.21502,110.3713,183.7785,True
0,0.4888889,0.3615244,-0.1000991,-0.004718468,4.676131,-1.994878,2.813988,0.7234845,1.236453,0.01340762,-0.7159056,0.8977463,0,60,0.2892021,0.1168853,-0.1512386,-1.027869,-1.753203,-0.06686052,0.769182,1.417211,0.009784549,0.02862313,-0.06884341,-0.2664612,-0.7431258,-0.1511064,0.07634271,0.8296745,1.517571,0.2037421,0.4748261,0.9839457,0.1614402,49.25837,110.4831,184.0529,True
0,0.5,0.354903,-0.1938832,-0.03654276,4.675932,-1.98975,2.81036,0.7233992,1.236655,0.01344365,-0.7059523,0.8935841,0,60,0.2736508,0.1287534,-0.08937077,-1.026979,-1.750982,-0.07050746,0.7695844,1.417421,0.009644747,0.04142395,-0.07107174,-0.2623122,-0.7459599,-0.1520407,0.07616987,0.8303359,1.51748,0.2035687,0.4744563,0.9838943,0.1615463,49.17304,110.7579,184.3135,True
0,0.5111111,0.3612835,-0.2141173,-0.03979407,4.675452,-1.986951,2.80622,0.7232852,1.236876,0.01358354,-0.6959208,0.9004432,0,60,0.2728456,0.125616,-0.04249318,-1.026126,-1.749396,-0.07431152,0.769851,1.417492,0.009441912,0.04676989,-0.06469416,-0.263352,-0.7489352,-0.1525074,0.07585375,0.8312144,1.517387,0.2034236,0.4744138,0.983864,0.160583,48.50677,111.9319,185.1077,True
0,0.5222223,0.3745116,-0.2034115,0.001603514,4.673532,-1.985793,2.801634,0.7232451,1.237016,0.01379958,-0.685577,0.9279339,0,60,0.2837411,0.09793116,0.02352109,-1.023664,-1.748972,-0.07804687,0.7702134,1.417746,0.00935328,0.05224383,-0.04026288,-0.256767,-0.7516708,-0.1513762,0.07434773,0.832164,1.517431,0.2033564,0.4741468,0.9840394,0.1597484,48.2146,111.2259,183.9814,True
0,0.5333334,0.3866951,-0.1714069,0.0472521,4.67147,-1.985554,2.796903,0.7230837,1.237313,0.01407945,-0.6749308,0.9543822,0,60,0.2955294,0.08085766,0.05117132,-1.022331,-1.748428,-0.08200406,0.7707169,1.417999,0.009292454,0.05552909,-0.02111305,-0.255536,-0.7544544,-0.1504635,0.07296955,0.8331392,1.517279,0.203178,0.4737019,0.9840593,0.1588316,48.07513,111.6064,183.9487,True
0,0.5444446,0.398609,-0.1404786,0.06841096,4.669919,-1.985576,2.792106,0.7228789,1.237663,0.0142622,-0.6642659,0.9553843,0,60,0.3093826,0.05098497,0.07881892,-1.020428,-1.748836,-0.0856984,0.7711151,1.418333,0.009227216,0.05558515,-0.002957657,-0.2585613,-0.7574941,-0.1490545,0.07133809,0.8341074,1.517309,0.203104,0.4732676,0.9840966,0.1584314,47.93151,111.5613,183.8507,True
0,0.5555557,0.421945,-0.06375438,0.06702892,4.669943,-1.987536,2.786469,0.72264,1.238238,0.01458281,-0.6537831,0.9381205,0,60,0.3168763,0.02009024,0.1118264,-1.018251,-1.749452,-0.08921776,0.7719753,1.41867,0.009097338,0.04813591,0.00350602,-0.2627045,-0.7605519,-0.1484965,0.07058202,0.8350732,1.51734,0.203097,0.4724526,0.9841557,0.1585393,48.20374,112.1393,184.7692,True
0,0.5666668,0.4373624,0.0768619,0.03053258,4.67251,-1.992231,2.780871,0.7222741,1.238809,0.01485026,-0.6434831,0.9218807,0,60,0.3191878,0.02542978,0.1373601,-1.016201,-1.748622,-0.09323381,0.7728264,1.41894,0.008995652,0.0448122,-0.008089039,-0.2734515,-0.7639624,-0.1488517,0.07044913,0.8360344,1.517132,0.2028142,0.473049,0.9840941,0.1594814,47.36467,109.6663,182.6536,True
0,0.577778,0.437137,0.1631408,0.01874082,4.674236,-1.996233,2.775844,0.7219701,1.23917,0.01522827,-0.6328321,0.9543305,0,60,0.3141657,0.05531193,0.1618606,-1.013762,-1.746474,-0.09769833,0.7735286,1.419159,0.008858144,0.04157704,-0.01016296,-0.277711,-0.767196,-0.1487832,0.07005712,0.837038,1.517068,0.2026679,0.4730799,0.9841391,0.1600942,47.14613,111.2645,184.0996,True
0,0.5888891,0.445595,0.3197705,0.03023574,4.67665,-2.004474,2.770346,0.7215512,1.239641,0.0156557,-0.6226497,0.9094581,0,60,0.3100947,0.07239792,0.1789114,-1.011437,-1.744568,-0.1020126,0.7745404,1.419401,0.008684814,0.03937894,-0.01641759,-0.2863052,-0.7710251,-0.1484172,0.06924192,0.8381997,1.517199,0.2024723,0.4727525,0.9843321,0.1612493,47.06775,109.3533,182.6629,True
0,0.6000003,0.4670413,0.4284734,0.05441433,4.678356,-2.012612,2.764054,0.7211833,1.239983,0.01616812,-0.6130853,0.8547515,0,60,0.3090338,0.08623984,0.1671846,-1.010015,-1.742744,-0.1064204,0.7753823,1.419545,0.008532345,0.03404844,-0.02496942,-0.2810222,-0.7739609,-0.1488662,0.06936416,0.8391969,1.517134,0.2023192,0.4722027,0.9842736,0.1618703,47.12,109.7182,183.0524,True
0,0.6111114,0.5165244,0.5787955,0.1144721,4.679564,-2.024623,2.756106,0.7206798,1.240443,0.0167408,-0.6033232,0.8749031,0,60,0.3079183,0.1011402,0.145867,-1.009323,-1.740791,-0.1108743,0.7763286,1.419727,0.00836122,0.02337611,-0.02384236,-0.2830672,-0.7772399,-0.1489541,0.06956124,0.8402898,1.517045,0.2021575,0.471859,0.9843138,0.1619215,46.80099,111.2105,184.677,True
0,0.6222225,0.566934,0.7131228,0.1606943,4.681158,-2.03739,2.747649,0.7201443,1.240952,0.01755232,-0.5929725,0.9268085,0,60,0.3164209,0.1340837,0.112757,-1.009433,-1.7377,-0.1163764,0.7772658,1.41983,0.008234262,0.01265967,-0.01942305,-0.2935975,-0.7808495,-0.1485895,0.06955085,0.8412349,1.516889,0.2019913,0.4719352,0.9845213,0.1623092,46.2172,112.0921,185.8832,True
0,0.6333337,0.5927806,0.8197163,0.1976178,4.682843,-2.05039,2.739707,0.7196624,1.241418,0.018246,-0.5818592,0.9944952,0,60,0.3185677,0.1819701,0.07327867,-1.010238,-1.733521,-0.122201,0.7783353,1.419955,0.008125782,0.01044089,-0.01930142,-0.3052996,-0.7846605,-0.1485684,0.06952715,0.8423566,1.516821,0.2018844,0.4715304,0.9848047,0.1640273,46.22524,111.9947,186.1263,True
0,0.6444448,0.5895913,0.8868335,0.2050441,4.685292,-2.062214,2.732896,0.7192807,1.241864,0.01903588,-0.570905,0.9756908,0,60,0.3079428,0.2171597,0.04879888,-1.010791,-1.729456,-0.1272791,0.7788351,1.41978,0.008041203,0.01145679,-0.02246639,-0.309606,-0.7883692,-0.1488502,0.06956496,0.8435243,1.516631,0.2017105,0.4713818,0.984892,0.1659136,45.90176,112.8323,187.6267,True
0,0.655556,0.5638717,0.9006364,0.1914539,4.687955,-2.072453,2.727052,0.7190154,1.242322,0.01976186,-0.5608521,0.8946795,0,60,0.2918956,0.2257467,0.02970922,-1.011469,-1.726169,-0.1317543,0.7796867,1.419761,0.007923007,0.007208347,-0.03318536,-0.3011604,-0.7914968,-0.1496196,0.07018735,0.8445702,1.51651,0.2016002,0.4714336,0.9850644,0.167799,45.06776,114.6268,190.125,True
0,0.6666671,0.5348451,0.850506,0.1619922,4.690331,-2.080119,2.721725,0.718832,1.242464,0.02054122,-0.5519588,0.7922481,0,60,0.2585419,0.2120284,-0.01375188,-1.013142,-1.72417,-0.1346939,0.7804105,1.419593,0.007865846,0.01049355,-0.03442027,-0.2862764,-0.794145,-0.1499797,0.0702968,0.845691,1.516477,0.2014192,0.4711354,0.9854166,0.1704236,44.7039,116.4184,192.1636,True
0,0.6777782,0.5240694,0.7833543,0.1419091,4.692244,-2.086548,2.715904,0.7186394,1.242859,0.02108473,-0.5436327,0.7438509,0,60,0.257268,0.1917757,-0.03076802,-1.014247,-1.722526,-0.1384069,0.7811379,1.419483,0.007762402,0.01385134,-0.03144392,-0.2660264,-0.7964545,-0.1501639,0.07011411,0.846806,1.516328,0.2012886,0.4711586,0.9855933,0.1723545,44.04459,117.8844,194.2782,True
0,0.6888894,0.5197507,0.6618989,0.123946,4.69293,-2.090052,2.710157,0.718622,1.243041,0.02148122,-0.5351894,0.7559774,0,60,0.273908,0.1543633,-0.0649168,-1.016037,-1.722256,-0.1421478,0.7820477,1.419549,0.007715225,0.004281402,-0.04103328,-0.2617938,-0.7992642,-0.1510617,0.07079108,0.8478792,1.516244,0.2010964,0.4709672,0.9857789,0.17434,43.74303,119.8652,196.1069,True
0,0.7000005,0.5176592,0.5351119,0.1134129,4.692975,-2.0922,2.704378,0.7186153,1.243194,0.0218522,-0.5258305,0.8392758,0,60,0.2970259,0.1371536,-0.103387,-1.018564,-1.721563,-0.1465844,0.7826703,1.419464,0.007629573,0.002125263,-0.04312913,-0.2649966,-0.8024104,-0.1516325,0.07118177,0.8489432,1.516102,0.200935,0.4709598,0.985849,0.1755801,43.24159,120.6993,197.3649,True
0,0.7111117,0.5189188,0.4488379,0.1219991,4.692399,-2.094955,2.698547,0.7186828,1.243412,0.02224272,-0.5161979,0.861386,0,60,0.3075539,0.1306903,-0.1183599,-1.020465,-1.720301,-0.1509227,0.7827706,1.419223,0.007587135,-0.002244294,-0.04300211,-0.2777501,-0.805994,-0.1521082,0.07180441,0.8499929,1.515991,0.2007028,0.4708842,0.9859579,0.1763029,42.75389,121.2394,198.2038,True
0,0.7222228,0.4925423,0.3188397,0.130909,4.690506,-2.094924,2.693995,0.7189193,1.243688,0.02251634,-0.506309,0.8848312,0,60,0.2925335,0.09882256,-0.1075839,-1.021292,-1.720509,-0.1535121,0.7834013,1.419217,0.007456779,0.002127856,-0.03889574,-0.26494,-0.8082779,-0.1523749,0.07178284,0.8509449,1.515877,0.2005678,0.4704157,0.9861367,0.1775153,42.8642,121.7574,198.427,True
0,0.7333339,0.4425829,0.1877494,0.1273027,4.688429,-2.093538,2.690856,0.7193518,1.243871,0.02279842,-0.4962007,0.9044924,0,60,0.2703022,0.07342633,-0.05948125,-1.020181,-1.720348,-0.1556128,0.7839355,1.41929,0.007344365,0.003355473,-0.03056874,-0.2467524,-0.8103642,-0.1523617,0.07170109,0.8519611,1.515776,0.2004748,0.4700817,0.9861049,0.1782527,42.76521,121.9454,198.8438,True
0,0.7444451,0.4072832,0.09606903,0.1043252,4.687294,-2.091946,2.687563,0.7196789,1.244118,0.02299908,-0.4867438,0.844623,0,60,0.2556101,0.06183807,-0.01144278,-1.018712,-1.719766,-0.1582181,0.7846572,1.419342,0.00724414,0.002274066,-0.02520953,-0.2509444,-0.8131941,-0.1524239,0.07184862,0.8531075,1.515673,0.200238,0.4699303,0.9860994,0.1787914,42.51768,122.1169,199.2928,True
0,0.7555562,0.3727874,-0.0297149,0.05366299,4.686467,-2.087512,2.684646,0.7201695,1.244323,0.02309501,-0.4779927,0.7844306,0,60,0.2335356,0.05137868,0.05048985,-1.016085,-1.718854,-0.1603481,0.7849927,1.419202,0.007140458,0.0001159608,-0.02516781,-0.2551844,-0.8160964,-0.1526662,0.07207207,0.8542019,1.515534,0.2001398,0.47015,0.9861482,0.1791807,42.19223,122.1731,199.59,True
0,0.7666674,0.3618342,-0.1394804,0.01445927,4.685189,-2.082419,2.681116,0.7207382,1.244529,0.02310711,-0.4685534,0.8497775,0,60,0.2167636,0.06215819,0.08786228,-1.0142,-1.717194,-0.1629855,0.7858174,1.419246,0.006944686,-0.00629127,-0.01654811,-0.26251,-0.8192096,-0.1522447,0.07207792,0.8552085,1.515461,0.2000199,0.4705654,0.9857945,0.1785377,41.15078,126.1313,203.1266,True
0,0.7777785,0.3488759,-0.2162181,-0.009844705,4.683916,-2.077714,2.6778,0.7213399,1.244641,0.02310312,-0.4587497,0.8795493,0,60,0.1841531,0.09859245,0.1253029,-1.011902,-1.71395,-0.1655685,0.7867739,1.419351,0.006863892,-0.003026009,0.002638079,-0.2644776,-0.822186,-0.1509568,0.07109521,0.8560443,1.515283,0.200041,0.4703303,0.9859407,0.1790544,41.24327,126.3823,203.5161,True
0,0.7888896,0.3297082,-0.2481976,-0.01279925,4.682399,-2.074369,2.674872,0.7218935,1.24475,0.02306473,-0.4480843,0.958726,0,60,0.1704882,0.142341,0.1200156,-1.011332,-1.71021,-0.1687906,0.7871258,1.419133,0.00681445,-0.005089909,0.01003217,-0.257999,-0.8248066,-0.1503293,0.07088695,0.8569742,1.51512,0.1998983,0.4703493,0.9859416,0.1790279,41.32524,126.3586,203.4578,True
0,0.8000008,0.289387,-0.2908621,-0.00274545,4.680079,-2.070239,2.67311,0.7224736,1.245042,0.02302572,-0.4374838,0.9498786,0,60,0.1579872,0.2052512,0.1115005,-1.01118,-1.704785,-0.1729494,0.7879767,1.419201,0.006707013,-0.004936472,0.02374564,-0.2450767,-0.826944,-0.1492402,0.07018948,0.8577278,1.515026,0.1998858,0.4698639,0.9861743,0.179203,42.41281,124.7022,201.9732,True
0,0.8111119,0.2488942,-0.3164747,-0.006539524,4.678274,-2.066328,2.671814,0.7230215,1.245136,0.02299097,-0.4271396,0.9276668,0,60,0.136867,0.2394553,0.1126509,-1.010626,-1.700255,-0.1761766,0.7885833,1.419097,0.006523728,-0.001687974,0.02792168,-0.238667,-0.8293387,-0.1484723,0.06965578,0.858556,1.514917,0.1998721,0.4697421,0.9856665,0.1781355,42.26073,126.9034,203.6619,True
0,0.8222231,0.2144772,-0.3144115,-0.03599796,4.678048,-2.062654,2.670681,0.7234631,1.245263,0.02291188,-0.4174372,0.8701656,0,60,0.1283635,0.2501465,0.106298,-1.010244,-1.696393,-0.1793383,0.7892821,1.419111,0.006447583,0.001520216,0.02144618,-0.233414,-0.8315603,-0.1485109,0.06953673,0.8593104,1.514878,0.1998398,0.4702461,0.9860096,0.1785086,42.82234,123.3804,200.7132,True
0,0.8333342,0.1843293,-0.305944,-0.06443729,4.678072,-2.059204,2.669645,0.7238925,1.245317,0.02281758,-0.4078668,0.8614901,0,60,0.1303724,0.2479895,0.08817431,-1.010414,-1.693292,-0.1825123,0.7899401,1.419186,0.006443113,0.008916408,0.0075517,-0.2325362,-0.8341218,-0.1488302,0.06944112,0.8600839,1.514788,0.1998148,0.4704678,0.9856609,0.1776798,43.01109,126.0111,202.7594,True
0,0.8444453,0.1660727,-0.2985169,-0.07702817,4.677776,-2.0559,2.668461,0.7243359,1.245435,0.02273893,-0.398051,0.8832135,0,60,0.1566991,0.2116087,0.06888142,-1.010547,-1.691967,-0.185898,0.7903655,1.419218,0.006366372,0.01099266,-0.0009657377,-0.236892,-0.8369021,-0.1493349,0.0694904,0.8609897,1.514634,0.1997801,0.4707214,0.985649,0.1777857,43.63358,124.8092,201.8741,True
0,0.8555565,0.1543735,-0.2900028,-0.07477434,4.677066,-2.052973,2.667156,0.7247281,1.245407,0.02262023,-0.3879645,0.907219,0,60,0.1766079,0.1571589,0.06244036,-1.009893,-1.692111,-0.1884434,0.7907009,1.419389,0.006404132,0.02378923,-0.0138964,-0.2275206,-0.839178,-0.1498884,0.06916389,0.8617598,1.514529,0.1996735,0.4707808,0.9855334,0.177546,44.39147,124.5598,201.5141,True
0,0.8666676,0.1564485,-0.2623034,-0.07801709,4.677007,-2.050649,2.665187,0.7250433,1.245554,0.02253246,-0.3775031,0.9412043,0,60,0.1838569,0.1166398,0.06350551,-1.009138,-1.692135,-0.1907428,0.7910917,1.419463,0.006347448,0.03449786,-0.02693261,-0.2117331,-0.8409432,-0.1513311,0.06939799,0.8627406,1.514456,0.1995381,0.4705257,0.9853806,0.1773026,45.48945,123.9669,200.8648,True
0,0.8777788,0.1627901,-0.2495151,-0.08129299,4.676823,-2.048074,2.663238,0.7253349,1.245755,0.02253613,-0.3669372,0.9499388,0,60,0.2048619,0.05687173,0.06771464,-1.007811,-1.69357,-0.1927609,0.7912266,1.419637,0.006332338,0.04398122,-0.04399009,-0.2172825,-0.8435254,-0.1527505,0.06948693,0.8636605,1.514412,0.1993835,0.470935,0.9852092,0.1770492,46.09629,122.2471,199.185,True
0,0.8888899,0.1948351,-0.1471989,-0.0636172,4.677719,-2.049552,2.659742,0.7253292,1.246281,0.02254331,-0.3559549,0.9875485,0,60,0.2197969,0.04615562,0.08148078,-1.006618,-1.692883,-0.1960089,0.7916186,1.419632,0.006113589,0.04705411,-0.05345643,-0.2312426,-0.846613,-0.1537296,0.06939319,0.8644943,1.514326,0.1992295,0.4708025,0.9849573,0.1765938,46.99144,122.7665,199.2758,True
0,0.900001,0.2174082,-0.04487937,-0.03411491,4.678371,-2.052167,2.656637,0.7253478,1.246577,0.0227516,-0.345126,0.9714134,0,60,0.2284547,0.05039179,0.1006009,-1.005015,-1.6917,-0.1995049,0.7919357,1.419723,0.006105959,0.04367411,-0.04997993,-0.2588878,-0.8504853,-0.1539452,0.06919318,0.8653266,1.514129,0.1991614,0.4706992,0.9848531,0.1768989,48.01571,120.4671,197.2109,True
0,0.9111122,0.2174824,0.02544493,-0.02032752,4.679364,-2.054474,2.654104,0.7253871,1.246684,0.02292663,-0.3335545,1.040532,0,60,0.2253457,0.06319422,0.1048684,-1.003979,-1.69005,-0.2026421,0.7920828,1.419593,0.006108314,0.04796255,-0.03720927,-0.2609257,-0.8534291,-0.1537917,0.0685226,0.8660644,1.514014,0.1991076,0.4704104,0.9842545,0.1755813,47.89942,124.1456,200.2114,True
0,0.9222233,0.2068627,0.1373024,-0.005387697,4.681385,-2.059233,2.652056,0.7253764,1.246948,0.02313775,-0.3228103,0.960604,0,60,0.2137101,0.09307071,0.09212189,-1.003802,-1.687511,-0.2060312,0.7924368,1.419587,0.006124616,0.04075189,-0.01714693,-0.2383075,-0.8552784,-0.1529299,0.06776467,0.8666704,1.513924,0.1991353,0.4711779,0.9845206,0.1765008,47.97288,119.9604,196.768,True
0,0.9333345,0.1886805,0.2416925,-0.001014444,4.684149,-2.064731,2.650335,0.7252212,1.247141,0.02325407,-0.3128873,0.8893929,0,60,0.1901306,0.1038137,0.06029746,-1.004396,-1.685887,-0.2081015,0.7922087,1.419354,0.006155759,0.03895329,0.002770163,-0.2040093,-0.8563661,-0.1519901,0.06679794,0.8672535,1.513904,0.1991552,0.4710722,0.9840689,0.1752702,47.28749,126.1332,201.9498,True
0,0.9444456,0.179071,0.3034679,0.003296986,4.686526,-2.069418,2.648473,0.7251434,1.247419,0.02339539,-0.3034699,0.8452973,0,60,0.176021,0.09532554,0.02416785,-1.005365,-1.685284,-0.2099538,0.7925792,1.419382,0.006184131,0.0433359,0.006874241,-0.1901491,-0.8580226,-0.1516737,0.06591004,0.8678639,1.513794,0.1991657,0.471368,0.9845614,0.1774201,48.22644,120.1784,197.5043,True
0,0.9555568,0.1770653,0.3652735,0.02137703,4.688674,-2.075319,2.646392,0.7250104,1.247723,0.02337137,-0.2943096,0.8233011,0,60,0.1778803,0.08675179,-0.01418549,-1.006844,-1.684791,-0.2122483,0.7928255,1.419354,0.006171256,0.04114091,0.0005188324,-0.1923331,-0.8603853,-0.1516247,0.06567302,0.8685656,1.51367,0.1991009,0.472202,0.9840416,0.1766442,47.48627,124.6851,201.0414,True
0,0.9666679,0.1856739,0.4004509,0.03298026,4.690565,-2.080479,2.643884,0.7249987,1.247817,0.02358142,-0.2848549,0.8502061,0,60,0.1841639,0.08350363,-0.03019987,-1.007744,-1.684036,-0.2149815,0.7933221,1.419408,0.006139457,0.0431415,-0.01432808,-0.2010161,-0.8629878,-0.1523408,0.06562242,0.8692474,1.513516,0.198972,0.4723722,0.9840783,0.1770791,47.67779,124.3186,201.2743,True
0,0.977779,0.1845069,0.4046994,0.02446737,4.692766,-2.084444,2.641862,0.724962,1.248044,0.02370787,-0.275072,0.8789021,0,60,0.1947619,0.08024472,-0.03665087,-1.00856,-1.683278,-0.2179036,0.79357,1.419432,0.006179541,0.04412653,-0.02708476,-0.2043424,-0.8654251,-0.153123,0.06560884,0.8698828,1.513406,0.1989056,0.4717552,0.9837704,0.1768557,47.97129,126.8235,203.7067,True
0,0.9888902,0.1598121,0.3620401,0.00239981,4.694636,-2.086387,2.640863,0.7250397,1.248252,0.02381727,-0.2648418,0.919025,0,60,0.1958803,0.08343843,-0.03026748,-1.008786,-1.682109,-0.2206868,0.793494,1.419344,0.006242514,0.05460723,-0.04190709,-0.2194752,-0.8684174,-0.1542185,0.06532601,0.8703821,1.513303,0.1988276,0.4715135,0.9833519,0.1775203,47.48317,129.0309,205.6004,True
0,1.000001,0.1265554,0.2820794,-0.0269984,4.695948,-2.08636,2.640544,0.7250826,1.248441,0.02388051,-0.2550153,0.8810474,0,60,0.1907543,0.08456649,0.002786372,-1.007813,-1.680689,-0.2233726,0.7937052,1.41938,0.006290495,0.05552432,-0.05135911,-0.2334374,-0.8716878,-0.1549761,0.06522427,0.8710319,1.513085,0.1987469,0.4717977,0.9831514,0.1784602,47.15472,129.7686,206.5776,True
0,1.011112,0.1083164,0.2138716,-0.04591738,4.697026,-2.086091,2.639926,0.7251253,1.248666,0.02399704,-0.2458183,0.8255227,0,60,0.1803083,0.09423593,0.03054024,-1.006811,-1.678811,-0.2258579,0.7934122,1.419133,0.006463915,0.0564844,-0.0608747,-0.2420571,-0.87467,-0.1560521,0.06526769,0.8715726,1.512959,0.19875,0.4719524,0.982889,0.1788156,46.77466,131.7706,208.4377,True
0,1.022224,0.1040267,0.1019961,-0.06069409,4.696825,-2.083284,2.63889,0.7251544,1.248714,0.02400386,-0.2367561,0.8160476,0,60,0.1761083,0.08681932,0.04761775,-1.005891,-1.677669,-0.2282641,0.7935336,1.41908,0.006514132,0.05544484,-0.05663077,-0.2388199,-0.8772522,-0.1562823,0.06496835,0.872141,1.51284,0.1986824,0.4712363,0.9826,0.1790709,47.14826,133.3411,210.1415,True
0,1.033335,0.1159214,-0.01516401,-0.05752247,4.695323,-2.079715,2.637162,0.7252212,1.248718,0.02412599,-0.2270094,0.8788573,0,60,0.170614,0.06978916,0.03488711,-1.005975,-1.677516,-0.2300409,0.7937264,1.419051,0.006699562,0.05771238,-0.05359611,-0.2228239,-0.8791398,-0.1566839,0.06443571,0.872609,1.512761,0.1987625,0.4717874,0.9825165,0.179347,47.59086,131.2233,208.6306,True
0,1.044446,0.1300494,-0.1291279,-0.04479729,4.693029,-2.075419,2.635235,0.7253175,1.248734,0.0241206,-0.2167217,0.926029,0,0,0.1757775,0.06866787,0.008224862,-1.00692,-1.676884,-0.2324953,0.7938204,1.418955,0.006782651,0.0514335,-0.0515829,-0.2057218,-0.8808895,-0.1569365,0.06444903,0.8731281,1.512718,0.1986528,0.4718957,0.9824153,0.1788621,47.92668,131.9695,208.9603,True
0,1.055557,0.1408419,-0.1898279,-0.03847108,4.691283,-2.071879,2.633443,0.7253895,1.248806,0.02416578,-0.2058794,0.974802,0,0,0.1894325,0.07707014,-0.03234569,-1.008961,-1.676084,-0.2355081,0.7941725,1.418959,0.006768405,0.04820612,-0.04831109,-0.2120591,-0.8834376,-0.1572696,0.06424264,0.8736038,1.512557,0.1986521,0.4718528,0.9824257,0.1788162,48.81789,130.3389,207.6514,True
0,1.066668,0.1514089,-0.2377612,-0.05132996,4.690304,-2.067984,2.631587,0.725415,1.248968,0.02416992,-0.1951469,0.9632159,0,0,0.2042629,0.09293798,-0.06014792,-1.010783,-1.674762,-0.2388741,0.7946944,1.419002,0.006790578,0.04390088,-0.05038318,-0.2163114,-0.8860768,-0.1579057,0.06434224,0.8741201,1.512497,0.1986318,0.4719282,0.982253,0.1781776,48.97556,130.5823,207.6144,True
0,1.077779,0.1458891,-0.2388492,-0.06938188,4.690262,-2.065036,2.630161,0.7254155,1.249159,0.02421284,-0.1849294,0.9166917,0,0,0.2011255,0.1004152,-0.05694125,-1.011649,-1.673358,-0.2417452,0.7947938,1.418967,0.006825387,0.04499848,-0.04507014,-0.2152057,-0.8884939,-0.1581191,0.0639425,0.874557,1.512363,0.198682,0.4720059,0.9822903,0.1781072,49.52163,128.9093,206.2879,True
0,1.08889,0.1415463,-0.2100938,-0.0736213,4.690412,-2.063365,2.628792,0.7253945,1.249345,0.02437794,-0.175065,0.8858473,0,0,0.1894409,0.09303721,-0.04301834,-1.011804,-1.672462,-0.2437549,0.795136,1.418998,0.006830543,0.05252415,-0.03767192,-0.2119928,-0.8907571,-0.15815,0.06307058,0.8750142,1.51217,0.1986265,0.4716811,0.9821936,0.1777695,49.96876,129.6522,206.5306,True
0,1.100002,0.1426607,-0.1845217,-0.06619857,4.690215,-2.062047,2.627231,0.7253606,1.249475,0.02451763,-0.1658633,0.8252944,0,0,0.1736416,0.08676803,-0.006697901,-1.010821,-1.671286,-0.2457538,0.7952616,1.419029,0.006903708,0.03875877,-0.03557922,-0.2022782,-0.8926021,-0.1584891,0.06328417,0.8754424,1.512022,0.1986845,0.4718301,0.9820636,0.177447,50.06001,129.0772,205.94,True
0,1.111113,0.1555202,-0.1493392,-0.05571122,4.690177,-2.061621,2.625025,0.7253013,1.249689,0.02469167,-0.1571084,0.7868186,0,0,0.1683777,0.07616541,0.01358615,-1.010113,-1.670483,-0.247894,0.795732,1.419109,0.007002562,0.03567441,-0.0356973,-0.1884033,-0.8941926,-0.1588787,0.06314515,0.8758316,1.511874,0.1987777,0.4712166,0.9821399,0.1775331,51.05484,127.5969,204.6432,True
0,1.122224,0.2153461,-0.06935589,-0.03193147,4.690722,-2.06347,2.620459,0.7251093,1.250038,0.02503851,-0.1485975,0.7646824,0,0,0.1685633,0.06023413,0.0594104,-1.007912,-1.669724,-0.2501813,0.7959757,1.419186,0.007138699,0.03053734,-0.02414485,-0.1690824,-0.8954645,-0.1586265,0.06279068,0.8762028,1.51173,0.1988587,0.4711913,0.9818145,0.1765904,50.83146,128.9492,205.4433,True
0,1.133335,0.2472151,0.01484811,-0.03128772,4.692503,-2.065835,2.616632,0.7249293,1.250286,0.02541336,-0.1400775,0.7651107,0,0,0.1815879,0.07511032,0.08808368,-1.006439,-1.667665,-0.253648,0.7964323,1.419319,0.007361203,0.01030515,-0.002624074,-0.1815138,-0.8978522,-0.1574615,0.06253555,0.8765551,1.511593,0.199096,0.4715401,0.9819357,0.1769151,51.34331,126.2424,203.3402,True
0,1.144446,0.2545914,0.0798347,-0.03249424,4.694376,-2.068008,2.613536,0.724786,1.250604,0.02568188,-0.1306962,0.8427771,0,0,0.184958,0.09853853,0.09656177,-1.005593,-1.665118,-0.2571812,0.7967324,1.419316,0.007488102,0.003873944,-0.001467312,-0.1878524,-0.9002459,-0.1572646,0.06257177,0.8769407,1.511431,0.1992017,0.4705219,0.9817145,0.1764337,51.50137,129.6329,205.7358,True
0,1.155557,0.2512959,0.1650547,-0.03252988,4.697104,-2.072034,2.61077,0.7244952,1.250892,0.02597782,-0.1229661,0.6855778,0,0,0.1692115,0.1401777,0.0998157,-1.005148,-1.661233,-0.2605213,0.7971404,1.419269,0.007733345,-0.01644823,0.01483922,-0.2120479,-0.9033613,-0.1560382,0.06256937,0.8772647,1.511281,0.19943,0.470293,0.981508,0.1768219,51.15079,129.4866,205.9108,True
0,1.166668,0.2372629,0.2438733,-0.04096342,4.700377,-2.076215,2.608546,0.7242606,1.251071,0.02619365,-0.1169602,0.5357091,0,0,0.1405935,0.1808029,0.08714487,-1.005681,-1.657237,-0.2633206,0.7978311,1.419225,0.007819772,-0.01752859,0.02234703,-0.2172936,-0.9058481,-0.155297,0.06238721,0.8776221,1.511019,0.1995501,0.4703594,0.9818518,0.1783949,51.61049,126.0358,203.2666,True
0,1.17778,0.2255099,0.2907392,-0.03874078,4.703063,-2.080134,2.606392,0.7241671,1.251197,0.02642587,-0.1120557,0.4382869,0,0,0.1172247,0.2043528,0.07767048,-1.005954,-1.653542,-0.2658271,0.7981293,1.41912,0.007911623,-0.0260593,0.01703769,-0.2151537,-0.9081789,-0.1550982,0.06284714,0.8779045,1.510846,0.1997136,0.4708431,0.9819132,0.1782233,50.85724,127.3928,204.0109,True
0,1.188891,0.2138366,0.2854089,-0.03540568,4.704782,-2.082684,2.604297,0.7239978,1.25137,0.02653971,-0.1084136,0.3245685,0,0,0.105473,0.2129298,0.06600482,-1.00638,-1.650483,-0.2681923,0.7984121,1.419137,0.007976383,-0.02916004,0.02120446,-0.204443,-0.9101182,-0.1545894,0.06302717,0.8781792,1.510654,0.199779,0.4709075,0.9819765,0.1780646,50.2388,128.8271,205.1228,True
0,1.200002,0.2053433,0.257704,-0.03528932,4.706103,-2.084102,2.602328,0.7238376,1.251469,0.0267781,-0.105646,0.2469119,0,0,0.106336,0.2235307,0.02231054,-1.008384,-1.647619,-0.2708858,0.7985718,1.419091,0.008131802,-0.0225269,0.02942033,-0.1767143,-0.911119,-0.1538543,0.06251132,0.8783216,1.510605,0.2000304,0.4707023,0.9821267,0.1786788,50.39452,127.8711,204.5597,True
0,1.211113,0.1915273,0.2044167,-0.03828081,4.706677,-2.084175,2.600644,0.7237628,1.251627,0.02692503,-0.1036705,0.1749133,0,0,0.1168442,0.2372866,-0.01398712,-1.010553,-1.644566,-0.274165,0.7990887,1.419194,0.00823155,-0.01050396,0.03643704,-0.1373143,-0.9113076,-0.153083,0.06183594,0.8784181,1.510434,0.2002495,0.4702294,0.9821712,0.1791235,50.61368,127.7698,204.5017,True
0,1.222224,0.1713042,0.1404693,-0.0433347,4.70695,-2.083346,2.59944,0.7237206,1.251788,0.02711925,-0.1024651,0.1055257,0,0,0.1209946,0.2329871,-0.02892149,-1.012045,-1.64209,-0.2769496,0.7990794,1.419257,0.008396119,-0.001846738,0.04263988,-0.1234617,-0.9121204,-0.152425,0.06107294,0.8785859,1.510454,0.2004511,0.4701025,0.9820274,0.1788612,49.96828,129.3328,205.7306,True
0,1.233335,0.1350877,0.06904823,-0.05033207,4.70681,-2.081696,2.599145,0.7236137,1.252026,0.02730599,-0.1020055,0.0385708,0,0,0.1113739,0.2149421,-0.01713209,-1.012235,-1.640021,-0.2788279,0.7990689,1.419334,0.008519024,0.01841293,0.04144968,-0.1204201,-0.9133652,-0.151918,0.05984682,0.8786975,1.51035,0.2005435,0.4695395,0.9818706,0.1785251,49.14882,131.5264,207.6602,True
0,1.244446,0.08508083,-0.001330949,-0.0518577,4.706186,-2.079459,2.599813,0.7234638,1.252056,0.02740458,-0.1022398,-0.02333655,0,0,0.09104085,0.1415954,0.03207131,-1.010027,-1.640337,-0.2790178,0.7989821,1.419537,0.008668005,0.03220479,0.02322359,-0.1164301,-0.9145263,-0.1524914,0.05947238,0.8788062,1.510224,0.2007518,0.4682084,0.9817864,0.1789303,49.09307,132.7444,209.0504,True
0,1.255558,0.05423265,-0.03864783,-0.05148683,4.70581,-2.077869,2.600232,0.7234151,1.252064,0.02749655,-0.1032289,-0.09055205,0,0,0.08988786,0.09262775,0.06088089,-1.008487,-1.640517,-0.2798652,0.7986202,1.419499,0.008891195,0.04710783,0.01567053,-0.1134126,-0.9156923,-0.1525222,0.05844866,0.8788153,1.510074,0.2009327,0.468632,0.9818864,0.1796102,48.76437,130.739,207.598,True
0,1.266669,0.03725,-0.07276453,-0.04914552,4.705207,-2.075871,2.600368,0.7232406,1.252076,0.02752551,-0.1047166,-0.1336313,0,0,0.09283174,0.01699815,0.08437946,-1.006339,-1.642533,-0.2800881,0.7983913,1.419581,0.009055376,0.05247712,0.009150561,-0.1039167,-0.9164022,-0.1527485,0.05780418,0.8788813,1.509976,0.2012138,0.4685308,0.9821532,0.1796993,48.61887,130.9163,207.5811,True
0,1.27778,0.01920788,-0.1143264,-0.04784039,4.704102,-2.073329,2.600742,0.7231538,1.252005,0.02755827,-0.10563,-0.07923912,0,0,0.09992217,-0.04164208,0.07481257,-1.005155,-1.64511,-0.2800583,0.7980161,1.419576,0.009253651,0.05268998,0.01529561,-0.07828911,-0.9163053,-0.1523272,0.05694557,0.8789033,1.509834,0.2014039,0.4683592,0.9822103,0.179504,48.54184,131.1928,207.7325,True
0,1.288891,0.0001276415,-0.1313896,-0.04122307,4.703309,-2.071637,2.601227,0.7230089,1.251903,0.02753606,-0.1059581,-0.02861118,0,0,0.1081595,-0.07260262,0.05455459,-1.004876,-1.646918,-0.2805164,0.7977269,1.419443,0.009458363,0.04854174,0.01516795,-0.06334493,-0.9165066,-0.1521477,0.05636634,0.8789213,1.509779,0.2015709,0.467688,0.9820312,0.1789572,48.37622,132.7836,208.9912,True
0,1.300002,-0.00626906,-0.1186169,-0.0400984,4.703191,-2.070609,2.601516,0.7228608,1.251871,0.02755684,-0.106217,-0.02351078,0,0,0.1048335,-0.07686637,0.03646858,-1.004791,-1.648111,-0.2809217,0.7974744,1.419361,0.009647459,0.04852032,0.007688798,-0.06127871,-0.9170398,-0.1523841,0.0560116,0.8788158,1.509767,0.2016973,0.4675556,0.9819269,0.1789126,48.3485,132.1579,208.5859,True
0,1.311113,-0.01482531,-0.08346573,-0.0400274,4.703664,-2.070757,2.601866,0.7227302,1.251816,0.02756327,-0.1063677,-0.01271439,0,0,0.09409614,-0.06511945,0.01201154,-1.005486,-1.648576,-0.2812932,0.7973559,1.419275,0.009822905,0.04520378,-0.01572233,-0.06254778,-0.9179112,-0.1536263,0.05647792,0.8788184,1.509637,0.201759,0.4674002,0.9821119,0.179276,48.84389,130.5939,207.3174,True
0,1.322224,-0.02982463,-0.04406659,-0.04415473,4.704588,-2.071149,2.60256,0.7225933,1.251818,0.02760831,-0.1062122,0.01510325,0,0,0.07381557,-0.03309203,-0.02305776,-1.007212,-1.64815,-0.2815821,0.7971523,1.41916,0.009967983,0.0493521,-0.03916623,-0.06386658,-0.9187437,-0.1551832,0.0567224,0.8787733,1.509578,0.2018224,0.4673599,0.9823498,0.1796007,49.46237,128.7802,205.7013,True
0,1.333336,-0.05447553,0.004901357,-0.0524496,4.706173,-2.072154,2.603955,0.7224779,1.251796,0.02761078,-0.106013,0.01810045,60,0,0.05048599,0.008558009,-0.04107965,-1.008697,-1.646753,-0.2820498,0.797029,1.419128,0.01009607,0.05146709,-0.05308734,-0.05761839,-0.9191719,-0.1565442,0.05691575,0.8786058,1.509539,0.2019081,0.4675555,0.9824225,0.1792918,49.54285,128.3103,205.0424,True
0,1.344447,-0.06934661,0.03045708,-0.04591434,4.706936,-2.072943,2.605143,0.7223718,1.251726,0.02764046,-0.1060029,0.001105815,60,0,0.0377406,0.01821267,-0.04207576,-1.009181,-1.646385,-0.2821896,0.7967079,1.419039,0.0102722,0.05791031,-0.0542538,-0.05021462,-0.9194611,-0.1572571,0.05644543,0.8784804,1.509411,0.2019982,0.4674102,0.98243,0.1789663,49.71573,128.4488,204.9623,True
0,1.355558,-0.09703043,0.04960268,-0.04243253,4.7079,-2.073833,2.607198,0.7222919,1.251648,0.02762318,-0.1063778,-0.0330303,60,0,0.018537,0.01405175,-0.04302197,-1.009666,-1.64655,-0.281637,0.796382,1.419006,0.01042715,0.06333578,-0.05333526,-0.03746058,-0.9194867,-0.1579734,0.05594902,0.8785372,1.50936,0.2021419,0.4679592,0.9822032,0.1779823,48.82781,130.4485,206.3046,True
0,1.366669,-0.1118619,0.04958852,-0.03481237,4.708194,-2.074117,2.608893,0.7222691,1.251524,0.02765584,-0.106405,0.000582472,60,0,0.010968,-0.01679063,-0.03441319,-1.009319,-1.647928,-0.2808309,0.7965553,1.419125,0.01057869,0.07194194,-0.05241504,-0.02685525,-0.9194041,-0.1587863,0.05529335,0.8784409,1.509382,0.2023609,0.4674761,0.9823855,0.1787418,49.92181,128.2552,204.8235,True
0,1.37778,-0.1277491,0.01867433,-0.02929052,4.70787,-2.073217,2.610874,0.7222123,1.251384,0.0275906,-0.1068284,-0.03778742,60,0,-0.0008839853,-0.0529378,-0.02471531,-1.008753,-1.649956,-0.2793374,0.7961495,1.41915,0.01078606,0.06688365,-0.04203313,0.004175429,-0.9183176,-0.1590098,0.0548526,0.878231,1.509416,0.2026393,0.4675681,0.9822263,0.1785166,50.03384,128.6777,204.9379,True
0,1.388891,-0.1394987,-0.03248028,-0.03764011,4.707392,-2.071168,2.612792,0.722194,1.25134,0.02751836,-0.106773,0.009063495,60,0,0.006496958,-0.07534015,-0.01727308,-1.008264,-1.651605,-0.2787549,0.796268,1.419382,0.01098073,0.07236126,-0.02619268,0.01600472,-0.917818,-0.1588192,0.05382888,0.8780273,1.509486,0.2027136,0.4676914,0.9820516,0.1782211,50.09406,129.2525,205.3703,True
0,1.400002,-0.1438638,-0.05806756,-0.04929081,4.707442,-2.069379,2.614599,0.7220852,1.251215,0.02741975,-0.1067145,0.006534319,60,0,0.01501508,-0.08815695,-0.006656688,-1.007619,-1.653115,-0.2784079,0.7959118,1.419434,0.01118436,0.06301784,0.002457872,0.03232485,-0.916863,-0.1576208,0.0526973,0.8779072,1.509475,0.2029369,0.467867,0.9819281,0.1781254,50.27973,129.2524,205.4364,True
0,1.411114,-0.1504928,-0.08259214,-0.0737019,4.707997,-2.067094,2.616505,0.72208,1.251144,0.02738485,-0.1064913,0.02263179,60,0,0.01826743,-0.1062542,0.0189158,-1.006066,-1.654719,-0.2778841,0.7959275,1.419649,0.0114643,0.06203505,0.008780692,0.03984891,-0.9161727,-0.1573614,0.05189143,0.8776972,1.50951,0.2032153,0.4685712,0.9817533,0.1775099,49.79906,130.3129,206.1805,True
0,1.422225,-0.1688142,-0.08795484,-0.09374082,4.708929,-2.065336,2.618973,0.7221537,1.251028,0.02721974,-0.1064141,0.009086042,60,0,0.006621726,-0.1093718,0.03390322,-1.004823,-1.655936,-0.2768955,0.7956204,1.41968,0.01168913,0.05987318,0.006672151,0.03771827,-0.9158052,-0.157608,0.05153669,0.8774915,1.509541,0.203358,0.4683229,0.9817848,0.1775889,50.35741,129.7947,205.8698,True
0,1.433336,-0.1859867,-0.07839358,-0.104215,4.709954,-2.064159,2.621629,0.7221384,1.250909,0.02706307,-0.1068684,-0.03959649,60,0,-0.01030361,-0.09649233,0.04251597,-1.003938,-1.656418,-0.2759056,0.7953873,1.419662,0.01190317,0.06307358,-0.0008491799,0.04295086,-0.9151713,-0.1580039,0.05096038,0.8772693,1.509567,0.2035201,0.4686792,0.9817967,0.1774775,50.6378,128.1744,204.44,True
0,1.444447,-0.1998777,-0.07414736,-0.1072669,4.71076,-2.062995,2.624334,0.7221687,1.250787,0.02691889,-0.1084178,-0.138481,60,0,-0.02511977,-0.09107251,0.05432003,-1.002755,-1.657026,-0.2748324,0.7953386,1.419709,0.01209056,0.06308557,-0.001937687,0.04507572,-0.914537,-0.1581844,0.0503428,0.8770548,1.509569,0.203665,0.4687182,0.9816946,0.1764285,50.40526,129.8112,205.2841,True
0,1.455558,-0.2203245,-0.07525166,-0.12622,4.71213,-2.061244,2.6275,0.722121,1.250591,0.02662644,-0.1108136,-0.2131947,60,0,-0.03568533,-0.06971521,0.05009843,-1.002303,-1.656938,-0.27412,0.7950299,1.419587,0.01228559,0.06510785,-0.02108685,0.04062873,-0.9141833,-0.1594425,0.05020005,0.8769288,1.509656,0.2037448,0.4686531,0.9817911,0.1764318,51.20091,127.3241,203.2746,True
0,1.466669,-0.2419236,-0.08808211,-0.1547383,-1.569458,-2.058684,2.630815,0.7220836,1.250326,0.02629271,-0.1140547,-0.2894903,60,0,-0.04000334,-0.06012271,0.03200631,-1.002434,-1.657406,-0.2733306,0.7949154,1.419532,0.01244542,0.06721522,-0.02213331,0.03740942,-0.913877,-0.1598473,0.04956462,0.8767875,1.50974,0.2039172,0.4682157,0.9818229,0.1762502,52.21811,125.8478,201.6375,True
0,1.47778,-0.2518115,-0.09024791,-0.1823297,-1.567436,-2.056308,2.633905,0.7219663,1.250052,0.02591315,-0.1184569,-0.3948691,60,0,-0.04760787,-0.06756021,0.01394965,-1.002568,-1.658702,-0.2718685,0.7945266,1.419392,0.01258975,0.05535842,-0.02618472,0.02041508,-0.9142349,-0.1604323,0.04971669,0.8764466,1.509759,0.2041167,0.4675879,0.9813376,0.1744611,51.81092,129.9378,204.4776,True
0,1.488891,-0.2667962,-0.09666314,-0.189614,-1.56602,-2.054116,2.637308,0.7218812,1.249842,0.0254885,-0.1238562,-0.4831669,60,0,-0.05837204,-0.05155953,-0.01796607,-1.003745,-1.659179,-0.270566,0.7941508,1.419377,0.01273623,0.02886914,-0.01339626,0.03244046,-0.913493,-0.1600917,0.05006823,0.8760386,1.5099,0.2043028,0.4681937,0.9813631,0.1745741,52.1714,126.3708,201.5368,True
0,1.500003,-0.2730548,-0.1094468,-0.1788841,-1.565423,-2.051862,2.640516,0.7218168,1.249619,0.02517384,-0.1297956,-0.5319094,60,0,-0.06703456,-0.05792505,-0.03388286,-1.004227,-1.660388,-0.2687558,0.7931981,1.419242,0.0128856,0.03671235,-0.007512849,0.08251469,-0.9108272,-0.1601421,0.04941682,0.8755292,1.510016,0.2045382,0.4680614,0.9814578,0.1739043,52.56271,126.0171,200.6471,True
0,1.511114,-0.2706242,-0.1264684,-0.1533228,-1.565705,-2.049761,2.643421,0.7217166,1.249469,0.02484193,-0.1366819,-0.6183788,60,0,-0.09042016,-0.08439817,-0.001754675,-1.002861,-1.662118,-0.2660815,0.7926648,1.419324,0.01295453,0.04442863,0.0006804317,0.1134264,-0.9085976,-0.16002,0.04847858,0.8751414,1.510208,0.2046424,0.4679776,0.9814252,0.1728813,52.68085,125.6504,199.7619,True
0,1.522225,-0.2458921,-0.1296176,-0.1333491,-1.565651,-2.048051,2.645205,0.721616,1.249364,0.02473655,-0.1440829,-0.6630316,60,0,-0.09671392,-0.1215971,0.04839872,-1.000022,-1.664322,-0.2635984,0.7920861,1.419411,0.01305363,0.04262063,-0.01045011,0.1644678,-0.905176,-0.1609817,0.04867939,0.8746413,1.510301,0.2048534,0.4673999,0.9814788,0.1722837,53.29316,124.0509,198.0811,True
0,1.533336,-0.210489,-0.145539,-0.1124143,-1.566184,-2.045933,2.646365,0.7214935,1.249351,0.02471894,-0.1519818,-0.7085003,60,0,-0.09765518,-0.1726526,0.1145099,-0.9957229,-1.667396,-0.2607957,0.7916119,1.419554,0.01316974,0.04889999,-0.01675919,0.1526444,-0.9038998,-0.1615637,0.04829323,0.8742551,1.51036,0.2049694,0.4666621,0.9812422,0.1708588,53.13145,126.5296,199.6394,True
0,1.544447,-0.1698735,-0.1614636,-0.1021853,-1.566588,-2.043527,2.646886,0.7212648,1.249332,0.02469325,-0.1597449,-0.6963692,60,0,-0.08371966,-0.1886711,0.1442726,-0.9927817,-1.669504,-0.2591195,0.791168,1.419663,0.01329738,0.04870261,-0.02293168,0.1291571,-0.9033032,-0.1622459,0.04818031,0.8738718,1.510438,0.2050844,0.4666678,0.9813058,0.1707934,53.1464,124.5753,197.9933,True
0,1.555558,-0.09298877,-0.1634911,-0.08597437,-1.567166,-2.041672,2.645237,0.7209942,1.249446,0.02493241,-0.1679251,-0.7367836,60,0,-0.05379369,-0.2026457,0.1728729,-0.9892834,-1.671741,-0.2583258,0.7908285,1.419745,0.01343861,0.01959345,-0.003067603,0.06989259,-0.9045954,-0.1613446,0.04854543,0.8737205,1.510414,0.2050715,0.4656475,0.9813925,0.1708508,53.51235,124.4576,197.8732,True
0,1.566669,-0.004412519,-0.1303454,-0.06884874,-1.567123,-2.041406,2.642382,0.7205746,1.249561,0.02522847,-0.176616,-0.7828929,60,0,-0.02816878,-0.1899936,0.1727059,-0.9871603,-1.673035,-0.2579735,0.7907565,1.419812,0.0135105,-0.0007464625,0.02287026,0.04045593,-0.9049054,-0.1598867,0.04830308,0.8733703,1.510362,0.2050519,0.4659934,0.9815125,0.1711334,53.07972,122.0669,195.7194,True
0,1.577781,0.07573336,-0.07483262,-0.04100562,-1.566955,-2.042441,2.639013,0.7200875,1.249652,0.02563322,-0.184638,-0.7219137,60,0,-0.00346313,-0.1272948,0.1511833,-0.9863576,-1.671978,-0.2593463,0.7906539,1.419728,0.01353106,-0.01778952,0.03151379,0.03533863,-0.9045246,-0.1592243,0.04863358,0.8730303,1.510425,0.2051313,0.4652742,0.9818478,0.1716866,53.19065,119.9936,193.7964,True
0,1.588892,0.1485926,-0.00865617,0.00396296,-1.567313,-2.045005,2.635067,0.7195139,1.24967,0.02598688,-0.1929327,-0.7519999,60,0,-0.003313341,-0.06766857,0.1234195,-0.9862953,-1.670396,-0.2600678,0.7905598,1.419602,0.01357904,-0.03904922,0.03583084,0.03979208,-0.9038561,-0.1585734,0.04944212,0.8726375,1.510577,0.2051843,0.4640779,0.982016,0.1717968,52.85974,120.768,193.993,True
0,1.600003,0.1883109,0.04467756,0.03757942,-1.56761,-2.047524,2.631912,0.7189057,1.249745,0.02634394,-0.2021393,-0.8348783,60,0,-0.01708122,0.02713715,0.05308645,-0.9890347,-1.666742,-0.2614103,0.7905595,1.419376,0.01348281,-0.04319948,0.02820012,0.05999445,-0.902458,-0.1586493,0.05009752,0.8723419,1.510671,0.2051471,0.4632446,0.9823321,0.1723012,51.93538,120.0286,193.3665,True
0,1.611114,0.2355888,0.1129497,0.08175819,-1.567966,-2.051771,2.627776,0.7182522,1.249882,0.02671736,-0.2120696,-0.8991743,60,0,-0.03104858,0.0995488,-0.03107114,-0.9929346,-1.663965,-0.2620489,0.790801,1.419173,0.01341256,-0.0442316,0.01851659,0.06950957,-0.9012169,-0.1591445,0.0507729,0.8719521,1.510755,0.2051634,0.4622922,0.9827541,0.1728964,50.8876,120.6342,193.9013,True
0,1.622225,0.2879059,0.1875982,0.1003055,-1.567239,-2.056488,2.622953,0.7176743,1.250163,0.02713099,-0.2232768,-1.015783,60,0,-0.01644231,0.1217643,-0.1014945,-0.9966481,-1.662779,-0.2629355,0.7907345,1.41904,0.01331228,-0.04123332,-0.004811652,0.05648511,-0.9010896,-0.1602895,0.05184642,0.8716813,1.510793,0.2050591,0.461352,0.9832363,0.1739433,49.85001,120.8698,194.3824,True
0,1.633336,0.3176808,0.2408991,0.1010038,-1.566005,-2.06099,2.618408,0.7171011,1.250466,0.02753645,-0.2342335,-0.9878759,60,0,0.01641039,0.1236811,-0.1315269,-0.9993778,-1.662066,-0.2645329,0.7904534,1.418862,0.01323476,-0.04570229,-0.02380748,0.03823189,-0.9013873,-0.1617017,0.05330796,0.8714422,1.510895,0.2050055,0.4602023,0.9837563,0.1751812,49.60049,120.8453,194.8462,True
0,1.644447,0.3523922,0.3836706,0.07494277,-1.560236,-2.072385,2.60955,0.7158809,1.251287,0.02832338,-0.2450172,-0.9759512,60,0,0.04852693,0.1171559,-0.09868827,-1.001029,-1.659752,-0.2677249,0.7902265,1.418764,0.013154,-0.05982202,-0.0083839,-0.01053097,-0.902989,-0.161413,0.05471757,0.8710152,1.510857,0.2048876,0.4595109,0.9840627,0.1762966,48.65049,121.0643,195.4173,True
0,1.655559,0.3363707,0.4486406,0.07826767,-1.557511,-2.07918,2.606488,0.7154534,1.251636,0.02873048,-0.2532698,-0.7449625,60,0,0.04997817,0.1331836,-0.04865409,-1.000445,-1.656985,-0.2697878,0.7904527,1.418949,0.01312473,-0.05970427,0.01396547,-0.01032063,-0.9030747,-0.1606148,0.05462623,0.8708465,1.511063,0.2049932,0.458595,0.9845112,0.1776783,47.5495,121.1507,195.8658,True
0,1.66667,0.3109769,0.489108,0.09875266,-1.55556,-2.086124,2.604069,0.7149079,1.251894,0.02899623,-0.2656865,-1.139748,60,0,0.03228302,0.1354846,0.01856451,-0.9982486,-1.654278,-0.270983,0.7903821,1.419042,0.01304796,-0.05428989,0.02239323,-0.003878073,-0.9026454,-0.1601606,0.05465819,0.8703926,1.511273,0.2049492,0.457559,0.9849817,0.1790005,45.87425,121.8397,196.814,True
0,1.677781,0.2865257,0.4954743,0.10434,-1.553877,-2.091666,2.601878,0.7143786,1.252083,0.02919501,-0.2790322,-1.199457,60,0,0.009069256,0.1260709,0.06345882,-0.9964291,-1.652405,-0.2713002,0.7904351,1.419141,0.01292434,-0.03926616,0.01789621,0.01407922,-0.9018944,-0.1602336,0.0545687,0.8701754,1.511266,0.204683,0.4559512,0.985461,0.180497,44.81479,122.8205,197.8369,True
0,1.688892,0.2449583,0.4858348,0.1016036,-1.552195,-2.09655,2.600846,0.7139838,1.252208,0.0292339,-0.2920103,-1.168369,60,0,0.006828316,0.1015843,0.06669533,-0.9956015,-1.651795,-0.2716036,0.7902184,1.41916,0.01288587,-0.03063642,0.01771822,0.02787179,-0.9009623,-0.1602897,0.0544912,0.8698788,1.511344,0.2046392,0.4553055,0.9857637,0.1814983,43.55811,123.3201,198.5588,True
0,1.700003,0.1937548,0.4591357,0.09260535,-1.550778,-2.100405,2.600597,0.7136533,1.252364,0.02932101,-0.3042869,-1.1054,60,0,0.01194037,0.07597376,0.05284637,-0.9956414,-1.651896,-0.2720158,0.7902894,1.41911,0.01273772,-0.0295306,0.01871191,0.03320165,-0.9003999,-0.160372,0.0548984,0.8696362,1.511209,0.2044863,0.4542084,0.986062,0.1827927,43.09711,124.1678,199.4733,True
0,1.711114,0.1340157,0.415377,0.08050407,-1.549623,-2.103224,2.601341,0.7135143,1.252318,0.02925524,-0.316383,-1.090364,60,0,0.0157899,0.03436968,0.02091002,-0.996263,-1.653548,-0.2714435,0.7899673,1.419049,0.01268408,-0.02211114,0.02944396,0.02047052,-0.9005117,-0.1595863,0.05429413,0.8695102,1.511214,0.2044288,0.4537476,0.986193,0.1836897,42.25526,124.5557,200.0773,True
0,1.722225,0.08175626,0.3481948,0.06834316,-1.54917,-2.10472,2.602391,0.7134016,1.252388,0.02923793,-0.3280578,-1.049199,60,0,0.01748697,-0.01680597,-0.005675989,-0.9967168,-1.656178,-0.2702219,0.7898831,1.419073,0.01260498,-0.01899294,0.02524496,0.01082891,-0.9006332,-0.1597083,0.05430958,0.8694278,1.511299,0.2043446,0.4533024,0.98641,0.184448,41.73492,124.5137,200.2293,True
0,1.733337,0.05182862,0.2522621,0.04850055,-1.549316,-2.104089,2.60274,0.713254,1.252284,0.02914023,-0.339438,-1.022483,60,0,0.01302259,-0.0455555,-0.01413967,-0.9967418,-1.658167,-0.2691031,0.7896185,1.419043,0.01252928,-0.01800505,0.01248573,0.00644673,-0.9006869,-0.1604127,0.05474607,0.8692814,1.511325,0.2042468,0.4530505,0.9865391,0.184799,41.18547,124.8457,200.5951,True
0,1.744448,0.03788039,0.1797945,0.03166921,-1.549455,-2.103521,2.602758,0.7132115,1.252257,0.02896601,-0.3499665,-0.9440712,60,0,0.01181124,-0.07857154,-0.008765784,-0.9959626,-1.660489,-0.2678567,0.7897079,1.419187,0.01247787,-0.01484405,0.0007132981,0.008447341,-0.9004877,-0.1614649,0.05541532,0.8691568,1.511356,0.2041531,0.4524361,0.9866343,0.1852842,41.09713,125.835,201.2757,True
0,1.755559,0.02271752,0.06789203,-0.003235947,-1.550023,-2.099954,2.602935,0.7132154,1.252236,0.02872822,-0.359213,-0.8283799,60,0,0.01833057,-0.08177277,0.01463584,-0.9947072,-1.661125,-0.2680317,0.7899737,1.419186,0.01230022,-0.007348104,-0.01223131,0.02106684,-0.8996201,-0.1625267,0.05576979,0.8690559,1.511351,0.2040437,0.4522758,0.9866493,0.1854636,40.62083,126.0374,201.4528,True
0,1.76667,0.0151166,-0.04612112,-0.02863551,-1.551271,-2.095381,2.602918,0.7133648,1.252111,0.02855393,-0.3678305,-0.7749014,60,0,0.01214292,-0.06254467,0.03169651,-0.9937474,-1.660836,-0.2681034,0.7899776,1.419177,0.01218718,-0.0009328742,-0.01444726,0.02526172,-0.8991998,-0.1631989,0.05592186,0.869113,1.511389,0.2039164,0.4520418,0.9867734,0.1855103,40.2313,125.9419,201.2842,True
0,1.777781,0.004505213,-0.1302987,-0.03378011,-1.553029,-2.091586,2.603163,0.7135553,1.252089,0.02837315,-0.3765784,-0.7876425,60,0,0.01017273,-0.03802399,0.0370048,-0.9934241,-1.66004,-0.2685345,0.7898991,1.41909,0.01206788,0.0001668055,-0.008066081,0.02531478,-0.8989133,-0.1630808,0.05573517,0.869296,1.511581,0.2038073,0.4516273,0.9869833,0.1855609,40.07646,125.3361,200.6218,True
0,1.788892,-0.0007268861,-0.1707828,-0.02943018,-1.554627,-2.088571,2.603309,0.7136536,1.252025,0.02822807,-0.3851821,-0.7735408,60,0,0.008233977,-0.00179312,0.03697577,-0.9933943,-1.6583,-0.2694938,0.789969,1.419028,0.01192534,-0.004212326,-0.002538765,0.005165446,-0.8994635,-0.16295,0.05584622,0.8693298,1.511503,0.2037735,0.4509819,0.9871252,0.185341,40.01077,125.0739,200.1623,True
0,1.800003,0.0004561543,-0.1910246,-0.0209051,-1.556139,-2.08624,2.603149,0.7137053,1.251965,0.02805689,-0.3940887,-0.8019453,60,0,0.009380536,0.02695168,0.0252221,-0.993872,-1.656845,-0.27044,0.7902496,1.419067,0.0117082,-0.007485755,0.002930488,-0.00861317,-0.9001138,-0.1626181,0.05589842,0.8694134,1.511578,0.203548,0.4501642,0.9871653,0.1848778,39.92976,125.3192,200.1669,True
0,1.811115,0.003836282,-0.196339,-0.004962191,-1.557814,-2.084404,2.602888,0.7138534,1.251877,0.02791217,-0.4031307,-0.8130633,60,0,-0.0001809206,0.03552112,0.02207395,-0.9939343,-1.655953,-0.2705556,0.7903554,1.418957,0.01152056,-0.01285006,0.00514503,-0.01494542,-0.9004883,-0.1623934,0.05613624,0.8695582,1.511523,0.2034391,0.4496284,0.9872296,0.1845178,39.69008,125.1404,199.8539,True
0,1.822226,0.00601089,-0.1867401,0.0003317744,-1.558765,-2.083104,2.602764,0.7140443,1.251799,0.02770948,-0.4122206,-0.8179547,60,0,-0.004478848,0.04937237,0.003968402,-0.9948584,-1.655071,-0.2708123,0.7906871,1.418892,0.01130828,-0.02663411,0.01370032,-0.01157492,-0.900517,-0.1617796,0.05653145,0.8694844,1.51144,0.2032362,0.4492578,0.9873661,0.1844632,39.50482,124.6298,199.2945,True
0,1.833337,0.00906416,-0.1526541,-0.009318102,-1.558507,-2.082515,2.602535,0.7142065,1.251749,0.0275462,-0.4214388,-0.830669,60,0,-0.004547,0.05787311,-0.01415167,-0.9958731,-1.654281,-0.2711412,0.7906191,1.418775,0.01120642,-0.03726252,0.01156949,-0.0072479,-0.9002874,-0.1618856,0.05736475,0.8694478,1.511418,0.2031206,0.449224,0.9875795,0.1846784,39.23616,123.3646,198.0781,True
0,1.844448,-0.0007660873,-0.1132577,-0.02735046,-1.557511,-2.082277,2.602931,0.7143347,1.251659,0.02732685,-0.4310358,-0.8646088,60,0,-0.01830361,0.07286286,-0.0119552,-0.996313,-1.65268,-0.2712682,0.7907374,1.418659,0.01100972,-0.03733693,0.006319094,-0.01475808,-0.9007972,-0.16193,0.05774878,0.8695803,1.511497,0.2029839,0.4488033,0.9876776,0.1848984,39.19757,123.4301,198.0665,True
0,1.855559,-0.01049203,-0.09091,-0.03791966,-1.556862,-2.08163,2.603369,0.7144055,1.25162,0.02711073,-0.4408171,-0.8803923,60,0,-0.03208053,0.08039927,-0.006554278,-0.9964846,-1.651281,-0.2711274,0.7908189,1.418563,0.0108594,-0.03739266,0.004247025,-0.02116466,-0.9012084,-0.1619696,0.05817888,0.8695093,1.511497,0.2028461,0.4485182,0.9877304,0.185022,38.91464,123.3266,197.9492,True
0,1.86667,-0.02747031,-0.05789936,-0.02817462,-1.556575,-2.08212,2.604318,0.7146049,1.251504,0.02690294,-0.4510953,-0.926388,60,0,-0.04047986,0.09323666,0.003069531,-0.9964612,-1.649398,-0.2713197,0.7907286,1.418555,0.01072121,-0.0330296,0.009451512,-0.00943177,-0.9008814,-0.1614351,0.05810458,0.8694693,1.511443,0.2026265,0.4481975,0.9878273,0.1850785,38.67218,123.0955,197.6679,True
0,1.877781,-0.03913874,-0.05258201,-0.02272298,-1.556827,-2.081695,2.605187,0.7146831,1.251465,0.02658892,-0.4614182,-0.9277657,60,0,-0.04057898,0.0804514,-0.001169499,-0.9966491,-1.648911,-0.2710877,0.7907498,1.418541,0.01067582,-0.02762061,0.009308122,0.00331257,-0.9003152,-0.1613267,0.05827662,0.8694508,1.511443,0.2025394,0.4477393,0.9879365,0.1850648,38.62463,122.7902,197.2923,True
0,1.888893,-0.06347813,-0.05153327,-0.007544059,-1.557545,-2.081496,2.606819,0.7148361,1.251321,0.02635995,-0.4720235,-0.9542379,60,0,-0.03959346,0.06659589,-0.00222514,-0.9967695,-1.648656,-0.270815,0.7906628,1.418527,0.01056802,-0.02445125,0.003973056,0.003241743,-0.9002832,-0.1614227,0.05854107,0.8694437,1.511418,0.2024407,0.4472136,0.9879713,0.1849457,38.59364,122.8715,197.2541,True
0,1.900004,-0.09524135,-0.05688095,0.009851888,-1.558579,-2.081139,2.608989,0.7150576,1.251209,0.0260019,-0.4824817,-0.9393249,60,0,-0.04081605,0.0378413,-0.002181684,-0.9965767,-1.649324,-0.269865,0.7905841,1.418521,0.01050335,-0.02023858,-0.005622841,0.003126774,-0.900207,-0.1617563,0.05891285,0.8693835,1.511466,0.20224,0.4468758,0.9879969,0.1848696,38.46106,122.8938,197.2139,True
0,1.911115,-0.1281605,-0.07289398,0.01767727,-1.559658,-2.080128,2.611593,0.7152855,1.25105,0.02576703,-0.4931897,-0.9635909,60,0,-0.03454509,0.0005369633,0.01060642,-0.9956483,-1.650711,-0.2689577,0.7903066,1.418557,0.01037511,-0.01498389,-0.01626749,-0.0002073424,-0.9003934,-0.1624639,0.05933896,0.8692633,1.511478,0.2020572,0.4467166,0.9880705,0.184882,38.29216,122.5543,196.8623,True
0,1.922226,-0.146122,-0.08995043,0.02960983,-1.561124,-2.079123,2.61382,0.715457,1.250787,0.02547845,-0.5039814,-0.9684935,60,0,-0.03045401,-0.04634574,0.02341017,-0.9944776,-1.653015,-0.2675116,0.7902336,1.418625,0.01020291,-0.008563016,-0.02597956,0.0103118,-0.8998848,-0.1632552,0.0597371,0.8692179,1.51155,0.2018793,0.4467556,0.9881434,0.1848961,38.15064,122.2091,196.5309,True
0,1.933337,-0.1438854,-0.101662,0.03811759,-1.562548,-2.07811,2.615285,0.7155485,1.250666,0.02525645,-0.514707,-0.9621445,60,0,-0.02847892,-0.07086333,0.01916471,-0.99397,-1.654969,-0.2661971,0.7899678,1.418628,0.01011309,-0.004260388,-0.02820485,0.018784,-0.8993586,-0.1636925,0.06005535,0.8691665,1.511522,0.2017066,0.4468687,0.9882744,0.1850182,38.28807,121.3445,195.7431,True
0,1.944448,-0.1332809,-0.1027188,0.03374198,-1.563334,-2.077196,2.616357,0.7156515,1.250456,0.02517557,-0.5248222,-0.9061379,60,0,-0.01374924,-0.09545159,0.009516012,-0.9937963,-1.657167,-0.2654607,0.7901397,1.418712,0.009948969,3.85195E-06,-0.0164373,0.011402,-0.8995519,-0.1633904,0.05965081,0.8690099,1.5114,0.201607,0.4469587,0.9882514,0.1849676,38.35738,121.4153,195.7838,True
0,1.955559,-0.1279925,-0.08886042,0.03154475,-1.563749,-2.07706,2.617579,0.7157657,1.250324,0.02500451,-0.53409,-0.8314623,60,0,-0.001050208,-0.1029863,0.0009227414,-0.9937708,-1.6588,-0.2651334,0.7905135,1.418782,0.009744942,-0.007445053,-0.00569805,0.006233161,-0.8995865,-0.1628717,0.05971313,0.8688668,1.511454,0.2014158,0.4469255,0.9882597,0.1849153,38.35772,121.3337,195.6945,True
0,1.966671,-0.1215801,-0.07713211,0.03466162,-1.564365,-2.076951,2.61868,0.7158198,1.250185,0.02485064,-0.5431128,-0.8112714,60,0,-4.443154E-05,-0.09129677,-0.01933755,-0.9945548,-1.659789,-0.2646279,0.7903852,1.418664,0.009607852,-0.01168738,-0.00998988,0.01155009,-0.8992755,-0.1632482,0.06023112,0.8687502,1.511457,0.2012407,0.4467602,0.9882805,0.1849009,38.25353,121.1814,195.5371,True
0,1.977782,-0.1120008,-0.06220428,0.03561272,-1.564854,-2.077,2.619642,0.7159135,1.249998,0.02466398,-0.5524712,-0.8422248,60,0,-0.009590119,-0.05931398,-0.04168544,-0.9958076,-1.659583,-0.2643448,0.7902994,1.418513,0.009332329,-0.009497296,-0.01436707,0.02320916,-0.8986112,-0.1636984,0.06056428,0.8687991,1.511396,0.2009404,0.4464178,0.9882351,0.1848056,38.0098,121.8838,196.1831,True
0,1.988893,-0.1034863,-0.04621396,0.03657262,-1.565203,-2.07728,2.620479,0.7159805,1.249866,0.02450207,-0.5618604,-0.8438879,60,0,-0.02338875,-0.03901093,-0.05121338,-0.9967892,-1.659509,-0.2636151,0.7902145,1.418396,0.009125471,-0.006235296,-0.01875313,0.03486241,-0.8978411,-0.1642622,0.06081621,0.8687509,1.51134,0.2007512,0.4461963,0.9883253,0.1848294,37.73169,121.5752,195.8746,True
0,2.000004,-0.08425999,-0.02168665,0.04379852,-1.565509,-2.078148,2.620724,0.716006,1.249667,0.02439165,-0.5713279,-0.8512175,60,0,-0.04466097,-0.01335283,-0.0681566,-0.9981804,-1.659097,-0.2625331,0.7902343,1.418339,0.00890553,-0.002937097,-0.01247766,0.04553457,-0.8972248,-0.164235,0.06077493,0.8687854,1.511353,0.2005403,0.4459829,0.9883876,0.184872,37.56372,121.4505,195.7498,True
0,2.011115,-0.07670581,0.00176926,0.05541914,-1.56602,-2.079449,2.621356,0.7160277,1.249565,0.02424511,-0.5809414,-0.8646026,60,0,-0.05206385,0.01010972,-0.0798571,-0.9997336,-1.658375,-0.2620609,0.7901659,1.41825,0.008700192,-0.007119875,-0.003986224,0.05096596,-0.8965383,-0.1639242,0.06077813,0.8686377,1.511367,0.2003442,0.4458176,0.9884374,0.1849374,37.47326,121.4235,195.7395,True
0,2.022226,-0.07344172,0.01349725,0.06283421,-1.566626,-2.080422,2.622079,0.716059,1.249441,0.02410406,-0.5904196,-0.8522392,60,0,-0.04354422,0.004741179,-0.07457438,-1.000237,-1.658871,-0.2616039,0.7902083,1.418278,0.008527905,-0.01352531,0.001418026,0.04573505,-0.8962272,-0.1636538,0.0609997,0.8685216,1.511386,0.2001258,0.4451967,0.9885726,0.1852153,37.95985,120.4986,195.1488,True
0,2.033337,-0.08090868,0.04118829,0.06502559,-1.566571,-2.082155,2.623296,0.7160907,1.249369,0.02396375,-0.6003506,-0.8953534,60,0,-0.04029331,0.004741977,-0.06393691,-1.000528,-1.658826,-0.2611631,0.7902372,1.418208,0.008486718,-0.01896426,-0.008052871,0.0360992,-0.8961787,-0.1641972,0.06179519,0.8683616,1.511429,0.1999625,0.4445103,0.9885491,0.1856115,38.20871,120.083,194.8644,True
0,2.044448,-0.09498624,0.05927329,0.04598964,-1.565703,-2.083259,2.624909,0.7161164,1.249244,0.02380678,-0.6105302,-0.9154162,60,0,-0.04345344,-0.0005554017,-0.05325878,-1.000691,-1.659136,-0.2604044,0.7901216,1.418115,0.00835374,-0.01788653,-0.01128611,0.04031971,-0.895636,-0.1644477,0.0621707,0.868225,1.511399,0.1997927,0.4426113,0.9887457,0.18672,40.26173,119.0825,194.1879,True
0,2.055559,-0.09498624,0.05927329,0.04598964,-1.565703,-2.083259,2.624909,0.7161164,1.249244,0.02380678,-0.6211269,-0.9534082,60,0,-0.04345344,-0.0005554017,-0.05325878,-1.000691,-1.659136,-0.2604044,0.7901216,1.418115,0.00835374,-0.01788653,-0.01128611,0.04031971,-0.895636,-0.1644477,0.0621707,0.868225,1.511399,0.1997927,0.4383169,0.9894475,0.192212,45.68132,111.4976,185.084,True
0,2.06667,-0.1057651,0.07203154,0.03543839,-1.565063,-2.084244,2.626438,0.7162061,1.24913,0.02368048,-0.6309114,-0.8775018,60,0,-0.05306178,-0.02072711,-0.03933128,-1.00045,-1.660209,-0.2589096,0.7904198,1.418164,0.008072346,-0.01994039,-0.01352921,0.05203152,-0.8946666,-0.1650559,0.06278536,0.8680446,1.511583,0.199571,0.4370408,0.9913666,0.2023545,48.00378,108.0693,177.6115,True
0,2.077781,-0.1239736,0.09757241,0.0292238,-1.564086,-2.086112,2.628561,0.7163367,1.248878,0.02341926,-0.641775,-0.9813642,60,0,-0.07018974,-0.04725774,-0.02961059,-1.000011,-1.661934,-0.256575,0.7902825,1.418046,0.007893056,-0.01766938,-0.02015051,0.07539107,-0.8930581,-0.1657768,0.06331585,0.8679174,1.511577,0.1994002,0.438127,0.9946911,0.2133521,49.51443,109.7949,174.9126,True
0,2.088892,-0.1344889,0.09117761,0.04106014,-1.564499,-2.087167,2.630342,0.7164698,1.248652,0.02300498,-0.6524681,-0.9582054,60,0,-0.07567438,-0.06428809,-0.04128373,-1.000695,-1.663732,-0.2546326,0.7903445,1.417967,0.0076271,-0.0133196,-0.01813755,0.08602887,-0.8918197,-0.1660306,0.06340934,0.8678091,1.511647,0.1991763,0.4406343,0.9990667,0.2233085,50.87404,111.9816,172.9302,True
0,2.100003,-0.1279167,0.05710489,0.05379951,-1.565687,-2.087175,2.63148,0.7166009,1.248504,0.02270967,-0.6633008,-0.9735392,60,0,-0.07055164,-0.07499704,-0.06580458,-1.00193,-1.665588,-0.2530272,0.7902496,1.417897,0.007437646,-0.01656252,-0.01485465,0.07545854,-0.8910176,-0.1666779,0.06392412,0.8675773,1.511586,0.1990656,0.4433801,1.003747,0.2310558,52.28302,113.589,171.2599,True
0,2.111114,-0.1204522,0.01876423,0.05055217,-1.566567,-2.086489,2.632554,0.7168202,1.248292,0.02243167,-0.6735119,-0.9154832,60,0,-0.06739561,-0.07076869,-0.07648623,-1.003042,-1.666675,-0.2518749,0.7905178,1.417981,0.007298857,-0.0220082,-0.01253167,0.05740769,-0.8910271,-0.1667542,0.06440109,0.8674845,1.511589,0.1988272,0.4454315,1.007999,0.2360087,53.63392,114.642,170.1927,True
0,2.122225,-0.1237865,0.0006365813,0.03568527,-1.566719,-2.085852,2.634012,0.7170951,1.248104,0.02216372,-0.6830555,-0.8565491,60,0,-0.06082812,-0.05693454,-0.0594964,-1.003095,-1.666823,-0.2513928,0.7905467,1.417918,0.007113785,-0.02001252,-0.02736655,0.04554818,-0.8907837,-0.1682335,0.06524691,0.8675897,1.51162,0.1986317,0.4462541,1.011373,0.2380701,54.66331,114.9327,169.6198,True
0,2.133336,-0.1357264,-0.01750182,0.01344994,-1.566401,-2.084878,2.635947,0.717314,1.247951,0.02199411,-0.6925843,-0.8573576,60,0,-0.06494676,-0.04199079,-0.04883843,-1.003269,-1.666895,-0.2504799,0.7903118,1.417708,0.006985009,-0.0179356,-0.04444956,0.04857039,-0.8902202,-0.1696723,0.06627116,0.8674887,1.511672,0.1983387,0.4457481,1.013752,0.2375472,55.26842,114.5662,169.542,True
0,2.144447,-0.1420592,-0.02603146,0.01778799,-1.567027,-2.084498,2.637725,0.7175641,1.247667,0.02170467,-0.7025222,-0.8940447,60,0,-0.07544109,-0.03339333,-0.03067773,-1.003046,-1.666973,-0.2492586,0.790427,1.417581,0.006773382,-0.01149938,-0.04776514,0.05807453,-0.8893978,-0.1705747,0.06690074,0.8675448,1.511711,0.1981559,0.4442511,1.015282,0.2349728,55.56215,113.8561,169.9671,True
0,2.155558,-0.1332751,-0.0281325,0.04113247,-1.568321,-2.084837,2.638823,0.7178483,1.247432,0.0214946,-0.712721,-0.9164295,60,0,-0.08500434,-0.04930088,-0.01249161,-1.002313,-1.668071,-0.2474082,0.7904365,1.417466,0.006490499,-0.01555473,-0.03087083,0.07637185,-0.8878851,-0.1703599,0.06706319,0.8674179,1.511746,0.1979537,0.4422682,1.016235,0.2310535,55.67689,112.995,170.7448,True
0,2.166669,-0.10314,-0.04512126,0.06745319,-1.570233,-2.084711,2.638992,0.7181196,1.247201,0.021231,-0.7227073,-0.8957563,60,0,-0.09791371,-0.0567055,-0.02624822,-1.002733,-1.669323,-0.2452151,0.7904994,1.417327,0.006314278,-0.01861058,-0.01926367,0.08822486,-0.8864603,-0.1705709,0.06744908,0.8672681,1.511777,0.197733,0.4402268,1.016878,0.226592,55.71407,112.0242,171.6005,True
0,2.17778,-0.07215086,-0.075976,0.07246514,4.711258,-2.083519,2.638772,0.7183516,1.247108,0.02103415,-0.7321935,-0.8514246,60,0,-0.09270313,-0.04717794,-0.05398868,-1.004137,-1.670021,-0.2439895,0.7906032,1.417233,0.006128252,-0.02595392,0.003118992,0.08956224,-0.8852012,-0.1698941,0.06746746,0.867116,1.511848,0.1976363,0.438516,1.017467,0.2224047,55.72667,110.936,172.2961,True
0,2.188891,-0.04781087,-0.09087695,0.05622646,4.710542,-2.08222,2.638633,0.7185915,1.247061,0.02098981,-0.7412302,-0.8126263,60,0,-0.07988352,-0.02488902,-0.06687541,-1.005398,-1.669848,-0.2435533,0.7906213,1.417147,0.005942553,-0.04510468,0.03209769,0.07504461,-0.8849173,-0.1683629,0.06762645,0.8671091,1.511892,0.1975942,0.4373303,1.018229,0.219258,55.71666,109.9021,172.732,True
0,2.200002,-0.03942596,-0.09087712,0.04334929,4.71005,-2.081375,2.638808,0.7188587,1.247001,0.02082336,-0.7502748,-0.8155302,60,0,-0.07654258,-0.003594314,-0.06159326,-1.006063,-1.669236,-0.2431312,0.7907965,1.417099,0.005773723,-0.0547303,0.04610168,0.06246345,-0.8845072,-0.1672972,0.06795055,0.8671448,1.511953,0.1974078,0.4366354,1.019358,0.2176269,55.72929,109.1104,172.787,True
0,2.211113,-0.0374952,-0.08130097,0.0262751,4.71001,-2.080757,2.639247,0.719063,1.247017,0.02071297,-0.7598004,-0.8588591,60,0,-0.08255117,0.03588592,-0.03284673,-1.005925,-1.667174,-0.2431128,0.7913301,1.417104,0.005599946,-0.0612282,0.05483998,0.04234906,-0.8847111,-0.1660343,0.06806241,0.867097,1.511997,0.1972447,0.4362807,1.02102,0.2175597,55.86249,108.6996,172.4986,True
0,2.222224,-0.03652059,-0.07065541,0.01879517,4.709859,-2.080333,2.639605,0.7193184,1.246977,0.02055573,-0.7699108,-0.9107915,60,0,-0.08651843,0.06469799,-0.009418867,-1.005654,-1.664972,-0.2431898,0.791543,1.417064,0.005427599,-0.0612791,0.03134456,0.04959025,-0.8838509,-0.1665878,0.0690294,0.8671014,1.511966,0.1969671,0.4361647,1.023309,0.2187525,56.24203,108.688,172.0155,True
0,2.233335,-0.04192942,-0.06214244,0.01245604,4.709736,-2.080002,2.640346,0.7194908,1.246895,0.02033919,-0.7804287,-0.9465703,60,0,-0.1022278,0.08079253,0.02047962,-1.00483,-1.663132,-0.2425274,0.7920816,1.417197,0.005145013,-0.05278576,0.01634411,0.05471697,-0.8830994,-0.1671023,0.06964326,0.8670352,1.511985,0.1967649,0.4362532,1.026207,0.2207159,56.88891,108.9136,171.414,True
0,2.244446,-0.04092991,-0.06853527,0.006056636,4.709379,-2.07908,2.640808,0.719691,1.246839,0.020107,-0.7908369,-0.9361042,60,0,-0.1150074,0.07446693,0.02695028,-1.004572,-1.662613,-0.2410965,0.791929,1.417112,0.004959166,-0.05176574,0.0110442,0.0525187,-0.8827095,-0.1669227,0.07018361,0.8671526,1.511993,0.1966377,0.436438,1.029576,0.2229674,57.73578,109.2313,170.7971,True
0,2.255557,-0.03345003,-0.09942134,0.004935581,4.708305,-2.077198,2.640957,0.7198844,1.246763,0.01986942,-0.8014677,-0.9567709,60,0,-0.1172424,0.06807309,0.0152526,-1.004938,-1.662083,-0.2399857,0.7919903,1.417067,0.004766166,-0.05289919,0.01113644,0.04294165,-0.8825188,-0.1667862,0.07071252,0.867053,1.51199,0.1964632,0.4366254,1.033205,0.2250828,58.7053,109.5108,170.21,True
0,2.266668,-0.03133013,-0.1228574,0.001736963,4.707331,-2.075289,2.641279,0.7199507,1.246652,0.01970071,-0.8118332,-0.931243,60,0,-0.100439,0.05091032,-0.01040636,-1.00616,-1.66248,-0.2393881,0.7920277,1.417067,0.004504174,-0.05822178,0.01009119,0.04404108,-0.8819015,-0.1666056,0.07141,0.8669559,1.512027,0.1963762,0.4367,1.036855,0.2267449,59.6963,109.6881,169.6869,True
0,2.277779,-0.02594061,-0.1580028,0.003837906,4.705813,-2.072771,2.641442,0.7200437,1.246607,0.01955709,-0.8217983,-0.8964834,60,0,-0.06556323,0.01768018,-0.02762315,-1.006825,-1.663851,-0.2391242,0.7918925,1.417112,0.004395962,-0.04961989,0.01745496,0.05043522,-0.8811718,-0.1660611,0.07131173,0.8670253,1.512081,0.1963278,0.4365398,1.040336,0.2277473,60.59539,109.6607,169.1986,True
0,2.28889,-0.02484253,-0.1569258,0.007018633,4.704919,-2.07146,2.64173,0.720062,1.246589,0.01952222,-0.8318661,-0.906583,60,0,-0.04112655,-0.001621259,-0.02136318,-1.006794,-1.664611,-0.2389609,0.7918832,1.41718,0.00433746,-0.05070964,0.01642614,0.04723748,-0.8807558,-0.16584,0.07171254,0.8669901,1.51212,0.1961842,0.4360296,1.043525,0.2280117,61.35815,109.3703,168.7404,True
0,2.300001,-0.02163708,-0.1441378,0.009101603,4.704243,-2.070505,2.641863,0.7201669,1.246576,0.01944065,-0.8418497,-0.8976874,60,0,-0.0262007,-0.01872543,-0.004388322,-1.006124,-1.665359,-0.2387622,0.7918093,1.417234,0.004216254,-0.04225914,0.0186367,0.03547613,-0.8807617,-0.1653325,0.07157299,0.8668886,1.512223,0.1961,0.4351616,1.046373,0.2275863,61.98481,108.8908,168.393,True
0,2.311112,-0.01201056,-0.1036466,0.01642439,4.703918,-2.070827,2.64161,0.7201407,1.24661,0.01939797,-0.8519772,-0.9117801,60,0,-0.009076435,-0.03902552,0.02642788,-1.0045,-1.666242,-0.2387007,0.7915905,1.417274,0.004082948,-0.03818845,0.01029378,0.0140622,-0.8812965,-0.1654812,0.07197006,0.8668764,1.512236,0.1959229,0.4340508,1.048932,0.2266058,62.4777,108.2244,168.1312,True
0,2.322223,0.002913494,-0.07060272,0.02049413,4.703793,-2.071274,2.641013,0.7200859,1.246661,0.01936141,-0.8619225,-0.8945722,60,0,0.0005745701,-0.04758041,0.04342598,-1.003364,-1.666849,-0.2387194,0.7917354,1.417356,0.003927231,-0.03191603,-0.0002975091,0.005398579,-0.8814344,-0.1656938,0.07242839,0.8668789,1.512201,0.195726,0.4328871,1.051286,0.2253296,62.89917,107.5456,168.0412,True
0,2.333334,0.03269086,0.01252784,0.0243645,4.704828,-2.073912,2.639649,0.7199244,1.2468,0.01927429,-0.8716223,-0.8726947,60,0,0.006961261,-0.0497437,0.04445532,-1.002708,-1.667428,-0.2386805,0.7917085,1.41734,0.003758937,-0.02879949,-0.01628035,0.004162587,-0.8814818,-0.1666227,0.07322921,0.8668443,1.512192,0.1954874,0.4318508,1.05354,0.2240401,63.2766,106.8952,168.0108,True
0,2.344445,0.05186564,0.05090702,0.0283822,4.705332,-2.07562,2.638483,0.7198269,1.246843,0.01930842,-0.8812246,-0.8647791,60,0,0.004838917,-0.04334868,0.04126709,-1.002322,-1.667674,-0.2384041,0.7917571,1.417292,0.003598422,-0.02670811,-0.03660204,0.01248403,-0.8810951,-0.1678377,0.07437969,0.8669133,1.512192,0.1952586,0.4312737,1.055127,0.2234736,63.35356,106.903,168.3304,True
0,2.355556,0.07736876,0.1052665,0.02806006,4.706491,-2.078311,2.63675,0.7196207,1.246966,0.01935256,-0.8905701,-0.8417784,60,0,0.00586139,-0.02846374,0.02100275,-1.002787,-1.667629,-0.2385369,0.7917891,1.41719,0.003441185,-0.02138682,-0.04626215,0.01768328,-0.8807905,-0.1689649,0.07515441,0.8669254,1.512175,0.1950392,0.4311774,1.055998,0.223527,62.86061,106.8719,168.3502,True
0,2.366668,0.09653568,0.1521669,0.03206883,4.707662,-2.081281,2.635075,0.7194073,1.247112,0.01928747,-0.9002709,-0.8763361,60,0,0.008978807,-0.008281827,-0.009930945,-1.003946,-1.6674,-0.2388496,0.7919295,1.417173,0.003269911,-0.02253666,-0.04184998,0.002817178,-0.8812837,-0.1691081,0.07547984,0.8669399,1.51221,0.1948714,0.4311685,1.056701,0.2238219,62.3648,106.3512,167.9736,True
0,2.377779,0.1136622,0.1990695,0.04462929,4.708631,-2.084901,2.633297,0.7191715,1.247174,0.01934212,-0.9098669,-0.8642832,60,0,0.02174665,0.01293126,-0.03133873,-1.005173,-1.666732,-0.2398589,0.7919793,1.417058,0.003073096,-0.02566525,-0.01942566,-0.001210946,-0.8813471,-0.1683684,0.07548703,0.8669921,1.512152,0.1946823,0.4311666,1.057405,0.2241296,61.88596,105.8849,167.6862,True
0,2.38889,0.1265551,0.2406415,0.05937217,4.709498,-2.088834,2.63159,0.7189181,1.24721,0.01937753,-0.9197962,-0.8966129,60,0,0.01965391,0.01933481,-0.03027109,-1.005509,-1.666404,-0.2401428,0.792249,1.417055,0.002925098,-0.02775581,-0.01088669,-0.001124907,-0.8814083,-0.1680127,0.07559223,0.8669834,1.512228,0.1945652,0.4311394,1.058134,0.2244053,61.3713,105.6311,167.6113,True
0,2.400001,0.1340467,0.2576981,0.06460532,4.71033,-2.092166,2.629922,0.7187233,1.247248,0.01940799,-0.9298001,-0.902295,60,0,0.01433326,0.02042841,-0.03024028,-1.005893,-1.666192,-0.2402307,0.7922883,1.416933,0.00273785,-0.03620359,-0.02059269,0.01588911,-0.8807793,-0.1688412,0.07687055,0.8669155,1.512151,0.1942694,0.4311115,1.058883,0.2246545,60.82859,105.4889,167.6361,True
0,2.411112,0.1584777,0.2566595,0.05794882,4.71135,-2.09481,2.627398,0.7184992,1.247204,0.01940873,-0.9399946,-0.9195839,60,0,-0.001668169,0.00560452,-0.02053802,-1.005596,-1.66678,-0.2392999,0.7919447,1.416656,0.002598554,-0.03822692,-0.02393705,0.03291844,-0.8799052,-0.1694235,0.07772861,0.8668555,1.512154,0.1940628,0.4311047,1.059627,0.2249692,60.29006,105.2904,167.6501,True
0,2.422223,0.174402,0.235363,0.05033261,4.71203,-2.096501,2.624907,0.7182822,1.247294,0.01941058,-0.9503298,-0.9318399,60,0,-0.01231849,0.002468978,-0.01727421,-1.005638,-1.666893,-0.2387268,0.7919917,1.41652,0.002453476,-0.04139876,-0.02716551,0.03717783,-0.8793673,-0.1700898,0.07858509,0.8668077,1.512269,0.1939513,0.4310939,1.060315,0.2254583,59.72063,105.1221,167.6608,True
0,2.433334,0.2008234,0.1703828,0.02346836,4.712407,-2.095898,2.621788,0.718101,1.247409,0.01964533,-0.9601793,-0.8873072,60,0,-0.01125958,0.01629432,-0.03114601,-1.006611,-1.666389,-0.2389806,0.7921951,1.416513,0.002269566,-0.04464496,-0.02815736,0.03079959,-0.8792698,-0.1705748,0.07950494,0.8667712,1.512264,0.1937577,0.431086,1.061113,0.2258248,59.221,104.748,167.5279,True
0,2.444445,0.2039482,0.1416163,0.01387174,-1.570326,-2.096493,2.619451,0.7179186,1.247585,0.01970845,-0.9701198,-0.8987876,60,0,0.002684951,0.02687995,-0.02379116,-1.00687,-1.66566,-0.2398451,0.7925742,1.416589,0.002089322,-0.04793623,-0.02803473,0.01697718,-0.8795473,-0.1713242,0.08054518,0.8666741,1.512294,0.1934611,0.4309314,1.061821,0.2261129,58.63506,104.5561,167.509,True
0,2.455556,0.1943552,0.1000544,0.008679707,-1.570337,-2.096273,2.61757,0.7177279,1.247684,0.01974323,-0.9798169,-0.8747882,60,0,0.01131707,0.05239645,-0.02813411,-1.007661,-1.664112,-0.2411034,0.7925863,1.416543,0.001950443,-0.04694048,-0.03330633,0.01052892,-0.8796948,-0.1720288,0.08148847,0.8666432,1.512303,0.1932489,0.4306519,1.062573,0.2262939,58.02526,104.5017,167.5462,True
0,2.466667,0.1710744,0.08725834,0.02172784,-1.57058,-2.097174,2.616426,0.7175558,1.247779,0.0198656,-0.9902762,-0.9463331,60,0,0.01993317,0.05875736,-0.0186038,-1.007735,-1.663023,-0.2422097,0.7927563,1.416566,0.001775861,-0.04372653,-0.03334161,0.01156819,-0.8796021,-0.1727694,0.08218275,0.8669429,1.512261,0.1930835,0.4302719,1.063365,0.22647,57.38568,104.6023,167.6383,True
0,2.477778,0.1551625,0.09150402,0.02828769,-1.570433,-2.098458,2.615165,0.7173679,1.247805,0.01993215,-1.001155,-0.9807656,60,0,0.01675659,0.03217323,0.008079147,-1.006678,-1.663313,-0.2421492,0.7926903,1.416466,0.001645774,-0.04685007,-0.02699794,0.0169906,-0.8790477,-0.1731746,0.08298942,0.8669522,1.512221,0.1929322,0.4297376,1.063841,0.2269201,56.53274,104.8515,167.7269,True
0,2.488889,0.1457229,0.09683178,0.04223762,-1.570581,-2.100032,2.613773,0.7172272,1.247746,0.01995236,-1.012279,-1.00275,60,0,0.01342509,0.003435306,0.01132472,-1.006315,-1.664262,-0.241635,0.7922895,1.416227,0.001533031,-0.04681562,-0.02168701,0.0191692,-0.8787734,-0.1731995,0.0835913,0.866874,1.512066,0.1927775,0.4293168,1.064545,0.2271765,55.93446,104.8585,167.7017,True
0,2.5,0.1446737,0.09576546,0.04331672,-1.570514,-2.101166,2.612105,0.7170796,1.247767,0.02003291,-1.022984,-0.9627349,60,0,0.01541789,-0.01043702,0.0006756128,-1.0065,-1.66502,-0.241472,0.7921934,1.416116,0.001407444,-0.04569777,-0.01642065,0.02348487,-0.8782285,-0.173593,0.08434178,0.8668276,1.512064,0.1927345,0.4287514,1.064839,0.2274928,55.24409,104.7715,167.7868,True
0,2.511111,0.1436055,0.08830632,0.04226897,-1.570546,-2.102018,2.610564,0.7169597,1.247744,0.02005753,-1.033307,-0.9297736,60,0,0.02050151,-0.02647159,-0.02490633,-1.007515,-1.666206,-0.2411988,0.791868,1.41592,0.001281887,-0.04447625,0.004800454,0.03219585,-0.8775217,-0.172677,0.08419956,0.8667539,1.51205,0.1926503,0.428591,1.065539,0.2280112,54.83379,104.9631,167.8326,True
0,2.522222,0.1393018,0.07657887,0.03699788,-1.570511,-2.102558,2.609107,0.7168756,1.247749,0.02003551,-1.043147,-0.8866348,60,0,0.02567668,-0.02972219,-0.04730505,-1.00863,-1.66705,-0.2412278,0.7918284,1.415802,0.001184613,-0.05083767,0.004748236,0.03653271,-0.8765981,-0.1735096,0.08551916,0.8666017,1.511966,0.1925376,0.4280745,1.065887,0.2280544,54.17007,104.3019,167.7433,True
0,2.533333,0.134937,0.05845134,0.02533745,-1.570347,-2.102526,2.607703,0.7167633,1.24779,0.01994318,-1.052972,-0.8861239,60,0,0.01723757,-0.01156775,-0.04940574,-1.009364,-1.666681,-0.2413426,0.7917464,1.415677,0.001015991,-0.05833371,0.008045897,0.02915947,-0.8764921,-0.1732489,0.0862755,0.8665031,1.511907,0.1924196,0.4276003,1.066192,0.2287015,53.60969,104.6316,167.8643,True
0,2.544444,0.1347635,0.04671884,0.008304454,-1.569899,-2.102427,2.606227,0.7166815,1.247788,0.0199326,-1.062839,-0.8891636,60,0,0.00145036,0.00664588,-0.03441454,-1.009314,-1.665789,-0.2413908,0.7918668,1.415574,0.000885129,-0.05519556,-0.00152801,0.02586078,-0.8762434,-0.1737991,0.08699189,0.8665971,1.51186,0.1922325,0.4282645,1.067752,0.229046,53.49095,104.6203,167.6336,True
0,2.555555,0.1355182,0.04562943,-0.02046957,-1.568601,-2.102187,2.604649,0.716615,1.247846,0.01988205,-1.072753,-0.8935767,60,0,-0.02273772,0.02705593,-0.0002021957,-1.008474,-1.664322,-0.2411064,0.7919714,1.415524,0.0007663667,-0.05846933,-0.01212688,0.02152445,-0.8761949,-0.1745134,0.08821268,0.8665282,1.511847,0.1920873,0.4273824,1.067646,0.2297088,52.53853,104.7266,167.9133,True
0,2.566666,0.1365288,0.03923716,-0.02580371,-1.568058,-2.102203,2.603148,0.7165155,1.247884,0.01990038,-1.082515,-0.8797799,60,0,-0.02160017,0.03345339,0.006180887,-1.008293,-1.663574,-0.2413567,0.7920651,1.415379,0.0006635785,-0.05640689,-0.01956366,0.01613027,-0.8760234,-0.1755124,0.08937649,0.8665593,1.511862,0.1920817,0.4276908,1.068929,0.2299461,52.36838,105.1175,167.8673,True
0,2.577777,0.1323167,0.02645172,-0.02255079,-1.568048,-2.102045,2.601833,0.7164791,1.247973,0.01992619,-1.092212,-0.8739704,60,0,0.002029933,0.05784259,0.01666333,-1.008088,-1.661718,-0.2431636,0.7921851,1.415367,0.0005931854,-0.06395957,-0.01513901,-0.0008061943,-0.8764218,-0.175973,0.0905283,0.8665622,1.511839,0.1920326,0.426763,1.068954,0.2301342,51.56237,105.0624,168.1577,True
0,2.588888,0.1344665,0.007278685,-0.02255677,-1.568144,-2.101488,2.600338,0.7163792,1.248041,0.01994526,-1.102042,-0.8864202,60,0,0.0223505,0.07052313,0.01972944,-1.008017,-1.660317,-0.2447663,0.7925835,1.415384,0.0005358756,-0.06722325,0.002110921,-0.02086577,-0.8772639,-0.1749837,0.09071552,0.8665655,1.511793,0.1919552,0.4272808,1.070436,0.2304229,51.45356,105.5835,167.9499,True
0,2.599999,0.1365849,-0.003374998,-0.02470142,-1.568058,-2.100992,2.598761,0.716248,1.24812,0.01993319,-1.112103,-0.90707,60,0,0.02559721,0.08009367,0.01969876,-1.008103,-1.658872,-0.2459347,0.7926841,1.415317,0.0004383028,-0.07042955,0.009629771,-0.02715363,-0.8775366,-0.1747191,0.09136666,0.8664821,1.511819,0.1918763,0.4262117,1.070345,0.2303155,50.54045,105.2911,168.4433,True
0,2.61111,0.1397251,-0.004444752,-0.03005496,-1.567777,-2.100672,2.597071,0.7161365,1.248101,0.01987657,-1.121972,-0.8891028,60,0,0.02564125,0.08967872,0.01755909,-1.008273,-1.657359,-0.2470367,0.7932737,1.415345,0.0002608597,-0.07365488,0.00646776,-0.02929042,-0.8779275,-0.1747244,0.09231182,0.866444,1.511778,0.1917686,0.426101,1.071069,0.2309171,49.95111,105.759,168.0957,True
0,2.622221,0.1301226,-0.0001941323,-0.03101952,-1.567361,-2.100632,2.595929,0.716042,1.248039,0.01990744,-1.131803,-0.8863429,60,0,0.02132815,0.08756094,0.01013052,-1.008567,-1.656448,-0.2476354,0.7936795,1.415302,0.0001863241,-0.07253701,0.004247904,-0.02185821,-0.8778887,-0.1750759,0.09317096,0.8664849,1.511789,0.1916735,0.4258215,1.071603,0.2311231,49.39106,105.9728,168.8633,True
0,2.633332,0.1163521,0.002991877,-0.02341458,-1.567283,-2.100755,2.595097,0.7159393,1.248015,0.01988384,-1.14165,-0.8877678,60,0,0.01807297,0.08969489,-0.001570806,-1.009221,-1.65533,-0.2483185,0.7937379,1.415174,6.967783E-05,-0.06610161,-0.003335468,-0.01132128,-0.8776964,-0.1754642,0.09395446,0.8664368,1.511751,0.1915679,0.4254002,1.07212,0.2312362,48.87894,106.5987,169.6844,True
0,2.644443,0.1037806,0.02003919,-0.001983028,-1.567491,-2.101807,2.594402,0.7158587,1.247989,0.019896,-1.151991,-0.9331776,60,0,0.0199838,0.08538585,-0.0345975,-1.010832,-1.654802,-0.2489243,0.7939427,1.41512,-3.567338E-05,-0.06390508,-0.0002257228,-0.004916779,-0.8775563,-0.1756524,0.0946309,0.8665912,1.511772,0.1914622,0.4251235,1.07289,0.2312383,48.40585,106.7636,169.7394,True
0,2.655554,0.1017664,0.04135901,0.0108069,-1.567318,-2.103206,2.593321,0.7158272,1.247909,0.01987147,-1.162426,-0.9397559,60,0,0.01655551,0.07790876,-0.06652763,-1.012768,-1.654644,-0.2490796,0.7939456,1.415024,-0.0001567006,-0.05536117,0.002923012,-0.003883903,-0.8775371,-0.1754791,0.09481999,0.8666263,1.511739,0.1913743,0.4250421,1.073783,0.2312014,47.94408,106.3661,169.093,True
0,2.666665,0.08913038,0.09675464,0.0300737,-1.566585,-2.106174,2.592696,0.715832,1.247931,0.01997045,-1.172792,-0.9330184,60,0,0.02385562,0.06613316,-0.08253095,-1.014075,-1.654621,-0.2496327,0.7938545,1.414838,-0.0002130568,-0.04895312,0.01356949,-0.007022547,-0.8776261,-0.1749297,0.09491053,0.8667407,1.511644,0.1914321,0.4243291,1.073783,0.2323405,47.17751,105.7134,167.5421,True
0,2.677776,0.07106236,0.1297633,0.03770364,-1.565876,-2.108642,2.592557,0.71578,1.247983,0.02000418,-1.182763,-0.8971844,60,0,0.03339461,0.06181606,-0.0868448,-1.015281,-1.654344,-0.2504735,0.7938659,1.414784,-0.0002796352,-0.04581895,0.01363453,-0.01556758,-0.8780836,-0.1746682,0.09514196,0.8667778,1.511613,0.1913951,0.4244097,1.074396,0.2329298,46.54429,104.756,166.6236,True
0,2.688887,0.03381076,0.173406,0.04553488,-1.564762,-2.111984,2.593468,0.7158129,1.248026,0.0201422,-1.192873,-0.9119881,60,0,0.03336424,0.05223048,-0.0836295,-1.015935,-1.654243,-0.2509374,0.7941928,1.414835,-0.000225842,-0.03724956,0.01995561,-0.0123802,-0.8781321,-0.1741699,0.09500507,0.8670269,1.51157,0.1913626,0.4242776,1.074713,0.2332164,46.02291,104.5282,167.1689,True
0,2.699998,0.005179524,0.1957547,0.05968384,-1.564299,-2.115024,2.594269,0.7158906,1.248055,0.02017269,-1.20321,-0.930436,60,0,0.0280505,0.04907203,-0.07720307,-1.016714,-1.653868,-0.251118,0.7944021,1.414978,-0.0002121329,-0.0297149,0.03053628,-0.008075548,-0.8779835,-0.1732406,0.09447617,0.8671159,1.511549,0.1913876,0.4241897,1.075166,0.2335011,45.57582,104.4622,167.4551,True
0,2.711109,-0.02675479,0.2031789,0.06322321,-1.563687,-2.117589,2.595673,0.7160232,1.247979,0.02015528,-1.214067,-0.9770139,60,0,0.01429967,0.03320419,-0.04726868,-1.016164,-1.653843,-0.2508445,0.7945428,1.415016,-0.0002036989,-0.02435455,0.03259813,-0.003835912,-0.8778903,-0.1728059,0.09438109,0.8672506,1.511564,0.1913007,0.4240575,1.075588,0.233798,45.10662,104.2985,167.5995,True
0,2.72222,-0.05549039,0.1807763,0.06355433,-1.563615,-2.11903,2.597139,0.7161486,1.247922,0.02014089,-1.224526,-0.9381321,60,0,0.00163775,0.01308057,-0.009879,-1.014972,-1.65397,-0.2504546,0.7945473,1.415052,-0.0002352297,-0.0180566,0.02303979,-0.01035605,-0.8781768,-0.1729468,0.09456965,0.8674375,1.511598,0.191286,0.4240392,1.076028,0.2340659,44.70838,104.0276,167.5856,True
0,2.733331,-0.06393463,0.1434837,0.06687177,-1.56416,-2.119798,2.598144,0.716305,1.247848,0.02011207,-1.234948,-0.9373939,60,0,-0.007906649,-0.01027228,0.01790423,-1.013635,-1.654667,-0.2496716,0.7945268,1.415084,-0.0002700388,-0.007450115,0.003769851,-0.005284272,-0.878139,-0.1737261,0.09479894,0.8674941,1.511582,0.1912211,0.4241585,1.076345,0.2343978,44.3007,103.4852,167.2334,True
0,2.744442,-0.0553887,0.06892154,0.06151103,-1.565477,-2.118598,2.59843,0.7164938,1.247848,0.02013707,-1.245073,-0.9083673,60,0,-0.01756261,-0.04854644,0.03931125,-1.012159,-1.656454,-0.2483153,0.7947588,1.415188,-0.0002821684,0.004359438,-0.001746337,0.01055338,-0.8775814,-0.1738727,0.09446526,0.8677338,1.511557,0.1911716,0.4237008,1.076023,0.2350345,43.67997,102.9553,166.7739,True
0,2.755553,-0.02876206,-0.01947609,0.05170334,-1.567302,-2.116091,2.59785,0.7166653,1.247813,0.02012298,-1.254624,-0.8571154,60,0,-0.003842194,-0.0763138,0.04245656,-1.011127,-1.658341,-0.2477129,0.7947509,1.415206,-0.0002705753,0.01614662,-0.001885979,0.02005518,-0.8769923,-0.173985,0.09393502,0.8679326,1.511554,0.1911084,0.4245714,1.077333,0.2349954,43.81141,102.9551,166.8112,True
0,2.766664,-0.0001398027,-0.0918978,0.03120907,-1.568752,-2.113145,2.596977,0.7168174,1.247791,0.02009314,-1.263667,-0.812659,60,0,0.03227021,-0.07652596,0.02520093,-1.011197,-1.659292,-0.2487597,0.795079,1.415258,-0.0002420843,0.01081669,0.000306474,0.01798465,-0.8768495,-0.173484,0.09369933,0.8681077,1.511618,0.1911019,0.4236216,1.076578,0.2362968,43.09789,102.9863,166.3451,True
0,2.777775,0.02417521,-0.1440861,0.008617122,-1.56987,-2.110347,2.596051,0.716938,1.247809,0.02002886,-1.272217,-0.7697219,60,0,0.06838153,-0.06397001,-0.004861024,-1.012109,-1.659888,-0.2504064,0.7953739,1.415204,-0.0002470911,0.009653712,0.01436416,-0.003183889,-0.8775228,-0.1724011,0.09300238,0.8684852,1.511601,0.1911279,0.4248982,1.078688,0.2352572,43.18564,102.5011,166.7443,True
0,2.788886,0.04115622,-0.160052,0.0009873658,4.712318,-2.108232,2.595026,0.7170937,1.247811,0.02003038,-1.280963,-0.7892031,60,0,0.08219888,-0.04808702,-0.02413894,-1.012994,-1.660159,-0.2516536,0.7955904,1.415138,-0.0002358854,-5.494803E-05,0.01993368,-0.02331194,-0.878498,-0.1714755,0.09268759,0.8687021,1.511475,0.1911459,0.424327,1.079042,0.2360239,42.52966,103.4428,166.5477,True
0,2.799997,0.06654265,-0.1483161,-0.01421774,4.712318,-2.106919,2.593548,0.7171278,1.247842,0.0200935,-1.290182,-0.8316075,60,0,0.07380632,0.005195469,-0.04971404,-1.014738,-1.658367,-0.2530613,0.7960272,1.41511,-0.0002516508,-0.005364427,0.01994148,-0.02114905,-0.8786663,-0.171114,0.09267854,0.8689376,1.511239,0.1911371,0.4239749,1.079725,0.2359719,42.01256,103.6777,166.6852,True
0,2.811108,0.07802521,-0.1152928,-0.03247985,-1.570153,-2.106222,2.592278,0.7172456,1.247919,0.02009299,-1.299658,-0.8545411,60,0,0.05159108,0.05748983,-0.06988164,-1.016791,-1.656037,-0.2541292,0.7964725,1.41503,-0.000236094,-0.01256842,0.03679157,0.003562248,-0.8777534,-0.170001,0.09239438,0.8691751,1.511262,0.191209,0.4237251,1.080584,0.2359035,41.53934,103.8012,166.3902,True
0,2.822219,0.07462621,-0.06097318,-0.04526864,-1.568874,-2.106663,2.591619,0.7172945,1.248004,0.02013782,-1.309164,-0.8565725,60,0,0.03168418,0.116188,-0.06770692,-1.018285,-1.65275,-0.2556954,0.7972784,1.415092,-0.0003300905,-0.00812225,0.04618295,0.02279332,-0.8768191,-0.1690623,0.09165855,0.8693712,1.511247,0.1913275,0.4234998,1.08133,0.2358419,41.00987,103.6946,166.1694,True
0,2.83333,0.06069115,0.007191362,-0.04623724,-1.567226,-2.108276,2.591356,0.7174332,1.248114,0.02010787,-1.319175,-0.9039431,60,0,0.01801549,0.1258741,-0.04632929,-1.018611,-1.650689,-0.2565367,0.7976868,1.415122,-0.000350982,-0.003749397,0.05244906,0.03453695,-0.8760346,-0.1681266,0.0909853,0.869737,1.511253,0.1913659,0.4231956,1.081897,0.235992,40.48373,103.8023,166.4155,True
0,2.844441,0.05112866,0.04873328,-0.0397702,-1.566152,-2.109714,2.591059,0.7175925,1.24823,0.02011943,-1.329892,-0.9664884,60,0,0.01164214,0.1110109,-0.0302923,-1.018517,-1.65004,-0.25688,0.7983918,1.415316,-0.0003860891,0.00362359,0.04503181,0.0258883,-0.8761219,-0.1679614,0.09044122,0.8702501,1.511243,0.1913869,0.4224947,1.081905,0.2363575,39.91785,104.5422,167.9035,True
0,2.855552,0.03955394,0.1062625,-0.02051202,-1.564906,-2.112585,2.591,0.717864,1.248396,0.02009225,-1.340798,-0.9817831,60,0,0.02001395,0.06943321,-0.01857593,-1.01814,-1.650748,-0.2569804,0.7987046,1.415455,-0.0003893375,0.01607176,0.02719119,-0.009523694,-0.8775126,-0.1682353,0.08999807,0.8707772,1.511218,0.1913439,0.4228809,1.083016,0.2374631,39.4641,104.6131,166.5425,True
0,2.866663,0.02795374,0.147804,-0.005503416,-1.563764,-2.115247,2.591023,0.7181842,1.248719,0.01995713,-1.351502,-0.9626433,60,0,0.06239024,-0.007455491,0.01002086,-1.016624,-1.653269,-0.2577527,0.7989936,1.415617,-0.0004014671,0.01803994,0.02526629,-0.03193714,-0.8787446,-0.1676417,0.08923507,0.8714259,1.511232,0.191459,0.4225152,1.083371,0.2375766,38.61606,104.1583,167.4117,True
0,2.877774,0.02045274,0.1701676,-0.007573325,-1.562186,-2.117384,2.590998,0.7185352,1.248879,0.01991504,-1.36219,-0.9622275,60,0,0.0751989,-0.03305729,0.03767152,-1.015176,-1.654028,-0.2584332,0.7992754,1.415749,-0.0003980696,0.02115551,0.0264255,-0.04366812,-0.8796176,-0.1671006,0.08855011,0.8719442,1.511198,0.1914289,0.4222836,1.083384,0.2376942,38.19088,104.5176,168.0942,True
0,2.888885,0.01481323,0.1807877,-0.03521544,-1.559935,-2.118625,2.591012,0.7188993,1.249136,0.01979086,-1.372779,-0.9524513,60,0,0.08488603,-0.0554371,0.07385989,-1.012878,-1.655021,-0.2591732,0.7997174,1.415877,-0.0004120469,0.02527662,0.01265757,-0.05342611,-0.8806483,-0.1671405,0.08832879,0.8726205,1.511111,0.1913644,0.4222896,1.084082,0.2376765,37.76087,104.2536,167.6932,True
0,2.899997,0.01257037,0.1786424,-0.04584321,-1.558292,-2.119687,2.590921,0.7191951,1.249248,0.01966593,-1.38304,-0.9232322,60,0,0.08601377,-0.05436535,0.08343732,-1.011674,-1.655171,-0.2599975,0.799978,1.415892,-0.0004210472,0.02626317,0.008468022,-0.06094331,-0.881714,-0.1669276,0.08797114,0.873221,1.511024,0.1912474,0.4221449,1.08454,0.2381388,37.24363,103.8963,167.3184,True
0,2.911108,0.01358344,0.1626654,-0.0522369,-1.556866,-2.120405,2.590772,0.7195714,1.249231,0.01951835,-1.393157,-0.9102457,60,0,0.08719039,-0.03093861,0.08127481,-1.010963,-1.654359,-0.2614199,0.8003867,1.415846,-0.0004689693,0.02297012,0.007534509,-0.07371251,-0.8829498,-0.1667424,0.08771867,0.8738706,1.510947,0.1911524,0.4220092,1.084962,0.2384572,36.66712,103.5078,167.119,True
0,2.922219,0.01054775,0.1360448,-0.04046489,-1.556458,-2.121035,2.590713,0.7201188,1.249246,0.01936966,-1.40311,-0.8952741,60,0,0.08826927,-0.002206806,0.05886302,-1.011352,-1.653329,-0.2628891,0.80076,1.415689,-0.0005591214,0.01762702,0.01186565,-0.0778954,-0.8838605,-0.1660916,0.08736766,0.8745564,1.510898,0.1910684,0.4217595,1.085182,0.2387342,36.20788,103.6465,167.6503,True
0,2.93333,0.006380752,0.114739,-0.03401082,-1.556033,-2.121418,2.590793,0.7205791,1.249239,0.01919311,-1.412862,-0.877904,60,0,0.08290445,0.02441891,0.02903561,-1.012347,-1.652189,-0.264229,0.8013334,1.41562,-0.0006506145,0.0112005,0.01622332,-0.08526636,-0.8850179,-0.1655193,0.08710587,0.8751758,1.510779,0.1909556,0.4217719,1.085877,0.2386452,35.89057,103.6849,167.5318,True
0,2.944441,-0.007437013,0.0742396,-0.03488853,-1.556021,-2.120791,2.591396,0.7210636,1.249132,0.01900035,-1.422649,-0.8809236,60,0,0.07542092,0.05744175,-0.003980413,-1.013868,-1.650643,-0.2655704,0.8017495,1.415428,-0.000783205,0.002633408,0.005614545,-0.08530781,-0.8860459,-0.1657065,0.08747099,0.8759159,1.510644,0.1908529,0.4217873,1.086586,0.2387118,35.5564,103.4326,166.7141,True
0,2.955552,-0.01807727,0.03480542,-0.03794027,-1.556048,-2.119692,2.591885,0.7215745,1.249076,0.01872891,-1.432554,-0.8915196,60,0,0.06048549,0.07880084,-0.02628667,-1.015337,-1.649136,-0.2665313,0.8023677,1.415312,-0.0009596646,0.00910528,0.009778698,-0.07680316,-0.8866878,-0.1651374,0.08675727,0.8766576,1.510514,0.1907792,0.4220591,1.087376,0.2390433,35.04381,103.0268,165.9521,True
0,2.966663,-0.02860389,-0.01208026,-0.03139672,-1.556803,-2.118199,2.592457,0.7222955,1.248945,0.01856324,-1.442853,-0.9269528,60,0,0.05085016,0.08735165,-0.04114964,-1.016403,-1.648162,-0.2672511,0.8029132,1.415242,-0.001116782,0.01449912,0.0075268,-0.0662092,-0.8870451,-0.1650895,0.08640014,0.8774015,1.510381,0.1906455,0.4215653,1.087016,0.2396402,34.45124,103.4632,167.556,True
0,2.977774,-0.03697619,-0.04084405,-0.02063023,-1.557637,-2.117094,2.593124,0.722949,1.248862,0.01837513,-1.452889,-0.9016204,60,0,0.06135958,0.08088218,-0.05931588,-1.017841,-1.647771,-0.2684637,0.803443,1.415227,-0.001217693,0.02190346,0.003277138,-0.07056837,-0.8880603,-0.1650445,0.08593195,0.8782426,1.510316,0.1905122,0.4221219,1.087697,0.2391884,34.3527,103.3826,167.5294,True
0,2.988885,-0.0462833,-0.07173401,0.001867693,-1.559269,-2.115932,2.593891,0.7236845,1.248755,0.01829553,-1.462865,-0.8973147,60,0,0.07296602,0.06164739,-0.05936582,-1.018475,-1.647927,-0.2694618,0.8035662,1.415041,-0.001306862,0.02925418,0.005521851,-0.08658145,-0.8895842,-0.1647149,0.08512848,0.8791201,1.510197,0.1903557,0.4226271,1.08892,0.2385711,34.07896,102.7444,165.546,True
0,2.999996,-0.05787389,-0.08984888,0.01159416,-1.560442,-2.114839,2.594854,0.7245133,1.248705,0.01817143,-1.472863,-0.8990172,60,0,0.09091794,0.02853229,-0.05624155,-1.018778,-1.649004,-0.2704818,0.8039706,1.415038,-0.001432896,0.03871927,0.00351298,-0.1026624,-0.8914287,-0.1642205,0.08403924,0.880197,1.510073,0.1902516,0.4223931,1.089736,0.2379601,33.4784,102.5916,165.3405,True
0,3.011107,-0.06740507,-0.1101007,0.01490766,-1.561592,-2.113355,2.595923,0.725327,1.248782,0.01806051,-1.48292,-0.9043382,60,0,0.1016261,0.01252193,-0.03285,-1.018271,-1.649339,-0.2717921,0.8043237,1.415108,-0.0015755,0.04822664,0.004643843,-0.1144398,-0.8931065,-0.1639509,0.08300967,0.8811181,1.509986,0.1900936,0.4222346,1.09008,0.237812,33.07816,102.6714,165.4236,True
0,3.022218,-0.08448361,-0.1303583,0.009782145,-1.562509,-2.111629,2.597349,0.7261078,1.24874,0.01785907,-1.492968,-0.9035488,60,0,0.09537391,0.01896596,-0.0157712,-1.017966,-1.648631,-0.2730081,0.804913,1.41525,-0.001671225,0.0621628,0.01194929,-0.1059461,-0.8938666,-0.1636161,0.08174732,0.8820324,1.509807,0.1899996,0.42283,1.091328,0.2376599,33.1639,102.6314,165.5511,True
0,3.033329,-0.09509386,-0.1367597,0.01309861,-1.563613,-2.110282,2.598734,0.7268639,1.248755,0.01764393,-1.503001,-0.9015754,60,0,0.08897547,0.02857643,-0.02533158,-1.018714,-1.648088,-0.2740574,0.8053796,1.415378,-0.001769245,0.07184868,0.02356609,-0.09951726,-0.8946937,-0.1626741,0.0800264,0.8828791,1.509736,0.1898984,0.4216781,1.090492,0.2388173,32.55329,103.8119,167.448,True
0,3.04444,-0.1194393,-0.1378397,0.0282797,-1.565073,-2.109429,2.600947,0.7274809,1.248827,0.0174129,-1.513214,-0.9181387,60,0,0.07705355,0.03498881,-0.06362075,-1.020964,-1.647987,-0.2744302,0.805887,1.415613,-0.001977831,0.07727254,0.03840402,-0.09515262,-0.8954469,-0.1616275,0.07836937,0.8836638,1.509597,0.1898583,0.4226044,1.091415,0.237834,32.38079,103.3627,167.6821,True
0,3.055551,-0.1353299,-0.13359,0.03697222,-1.566374,-2.108648,2.603008,0.7282591,1.248916,0.01714554,-1.523327,-0.9079998,60,0,0.07464627,-0.0001714081,-0.07847998,-1.021994,-1.649762,-0.2742307,0.8062871,1.415838,-0.002072215,0.0827093,0.04359257,-0.08342531,-0.8959492,-0.160911,0.07682181,0.8845286,1.509542,0.1897384,0.4228414,1.092377,0.2371533,32.1757,103.3408,165.7967,True
0,3.066662,-0.1674113,-0.1059316,0.02877039,-1.566358,-2.108466,2.605974,0.7290602,1.249065,0.01680285,-1.533793,-0.9413272,60,0,0.0882811,-0.05349465,-0.06784368,-1.021585,-1.652532,-0.2743383,0.8068151,1.415973,-0.002098978,0.0859989,0.04024592,-0.06856469,-0.8961633,-0.1604429,0.07545428,0.8854012,1.509425,0.1895951,0.4232708,1.093681,0.2364813,32.01719,103.495,166.6575,True
0,3.077773,-0.1912312,-0.05697308,-0.0008362979,-1.564938,-2.108874,2.608931,0.7299693,1.249217,0.0163863,-1.543935,-0.9087155,60,0,0.1126393,-0.1015387,-0.04876089,-1.020857,-1.655459,-0.2747858,0.8074019,1.41619,-0.002257645,0.08909753,0.02962922,-0.07613545,-0.8972136,-0.1607014,0.07447051,0.886342,1.509268,0.1894558,0.4205222,1.093078,0.2395795,34.24076,98.71203,163.0309,True
0,3.088884,-0.1992324,0.0239489,-0.04236076,-1.561727,-2.110539,2.61145,0.7309053,1.249403,0.01586375,-1.55449,-0.9486462,60,0,0.1255585,-0.1228658,-0.007267317,-1.019071,-1.657362,-0.2755767,0.807838,1.416457,-0.002535254,0.0858174,0.02117992,-0.08258137,-0.8983503,-0.1606343,0.07356609,0.8871716,1.509089,0.1892713,0.4222696,1.099643,0.2383748,34.39101,91.52328,154.2193,True
0,3.099995,-0.1890912,0.113418,-0.07982805,-1.557841,-2.113035,2.613233,0.7317235,1.249558,0.01526901,-1.564662,-0.9108474,60,0,0.1027286,-0.1204958,0.09087701,-1.0146,-1.657355,-0.2759578,0.808671,1.416737,-0.00281924,0.0847476,0.01904488,-0.08154222,-0.8993878,-0.1602693,0.07246941,0.8882335,1.509133,0.1890557,0.4259909,1.104804,0.2381672,31.68643,96.56041,159.7762,True
0,3.111106,-0.2148205,0.164518,-0.08917546,-1.554911,-2.115438,2.616492,0.732511,1.24975,0.01466265,-1.574236,-0.857715,60,0,0.0591107,-0.002980821,0.1740988,-1.011017,-1.651405,-0.2782428,0.8093259,1.417064,-0.003075451,0.09870358,0.01349192,-0.06358305,-0.8994917,-0.1603344,0.07094501,0.8891245,1.50906,0.1888408,0.4321317,1.122661,0.2409327,48.32698,105.7387,162.9816,True
0,3.122217,-0.2456283,0.1740742,-0.08032389,-1.553534,-2.11689,2.620306,0.7332981,1.24989,0.01417366,-1.583252,-0.8088346,60,0,0.02987521,0.09200224,0.1880156,-1.009966,-1.64595,-0.2806546,0.8099182,1.417441,-0.003338724,0.1146789,0.0005597174,-0.05530477,-0.8999615,-0.1608123,0.06952395,0.8900906,1.50899,0.1887805,0.4396811,1.162499,0.2412389,67.97622,102.0445,157.5799,True
0,3.133328,-0.2888392,0.1740574,-0.03723928,-1.55352,-2.119148,2.625103,0.7339706,1.249974,0.01359481,-1.593459,-0.9196321,60,0,0.006213695,0.08463433,0.1572724,-1.009438,-1.644802,-0.2805616,0.8102913,1.417811,-0.003510565,0.1263467,-0.003713787,-0.05969021,-0.9007945,-0.160975,0.06780674,0.8910408,1.50891,0.1886112,0.4556976,1.206102,0.2353567,82.30426,80.25021,134.7685,True
0,3.144439,-0.3129977,0.1676662,-0.006073564,-1.553627,-2.121109,2.629389,0.734745,1.250056,0.01313454,-1.603924,-0.937148,60,0,-0.002734672,0.03564293,0.1296852,-1.008563,-1.646485,-0.2794529,0.8111677,1.418421,-0.003641725,0.1412482,-0.008056968,-0.06089722,-0.9015173,-0.1616709,0.06597342,0.892074,1.508937,0.1884537,0.4748566,1.245283,0.2261645,79.91858,319.5527,13.76345,True
0,3.15555,-0.333871,0.1442316,0.0314595,-1.55471,-2.122587,2.633861,0.7355244,1.250165,0.01264846,-1.61474,-0.9691222,60,0,0.03374066,-0.09134994,0.1072409,-1.006696,-1.652488,-0.2778556,0.8112979,1.418809,-0.003781915,0.1466842,-0.003930926,-0.04919132,-0.9018177,-0.161572,0.06405888,0.8931476,1.508861,0.1882405,0.4937683,1.275632,0.215675,67.34209,305.939,0.1923291,True
0,3.166661,-0.3328081,0.137841,0.03038898,-1.554274,-2.123874,2.637462,0.7363851,1.250304,0.01222429,-1.624837,-0.9014907,60,0,0.08736864,-0.2109649,0.09533985,-1.004197,-1.659345,-0.2771227,0.8117952,1.419276,-0.003978461,0.1456472,-0.005028397,-0.04493218,-0.9021496,-0.1616278,0.06249853,0.8942111,1.508703,0.1878866,0.5089699,1.295552,0.206125,58.00021,303.1645,357.8173,True
0,3.177772,-0.3201571,0.1623481,0.020643,-1.55282,-2.126139,2.6406,0.7373478,1.250518,0.01181361,-1.634825,-0.8953299,60,0,0.111454,-0.2675774,0.0760847,-1.002667,-1.664977,-0.2761999,0.8120666,1.419653,-0.00418219,0.1634256,-0.04218194,-0.06777721,-0.9038731,-0.1635697,0.06131742,0.8952799,1.508571,0.187415,0.5183306,1.305466,0.1991684,52.89082,302.4136,357.6735,True
0,3.188883,-0.2808708,0.1815601,0.01061085,-1.551243,-2.128386,2.642552,0.7383547,1.250833,0.01147655,-1.644005,-0.8206578,60,0,0.1207804,-0.3272776,0.08462436,-0.9999259,-1.670842,-0.2746859,0.8127122,1.420145,-0.00452131,0.1749637,-0.0580759,-0.08292151,-0.9054008,-0.1649851,0.05983377,0.8963782,1.508418,0.187018,0.5215861,1.306913,0.195393,51.79782,302.6317,358.5254,True
0,3.199994,-0.2458261,0.182664,0.0006393492,-1.549994,-2.130079,2.644315,0.739244,1.251083,0.01093465,-1.652913,-0.7990791,0,0,0.1039326,-0.3452465,0.1326857,-0.9956302,-1.674837,-0.273072,0.8134677,1.420495,-0.00485301,0.1726086,-0.07063501,-0.105398,-0.907413,-0.166102,0.05876904,0.897627,1.508175,0.1866356,0.5196626,1.30152,0.1947189,54.16365,303.6123,0.06630443,True
0,3.211105,-0.1958693,0.1667325,-0.01161079,-1.548876,-2.130974,2.644829,0.7401402,1.251233,0.01052347,-1.661337,-0.7551655,0,0,0.09475502,-0.3078699,0.167853,-0.9920754,-1.676313,-0.2729615,0.8142533,1.420694,-0.005108714,0.1682278,-0.07475072,-0.1192535,-0.9092746,-0.1672247,0.05773733,0.8988216,1.508003,0.1861748,0.5144386,1.291507,0.1965212,58.90673,305.6504,2.496143,True
0,3.222216,-0.155442,0.1433334,-0.01948747,-1.548116,-2.131471,2.645389,0.7409413,1.251256,0.01012745,-1.670058,-0.7855305,0,0,0.1048392,-0.2301477,0.1826091,-0.9898794,-1.675742,-0.2747538,0.8153253,1.420934,-0.00552386,0.163927,-0.06823511,-0.1287555,-0.9110717,-0.1674601,0.05617619,0.9001148,1.507807,0.1857446,0.507992,1.279617,0.1998765,64.65076,309.0461,5.985206,True
0,3.233327,-0.1212485,0.1231355,-0.01238858,-1.547827,-2.132128,2.645698,0.7417893,1.251237,0.009663552,-1.678523,-0.7601376,0,0,0.09796107,-0.1129356,0.1750576,-0.9888775,-1.672182,-0.2775861,0.8163884,1.42092,-0.005941093,0.1403823,-0.04550436,-0.1560756,-0.9137141,-0.1668152,0.05517244,0.9012554,1.507462,0.185265,0.5021951,1.268542,0.2036852,70.0253,313.7459,10.467,True
0,3.244438,-0.1030053,0.1082566,-0.001914449,-1.547803,-2.133086,2.646319,0.742666,1.251312,0.009240985,-1.687583,-0.8179494,0,0,0.07255594,-0.0308255,0.130372,-0.989588,-1.669671,-0.2787861,0.8171926,1.420912,-0.006317288,0.1381741,-0.0325319,-0.174064,-0.916325,-0.1663861,0.0534302,0.9024329,1.507138,0.1848837,0.4981453,1.260218,0.2070698,74.13519,319.2165,15.55061,True
0,3.255549,-0.08785266,0.08698276,0.01818417,-1.548544,-2.133779,2.64687,0.7435017,1.251306,0.008767754,-1.69678,-0.828018,0,0,0.0310308,0.08858895,0.0282129,-0.9941969,-1.664717,-0.2803417,0.818207,1.42075,-0.006824404,0.1499966,-0.0166501,-0.1686777,-0.9179485,-0.1658397,0.05109754,0.9034243,1.506819,0.1845659,0.4964087,1.255603,0.2094106,76.59203,323.9121,19.78181,True
0,3.26666,-0.08982763,0.05929282,0.02994201,-1.549232,-2.133941,2.648011,0.7443607,1.251361,0.008277774,-1.706364,-0.8634157,0,0,0.03308731,0.1790181,-0.06458647,-0.9991403,-1.660589,-0.2830586,0.8190682,1.420758,-0.007348686,0.155759,0.02992032,-0.1373993,-0.9183325,-0.1633538,0.0475835,0.9043273,1.506619,0.1844128,0.4972464,1.255048,0.210311,77.31776,325.5609,20.98873,True
0,3.277771,-0.1177616,-0.004679827,0.002591934,-1.549371,-2.1317,2.650328,0.7452426,1.251448,0.007741421,-1.715787,-0.8472881,0,0,0.04699601,0.2268368,-0.09775528,-1.002051,-1.657058,-0.2860746,0.8202868,1.421011,-0.007911205,0.1529415,0.06052247,-0.1030023,-0.918169,-0.1611979,0.04484817,0.9052392,1.506298,0.1840842,0.5004746,1.258177,0.2097122,76.49219,323.486,18.56041,True
0,3.288882,-0.144713,-0.07930912,-0.03434558,-1.549523,-2.128148,2.652678,0.7461166,1.251442,0.007029235,-1.725152,-0.842862,0,0,0.05869885,0.2299639,-0.1031559,-1.004062,-1.654506,-0.288488,0.8209672,1.421112,-0.008321911,0.1702086,0.07730629,-0.08273211,-0.9181908,-0.1593267,0.04122201,0.9060526,1.505942,0.1838768,0.5055354,1.264063,0.207789,74.39202,319.4434,14.25339,True
0,3.299993,-0.1694628,-0.1262326,-0.06280644,-1.549422,-2.125022,2.655061,0.7470598,1.251402,0.006230056,-1.734746,-0.8620372,0,0,0.07472758,0.2085979,-0.07553045,-1.004276,-1.652913,-0.2906228,0.8214374,1.421405,-0.008605123,0.1718554,0.0747018,-0.1477506,-0.9221296,-0.1582293,0.03858494,0.9070985,1.505615,0.1836257,0.5116535,1.271449,0.2048551,71.47533,315.259,9.887472,True
0,3.311104,-0.2164992,-0.2040703,-0.08567303,-1.550148,-2.119948,2.658909,0.7478454,1.251402,0.005441368,-1.74339,-0.7727458,0,0,0.08566552,0.1851841,-0.007388756,-1.00252,-1.65079,-0.2931267,0.8216417,1.421855,-0.008828342,0.1593708,0.04572724,-0.235286,-0.927725,-0.1585183,0.03744165,0.9080167,1.505251,0.1832935,0.5179238,1.27901,0.2012151,68.27985,311.683,6.184494,True
0,3.322215,-0.2653723,-0.2893458,-0.08188943,-1.55207,-2.11455,2.663248,0.7486053,1.251436,0.004778922,-1.750833,-0.6660142,0,0,0.07412508,0.1448372,0.05771177,-0.9998503,-1.649619,-0.2941219,0.8219984,1.422313,-0.008936197,0.1661323,-0.004810303,-0.3007855,-0.9330465,-0.1599661,0.03627012,0.9090229,1.505092,0.1828507,0.5234746,1.285629,0.1971707,65.30618,309.1966,3.685224,True
0,3.333326,-0.296177,-0.3351861,-0.07832329,-1.553796,-2.109559,2.667443,0.7493434,1.251523,0.00404653,-1.758111,-0.6526895,0,0,0.06863948,0.01393993,0.1473835,-0.9938821,-1.653131,-0.2927629,0.8217793,1.423001,-0.009049445,0.1797102,-0.04523295,-0.3140433,-0.9369597,-0.1620459,0.03502589,0.9099324,1.504927,0.1824597,0.527674,1.29052,0.1930805,62.97831,307.7073,2.391453,True
0,3.344437,-0.3398887,-0.3757296,-0.08527792,-1.555208,-2.104188,2.672511,0.7498782,1.251735,0.003493458,-1.764099,-0.5315461,0,0,0.1035632,-0.1533603,0.2560305,-0.985678,-1.65923,-0.2919176,0.8216939,1.423648,-0.009191781,0.1956275,-0.08911076,-0.296454,-0.9395808,-0.1644363,0.03368473,0.9107581,1.504908,0.1821399,0.5300854,1.293283,0.1892233,61.5445,306.9008,1.995158,True
0,3.355548,-0.358134,-0.3778906,-0.09786222,-1.555756,-2.099694,2.677031,0.7505245,1.251902,0.00285092,-1.768178,-0.3595313,0,0,0.1491708,-0.2738959,0.329403,-0.9775106,-1.665585,-0.2917072,0.8214839,1.424203,-0.009297311,0.2094322,-0.1201803,-0.2840546,-0.9423052,-0.1671678,0.0325654,0.911594,1.504805,0.1816428,0.5306213,1.293861,0.185807,61.0839,306.7437,2.462424,True
0,3.366659,-0.3349632,-0.3171579,-0.1162727,-1.554624,-2.097581,2.679799,0.750941,1.252015,0.002310246,-1.771248,-0.2710246,0,0,0.210629,-0.4094406,0.3952404,-0.9686151,-1.673894,-0.2915711,0.8212235,1.424566,-0.009388328,0.2306734,-0.1255281,-0.2896038,-0.9459591,-0.1685907,0.03011902,0.9125186,1.504658,0.1812091,0.5295041,1.292501,0.1829934,61.50771,307.0687,3.535351,True
0,3.37777,-0.297752,-0.260659,-0.1177906,-1.553847,-2.096018,2.681753,0.7513506,1.252158,0.001881003,-1.772503,-0.1040753,0,0,0.2486673,-0.4512087,0.3801455,-0.963145,-1.680279,-0.2921309,0.8210788,1.424851,-0.009482324,0.2401499,-0.1136472,-0.3119367,-0.950283,-0.1694027,0.02759115,0.913479,1.504303,0.1807895,0.5271668,1.28963,0.1808458,62.61125,307.726,4.955365,True
0,3.388881,-0.2178276,-0.1593508,-0.1048919,-1.5524,-2.097182,2.681523,0.7513618,1.252372,0.001578897,-1.771482,0.09900499,0,0,0.2570215,-0.4023275,0.3097255,-0.9618459,-1.682601,-0.2936924,0.8212409,1.424919,-0.009740025,0.2432964,-0.1103766,-0.3204675,-0.9543198,-0.1704819,0.02545769,0.9144044,1.503947,0.1803263,0.5242317,1.285769,0.179347,64.12691,308.7063,6.632739,True
0,3.399992,-0.1058388,-0.05693545,-0.08275146,-1.551047,-2.099463,2.679092,0.7512252,1.252559,0.001368016,-1.769551,0.1752353,0,0,0.2452965,-0.2798846,0.1999267,-0.96361,-1.681858,-0.2964572,0.8214135,1.424899,-0.01006719,0.2379275,-0.1177377,-0.3205353,-0.9582469,-0.1714827,0.02368802,0.9153969,1.503608,0.1798803,0.5211871,1.281626,0.178579,65.75632,309.9538,8.442592,True
0,3.411103,-0.01512916,0.02095115,-0.06035624,-1.54993,-2.101923,2.676387,0.7508759,1.252802,0.00114435,-1.766315,0.2939052,0,0,0.2145356,-0.105168,0.06673902,-0.9684852,-1.677672,-0.3001412,0.821687,1.424773,-0.0104098,0.2358769,-0.1263986,-0.3046201,-0.9611343,-0.1734723,0.02226536,0.9162695,1.503272,0.1794428,0.5184501,1.277869,0.1785456,67.27847,311.359,10.21169,True
0,3.422215,0.03082833,0.04977486,-0.04383152,-1.549419,-2.102949,2.674867,0.7506254,1.253065,0.0007858574,-1.762338,0.3554718,0,0,0.1815951,0.07274401,-0.07708605,-0.9758003,-1.671905,-0.3043346,0.821841,1.424732,-0.010746,0.2294145,-0.1358986,-0.3057569,-0.9648366,-0.1750092,0.02103018,0.9170533,1.502962,0.1788689,0.5162619,1.275121,0.1792901,68.49113,312.7133,11.68992,True
0,3.433326,0.05650423,0.08496936,-0.03028808,-1.548545,-2.104971,2.673332,0.7502253,1.253391,0.0005810857,-1.759483,0.2494376,0,0,0.1678609,0.1675528,-0.1420971,-0.9807485,-1.667551,-0.3081733,0.8219073,1.424788,-0.01103067,0.2206243,-0.1515888,-0.332477,-0.9695461,-0.1775314,0.02030341,0.9176799,1.502621,0.1784234,0.5148373,1.273728,0.1807256,69.30388,313.6131,12.42151,True
0,3.444437,0.04149277,0.09985812,-0.03760031,-1.54721,-2.105857,2.673596,0.7498195,1.253721,0.0003596544,-1.758757,0.05890904,0,0,0.1754356,0.2196811,-0.1688358,-0.9848322,-1.663614,-0.3125297,0.8217337,1.424934,-0.01126534,0.224885,-0.1623066,-0.3262141,-0.9729428,-0.1798921,0.01904453,0.9183079,1.502416,0.1779416,0.5143646,1.273676,0.1825363,69.71668,313.7174,12.03659,True
0,3.455548,-0.0002009273,0.09980311,-0.0509971,-1.54579,-2.106377,2.674995,0.7495041,1.253919,0.0002297461,-1.758807,-0.005319451,0,0,0.2001797,0.2015058,-0.1125017,-0.9842979,-1.661872,-0.3166235,0.8212492,1.425183,-0.0113551,0.2388018,-0.1742315,-0.3104475,-0.9759015,-0.1826392,0.01743998,0.9188129,1.502271,0.1774639,0.5149156,1.274687,0.1842391,69.73042,313.0849,10.70954,True
0,3.466659,-0.03015262,0.1104146,-0.06133135,-1.544201,-2.107316,2.676298,0.7490747,1.254111,7.113814E-05,-1.760494,-0.155803,0,0,0.2535222,0.1043955,-0.01363593,-0.9802212,-1.663444,-0.3204488,0.8205142,1.425515,-0.01139551,0.2517533,-0.1841377,-0.2818716,-0.9781647,-0.1853812,0.01575366,0.9191328,1.502082,0.1770805,0.5162537,1.276502,0.1855626,69.32752,312.0151,8.934162,True
0,3.47777,-0.03545981,0.1125372,-0.05914473,-1.543127,-2.108205,2.676864,0.7486174,1.254251,-8.967519E-05,-1.76287,-0.2121243,0,0,0.2927927,-0.02141701,0.07362916,-0.9753321,-1.667029,-0.3230412,0.8195164,1.425913,-0.01143414,0.2593126,-0.1950105,-0.2617862,-0.9804651,-0.1884092,0.01431822,0.9195746,1.501919,0.1765604,0.5181097,1.278667,0.1862912,68.60953,310.6188,6.927967,True
0,3.488881,-0.03066714,0.09020772,-0.01230373,-1.544331,-2.10911,2.677044,0.7479906,1.254372,-0.0002983809,-1.764625,-0.1539599,0,0,0.3031835,-0.0970816,0.09709098,-0.9722477,-1.670667,-0.3247232,0.8185525,1.426292,-0.01148665,0.2913436,-0.22522,-0.2346128,-0.9822494,-0.1925164,0.01231126,0.9199673,1.501883,0.1759633,0.520104,1.280759,0.1863719,67.71272,309.3113,5.188309,True
