loc,t,aDotUA,bDotUA,gDotUA,aUA,bUA,gUA,xUA,yUA,zUA,qE,qDotE,emgA,emgB,aDotSH,bDotSH,gDotSH,aSH,bSH,gSH,xSH,ySH,zSH,aDotUB,bDotUB,gDotUB,aUB,bUB,gUB,xUB,yUB,zUB,xHand,yHand,zHand,aHand,bHand,gHand,enable
0,0,-0.381535,-0.8279106,-0.1592439,-1.409565,-4.048745,2.874676,0.6083797,1.096632,0.5016692,-1.795067,-0.09867004,22.4,14.4,-0.5581596,0.422958,-0.2135797,-0.5889176,-4.223319,0.09171288,0.638164,1.325997,0.4395013,-0.2699805,0.4382655,0.163827,-0.8637079,0.4112641,-0.1827757,0.7297882,1.400815,0.3156879,0.4727958,0.9777846,0.3001389,299.0047,226.3743,353.4374,True
0,0.01111111,-0.4179577,-0.7373192,-0.1439424,-1.409752,-4.043154,2.879768,0.6067601,1.096703,0.5007601,-1.794452,0.05735421,22.4,14.4,-0.5388615,0.4484307,-0.2114142,-0.5906487,-4.212577,0.08809923,0.6372155,1.326089,0.43923,-0.2635942,0.4031051,0.1680392,-0.8622549,0.416089,-0.1831714,0.7295731,1.400879,0.3158062,0.4714229,0.9786074,0.2982773,298.6782,225.491,354.2012,True
0,0.02222222,-0.4457546,-0.6937011,-0.1442493,-1.409789,-4.036571,2.884531,0.6050696,1.096707,0.4998922,-1.794461,-0.001249142,18,11.2,-0.4980622,0.461879,-0.1818395,-0.5912687,-4.202433,0.08398119,0.6363762,1.326285,0.4389954,-0.2414151,0.3593978,0.1539711,-0.861515,0.4196559,-0.1836002,0.7293264,1.400958,0.3158958,0.4701478,0.9797742,0.2962734,298.3279,224.9994,354.4364,True
0,0.03333334,-0.4810303,-0.6298841,-0.1447005,-1.40952,-4.031284,2.890028,0.6034466,1.09683,0.4990935,-1.794096,0.03374489,18,11.2,-0.4680647,0.4519799,-0.158751,-0.5918668,-4.193967,0.08109885,0.6355932,1.326375,0.4387498,-0.2372643,0.3178461,0.1486119,-0.8604013,0.4228166,-0.1831123,0.7290617,1.401044,0.3160036,0.4689958,0.9812042,0.2941258,297.9285,224.6368,354.5112,True
0,0.04444445,-0.5184243,-0.5831016,-0.1460975,-1.409012,-4.025936,2.896082,0.6020298,1.096958,0.4982741,-1.794558,-0.04235126,18,11.2,-0.4242645,0.4217602,-0.1316921,-0.5922284,-4.187176,0.07880267,0.635188,1.326534,0.4385061,-0.2235764,0.2741514,0.137823,-0.8596002,0.4252287,-0.1826233,0.7289408,1.40108,0.3159657,0.4680786,0.982852,0.2919053,297.4984,224.2095,354.6214,True
0,0.05555556,-0.5461596,-0.5715126,-0.1546748,-1.408454,-4.019698,2.902049,0.6004313,1.097075,0.4975336,-1.794411,0.01410054,18,11.2,-0.3656182,0.3915296,-0.1122223,-0.5925645,-4.181226,0.0759182,0.634927,1.326707,0.4383411,-0.2141255,0.2613485,0.1260117,-0.859066,0.4286661,-0.1827964,0.7289252,1.401189,0.3160081,0.4674167,0.9846214,0.2896226,297.0291,223.6622,354.758,True
0,0.06666667,-0.5962097,-0.5963303,-0.1789029,-1.40764,-4.011391,2.909058,0.5988521,1.097284,0.4969435,-1.794147,0.02423218,18,11.2,-0.3230276,0.3635719,-0.1021866,-0.5932548,-4.175421,0.07337062,0.6346272,1.326899,0.4380491,-0.1918919,0.2176439,0.1172687,-0.8582042,0.4302981,-0.1824209,0.7289194,1.401266,0.3160114,0.4669132,0.9864355,0.2873245,296.5711,223.0631,354.8723,True
0,0.07777778,-0.6461844,-0.6638646,-0.2177125,-1.406263,-4.001203,2.916137,0.5972297,1.097569,0.4963133,-1.794397,-0.0228378,13.5,9,-0.2666905,0.3164004,-0.09455048,-0.5938945,-4.171927,0.07153011,0.6346512,1.326974,0.4379461,-0.1729255,0.1590306,0.1032393,-0.857459,0.4304676,-0.181198,0.7289791,1.40143,0.3159616,0.466501,0.9882472,0.2850516,296.1312,222.4253,355.0264,True
0,0.08888889,-0.7003822,-0.7668399,-0.2892521,-1.403679,-3.988335,2.923394,0.5954889,1.097944,0.4959257,-1.793409,0.09076616,13.5,9,-0.2059838,0.2413251,-0.0626851,-0.5936511,-4.171367,0.07145927,0.6347247,1.327074,0.4378717,-0.1581042,0.1270532,0.09776649,-0.8566244,0.4311137,-0.180365,0.72905,1.401519,0.3159037,0.4661584,0.990019,0.2828226,295.709,221.7316,355.2343,True
0,0.1,-0.7471457,-0.8515654,-0.347115,-1.40072,-3.975194,2.930868,0.5937073,1.098214,0.4955218,-1.793325,0.00721129,13.5,9,-0.141045,0.1929821,-0.04555545,-0.5936186,-4.170178,0.07003581,0.6350132,1.327183,0.4378164,-0.1262555,0.09825148,0.08893104,-0.8559054,0.4316157,-0.1805021,0.7291619,1.401516,0.3157547,0.4659854,0.9917665,0.2806338,295.3423,220.9505,355.5421,True
0,0.1111111,-0.829624,-1.16439,-0.4073484,-1.399123,-3.951132,2.938679,0.5914699,1.098769,0.4952555,-1.793147,0.01660283,13.5,9,-0.1106448,0.1526713,-0.08238213,-0.5958279,-4.169101,0.06937455,0.635222,1.327258,0.4377756,-0.1103001,0.07053426,0.08983855,-0.8548481,0.4315744,-0.1798265,0.7293596,1.401597,0.3156915,0.4660853,0.9935284,0.2784164,295.0079,219.9569,356.0254,True
0,0.1222222,-0.8631096,-1.490096,-0.4931189,-1.396859,-3.922838,2.944344,0.5895494,1.099525,0.4949176,-1.7933,-0.01370753,13.5,9,-0.1173669,0.08457069,-0.08820199,-0.5970685,-4.170805,0.07245129,0.6355771,1.327436,0.4377527,-0.07747912,0.01723164,0.07566772,-0.8541769,0.4295627,-0.1788012,0.7297087,1.401687,0.315649,0.4665565,0.9953296,0.2761279,294.6697,218.6512,356.6752,True
0,0.1333333,-0.9256665,-1.712967,-0.6361365,-1.390575,-3.894364,2.951614,0.587452,1.100466,0.4946392,-1.791619,0.1541593,8.7,7,-0.08855671,0.05233143,-0.06847969,-0.597224,-4.171704,0.07331176,0.635986,1.327658,0.4378376,-0.06384626,-0.003021233,0.056355,-0.8540486,0.4288972,-0.178052,0.7301486,1.401757,0.315546,0.4674607,0.9971822,0.2737132,294.3113,217.2832,357.3152,True
0,0.1444445,-0.9574337,-1.841394,-0.7011151,-1.38548,-3.86839,2.958574,0.5853983,1.101313,0.4945166,-1.793337,-0.1583705,8.7,7,-0.05642426,0.06060155,-0.05272673,-0.5973523,-4.169479,0.07114501,0.636454,1.327955,0.4378598,-0.05436742,-0.02966662,0.04880616,-0.8535585,0.4273869,-0.1767673,0.7305477,1.40186,0.3154321,0.4693472,0.9991594,0.2710127,294.0229,215.8842,357.9448,True
0,0.1555556,-1.003202,-1.898721,-0.7921904,-1.378073,-3.842842,2.966405,0.5838252,1.102373,0.4944696,-1.792341,0.09320727,8.7,7,-0.02082606,0.06539947,-0.005070323,-0.5958919,-4.167925,0.06907414,0.6370521,1.328349,0.437815,-0.03756067,-0.08295202,0.03159964,-0.8532289,0.4237876,-0.1745441,0.7310379,1.401949,0.3152158,0.4726303,1.001266,0.2678316,293.7254,213.8846,358.8448,True
0,0.1666667,-1.061955,-1.828794,-0.8203684,-1.371242,-3.823305,2.975984,0.5823215,1.103511,0.4948804,-1.793366,-0.09352884,8.7,7,-0.01399194,0.04466194,0.05329322,-0.5934823,-4.168491,0.06946509,0.6378425,1.328656,0.4377553,-0.01748526,-0.1287885,0.02074829,-0.8528358,0.4197833,-0.1723816,0.7315552,1.402055,0.3149807,0.4770322,1.00344,0.2640192,293.4464,210.962,359.9906,True
0,0.1777778,-1.129332,-1.744888,-0.8347135,-1.364782,-3.805102,2.98719,0.5811635,1.105038,0.4954267,-1.793011,0.03341709,4.9,5.4,-0.0157162,0.03146669,0.1054029,-0.590794,-4.168875,0.07019906,0.6386333,1.328951,0.437758,0.003661945,-0.1724995,0.01094795,-0.8524123,0.415582,-0.1701217,0.7321563,1.402066,0.314671,0.4821353,1.005719,0.2598666,293.1198,207.8303,0.889852,True
0,0.1888889,-1.203061,-1.657883,-0.8544852,-1.356996,-3.787054,2.99903,0.5804288,1.106506,0.4960966,-1.792707,0.02791524,4.9,5.4,0.009096764,0.01831639,0.1455536,-0.588402,-4.169641,0.07042862,0.6394904,1.329278,0.437763,0.01520377,-0.2012745,-0.003015801,-0.8523948,0.4114175,-0.1679278,0.7329214,1.402076,0.3144526,0.4875609,1.008126,0.2558136,292.8071,204.4138,1.893841,True
0,0.2,-1.234353,-1.502511,-0.8673561,-1.348411,-3.77371,3.011018,0.579474,1.107715,0.4966075,-1.791746,0.08811209,4.9,5.4,0.03049663,0.01593677,0.1581354,-0.5858533,-4.169519,0.06898306,0.6404511,1.329524,0.4379497,0.02138837,-0.2098105,-0.02225361,-0.85279,0.4077268,-0.1658473,0.73355,1.402016,0.314116,0.4926657,1.010786,0.2522759,292.5425,201.1731,2.771406,True
0,0.2111111,-1.122054,-1.211331,-0.8528007,-1.3398,-3.768914,3.018518,0.5783213,1.109194,0.4970725,-1.791534,0.01898144,4.9,5.4,0.07754013,0.008107722,0.1800193,-0.5832605,-4.17007,0.06700913,0.6414235,1.329733,0.4381337,0.04019919,-0.2332699,-0.05546439,-0.8538467,0.4030328,-0.1637168,0.7342596,1.401873,0.3138707,0.4970998,1.01388,0.2495681,292.2842,198.2454,3.8188,True
0,0.2222222,-1.11397,-1.006704,-0.8437965,-1.331197,-3.762288,3.029035,0.5782368,1.110825,0.4976437,-1.792877,-0.1223157,4.9,5.4,0.1395123,-0.03722593,0.2217084,-0.5796434,-4.173718,0.06671058,0.6424595,1.330163,0.4383249,0.04545061,-0.241796,-0.0619091,-0.8542536,0.3990254,-0.1617703,0.7348589,1.401901,0.3136566,0.5006871,1.017463,0.2476909,291.8972,195.1957,5.500906,True
0,0.2333333,-1.02269,-0.8229789,-0.8027743,-1.324005,-3.75802,3.036521,0.5772102,1.112165,0.4980695,-1.799669,-0.619416,2.4,4.8,0.1767752,-0.07906196,0.2380812,-0.5765983,-4.178314,0.06730501,0.6434854,1.330459,0.4384964,0.06014085,-0.2482044,-0.08336449,-0.8554595,0.3948076,-0.1601428,0.7356107,1.401819,0.3133719,0.5029131,1.02147,0.2463006,291.3796,192.0556,7.54498,True
0,0.2444444,-0.717384,-0.6295392,-0.8122386,-1.314805,-3.756273,3.033024,0.5772029,1.113421,0.4985902,-1.796932,0.2557782,2.4,4.8,0.1980072,-0.1400412,0.2587098,-0.5732827,-4.18501,0.07034873,0.6448152,1.330635,0.4386525,0.07821077,-0.273789,-0.08354247,-0.8556539,0.3895801,-0.1580594,0.7364097,1.401767,0.3131261,0.5035148,1.025736,0.2456256,290.7036,189.216,9.775446,True
0,0.2555556,-0.7393841,-0.3347601,-0.8401702,-1.304021,-3.760421,3.041955,0.5790086,1.115083,0.5016699,-1.79989,-0.2737039,2.4,4.8,0.2086138,-0.1763985,0.2700388,-0.5701242,-4.191251,0.07292107,0.6460255,1.330886,0.4388182,0.08862716,-0.2833912,-0.1060186,-0.8570383,0.3845787,-0.1561265,0.737196,1.401658,0.3128533,0.5028756,1.030029,0.245781,290.0554,186.9593,12.11966,True
0,0.2666667,-1.309741,0.5003476,-0.5563638,-1.303744,-3.79472,3.08687,0.5793441,1.116026,0.5022192,-1.811217,-1.033447,2.4,4.8,0.2363552,-0.2268098,0.2981455,-0.5662541,-4.199229,0.0762218,0.6474266,1.331161,0.4390101,0.1000907,-0.3079171,-0.1285097,-0.858569,0.3785053,-0.1536058,0.7380141,1.401497,0.3124678,0.5012374,1.034114,0.2464948,289.4064,184.9648,14.61392,True
0,0.2777778,-1.287823,0.7026976,-0.5698189,-1.295961,-3.807425,3.101992,0.5805696,1.117678,0.5032284,-1.800492,0.9886283,1.3,4,0.2512968,-0.240797,0.3074864,-0.5627877,-4.205607,0.07832649,0.648739,1.331433,0.4391873,0.1042242,-0.3249677,-0.1392035,-0.8598282,0.3726596,-0.151087,0.738783,1.401414,0.3121541,0.4996056,1.037425,0.2487022,288.765,182.6711,17.66951,True
0,0.2888889,-1.210967,1.14127,-0.4957432,-1.291343,-3.833829,3.119815,0.5816573,1.118737,0.5052774,-1.771257,2.663077,1.3,4,0.2939059,-0.2816046,0.325953,-0.5589714,-4.214186,0.0811356,0.6502424,1.331754,0.4393506,0.1221657,-0.3441667,-0.1532377,-0.8613126,0.3665495,-0.1489815,0.7397105,1.401368,0.3117969,0.4975713,1.039842,0.2519833,288.6238,181.2461,19.58205,True
0,0.3,-1.112319,1.384117,-0.398764,-1.289714,-3.857529,3.135346,0.5827461,1.120095,0.5065801,-1.793895,-2.088385,1.3,4,0.3334203,-0.2872024,0.3394059,-0.5550411,-4.221031,0.08204614,0.651677,1.331966,0.4394612,0.1454906,-0.3378071,-0.1651934,-0.8630096,0.3615537,-0.1480715,0.7405428,1.401237,0.3114498,0.4924186,1.042894,0.2534613,289.0643,182.797,19.05415,True
0,0.3111111,-1.005372,1.710039,-0.301436,-1.289331,-3.887259,-3.132242,0.584577,1.121044,0.5079627,-1.798712,-0.4215011,1.3,4,0.3964396,-0.2672977,0.3485889,-0.551155,-4.225871,0.07978697,0.6532245,1.33227,0.4397211,0.1357991,-0.3750873,-0.1714829,-0.8641819,0.353995,-0.144362,0.7412664,1.40108,0.3111413,0.4866079,1.047431,0.2552826,289.1918,182.7136,20.85238,True
0,0.3222222,-0.9675438,1.976872,-0.2546458,-1.288842,-3.919031,-3.113426,0.5860567,1.122355,0.510181,-1.800533,-0.1639267,1.3,4,0.4559036,-0.2887515,0.3361579,-0.5482906,-4.233654,0.07957818,0.6549647,1.332634,0.4400523,0.148526,-0.3868177,-0.1758718,-0.8656142,0.3476815,-0.1423087,0.7420962,1.401065,0.310869,0.4806971,1.053226,0.2580921,288.6188,181.7457,23.45977,True
0,0.3333333,-0.9604845,2.155088,-0.2156636,-1.28843,-3.949234,-3.094302,0.588243,1.123084,0.5113082,-1.801928,-0.1262702,0.8,3.1,0.4980174,-0.3868555,0.3253913,-0.5456876,-4.248122,0.08517189,0.6567777,1.332979,0.4404786,0.1749254,-0.4262696,-0.1942478,-0.8674949,0.3392203,-0.1396285,0.7429876,1.400983,0.310452,0.4748822,1.059928,0.2617341,287.45,180.6604,26.36635,True
0,0.3444445,-0.9456803,2.202012,-0.2139231,-1.287586,-3.975938,-3.076802,0.5898445,1.123811,0.5126078,-1.798954,0.2723556,0.8,3.1,0.5007858,-0.4869936,0.3234881,-0.5429999,-4.265356,0.09426285,0.6585656,1.333289,0.4407711,0.1876039,-0.4518549,-0.2018302,-0.8691237,0.3312359,-0.1369235,0.743847,1.400879,0.3100469,0.4692792,1.067009,0.2661782,286.0828,178.7614,30.13045,True
0,0.3555556,-0.9276233,2.202945,-0.2341789,-1.285969,-4.001013,-3.060225,0.5918398,1.12429,0.5135643,-1.79756,0.1244028,0.8,3.1,0.5022885,-0.6243659,0.3159653,-0.540969,-4.287846,0.1079044,0.6604631,1.333556,0.4410706,0.2034643,-0.4742391,-0.2105074,-0.8708441,0.3231414,-0.1344297,0.7447172,1.400841,0.3095956,0.4637273,1.074118,0.2712146,284.8498,176.2526,34.54802,True
0,0.3666667,-1.0035,2.321339,-0.1935211,-1.288093,-4.031884,-3.037901,0.5939965,1.124574,0.5144322,-1.797977,-0.03919388,0.8,3.1,0.5051732,-0.6914606,0.3121992,-0.5387719,-4.306727,0.1184739,0.6622068,1.334039,0.4413016,0.2182852,-0.4870334,-0.218105,-0.8725645,0.31545,-0.1322944,0.7455512,1.40077,0.3092074,0.4582806,1.080962,0.276322,283.7388,173.3642,39.60464,True
0,0.3777778,-1.017265,2.268927,-0.215408,-1.287438,-4.056755,-3.019084,0.5957605,1.124923,0.5154548,-1.798411,-0.03943722,0.5,2.2,0.5072184,-0.6924637,0.3036475,-0.5366541,-4.322477,0.1262221,0.6639692,1.33422,0.4414787,0.2193486,-0.4838371,-0.2191861,-0.8744165,0.308173,-0.1301838,0.7463861,1.400651,0.3087916,0.4532909,1.08723,0.2812272,282.8211,170.0839,44.99693,True
0,0.3888889,-0.9736971,2.289235,-0.2135258,-1.288329,-4.083679,-3.002239,0.5978082,1.124704,0.5157595,-1.794288,0.3770958,0.5,2.2,0.5060933,-0.6571188,0.2805051,-0.5350834,-4.334964,0.1313016,0.6655643,1.33441,0.4416902,0.2204114,-0.4752925,-0.2224125,-0.8763222,0.3010963,-0.1282062,0.7471799,1.400589,0.3084412,0.4490065,1.092696,0.2857023,282.1406,166.7818,50.13902,True
0,0.4,-0.9535137,2.322403,-0.2031168,-1.29026,-4.112259,-2.98428,0.5994819,1.12491,0.5166221,-1.795816,-0.1423357,0.5,2.2,0.5008001,-0.618632,0.267016,-0.5333049,-4.34652,0.1358292,0.6671078,1.33456,0.4418488,0.2150599,-0.4667851,-0.2234056,-0.8782386,0.2944922,-0.1260999,0.7479422,1.400591,0.3080895,0.4451905,1.097554,0.2896069,281.6708,164.3235,54.09641,True
0,0.4111111,-0.9099361,2.36197,-0.1960545,-1.292807,-4.141209,-2.967467,0.6012656,1.124815,0.5166793,-1.798644,-0.2574007,0.5,2.2,0.4688276,-0.5297333,0.2243431,-0.5326168,-4.352481,0.1366361,0.6684791,1.334628,0.4419985,0.2087396,-0.4348176,-0.2201419,-0.8800011,0.289271,-0.124918,0.748644,1.400499,0.3079064,0.4420105,1.10193,0.2930532,281.3971,161.6214,58.06986,True
0,0.4222222,-0.8726886,2.378057,-0.1940932,-1.295515,-4.169095,-2.951466,0.602888,1.124649,0.5169945,-1.798174,0.04521894,0.5,2.2,0.4356851,-0.49848,0.1971984,-0.5318983,-4.361657,0.1408618,0.6697873,1.334669,0.442199,0.2023675,-0.4124442,-0.2211509,-0.8820837,0.2838207,-0.1235286,0.7493821,1.400371,0.3076046,0.4393053,1.105891,0.296105,281.2069,158.6362,62.06012,True
0,0.4333333,-0.8024576,2.392011,-0.1985833,-1.298207,-4.196776,-2.93751,0.6044532,1.124328,0.5167077,-1.799087,-0.08408259,0.2,1.8,0.3758791,-0.4756499,0.170215,-0.5316772,-4.371008,0.1467801,0.6710453,1.334805,0.4423521,0.1885777,-0.3815324,-0.2188864,-0.8840656,0.2794644,-0.1223438,0.7501608,1.400321,0.3074136,0.4366814,1.109642,0.2989914,281.1057,155.9875,65.49751,True
0,0.4444444,-0.7236143,2.389986,-0.2103614,-1.300806,-4.224353,-2.924792,0.6056867,1.124105,0.5166824,-1.799406,-0.02861625,0.2,1.8,0.3246708,-0.4657495,0.157973,-0.5309891,-4.381059,0.1534521,0.6720985,1.334963,0.442426,0.1779219,-0.3495621,-0.223044,-0.8863426,0.2753567,-0.1213837,0.7509054,1.400216,0.3071527,0.4338673,1.113335,0.3018858,281.0047,153.1969,69.19435,True
0,0.4555556,-0.6426293,2.378427,-0.2135602,-1.304102,-4.251479,-2.913091,0.606693,1.123648,0.5163374,-1.801005,-0.1462206,0.2,1.8,0.3001606,-0.4656402,0.1571282,-0.5301134,-4.391777,0.1602206,0.6732007,1.335039,0.4425511,0.1661802,-0.3165241,-0.2293203,-0.8888183,0.2718576,-0.1206556,0.7515563,1.400102,0.3070006,0.430861,1.116979,0.305035,280.9042,150.1822,73.28051,True
0,0.4666667,-0.5605804,2.362686,-0.2102754,-1.308461,-4.278412,-2.902059,0.6075755,1.1234,0.5167651,-1.801847,-0.07617267,0.2,1.8,0.2681813,-0.4654882,0.1552874,-0.5292553,-4.402361,0.1675304,0.6741005,1.334969,0.4427536,0.1598362,-0.2834891,-0.228196,-0.8910564,0.268732,-0.1202625,0.7521261,1.400004,0.306946,0.4276131,1.120518,0.3084809,280.8303,146.9186,77.78893,True
0,0.4777778,-0.505106,2.342628,-0.2059358,-1.312445,-4.304523,-2.891556,0.6084808,1.122905,0.516505,-1.802157,-0.02825589,0.2,1.8,0.2360687,-0.4598681,0.1353779,-0.5293256,-4.412235,0.1744557,0.6748374,1.33494,0.4428122,0.1513774,-0.2579115,-0.2249165,-0.8931726,0.2658671,-0.1198428,0.7526999,1.399883,0.3068173,0.4240931,1.123855,0.3123082,280.7998,143.6957,82.3195,True
0,0.4888889,-0.4080921,2.306687,-0.1994067,-1.31642,-4.329467,-2.883796,0.6091107,1.122325,0.5162175,-1.802079,0.007009837,0.1,1.8,0.2049351,-0.4434898,0.1016992,-0.5301544,-4.420696,0.1806097,0.675495,1.334795,0.4428859,0.1407643,-0.2280727,-0.2248151,-0.8954932,0.2636266,-0.1196566,0.7532164,1.399776,0.3066967,0.4203003,1.126889,0.3165459,280.749,140.8821,86.48265,True
0,0.5,-0.3846155,2.291855,-0.1961232,-1.320835,-4.354733,-2.87407,0.6099219,1.121875,0.5161476,-1.80166,0.03784736,0.1,1.8,0.1782652,-0.4251673,0.08930236,-0.5303701,-4.428714,0.1865318,0.6760619,1.334708,0.4429572,0.1259945,-0.1886393,-0.2150836,-0.8974459,0.2625356,-0.119814,0.7536495,1.399556,0.3066556,0.4163626,1.129576,0.3213151,280.643,138.7809,90.0088,True
0,0.5111111,-0.2842628,2.227356,-0.1659262,-1.325787,-4.377189,-2.868911,0.6101962,1.12113,0.515933,-1.803307,-0.1514551,0.1,1.8,0.1123584,-0.3704908,0.08074981,-0.5301022,-4.433369,0.191534,0.6763799,1.334645,0.4429722,0.109004,-0.1300277,-0.2170508,-0.9000126,0.2628379,-0.1206878,0.7542132,1.399379,0.306632,0.4122869,1.131925,0.3263892,280.5024,137.0042,93.47102,True
0,0.5222223,-0.2298067,2.187075,-0.1582222,-1.330446,-4.400319,-2.862622,0.6106347,1.120584,0.5157557,-1.80086,0.2245588,0.1,1.8,0.08274341,-0.3342047,0.08769991,-0.5294167,-4.43875,0.1961647,0.6766893,1.334631,0.4429686,0.09521106,-0.1012489,-0.2147815,-0.9022428,0.2622617,-0.1209046,0.7546172,1.399283,0.3066137,0.4082558,1.133848,0.3316048,280.3551,135.4768,96.72784,True
0,0.5333334,-0.1518726,2.123543,-0.1333143,-1.335625,-4.421557,-2.85859,0.6109498,1.120116,0.5157104,-1.803676,-0.2599607,0.2,2.3,0.04377243,-0.2638776,0.1056698,-0.5277032,-4.44055,0.1986233,0.6768478,1.334495,0.4429693,0.08462065,-0.05969302,-0.2136153,-0.9046652,0.2628247,-0.1218149,0.7550428,1.399115,0.3066154,0.4043465,1.135414,0.3368074,280.1647,134.6485,99.20705,True
0,0.5444446,-0.07063985,2.028043,-0.1102967,-1.340368,-4.4406,-2.856179,0.6109257,1.119691,0.5156302,-1.802268,0.1308078,0.2,2.3,0.006967604,-0.1679283,0.1163701,-0.5258321,-4.438775,0.1982819,0.6769902,1.334423,0.4429061,0.07517265,-0.02878621,-0.2039387,-0.9067004,0.2634228,-0.1227795,0.7553356,1.398974,0.3064747,0.4006314,1.136613,0.3418251,279.951,133.584,101.8094,True
0,0.5555557,-0.01503327,1.949502,-0.09055597,-1.345308,-4.459242,-2.8537,0.6108472,1.119379,0.5157483,-1.803038,-0.07242496,0.2,2.3,-0.0245852,-0.09865907,0.1299994,-0.5237458,-4.436979,0.1980777,0.6771131,1.334365,0.4428234,0.06679042,-0.01811877,-0.1910713,-0.9083819,0.2633667,-0.1231611,0.7556936,1.398878,0.3064184,0.3971345,1.137475,0.3465803,279.7415,133.2367,103.5435,True
0,0.5666668,0.04546145,1.587153,-0.1260436,-1.348138,-4.484162,-2.85116,0.6103592,1.118541,0.5159969,-1.803424,-0.03503247,0.2,2.3,-0.0448688,-0.07608497,0.1143855,-0.5218709,-4.440632,0.2026998,0.6774439,1.334227,0.4426641,0.06910106,-0.01493095,-0.1740486,-0.9116943,0.2623741,-0.1243038,0.7560648,1.398557,0.3063877,0.3938993,1.138076,0.3510437,279.5093,133.1825,104.8275,True
0,0.577778,0.05776154,1.335756,-0.1272154,-1.34838,-4.490044,-2.850867,0.6097255,1.118374,0.5164874,-1.804804,-0.1264264,0.1,2.2,-0.05044989,-0.08224422,0.0888222,-0.5219796,-4.442979,0.2054943,0.6774535,1.334129,0.4427388,0.07567754,-0.0255876,-0.154934,-0.9125838,0.2613833,-0.1248727,0.7562425,1.398496,0.3063607,0.3906425,1.138507,0.355178,279.4312,133.0847,105.885,True
0,0.5888891,0.08179124,1.089757,-0.1231135,-1.348037,-4.49347,-2.851931,0.6090955,1.118251,0.516953,-1.800604,0.384226,0.1,2.2,-0.05838814,-0.1213343,0.05235478,-0.5233181,-4.448195,0.210847,0.677533,1.333977,0.442827,0.07692306,-0.02665317,-0.1368355,-0.9133828,0.2607901,-0.125424,0.756318,1.398405,0.3063524,0.3870722,1.138764,0.3594972,279.4821,132.7984,107.047,True
0,0.6000003,0.1026374,0.828725,-0.1337889,-1.346393,-4.49437,-2.853682,0.6083288,1.118245,0.5174799,-1.799952,0.0557445,0.1,2.2,-0.0640516,-0.158432,0.03186237,-0.5244563,-4.454369,0.2171329,0.6776044,1.333833,0.4428444,0.07283501,-0.001078442,-0.1229541,-0.9145455,0.2618925,-0.1268144,0.7564149,1.398249,0.3065484,0.3839542,1.138602,0.3638207,279.2112,133.0641,107.9634,True
0,0.6111114,0.1297821,0.591033,-0.1574553,-1.343465,-4.49336,-2.856264,0.6075063,1.118361,0.5179021,-1.800344,-0.03634324,0.1,2.2,-0.04534729,-0.1890899,-0.006906562,-0.5265687,-4.459985,0.2217747,0.6774035,1.333634,0.4428043,0.06440397,0.02237049,-0.1164812,-0.9158057,0.2631242,-0.1279425,0.7563957,1.398212,0.3065948,0.3816093,1.138032,0.3674591,278.8296,134.0592,108.1344,True
0,0.6222225,0.1206239,0.378646,-0.2025921,-1.338841,-4.491371,-2.857674,0.606895,1.118485,0.5182023,-1.800128,0.01992877,0.1,2.2,-0.01982099,-0.1763251,-0.01768404,-0.5274071,-4.462523,0.223199,0.6772857,1.333534,0.44278,0.05497173,0.0298471,-0.1014736,-0.9165146,0.2638765,-0.1286464,0.7563393,1.398277,0.3066025,0.3800775,1.137142,0.3699324,278.5493,135.6221,107.3767,True
0,0.6333337,0.181547,0.2763306,-0.2252834,-1.335593,-4.49194,-2.86181,0.6062391,1.118496,0.5184171,-1.800108,0.001252369,0,2.3,0.01006678,-0.1347932,-0.03039538,-0.5281059,-4.461855,0.2213231,0.6770024,1.333368,0.4427152,0.0562019,0.03730216,-0.08550531,-0.9169599,0.2646433,-0.1297287,0.7562135,1.398347,0.3065712,0.3791874,1.136055,0.3710203,278.4653,137.5379,105.7474,True
0,0.6444448,0.1944385,0.20886,-0.2726868,-1.331016,-4.493346,-2.864377,0.6057438,1.118374,0.5186272,-1.798377,0.1580265,0,2.3,0.007906191,-0.1048208,-0.04717771,-0.5292532,-4.461315,0.2208703,0.6766309,1.333255,0.4426918,0.05643841,0.05222509,-0.0631465,-0.9171538,0.2662608,-0.1312837,0.75616,1.39834,0.3066003,0.3787972,1.134842,0.3707531,278.5903,139.5499,103.5482,True
0,0.655556,0.1924641,0.1342038,-0.2827311,-1.327444,-4.493431,-2.866359,0.6054488,1.118376,0.518718,-1.801176,-0.2573937,0,2.3,-0.01130287,-0.08974545,-0.05753435,-0.5303302,-4.461874,0.2223223,0.6763266,1.333171,0.4426527,0.04273903,0.05224924,-0.04703251,-0.9172693,0.2670633,-0.1315375,0.7560216,1.398181,0.3066385,0.3787683,1.133585,0.3693709,278.9039,141.7507,100.7514,True
0,0.6666671,-0.0270903,0.1588893,-0.3305472,-1.32305,-4.497879,-2.856582,0.6049393,1.118634,0.5189416,-1.799763,0.1312682,0,2.3,-0.07196626,-0.04891079,-0.06944562,-0.5313757,-4.459445,0.2233553,0.6756786,1.33302,0.4425454,0.03857135,0.05864652,-0.03846812,-0.917475,0.2681592,-0.1324803,0.7558057,1.398168,0.30672,0.3789043,1.132305,0.3674302,279.3405,143.1452,98.47195,True
0,0.6777782,0.05898949,0.293894,-0.2603666,-1.325874,-4.506743,-2.858656,0.6044622,1.118863,0.5190628,-1.798327,0.1296749,0.1,2.1,-0.09957712,-0.01251975,-0.07635799,-0.5321071,-4.456946,0.2232634,0.675321,1.332872,0.4425399,0.03652296,0.06716651,-0.03098929,-0.9176646,0.2693935,-0.1335373,0.7556044,1.398173,0.3067932,0.3790591,1.13094,0.3655054,279.7982,144.3899,96.3406,True
0,0.6888894,0.06645285,0.3338268,-0.1989065,-1.327626,-4.511726,-2.859156,0.6045647,1.118703,0.5192752,-1.787618,0.9781781,0.1,2.1,-0.1141538,0.05994743,-0.07244667,-0.5320548,-4.450171,0.2191209,0.6748016,1.332775,0.442523,0.03453605,0.06504744,-0.01605361,-0.9173839,0.2704158,-0.1344196,0.7553167,1.39812,0.3068905,0.3790185,1.129616,0.3639476,280.1857,145.9388,94.04862,True
0,0.7000005,0.5130152,0.2991777,-0.1289256,-1.329149,-4.514219,-2.879614,0.6026478,1.118291,0.5190315,-1.799773,-1.119233,0.1,2.1,-0.09693009,0.1014212,-0.07226441,-0.5322945,-4.445013,0.2149102,0.6741617,1.332726,0.4424536,0.03252269,0.07144862,-0.005384761,-0.9172773,0.2718368,-0.1356249,0.7548563,1.398042,0.3069322,0.3781071,1.129065,0.3629661,280.4959,149.0081,90.37482,True
0,0.7111117,0.582276,0.2864829,-0.1374425,-1.327884,-4.517478,-2.887527,0.601846,1.118384,0.5190947,-1.798841,0.09615978,0.1,2.1,-0.07999866,0.1078718,-0.08834458,-0.533576,-4.441667,0.2122348,0.6736291,1.33253,0.4424484,0.03051175,0.07464287,0.006352967,-0.9169338,0.2730128,-0.1365499,0.7544898,1.398027,0.307014,0.3768583,1.129401,0.3632418,280.5263,150.0475,89.12417,True
0,0.7222228,0.5685713,0.2624325,-0.07757019,-1.329641,-4.519755,-2.892253,0.6007252,1.117934,0.5191402,-1.817075,-1.669598,0.1,2.1,-0.05904505,0.07280996,-0.1111881,-0.5356725,-4.441841,0.2123812,0.672997,1.332215,0.4424407,0.03588139,0.07997626,0.01055741,-0.9168954,0.2746268,-0.1380625,0.7540143,1.398057,0.3070767,0.3755958,1.130196,0.3647787,280.3446,148.7539,90.85616,True
0,0.7333339,0.5005063,0.2046843,-0.08659124,-1.328521,-4.520104,-2.895202,0.6009477,1.117519,0.5190518,-1.805282,1.091618,0.2,1.6,-0.05829446,0.04957047,-0.1358919,-0.5381711,-4.441331,0.2125365,0.6724378,1.331987,0.4424601,0.03712641,0.08849642,0.02759112,-0.9161349,0.2763564,-0.1395238,0.7535238,1.398152,0.3072,0.3741591,1.130442,0.3672155,280.271,144.1405,96.24828,True
0,0.7444451,0.4866999,0.1660754,-0.1150261,-1.326263,-4.521302,-2.899846,0.6005926,1.117139,0.5190275,-1.799087,0.5545462,0.2,1.6,-0.06512303,0.02325915,-0.1722683,-0.5415868,-4.441256,0.2135208,0.6717322,1.331711,0.4424996,0.04045735,0.09701978,0.04033888,-0.9154893,0.2783311,-0.1412463,0.7530322,1.398115,0.3072934,0.3723506,1.129472,0.3701533,280.1091,142.2708,98.99866,True
0,0.7555562,0.4527411,0.1085273,-0.1091798,-1.325191,-4.520704,-2.90387,0.6003293,1.116598,0.5189266,-1.795952,0.282693,0.2,1.6,-0.06199622,0.01796612,-0.1776705,-0.5437312,-4.440194,0.2131685,0.6710646,1.33149,0.4425616,0.03630447,0.1055442,0.04996588,-0.9148613,0.2802666,-0.1426972,0.7525405,1.398103,0.3074241,0.3702284,1.127397,0.3731323,279.6494,143.9272,98.34035,True
0,0.7666674,0.4123803,0.07028046,-0.08537877,-1.325045,-4.520237,-2.907133,0.5999784,1.116104,0.5187285,-1.797531,-0.1463654,0.2,1.6,-0.04580878,0.05298877,-0.1700715,-0.5448647,-4.436069,0.2096182,0.6703581,1.33129,0.4425216,0.03741234,0.1162025,0.05315245,-0.9143942,0.2826447,-0.1445718,0.7519383,1.398069,0.3075366,0.3685448,1.124433,0.3757282,279.2056,149.3346,93.97287,True
0,0.7777785,0.3687714,0.05009044,-0.06810206,-1.324966,-4.520305,-2.909738,0.5998247,1.115626,0.5186133,-1.796701,0.07746972,0.2,2.2,-0.03163674,0.1071786,-0.1591073,-0.5455475,-4.429411,0.2037414,0.6696343,1.331113,0.4424734,0.03639467,0.1215273,0.05742449,-0.9138216,0.2846494,-0.1461428,0.7514054,1.398135,0.3077168,0.3671926,1.121072,0.3775385,278.9996,156.0209,87.99764,True
0,0.7888896,0.3315252,0.05240808,-0.03503644,-1.325996,-4.520817,-2.911955,0.5996257,1.11519,0.5183241,-1.795892,0.07317815,0.2,2.2,-0.03373349,0.1381648,-0.1694908,-0.5472881,-4.423755,0.1993959,0.6690658,1.330881,0.4423676,0.03966491,0.1140733,0.0659136,-0.912962,0.2861736,-0.1476156,0.751031,1.398161,0.3077891,0.3661916,1.117703,0.3783791,278.8773,162.4423,81.9063,True
0,0.8000008,0.3389704,0.06095436,-0.0340457,-1.325903,-4.521919,-2.915865,0.599305,1.114756,0.518095,-1.795409,0.04364373,0.2,2.2,-0.04126047,0.1542917,-0.1842068,-0.5493931,-4.418528,0.1957562,0.6683995,1.330703,0.4423213,0.04924873,0.09382664,0.06795492,-0.912122,0.2868125,-0.1489165,0.7503653,1.398073,0.307781,0.365621,1.115211,0.3782627,278.7998,166.6143,77.70751,True
0,0.8111119,0.3378803,0.08994768,-0.005505636,-1.327436,-4.523771,-2.91919,0.5992799,1.114273,0.5178323,-1.79527,0.01251492,0.2,2.2,-0.02876201,0.1299078,-0.2047557,-0.5521553,-4.416368,0.1937807,0.6677327,1.330477,0.4422755,0.05883624,0.09381644,0.06786016,-0.9115265,0.2883034,-0.1508207,0.7497747,1.398163,0.3079405,0.365723,1.114486,0.3778185,279.2493,166.4062,77.91943,True
0,0.8222231,0.3090569,0.143402,0.02607415,-1.329733,-4.526958,-2.920912,0.5991685,1.113749,0.5174732,-1.797243,-0.1803578,0.2,2.2,-0.01848421,0.116307,-0.2411827,-0.5559242,-4.413475,0.1910286,0.6670254,1.330067,0.4422882,0.06102549,0.09061947,0.07422484,-0.9106972,0.2896184,-0.1523152,0.7491345,1.398157,0.3080132,0.365913,1.114276,0.377177,279.5746,165.434,78.79621,True
0,0.8333342,0.3046309,0.2266049,0.04033716,-1.33192,-4.532218,-2.922919,0.5990961,1.113098,0.5172331,-1.7971,0.01467877,0.2,2.9,-0.01570831,0.09422225,-0.2776115,-0.5600883,-4.41118,0.1892184,0.6661927,1.329777,0.4423268,0.06536961,0.1023358,0.08163349,-0.9098722,0.2918412,-0.1544479,0.7484894,1.398098,0.3081787,0.365936,1.114112,0.3762229,279.2723,163.3082,80.49762,True
0,0.8444453,0.2960137,0.2842868,0.06119291,-1.334427,-4.537244,-2.924742,0.5989379,1.112406,0.5169621,-1.7958,0.1185499,0.2,2.9,-0.01158918,0.09005606,-0.291532,-0.5636085,-4.408344,0.1868018,0.665434,1.329477,0.4423087,0.06864542,0.1065933,0.08905789,-0.9088218,0.2937736,-0.1565102,0.7478516,1.398101,0.3082671,0.3660754,1.113907,0.3755777,279.5089,162.3149,81.26847,True
0,0.8555565,0.2714462,0.3431741,0.104433,-1.338408,-4.542576,-2.925597,0.5988941,1.111655,0.516732,-1.796511,-0.06591665,0.2,2.9,-0.01454528,0.1230004,-0.2795154,-0.5656016,-4.402554,0.1822175,0.6646334,1.329203,0.4422975,0.07617525,0.1044518,0.09644157,-0.907633,0.2953464,-0.1586192,0.7471472,1.398223,0.3083749,0.3660103,1.113698,0.375369,279.4954,161.3868,82.06087,True
0,0.8666676,0.2426428,0.3871115,0.1446035,-1.342662,-4.547753,-2.92603,0.5988576,1.110928,0.5164676,-1.796441,0.007154584,0.2,2.9,-0.01319282,0.1473289,-0.2590889,-0.5671281,-4.397142,0.1776906,0.6638539,1.329032,0.442271,0.07933355,0.1012548,0.09321225,-0.9069358,0.2968161,-0.1604975,0.7464404,1.398283,0.3084719,0.3656451,1.113478,0.3756531,279.1878,160.0215,83.35213,True
0,0.8777788,0.2149272,0.4214567,0.1827195,-1.347142,-4.552969,-2.926353,0.5986822,1.110246,0.5160403,-1.795605,0.07630063,0.1,2.1,-0.0170913,0.1769573,-0.2321798,-0.5680938,-4.390976,0.1728328,0.663169,1.328732,0.44209,0.08463308,0.0969855,0.09103101,-0.9061299,0.2981385,-0.1624363,0.7458062,1.398238,0.3085155,0.3652816,1.113235,0.3760642,278.7757,158.5771,84.6338,True
0,0.8888899,0.1872165,0.4418243,0.2060371,-1.351438,-4.557895,-2.926402,0.5986401,1.109624,0.5156739,-1.795196,0.03700067,0.1,2.1,-0.01700489,0.1811559,-0.2246891,-0.5700076,-4.386553,0.1692822,0.6625297,1.328395,0.4420521,0.08782919,0.0884593,0.09206456,-0.9051733,0.2991557,-0.1641794,0.7451572,1.398255,0.3085783,0.3645654,1.113019,0.3768272,277.8281,157.1922,86.00195,True
0,0.900001,0.1648262,0.4642307,0.2165436,-1.355385,-4.563284,-2.926487,0.5985574,1.108996,0.5152557,-1.795243,-0.004376881,0.1,2.1,-0.006589577,0.1492435,-0.2356898,-0.572871,-4.384763,0.1675778,0.6618705,1.328089,0.4421496,0.08675459,0.08525918,0.09207529,-0.9042758,0.3003315,-0.1657535,0.744499,1.398286,0.3085878,0.3637905,1.11284,0.377545,276.905,155.88,87.32382,True
0,0.9111122,0.1381389,0.4886933,0.2185279,-1.35925,-4.569033,-2.925798,0.5985427,1.108429,0.5147848,-1.795117,0.01175412,0.1,2.1,0.000615418,0.120577,-0.2508993,-0.5760508,-4.38309,0.1658822,0.6611849,1.327866,0.4421527,0.08679356,0.07993178,0.09633373,-0.9032286,0.3014258,-0.1674188,0.7438239,1.398308,0.3086388,0.3630143,1.112704,0.3780338,276.2523,154.5938,88.63004,True
0,0.9222233,0.1156884,0.5270142,0.2203799,-1.363236,-4.575773,-2.924899,0.5985216,1.107867,0.5142219,-1.795438,-0.02938139,0.1,2.1,0.0005421489,0.1088838,-0.2541865,-0.5787838,-4.380751,0.1638584,0.6604887,1.327636,0.4421823,0.08787078,0.074611,0.09845647,-0.9021596,0.3026212,-0.1691294,0.7432141,1.398307,0.3087032,0.3626376,1.112473,0.3786596,275.4084,153.1438,89.9985,True
0,0.9333345,0.09537102,0.5653706,0.226494,-1.367562,-4.582788,-2.923818,0.5985443,1.107204,0.5135591,-1.794975,0.04274555,0.2,1.1,0.002752915,0.1055941,-0.2435791,-0.5808615,-4.378058,0.1615322,0.6598414,1.327407,0.4421539,0.08676858,0.07034884,0.09527276,-0.9012946,0.3035956,-0.170662,0.7425809,1.398306,0.3087785,0.3622314,1.112287,0.3792667,274.6038,150.7359,92.42109,True
0,0.9444456,0.07930282,0.617631,0.2378176,-1.372389,-4.59078,-2.922636,0.5985456,1.10667,0.5129631,-1.795124,-0.0138559,0.2,1.1,0.005113795,0.09895863,-0.2148887,-0.5819758,-4.376223,0.1598565,0.6590973,1.327301,0.4421492,0.08461034,0.06396137,0.09317347,-0.9003274,0.3044665,-0.1720855,0.7417917,1.398379,0.3088276,0.3614327,1.112237,0.3797338,274.1921,147.4642,95.86647,True
0,0.9555568,0.07930282,0.617631,0.2378176,-1.372389,-4.59078,-2.922636,0.5985456,1.10667,0.5129631,-1.79523,-0.009337387,0.2,1.1,0.005113795,0.09895863,-0.2148887,-0.5819758,-4.376223,0.1598565,0.6590973,1.327301,0.4421492,0.08461034,0.06396137,0.09317347,-0.9003274,0.3044665,-0.1720855,0.7417917,1.398379,0.3088276,0.3603795,1.112222,0.3804298,274.7469,148.473,95.40621,True
0,0.9666679,0.05357126,0.7179857,0.2711459,-1.383342,-4.607881,-2.919872,0.5986195,1.105577,0.5119472,-1.795117,0.0105489,0.2,1.1,0.002276495,0.09756303,-0.1733239,-0.5840722,-4.371755,0.1563097,0.6578404,1.327194,0.4420948,0.07921271,0.03414159,0.08896173,-0.8986081,0.3047094,-0.1738975,0.7404189,1.398565,0.3088315,0.3594023,1.112243,0.3812392,274.7257,149.3476,94.96375,True
0,0.977779,0.04498204,0.7585781,0.2868182,-1.389222,-4.616828,-2.918441,0.5986845,1.105029,0.5113707,-1.795977,-0.07853395,0,1,0.001199663,0.09437089,-0.173337,-0.5858225,-4.369618,0.1545265,0.6572057,1.327104,0.4420474,0.07706024,0.03094971,0.08685988,-0.8976679,0.3052535,-0.1750618,0.7398098,1.398597,0.3088624,0.358728,1.112318,0.3816524,274.2075,150.3416,93.89705,True
0,0.9888902,0.04498204,0.7585781,0.2868182,-1.389222,-4.616828,-2.918441,0.5986845,1.105029,0.5113707,-1.79582,0.01514796,0,1,0.001199663,0.09437089,-0.173337,-0.5858225,-4.369618,0.1545265,0.6572057,1.327104,0.4420474,0.07706024,0.03094971,0.08685988,-0.8976679,0.3052535,-0.1750618,0.7398098,1.398597,0.3088624,0.357399,1.112319,0.3826572,274.6018,150.6156,94.00606,True
0,1.000001,0.02673493,0.8408074,0.3160097,-1.396311,-4.62796,-2.916128,0.5989077,1.104454,0.5107183,-1.795683,0.01241421,0,1,5.972385E-05,0.09123302,-0.1808115,-0.5880404,-4.367574,0.1528101,0.6567183,1.326984,0.4420049,0.06748655,0.03202192,0.08802036,-0.8967375,0.3058819,-0.1758853,0.7392323,1.398554,0.3089762,0.3561005,1.11234,0.384154,274.5762,151.6303,93.68016,True
0,1.011112,0.01814426,0.8802994,0.3274237,-1.402734,-4.638071,-2.914318,0.5989424,1.103885,0.510123,-1.796029,-0.03161116,0,1,-1.430511E-06,0.09128608,-0.1871978,-0.5900952,-4.365125,0.1508548,0.6562162,1.32681,0.4420447,0.0621413,0.03309504,0.08595082,-0.8958442,0.306636,-0.1768768,0.7386411,1.398682,0.3090184,0.3553844,1.112333,0.385507,274.4346,152.0332,93.73491,True
0,1.022224,0.008457609,0.9304296,0.3376937,-1.409491,-4.649066,-2.912243,0.5990222,1.103191,0.5095561,-1.795662,0.03392912,0,1,0.002278402,0.1028993,-0.175412,-0.5914774,-4.361924,0.1481652,0.6556379,1.326656,0.4421229,0.05576839,0.0363007,0.08707855,-0.8949478,0.307569,-0.1779032,0.7380766,1.398668,0.3090515,0.3547153,1.112392,0.3867508,274.9966,153.13,93.04837,True
0,1.033335,-0.01284522,0.9411374,0.3504269,-1.416193,-4.658646,-2.909974,0.5989627,1.102658,0.5091023,-1.796013,-0.0323563,0,1,0.001505673,0.1186738,-0.1497073,-0.591911,-4.35845,0.1453519,0.6550128,1.326566,0.4421129,0.05043012,0.03524028,0.08606885,-0.8940876,0.3082004,-0.1786816,0.7374477,1.398738,0.3090928,0.3536801,1.1125,0.3884831,276.0352,154.8174,92.26546,True
0,1.044446,-0.01811701,0.9198478,0.3538038,-1.422263,-4.66695,-2.908425,0.598897,1.102235,0.5085263,-1.796007,0.0009683418,0.1,0.6,0.001742274,0.1184602,-0.1230802,-0.5922359,-4.355968,0.1433002,0.6545235,1.326538,0.4420726,0.04934779,0.02885108,0.08501492,-0.8932178,0.3085637,-0.1794355,0.7369358,1.398762,0.3091559,0.3523701,1.112678,0.3907422,275.8409,155.6552,92.19624,True
0,1.055557,-0.03183331,0.8590115,0.3425853,-1.427256,-4.673487,-2.90679,0.5986452,1.1019,0.508127,-1.795645,0.03317102,0.1,0.6,0.01149072,0.1022315,-0.09773237,-0.5924266,-4.355047,0.142097,0.6539522,1.326394,0.4420953,0.05035875,0.02565634,0.07968367,-0.8924897,0.3090126,-0.1803514,0.736344,1.398834,0.3091784,0.3506753,1.11279,0.3935567,275.2063,156.1234,92.66012,True
0,1.066668,-0.03914028,0.7778597,0.3208793,-1.431482,-4.678749,-2.905479,0.5984443,1.101574,0.507756,-1.796213,-0.05205195,0.1,0.6,0.02112593,0.07434926,-0.07993972,-0.5928777,-4.355132,0.1415894,0.6534741,1.326357,0.4420776,0.0503392,0.01819808,0.07861859,-0.8916482,0.3091226,-0.1809887,0.7358215,1.398776,0.3091552,0.3489646,1.113177,0.3966791,274.2498,153.94,95.81483,True
0,1.077779,-0.0432818,0.707356,0.2980114,-1.435181,-4.683463,-2.90421,0.5982385,1.101299,0.507376,-1.796016,0.01861616,0.1,0.6,0.0253287,0.05620246,-0.07799178,-0.5936702,-4.354971,0.1410698,0.6530365,1.32625,0.4420812,0.05241153,0.008601474,0.0743383,-0.8909046,0.3088427,-0.1814225,0.7354009,1.398897,0.309144,0.3472644,1.113491,0.3999074,273.7117,154.994,96.03638,True
0,1.08889,-0.04950035,0.5994217,0.2573355,-1.437378,-4.686153,-2.903051,0.5981135,1.101174,0.5070157,-1.796209,-0.01784711,0.1,0.6,0.02836964,0.03281192,-0.08566342,-0.5949406,-4.355419,0.1408951,0.6526616,1.326185,0.4421363,0.05029554,0.002217121,0.07649702,-0.8898575,0.3089139,-0.1819647,0.7349371,1.39891,0.309119,0.3458705,1.113737,0.4028679,273.2968,154.815,97.3016,True
0,1.100002,-0.05571758,0.4925416,0.2123888,-1.438718,-4.688205,-2.902035,0.597847,1.10089,0.5068157,-1.796282,-0.006462041,0.1,0.3,0.03137351,0.01907252,-0.1007174,-0.596628,-4.355398,0.1404434,0.6522891,1.326114,0.4421511,0.04604274,0.001156904,0.07760587,-0.8889584,0.3090859,-0.1824305,0.7344724,1.398905,0.3090618,0.3448607,1.113968,0.4052272,272.945,153.4309,99.52922,True
0,1.111113,-0.05348407,0.4283651,0.1788035,-1.440113,-4.690668,-2.90129,0.5976951,1.100712,0.5065269,-1.796207,0.00700158,0.1,0.3,0.0281858,0.02228652,-0.1017208,-0.5976123,-4.354506,0.1394418,0.6518826,1.326058,0.4420552,0.04285227,0.001157463,0.07870042,-0.8880843,0.3092574,-0.1828364,0.7339953,1.398966,0.3090091,0.3442079,1.114214,0.4067981,272.6992,151.2606,102.2774,True
0,1.122224,-0.05655788,0.3460013,0.13685,-1.440374,-4.691709,-2.900469,0.5973746,1.10056,0.506269,-1.796344,-0.01247528,0.1,0.3,0.02620842,0.04247754,-0.09407936,-0.5982003,-4.352233,0.1373078,0.6514452,1.32604,0.441999,0.03751037,0.003295572,0.07662123,-0.8873839,0.3096464,-0.1833648,0.7335982,1.399018,0.3089516,0.3438813,1.114482,0.4074756,272.6146,148.7864,105.0385,True
0,1.133335,-0.0489472,0.2476735,0.09500849,-1.439829,-4.691254,-2.900268,0.5970265,1.100516,0.5061936,-1.796754,-0.03739803,0.1,0.3,0.0180074,0.0732282,-0.07245138,-0.5981129,-4.349136,0.13479,0.6510663,1.326019,0.4419584,0.03107764,-0.002019133,0.07349524,-0.8865749,0.3096636,-0.1834835,0.7332194,1.399057,0.3089275,0.3437278,1.114764,0.4073293,272.6743,146.0584,107.7243,True
0,1.144446,-0.04247164,0.1996591,0.08045426,-1.440392,-4.692306,-2.899799,0.5966449,1.100549,0.5060914,-1.796586,0.01576228,0.1,0.1,0.008667506,0.09336286,-0.05409103,-0.5978568,-4.346124,0.1324909,0.6506864,1.326026,0.4419634,0.02784035,-0.003079055,0.06927106,-0.8858745,0.3097863,-0.1838124,0.7328412,1.39914,0.3088973,0.3436392,1.115048,0.4065784,272.7982,143.858,109.6706,True
0,1.155557,-0.03273319,0.1228627,0.06614003,-1.440321,-4.691041,-2.900028,0.5963424,1.100648,0.5061069,-1.797019,-0.03973879,0.1,0.1,-0.00186339,0.08794796,-0.03806062,-0.5976597,-4.344886,0.1318233,0.6503944,1.326036,0.4419014,0.01825576,-0.0009368118,0.06936722,-0.8851058,0.3100102,-0.1838271,0.7325028,1.399181,0.3088901,0.3435295,1.115296,0.4054282,272.9755,142.6412,110.5232,True
0,1.166668,-0.02192865,0.04497185,0.04757088,-1.439759,-4.689208,-2.90054,0.5960376,1.100712,0.506057,-1.797012,0.001043861,0.1,0.1,-0.01265782,0.0645984,-0.04347774,-0.5983697,-4.34502,0.1323407,0.6502136,1.326019,0.4418802,0.01073524,0.004402399,0.06199148,-0.8846446,0.3105367,-0.1841134,0.7322512,1.399277,0.3089297,0.343393,1.115475,0.4040937,273.1557,142.6589,110.0425,True
0,1.17778,-0.01648363,-0.02764044,0.0247131,-1.438772,-4.68679,-2.900807,0.5958037,1.100786,0.5060482,-1.797387,-0.03444791,0.1,0.1,-0.0149766,0.05622315,-0.0605708,-0.5995798,-4.344111,0.1318427,0.6499779,1.325974,0.4418015,0.009627704,0.005472103,0.05773937,-0.8841791,0.310788,-0.1843352,0.7319987,1.399267,0.3088176,0.34317,1.115618,0.4028551,273.2582,143.3204,108.9245,True
0,1.188891,-0.01429915,-0.06939806,-0.002656015,-1.437318,-4.685017,-2.901003,0.5955634,1.100799,0.5060284,-1.797596,-0.01887248,0.1,0.1,-0.01290931,0.04773147,-0.06491113,-0.6002712,-4.343441,0.1311895,0.649789,1.32592,0.4416575,0.007454645,0.0001473697,0.05456653,-0.8836427,0.3106703,-0.1842114,0.7316623,1.399307,0.3087587,0.3430255,1.115677,0.401839,273.3117,143.9752,107.9497,True
