loc,t,aDotUA,bDotUA,gDotUA,aUA,bUA,gUA,xUA,yUA,zUA,qE,qDotE,emgA,emgB,aDotSH,bDotSH,gDotSH,aSH,bSH,gSH,xSH,ySH,zSH,aDotUB,bDotUB,gDotUB,aUB,bUB,gUB,xUB,yUB,zUB,xHand,yHand,zHand,aHand,bHand,gHand,enable
1,0,-0.3861757,-0.4185811,-0.179726,-1.339086,-4.146959,2.907507,0.6268818,1.118851,0.4789898,-1.772753,-0.006944715,3.3,0,-0.4772857,0.3219323,-0.08999316,-0.5252968,-4.296812,0.07170934,0.6603792,1.341372,0.3981936,-0.2851637,0.4302971,0.05978498,-0.8738518,0.2150668,-0.05017156,0.7446169,1.403463,0.2594519,0.4663842,0.9979482,0.2960044,298.7287,223.6324,2.654746,True
1,0.01111111,-0.4033891,-0.3653904,-0.1842834,-1.337502,-4.144009,2.911903,0.6250823,1.11876,0.4784625,-1.772353,0.03671026,3.3,0,-0.4663783,0.3398264,-0.07182366,-0.5251189,-4.288318,0.069284,0.6594623,1.341388,0.398052,-0.2863247,0.4153867,0.05662515,-0.8736691,0.2206301,-0.05020618,0.7444736,1.403326,0.2597427,0.4646392,0.9984203,0.2948708,298.5517,223.4082,2.774882,True
1,0.02222222,-0.4237313,-0.3335633,-0.1972455,-1.335539,-4.140684,2.916435,0.6233224,1.118649,0.4778426,-1.772345,0.0004658508,3.3,0,-0.4395866,0.3534676,-0.06237095,-0.5251759,-4.279521,0.06569992,0.6585796,1.341289,0.397876,-0.2767327,0.3940757,0.06190899,-0.8729959,0.2255732,-0.05067702,0.7443914,1.403371,0.2601025,0.4629423,0.9991235,0.2935381,298.3218,222.9724,3.031305,True
1,0.03333334,-0.4398099,-0.3016992,-0.2048754,-1.333663,-4.137687,2.921097,0.6215735,1.118548,0.4773345,-1.771999,0.03176785,4.4,0.2,-0.424679,0.3501924,-0.06147253,-0.5255961,-4.272027,0.06348576,0.657692,1.341301,0.3977954,-0.2831878,0.3823999,0.05985426,-0.872884,0.2311919,-0.05074653,0.7442716,1.403379,0.2603936,0.4613916,1.000016,0.2921,298.0334,222.3634,3.379339,True
1,0.04444445,-0.468684,-0.2655893,-0.2093299,-1.331593,-4.135315,2.926807,0.6198392,1.118535,0.4768307,-1.771849,0.0134711,4.4,0.2,-0.4107647,0.3425775,-0.05101838,-0.5256031,-4.264759,0.06137707,0.6568881,1.34128,0.3976679,-0.2875537,0.3717563,0.05352278,-0.872818,0.2366168,-0.05071697,0.7441995,1.403388,0.260663,0.459908,1.001043,0.2905848,297.7268,221.7198,3.741806,True
1,0.05555556,-0.4965298,-0.2167204,-0.2149198,-1.329406,-4.133712,2.932718,0.6184222,1.118567,0.4762704,-1.771913,-0.005866766,4.4,0.2,-0.4012882,0.326573,-0.05338766,-0.5261874,-4.258551,0.06031767,0.6562177,1.34128,0.3976033,-0.2897676,0.372807,0.04608776,-0.872736,0.2419775,-0.05082936,0.7441565,1.403473,0.2609684,0.458468,1.002152,0.2890238,297.4087,221.0231,4.161882,True
1,0.06666667,-0.5222721,-0.164649,-0.224797,-1.326591,-4.132862,2.939331,0.6167197,1.118568,0.4757113,-1.771176,0.06764474,4.4,0.2,-0.3852584,0.3243107,-0.04716939,-0.5263083,-4.251415,0.05793547,0.6555135,1.341285,0.3974879,-0.2781464,0.3578558,0.04066715,-0.8727296,0.2468001,-0.05114042,0.7439625,1.403404,0.2612066,0.4570484,1.003301,0.2874795,297.0952,220.3145,4.568058,True
1,0.07777778,-0.5512185,-0.1040411,-0.2304596,-1.323682,-4.133027,2.946412,0.6149971,1.118645,0.4750729,-1.771268,-0.008948674,4.4,0.2,-0.3596122,0.307002,-0.03051509,-0.525871,-4.245481,0.0560164,0.6548145,1.341263,0.3973126,-0.2728572,0.3407991,0.0406569,-0.8724745,0.2511687,-0.05114361,0.74393,1.403499,0.2614515,0.4555866,1.004495,0.2860009,296.8205,219.6396,4.969951,True
1,0.08888889,-0.5715678,-0.06796722,-0.2423735,-1.320678,-4.132594,2.953249,0.6132731,1.118789,0.4744442,-1.770991,0.02567037,3.7,0.5,-0.3457722,0.265218,-0.01076729,-0.5252702,-4.242405,0.05676288,0.6542298,1.341324,0.3971586,-0.2623152,0.3279674,0.03311962,-0.8725587,0.2553752,-0.05131645,0.7438573,1.403495,0.2616484,0.4540622,1.005762,0.2846364,296.5541,218.9489,5.447464,True
1,0.1,-0.6068944,-0.01382896,-0.2575819,-1.317056,-4.133607,2.96138,0.6117218,1.118787,0.4739115,-1.770975,0.001423894,3.7,0.5,-0.3415017,0.2191869,0.01330041,-0.524264,-4.24053,0.05885533,0.6537522,1.341328,0.3969817,-0.249616,0.3002332,0.0309247,-0.8724819,0.2585025,-0.05118462,0.7439709,1.403392,0.2618556,0.4522515,1.007093,0.2833379,296.2911,218.1989,6.001727,True
1,0.1111111,-0.633656,0.02761167,-0.2610025,-1.313842,-4.134676,2.969604,0.6101161,1.118965,0.4732649,-1.771315,-0.03086361,3.7,0.5,-0.3393362,0.2020199,0.02591883,-0.5234528,-4.237175,0.05972299,0.6532134,1.341342,0.3968303,-0.2465371,0.2820956,0.02454985,-0.8725197,0.2617867,-0.05061817,0.7440162,1.40334,0.2619958,0.4501136,1.008536,0.2821472,296.0255,217.4878,6.600771,True
1,0.1222222,-0.6903729,0.1126509,-0.2646635,-1.31008,-4.138357,2.979957,0.6086462,1.119179,0.4725909,-1.770658,0.06044523,3.7,0.5,-0.3370641,0.1847673,0.04918528,-0.5220557,-4.23438,0.0609286,0.6528527,1.341422,0.3967016,-0.2381465,0.2650016,0.01705007,-0.8726987,0.2647956,-0.05013747,0.7441469,1.40332,0.262116,0.4477955,1.010119,0.2811324,295.7111,216.7428,7.33256,True
1,0.1333333,-0.7139644,0.1637558,-0.2574886,-1.306977,-4.141382,2.989333,0.6072127,1.119327,0.4719644,-1.770772,-0.01066671,2,0.9,-0.3314845,0.1727355,0.08205719,-0.5199332,-4.231638,0.06207802,0.6526158,1.341557,0.3965559,-0.2414306,0.261793,0.009644307,-0.8728958,0.2684081,-0.04969379,0.7443646,1.403271,0.2622497,0.4453527,1.011842,0.280317,295.3629,215.9864,8.154491,True
1,0.1444445,-0.7482435,0.230911,-0.2322927,-1.30455,-4.145976,2.999857,0.6057711,1.119554,0.4713826,-1.769653,0.1026232,2,0.9,-0.3111129,0.1404303,0.1114084,-0.5178389,-4.230713,0.0640397,0.6524282,1.341728,0.3964601,-0.2458458,0.2447311,-0.0009188699,-0.8733736,0.2710909,-0.04859523,0.7445781,1.403194,0.2624047,0.4427734,1.013733,0.2796327,295.0231,215.2943,8.983723,True
1,0.1555556,-0.7718171,0.2788906,-0.2112483,-1.302376,-4.150411,3.010332,0.6043342,1.119784,0.4707692,-1.770689,-0.09537644,2,0.9,-0.2984807,0.1158956,0.1078796,-0.5167225,-4.229983,0.06625865,0.6522133,1.341859,0.3963361,-0.2437577,0.228746,-0.0008979402,-0.8734678,0.2736044,-0.04759788,0.7447717,1.403181,0.262526,0.4399971,1.015853,0.27904,294.6801,214.6095,9.868295,True
1,0.1666667,-0.8082936,0.3706079,-0.1755409,-1.30067,-4.15786,3.022415,0.6029308,1.120044,0.470264,-1.77042,0.02571754,2,0.9,-0.2688485,0.08382367,0.1041225,-0.515784,-4.230261,0.06857666,0.6519732,1.342026,0.3962421,-0.2374869,0.2020784,-0.006210502,-0.8736787,0.2752483,-0.04635765,0.74501,1.403241,0.2626131,0.4371538,1.018235,0.2785476,294.2544,213.95,10.77563,True
1,0.1777778,-0.8351004,0.4324083,-0.1567112,-1.298736,-4.16462,3.034314,0.6015074,1.120255,0.4698529,-1.770699,-0.02545752,2,0.9,-0.2594373,0.06253678,0.09639108,-0.5149893,-4.23057,0.07137485,0.6517383,1.342121,0.3961277,-0.235399,0.1914159,-0.00833359,-0.8739153,0.2775834,-0.04540077,0.7452506,1.403338,0.2627099,0.4342308,1.020873,0.2781064,293.7667,213.357,11.64362,True
1,0.1888889,-0.898386,0.5783,-0.1298185,-1.297097,-4.176328,3.049755,0.6001303,1.120521,0.4694331,-1.770244,0.04198364,0.9,1,-0.2702117,0.05521232,0.08790299,-0.5143816,-4.229618,0.07405319,0.6515229,1.342247,0.395963,-0.2279718,0.183939,-0.00945111,-0.8740655,0.2800358,-0.04472539,0.7454981,1.403275,0.2628064,0.4312486,1.023744,0.2776807,293.2253,212.7006,12.5659,True
1,0.2,-0.9337679,0.657119,-0.1142808,-1.295383,-4.186498,3.063875,0.5985654,1.12085,0.4688363,-1.770523,-0.02561849,0.9,1,-0.2933976,0.05510497,0.1136981,-0.5121387,-4.228722,0.07732169,0.6514452,1.342451,0.3957751,-0.2218645,0.1625612,-0.03076421,-0.8752042,0.2813956,-0.04329874,0.7458481,1.40321,0.2628245,0.4281223,1.026847,0.2773128,292.6391,211.9733,13.53256,True
1,0.2111111,-0.9411815,0.6487403,-0.08120826,-1.295258,-4.193237,3.076232,0.5969989,1.121171,0.4682319,-1.768735,0.1639511,0.9,1,-0.2921314,0.05599234,0.1339344,-0.5099676,-4.227707,0.07957392,0.6513417,1.342675,0.395592,-0.2156921,0.1422576,-0.04675221,-0.8762215,0.282549,-0.04189179,0.7461782,1.403116,0.2629015,0.4248416,1.030151,0.2770709,292.012,211.0811,14.648,True
1,0.2222222,-0.9605049,0.7032067,-0.04848969,-1.295229,-4.20321,3.090056,0.5954835,1.121537,0.4674966,-1.76989,-0.1066045,0.9,1,-0.275892,0.05460718,0.1625279,-0.5072161,-4.226934,0.08153827,0.6513278,1.342866,0.3954568,-0.2136126,0.127335,-0.04779959,-0.8768229,0.2836954,-0.04034662,0.7465259,1.403088,0.2629218,0.4211161,1.033721,0.2769841,291.3981,210.2407,15.78221,True
1,0.2333333,-0.9765579,0.7234118,-0.04327828,-1.294371,-4.211962,3.103844,0.5940821,1.121947,0.4669824,-1.771258,-0.1238316,0.5,0.6,-0.2673618,0.05349098,0.1635007,-0.5053928,-4.226192,0.08349782,0.6514069,1.343084,0.3953063,-0.2072903,0.1166453,-0.05209116,-0.8774381,0.2847705,-0.03901771,0.7469237,1.403061,0.2629559,0.4171145,1.037586,0.277099,290.723,209.4681,17.08032,True
1,0.2444444,-0.9894038,0.7447091,-0.03806782,-1.293862,-4.221335,3.117782,0.5923865,1.122373,0.4662507,-1.77108,0.01746516,0.5,0.6,-0.2684433,0.04175165,0.1676728,-0.5034381,-4.226167,0.08653649,0.6513842,1.343346,0.3951986,-0.2042613,0.0995633,-0.06380025,-0.8786114,0.2853975,-0.03728266,0.7473258,1.402887,0.2629287,0.4132235,1.041641,0.277337,289.9534,208.8143,18.4031,True
1,0.2555556,-0.9980243,0.777802,-0.02014789,-1.293996,-4.231339,3.131853,0.5908384,1.122971,0.4655867,-1.770989,0.008289449,0.5,0.6,-0.2622181,0.01619163,0.1631316,-0.5018684,-4.22802,0.09084042,0.6514339,1.343576,0.3950739,-0.2011367,0.09101902,-0.0680602,-0.8793534,0.2863405,-0.03571592,0.7476943,1.402843,0.2628484,0.4094617,1.045787,0.2775793,289.1737,207.9899,19.86735,True
1,0.2666667,-1.008667,0.7767899,-0.005223274,-1.294454,-4.240421,-3.137088,0.5890081,1.123479,0.4647198,-1.771242,-0.02312335,0.5,0.6,-0.2591739,-0.006162271,0.1586455,-0.5003824,-4.230139,0.09551641,0.6514542,1.343888,0.3949673,-0.197029,0.07180889,-0.07763367,-0.8804591,0.2865595,-0.03376329,0.7481431,1.402729,0.2627866,0.405911,1.049947,0.277795,288.4372,206.8172,21.57222,True
1,0.2777778,-1.026757,0.7704164,0.008668393,-1.295124,-4.249152,-3.122504,0.5872977,1.123953,0.4637644,-1.771532,-0.02609869,0.5,0.6,-0.2581543,-0.02966586,0.165894,-0.4983206,-4.232879,0.1008182,0.6515025,1.344164,0.3947537,-0.1897135,0.04833274,-0.08510592,-0.8816331,0.2862318,-0.03167324,0.7485569,1.402574,0.2626722,0.4023704,1.05409,0.2778628,287.7555,205.5911,23.22237,True
1,0.2888889,-1.039451,0.7373476,0.01205519,-1.295595,-4.256456,-3.108354,0.5855771,1.124594,0.4626513,-1.771335,0.01843587,0.2,0.3,-0.2656057,-0.03926361,0.1712127,-0.4962657,-4.234913,0.1058577,0.6515834,1.344436,0.3945646,-0.1834621,0.03762785,-0.09579761,-0.883067,0.2861975,-0.02980397,0.7490435,1.402476,0.2626264,0.398834,1.058234,0.2778169,287.1096,204.441,24.76373,True
1,0.3,-1.056314,0.6786944,0.009207159,-1.2959,-4.262334,-3.094529,0.5836868,1.125178,0.4615619,-1.771077,0.02348377,0.2,0.3,-0.2847044,-0.03602782,0.177817,-0.4940931,-4.235918,0.1106091,0.6516617,1.344649,0.3943841,-0.1760948,0.02694221,-0.1022429,-0.8844539,0.2861536,-0.02817838,0.7494563,1.402345,0.2625542,0.395242,1.062371,0.2775847,286.4588,203.2415,26.3847,True
1,0.3111111,-1.071046,0.6146306,-0.004262596,-1.295799,-4.26715,-3.080828,0.5817857,1.125736,0.4603698,-1.771314,-0.02166643,0.2,0.3,-0.2899274,-0.03395873,0.1874764,-0.4916941,-4.237201,0.1151032,0.6516683,1.344887,0.3942032,-0.1761437,0.02586423,-0.1064981,-0.8857391,0.2864318,-0.02636955,0.7498502,1.402285,0.2625015,0.3917523,1.066504,0.2771666,285.8283,201.9761,28.09938,True
1,0.3222222,-1.08684,0.5549029,-0.009244263,-1.295814,-4.271765,-3.066955,0.5798431,1.12633,0.4592955,-1.77149,-0.01574445,0.2,0.3,-0.2941956,-0.02644122,0.1833225,-0.4897867,-4.23772,0.1190241,0.6516219,1.345109,0.3940055,-0.1793825,0.02373701,-0.1096492,-0.8869983,0.2867299,-0.02437964,0.7502223,1.402197,0.2624986,0.3885005,1.070636,0.276508,285.2419,200.512,29.97161,True
1,0.3333333,-1.092085,0.5260843,-0.01227912,-1.296018,-4.27674,-3.05339,0.5779555,1.126732,0.4581718,-1.771534,-0.003764189,0.2,7.5,-0.3081299,-0.01238507,0.1675976,-0.4884706,-4.237216,0.1224327,0.6514924,1.345311,0.3937919,-0.1804857,0.03117567,-0.1149865,-0.8884934,0.2873322,-0.02270238,0.7505035,1.402113,0.2625282,0.3855411,1.074743,0.2755517,284.671,198.674,32.0952,True
1,0.3444445,-1.101479,0.463176,-0.0183042,-1.296006,-4.280125,-3.039785,0.5759448,1.127251,0.4570293,-1.771495,0.003632728,0.2,7.5,-0.3177576,-0.005883455,0.1602885,-0.4869308,-4.237291,0.1264133,0.6513717,1.345452,0.3936152,-0.1836815,0.05673844,-0.1214109,-0.8900966,0.2893559,-0.0218065,0.7508047,1.402065,0.2625949,0.3828874,1.078796,0.2742775,284.1364,196.4469,34.45285,True
1,0.3555556,-1.11511,0.3863834,-0.02532759,-1.295642,-4.282102,-3.026076,0.57402,1.127688,0.4558854,-1.772064,-0.05183622,0.2,7.5,-0.3606938,-0.005378366,0.1266097,-0.4867571,-4.237353,0.1319375,0.6511511,1.345526,0.393528,-0.1879575,0.08868699,-0.1310395,-0.8919406,0.2919863,-0.02121527,0.7511053,1.401901,0.2627714,0.3804821,1.082797,0.2727505,283.6422,193.8983,36.97062,True
1,0.3666667,-1.11821,0.3566009,-0.01556781,-1.296195,-4.28516,-3.012573,0.5719926,1.128202,0.4547224,-1.7718,0.02465127,0.2,7.5,-0.3779308,-0.0147517,0.1117811,-0.4860141,-4.23858,0.1378276,0.6510271,1.34567,0.3933744,-0.1932611,0.1131899,-0.1353095,-0.893645,0.2946095,-0.02058996,0.7515023,1.401746,0.2629905,0.3782436,1.086727,0.2710776,283.1648,191.0632,39.70859,True
1,0.3777778,-1.10537,0.3419077,0.02180696,-1.298297,-4.288383,-2.999749,0.5701306,1.12871,0.4535239,-1.77143,0.03363579,0.2,7.5,-0.3875172,-0.009356976,0.1097807,-0.4849339,-4.238729,0.1426735,0.6507641,1.34574,0.3932738,-0.2017208,0.1377082,-0.135292,-0.8952615,0.2973652,-0.01969647,0.7518321,1.401639,0.2631924,0.3761299,1.090576,0.2693014,282.7422,188.0994,42.58161,True
1,0.3888889,-1.09256,0.3334463,0.02824256,-1.299325,-4.291832,-2.986963,0.5681821,1.129182,0.4523311,-1.772053,-0.05711992,0.4,14.2,-0.3928362,0.02062401,0.09517173,-0.4841968,-4.236209,0.1449087,0.6505406,1.345852,0.393122,-0.2102065,0.159027,-0.1373938,-0.896975,0.300368,-0.0189657,0.752233,1.401604,0.2634044,0.3741546,1.094348,0.2674353,282.3878,185.0879,45.48483,True
1,0.4,-1.077707,0.3614585,0.07388091,-1.302359,-4.296619,-2.97424,0.5661808,1.129749,0.4512553,-1.772959,-0.08213203,0.4,14.2,-0.4067076,0.03248361,0.08688569,-0.4833813,-4.234775,0.1486068,0.6502237,1.345968,0.3929279,-0.2102063,0.1728716,-0.1406229,-0.8986406,0.3034054,-0.01848873,0.7525133,1.401555,0.2635119,0.3721987,1.098125,0.2655264,282.0523,182.2701,48.15023,True
1,0.4111111,-1.047901,0.375663,0.1195961,-1.305955,-4.300858,-2.962601,0.5642336,1.130189,0.4501019,-1.773175,-0.01909669,0.4,14.2,-0.4162877,0.04321608,0.08280716,-0.4824993,-4.233391,0.1523147,0.6499203,1.346093,0.3927555,-0.214431,0.186733,-0.1406094,-0.9001634,0.3065836,-0.01798353,0.7528061,1.40149,0.2637255,0.3702668,1.101939,0.2636902,281.6858,179.4241,50.88133,True
1,0.4222222,-1.028773,0.3950247,0.1397219,-1.30896,-4.305602,-2.950593,0.562395,1.130593,0.448844,-1.773571,-0.036299,0.4,14.2,-0.4365339,0.06150922,0.07356931,-0.4818164,-4.230633,0.1554274,0.6495483,1.346235,0.392565,-0.2165615,0.1952566,-0.1427416,-0.9018768,0.309633,-0.01737713,0.7530392,1.401403,0.2638824,0.3682624,1.105786,0.2619844,281.3722,176.218,53.9723,True
1,0.4333333,-1.016087,0.4303831,0.1704119,-1.312914,-4.310993,-2.938243,0.5605272,1.131117,0.4476621,-1.774456,-0.08052278,0.4,14.2,-0.4524238,0.07434779,0.07702325,-0.4806564,-4.228181,0.1588911,0.6491753,1.346413,0.3922799,-0.21759,0.2027177,-0.1406167,-0.9033677,0.3126965,-0.01677685,0.7533073,1.401232,0.264148,0.3660896,1.109712,0.2605228,281.0145,173.086,57.02179,True
1,0.4444444,-0.9862779,0.4423753,0.2012306,-1.317216,-4.315642,-2.927177,0.5587517,1.131553,0.4464252,-1.774158,0.02780277,0.9,27.6,-0.4513353,0.09358165,0.06971961,-0.4798819,-4.224857,0.1608355,0.6487522,1.346522,0.3920896,-0.2228224,0.2155281,-0.1352682,-0.9047296,0.3161657,-0.01636433,0.7535336,1.40112,0.264394,0.3638117,1.113651,0.2593691,280.6071,169.7061,60.48938,True
1,0.4555556,-0.9639887,0.4734782,0.2255538,-1.321837,-4.32134,-2.915707,0.5570647,1.131938,0.4452069,-1.773779,0.03423441,0.9,27.6,-0.462101,0.1119283,0.04867036,-0.4797791,-4.220861,0.1627215,0.6483304,1.346675,0.3919346,-0.2249111,0.224057,-0.1331368,-0.9061741,0.3196153,-0.01588709,0.7537128,1.40094,0.2647202,0.3614407,1.117539,0.2584811,280.2541,166.1928,64.21397,True
1,0.4666667,-0.9437728,0.4821472,0.2425403,-1.326245,-4.32612,-2.904574,0.5553722,1.132283,0.4439204,-1.774678,-0.08260912,0.9,27.6,-0.478214,0.1142662,0.03392815,-0.4796545,-4.218008,0.166076,0.6478133,1.346725,0.3917344,-0.2215685,0.227273,-0.120395,-0.9071019,0.3228203,-0.01557363,0.7539596,1.400846,0.2649417,0.3589724,1.121403,0.2578128,279.9122,162.9166,67.76287,True
1,0.4777778,-0.9245698,0.4758857,0.254278,-1.330526,-4.330494,-2.893777,0.5536842,1.132579,0.4426291,-1.774449,0.02154555,0.9,27.6,-0.4760956,0.1206887,0.02969845,-0.4792444,-4.214675,0.1683954,0.6473349,1.346808,0.391592,-0.2226578,0.2347284,-0.1246644,-0.9087291,0.3265667,-0.01540532,0.7541276,1.400679,0.2652812,0.356538,1.1252,0.2573216,279.5619,159.5007,71.51507,True
1,0.4888889,-0.9085386,0.4567641,0.2586394,-1.334568,-4.334035,-2.883204,0.5521243,1.132871,0.4413066,-1.774316,0.01179912,1.5,44.9,-0.4727353,0.1472787,0.03308904,-0.4783527,-4.209377,0.1687943,0.6468829,1.346891,0.3913817,-0.2173555,0.2261833,-0.1247028,-0.910229,0.3292076,-0.01475764,0.7544268,1.400669,0.2655032,0.354149,1.128905,0.2569319,279.244,155.8558,75.52615,True
1,0.5,-0.8764725,0.4249639,0.2673282,-1.338642,-4.33693,-2.873886,0.5505766,1.13317,0.4398739,-1.774353,-0.003633654,1.5,44.9,-0.4736657,0.1589358,0.04065329,-0.4773327,-4.205118,0.1701768,0.6464285,1.346974,0.3911784,-0.2109563,0.2112677,-0.1194021,-0.9113539,0.3314604,-0.01394005,0.7544893,1.400698,0.2656791,0.3518458,1.132493,0.2565296,278.9755,151.9751,79.78476,True
1,0.5111111,-0.8604212,0.4026779,0.2727754,-1.342707,-4.339804,-2.864256,0.5489606,1.133601,0.4385593,-1.774207,0.01331862,1.5,44.9,-0.4757484,0.1567588,0.04704697,-0.4763303,-4.202027,0.1727683,0.6459957,1.347016,0.3909659,-0.2098595,0.212332,-0.1172925,-0.912668,0.3344026,-0.01352833,0.7545524,1.400526,0.2658484,0.3496961,1.135929,0.2560191,278.7628,147.9895,84.11592,True
1,0.5222223,-0.8401038,0.3803893,0.2750271,-1.346733,-4.342507,-2.854992,0.5474062,1.133971,0.4372704,-1.775099,-0.08173463,1.5,44.9,-0.4768869,0.1482779,0.04165525,-0.4759058,-4.199521,0.1755865,0.6456398,1.346958,0.3908536,-0.2056184,0.2218967,-0.1216244,-0.9142115,0.3379084,-0.01355043,0.7546521,1.400409,0.2660744,0.3477809,1.139196,0.2553112,278.5997,144.1329,88.26701,True
1,0.5333334,-0.8230228,0.3698301,0.2804138,-1.351069,-4.345379,-2.845701,0.5459487,1.134288,0.4359372,-1.774655,0.04111935,1.5,44.9,-0.45994,0.1472254,0.02975745,-0.475794,-4.196172,0.1768318,0.6451906,1.346938,0.3905942,-0.2098971,0.2240298,-0.1237121,-0.9156576,0.3410583,-0.01297652,0.7546899,1.400336,0.2662444,0.3460989,1.142294,0.2543266,278.495,140.3864,92.19317,True
1,0.5444446,-0.8016621,0.3528784,0.2836928,-1.355188,-4.347824,-2.83683,0.5445173,1.134712,0.4345503,-1.774317,0.02973899,2.3,49.9,-0.4323668,0.1439909,0.01881247,-0.4756352,-4.192825,0.1778328,0.644762,1.346992,0.390409,-0.199226,0.2165608,-0.1195446,-0.916871,0.3438176,-0.01272085,0.7547367,1.400217,0.2663362,0.3445608,1.145257,0.2530683,278.4612,136.8877,95.71205,True
1,0.5555557,-0.7888638,0.3486623,0.2847683,-1.359325,-4.350502,-2.827913,0.5430747,1.135009,0.4332857,-1.773264,0.09500065,2.3,49.9,-0.4144297,0.1216136,0.008868406,-0.475664,-4.191545,0.1803272,0.6444159,1.346985,0.3902776,-0.1832205,0.1994898,-0.1122155,-0.9179202,0.345787,-0.0123323,0.7548062,1.4001,0.2664785,0.3431407,1.148083,0.2516376,278.4816,133.424,99.09694,True
1,0.5666668,-0.7707096,0.3338028,0.2837807,-1.363354,-4.352691,-2.819392,0.5416579,1.135271,0.431988,-1.772061,0.1077827,2.3,49.9,-0.4082193,0.1003435,0.001161337,-0.4758925,-4.190484,0.1838353,0.6439285,1.347059,0.3900926,-0.1726384,0.1866665,-0.1154886,-0.9193259,0.3477918,-0.01194215,0.7549288,1.400068,0.2665865,0.3417782,1.150775,0.2501347,278.5148,130.1045,102.3203,True
1,0.577778,-0.751528,0.3317137,0.2795262,-1.367453,-4.355348,-2.81095,0.5402471,1.135564,0.430748,-1.770072,0.1792412,2.3,49.9,-0.3986784,0.09606999,-0.002161264,-0.4757945,-4.188237,0.185944,0.6434566,1.347106,0.3896985,-0.1694493,0.1855974,-0.1155182,-0.9206377,0.3504817,-0.01172643,0.7549518,1.399927,0.2667727,0.3404233,1.153327,0.2486334,278.575,126.9945,105.3421,True
1,0.5888891,-0.735517,0.3200454,0.2806524,-1.371543,-4.357312,-2.802782,0.5387789,1.135904,0.4294815,-1.767891,0.1959354,4.2,78,-0.3804328,0.1022704,0.00943388,-0.4750248,-4.185442,0.1872085,0.6429029,1.347136,0.3894606,-0.1715234,0.1898761,-0.1112416,-0.9216892,0.3533214,-0.01144893,0.7549323,1.399817,0.2669206,0.3390326,1.155708,0.2472312,278.6572,123.9909,108.2659,True
1,0.6000003,-0.7141944,0.3148049,0.2838762,-1.375826,-4.35941,-2.795108,0.5373944,1.136262,0.4283872,-1.765241,0.2384665,4.2,78,-0.3771181,0.113917,0.01589172,-0.4743516,-4.181999,0.188241,0.6424012,1.34718,0.389096,-0.1693168,0.1984047,-0.1059627,-0.9227406,0.3564447,-0.01146358,0.7548714,1.399701,0.2671072,0.3375666,1.157896,0.2459755,278.7286,121.2094,111.0106,True
1,0.6111114,-0.6896507,0.304227,0.283939,-1.379946,-4.361211,-2.787923,0.5359384,1.136662,0.4271791,-1.762077,0.2846986,4.2,78,-0.374796,0.1255051,0.02982068,-0.4732219,-4.17849,0.1892581,0.641949,1.347172,0.3888314,-0.1715082,0.1941298,-0.1112601,-0.924265,0.3588424,-0.01101164,0.7548957,1.39957,0.2672923,0.3359546,1.159899,0.2448909,278.7678,118.7876,113.4487,True
1,0.6222225,-0.6650895,0.2862186,0.2872295,-1.384007,-4.362631,-2.780951,0.5346386,1.137055,0.4258876,-1.758882,0.2869277,4.2,78,-0.3682575,0.1371141,0.03944588,-0.4720725,-4.174498,0.189645,0.6414723,1.347306,0.3885806,-0.17049,0.1856035,-0.1133765,-0.9255869,0.3611543,-0.01050777,0.7548708,1.399437,0.2673881,0.334193,1.16173,0.2439677,278.7506,116.7028,115.6084,True
1,0.6333337,-0.6501532,0.2799033,0.2925853,-1.388298,-4.364172,-2.773887,0.5332528,1.137501,0.4246228,-1.755139,0.3365275,4.2,78,-0.3671632,0.1274529,0.04787122,-0.4711665,-4.172452,0.1920049,0.6410209,1.34747,0.3883407,-0.1652068,0.172803,-0.1144664,-0.9269883,0.3630601,-0.00995676,0.754742,1.399415,0.2674387,0.3323343,1.163385,0.2432167,278.6923,114.8317,117.6015,True
1,0.6444448,-0.6277357,0.2682439,0.2926562,-1.392352,-4.365348,-2.767586,0.5319546,1.137952,0.4234226,-1.750525,0.4154485,10.3,78.7,-0.3629529,0.1178478,0.04774733,-0.4704586,-4.170455,0.1941562,0.6405441,1.347506,0.3880768,-0.164168,0.1621495,-0.1144397,-0.9281425,0.3649427,-0.00932639,0.7545898,1.399316,0.2675176,0.3303761,1.164865,0.242564,278.6014,113.0104,119.6257,True
1,0.655556,-0.6245249,0.2639748,0.2894821,-1.396221,-4.366821,-2.760622,0.5306357,1.138404,0.4221942,-1.745184,0.4808844,10.3,78.7,-0.364112,0.1008263,0.04655255,-0.4698466,-4.169227,0.1970944,0.640039,1.347602,0.3878267,-0.1672987,0.1611068,-0.1080178,-0.9292477,0.3670607,-0.008637697,0.7544253,1.399303,0.267554,0.3283875,1.166148,0.2419242,278.475,111.3101,121.5719,True
1,0.6666671,-0.6191892,0.2596391,0.2745983,-1.399655,-4.368373,-2.753754,0.5292878,1.138747,0.4209967,-1.740172,0.4499898,10.3,78.7,-0.3555997,0.09115392,0.05064946,-0.4690114,-4.168202,0.1998495,0.639511,1.347666,0.387532,-0.1682884,0.1632525,-0.1016177,-0.9301266,0.3693219,-0.008154066,0.7541223,1.399136,0.2676492,0.3263642,1.167265,0.2412162,278.3179,109.841,123.2544,True
1,0.6777782,-0.6223426,0.2446704,0.2672236,-1.402971,-4.369395,-2.746648,0.5279274,1.139061,0.4197967,-1.733464,0.6050162,10.3,78.7,-0.3501809,0.09425613,0.05914485,-0.4679041,-4.165921,0.2015685,0.6389537,1.34767,0.3872216,-0.1650558,0.1739046,-0.1006145,-0.9312376,0.3722236,-0.00815886,0.7539413,1.398996,0.2676604,0.3243865,1.168193,0.2404276,278.1651,108.5597,124.6986,True
1,0.6888894,-0.6223196,0.237197,0.2630045,-1.406474,-4.370581,-2.739581,0.5264846,1.139465,0.4186034,-1.726936,0.5870536,10.3,78.7,-0.3469645,0.1038488,0.05706566,-0.4670918,-4.162933,0.2027361,0.6384019,1.347713,0.3869972,-0.1682982,0.1813508,-0.1069834,-0.9325591,0.3749847,-0.007868043,0.7537905,1.398924,0.2677364,0.3224007,1.168961,0.2395281,278.0321,107.5217,125.8476,True
1,0.7000005,-0.6201566,0.2222758,0.258835,-1.4099,-4.371449,-2.732505,0.5251775,1.140003,0.4176013,-1.719607,0.6601001,10.3,78.7,-0.3522943,0.1177868,0.04977895,-0.466466,-4.159233,0.203506,0.6378011,1.347759,0.3866775,-0.1672453,0.1877306,-0.1091441,-0.9338763,0.3777317,-0.007587346,0.7535967,1.398802,0.2678492,0.3204044,1.169569,0.2385415,277.926,106.5883,126.8495,True
1,0.7111117,-0.6127201,0.2319432,0.2683578,-1.414026,-4.372839,-2.725725,0.5237131,1.140518,0.4163263,-1.712225,0.6641173,10.3,78.7,-0.3574908,0.138037,0.05320088,-0.4652888,-4.15456,0.2035433,0.6372407,1.347854,0.3863482,-0.1746726,0.1941476,-0.1080061,-0.9349394,0.3806788,-0.007206514,0.7536553,1.398643,0.2678876,0.3183727,1.170035,0.2374694,277.7868,105.789,127.6873,True
1,0.7222228,-0.6020942,0.2426845,0.2789505,-1.418426,-4.374206,-2.719134,0.5223194,1.141096,0.4150763,-1.704405,0.7038733,10.3,78.7,-0.3701516,0.1465515,0.06191952,-0.4639605,-4.150819,0.2047444,0.6367141,1.347876,0.3860168,-0.1810282,0.1941697,-0.1047379,-0.9359334,0.3832803,-0.006565757,0.7535776,1.398573,0.2679503,0.316286,1.170413,0.2363428,277.5874,105.3148,128.1658,True
1,0.7333339,-0.6010315,0.245938,0.2885188,-1.422801,-4.37536,-2.712343,0.5208735,1.141632,0.4137585,-1.696687,0.6941023,10.3,78.7,-0.3754646,0.1326612,0.07038,-0.4626619,-4.148965,0.2074128,0.6361408,1.347921,0.3856134,-0.1789627,0.1941448,-0.111155,-0.9374407,0.3859227,-0.006279468,0.7533588,1.398555,0.2680447,0.3141824,1.170763,0.2352265,277.3391,105.0762,128.4034,True
1,0.7444451,-0.5978549,0.2545089,0.2948661,-1.427345,-4.376774,-2.705627,0.5192406,1.142224,0.4124627,-1.688399,0.7458205,1.8,19.5,-0.3851621,0.1114148,0.06922284,-0.461863,-4.148009,0.2110643,0.6354882,1.34798,0.3852682,-0.1715889,0.1877212,-0.1176014,-0.9388798,0.3883188,-0.006042979,0.7529817,1.398399,0.2681179,0.3119539,1.171167,0.2341111,277.0778,104.4707,129.0498,True
1,0.7555562,-0.6042076,0.2416735,0.289606,-1.430981,-4.377542,-2.69863,0.5176973,1.142714,0.4111168,-1.679302,0.8192739,1.8,19.5,-0.3992635,0.06677771,0.06577915,-0.4614086,-4.149534,0.2173741,0.6348249,1.348085,0.3848391,-0.1704738,0.1930521,-0.1144388,-0.9401678,0.3911789,-0.005863215,0.7527205,1.39836,0.2681272,0.3096522,1.171608,0.2330373,276.8206,103.4548,130.1527,True
1,0.7666674,-0.6179824,0.2149034,0.2737933,-1.433992,-4.377749,-2.691241,0.5161405,1.143217,0.4097548,-1.6702,0.8188349,1.8,19.5,-0.4069652,0.04456043,0.05180798,-0.4613655,-4.150007,0.2225827,0.6339737,1.348122,0.3844435,-0.1715398,0.1962477,-0.115493,-0.9414024,0.3940031,-0.005603025,0.7524368,1.398294,0.2681682,0.3072595,1.172067,0.2319806,276.5871,102.1561,131.5578,True
1,0.7777785,-0.6296421,0.1934557,0.2558044,-1.436608,-4.378039,-2.683939,0.5145509,1.143717,0.4085681,-1.660408,0.8818246,1.8,19.5,-0.4037811,0.05739814,0.04442955,-0.4609154,-4.147637,0.2248752,0.6331483,1.348176,0.3841407,-0.1768546,0.2026555,-0.1154519,-0.9426706,0.3970495,-0.005204882,0.7522171,1.398111,0.2681675,0.3047551,1.172517,0.230934,276.3817,100.6804,133.1487,True
1,0.7888896,-0.637099,0.1912578,0.2483632,-1.439823,-4.378777,-2.676539,0.5129604,1.144174,0.4072487,-1.650405,0.9007399,1.8,19.5,-0.4080347,0.07025117,0.03924697,-0.4604312,-4.145006,0.227214,0.6322761,1.348253,0.3837299,-0.1842679,0.209067,-0.1132525,-0.9437684,0.4000677,-0.00475827,0.7519778,1.398056,0.268198,0.3022681,1.172863,0.2298874,276.198,99.30128,134.6853,True
1,0.8000008,-0.6360301,0.1891111,0.2451813,-1.443153,-4.379406,-2.669408,0.5112969,1.144667,0.4060116,-1.64093,0.8522061,1.7,18.6,-0.4239686,0.0981074,0.03005098,-0.4599647,-4.140552,0.2284904,0.6313242,1.348265,0.3832119,-0.1905881,0.2314565,-0.1132549,-0.9451926,0.404133,-0.004958273,0.7516237,1.397964,0.2683387,0.2998547,1.173087,0.2287796,276.0089,98.37514,135.7461,True
1,0.8111119,-0.6339018,0.1880412,0.2451882,-1.446567,-4.379886,-2.662303,0.5095817,1.145104,0.4046798,-1.631459,0.8525154,1.7,18.6,-0.437722,0.1119935,0.03349995,-0.4590448,-4.137331,0.2309959,0.6304027,1.348331,0.3825576,-0.1990183,0.2474692,-0.1089511,-0.946333,0.4081473,-0.004869856,0.7512072,1.397838,0.2683692,0.2975136,1.173213,0.2276024,275.8067,97.83456,136.3442,True
1,0.8222231,-0.6253961,0.1880928,0.2473432,-1.450407,-4.380517,-2.655159,0.5078959,1.145676,0.4035828,-1.622322,0.8219925,1.7,18.6,-0.4513413,0.1268415,0.04973789,-0.4575886,-4.133678,0.2331813,0.6294243,1.348343,0.3819685,-0.1989449,0.25814,-0.1047174,-0.9473865,0.4121966,-0.005001683,0.7508223,1.397691,0.2680936,0.2951603,1.173318,0.226355,275.5716,97.20322,136.9929,True
1,0.8333342,-0.6264722,0.1902195,0.2494701,-1.453985,-4.380996,-2.648064,0.5062388,1.146095,0.4022524,-1.613132,0.8272386,1.7,18.6,-0.4619747,0.1354341,0.04777774,-0.4567705,-4.129976,0.2353204,0.6284552,1.34849,0.3812959,-0.2001051,0.2538667,-0.1132109,-0.9489141,0.4155257,-0.004810468,0.7504761,1.397356,0.2681015,0.2927623,1.173448,0.2250629,275.3311,96.3737,137.8304,True
1,0.8444453,-0.6136985,0.1923957,0.2515839,-1.457558,-4.381502,-2.641662,0.5044799,1.146583,0.4009299,-1.604046,0.8177784,1.5,17.9,-0.4662316,0.136523,0.04782306,-0.4559689,-4.126886,0.2378139,0.6275391,1.348541,0.3806996,-0.1991666,0.2527621,-0.124941,-0.9507251,0.4188104,-0.004554804,0.7500106,1.397311,0.2679863,0.2903268,1.17363,0.2237467,275.087,95.38821,138.8152,True
1,0.8555565,-0.6052239,0.2073049,0.2472489,-1.461281,-4.382627,-2.635175,0.5028074,1.147129,0.3995931,-1.59528,0.7888841,1.5,17.9,-0.4693894,0.1236646,0.05839536,-0.4548487,-4.125378,0.2417495,0.6265237,1.348681,0.3802776,-0.1980433,0.2549066,-0.1207034,-0.9520204,0.4224081,-0.004613128,0.7494918,1.397354,0.2681241,0.2879051,1.173898,0.222476,274.8389,94.20782,139.9949,True
1,0.8666676,-0.5977876,0.2137116,0.2440088,-1.464789,-4.383684,-2.628664,0.5009781,1.147668,0.3982704,-1.587415,0.7068331,1.5,17.9,-0.4673216,0.1108747,0.0582573,-0.4541126,-4.12377,0.2453802,0.6255052,1.348679,0.3796177,-0.193741,0.2549043,-0.1164909,-0.9532104,0.4258296,-0.004552408,0.7491282,1.397301,0.2680502,0.2855077,1.174266,0.2212365,274.6428,92.53954,141.7215,True
1,0.8777788,-0.5861083,0.2243334,0.232224,-1.468041,-4.385101,-2.622466,0.4992191,1.148078,0.3969131,-1.579211,0.7389345,1.5,17.9,-0.4695623,0.1034933,0.05075837,-0.4535545,-4.121917,0.2489608,0.6243606,1.348707,0.3789175,-0.1968986,0.2666335,-0.1164944,-0.9545893,0.4299516,-0.004755873,0.7485553,1.397344,0.2680166,0.2831206,1.174735,0.2200127,274.4875,90.55823,143.7659,True
1,0.8888899,-0.5786811,0.2296477,0.226859,-1.471356,-4.386217,-2.616098,0.4975352,1.1486,0.3955443,-1.571319,0.7102969,1.5,17.9,-0.464331,0.1014162,0.04216894,-0.4530724,-4.119505,0.2517814,0.6232753,1.348727,0.378226,-0.2010821,0.2741061,-0.1111379,-0.9555672,0.4338006,-0.004649613,0.7481071,1.397274,0.2678843,0.2807214,1.175303,0.2188186,274.3543,88.48729,145.8906,True
1,0.900001,-0.5605885,0.2350182,0.2246887,-1.474828,-4.387406,-2.610435,0.4957544,1.149012,0.3941917,-1.564194,0.640748,1.5,17.3,-0.4633061,0.1121442,0.03265762,-0.4526559,-4.116011,0.2537295,0.6220282,1.348846,0.3773551,-0.1999912,0.2836736,-0.1111767,-0.9568029,0.4377033,-0.004762797,0.7474042,1.397133,0.2677212,0.278271,1.175974,0.2176594,274.2726,86.30452,148.1298,True
1,0.9111122,-0.5381951,0.231887,0.2236328,-1.478166,-4.388238,-2.60526,0.4940124,1.149558,0.3928361,-1.557017,0.6463367,1.5,17.3,-0.4621755,0.1152844,0.03905926,-0.4517089,-4.113243,0.2564864,0.6208153,1.348948,0.3766649,-0.2041871,0.286895,-0.1058139,-0.9578006,0.4417245,-0.004673847,0.7467647,1.397046,0.2675493,0.2758386,1.176688,0.2165706,274.2266,83.93365,150.586,True
1,0.9222233,-0.5179253,0.2223457,0.2194211,-1.48132,-4.388962,-2.600087,0.4922266,1.14987,0.3915725,-1.551094,0.5320221,1.5,17.3,-0.4524533,0.1279568,0.04653215,-0.4504849,-4.109543,0.2577767,0.6195222,1.349057,0.375859,-0.2072669,0.2847935,-0.09513143,-0.9585952,0.4453061,-0.004423244,0.7459983,1.397087,0.2673299,0.2734505,1.177447,0.215534,274.1693,81.35523,153.2758,True
1,0.9333345,-0.498747,0.2202634,0.2194257,-1.484643,-4.38974,-2.595165,0.4904456,1.150313,0.3902259,-1.545329,0.5186298,1.5,17.3,-0.4534182,0.1342863,0.05405495,-0.449213,-4.106343,0.2599967,0.6181276,1.349071,0.3750658,-0.2113638,0.2816462,-0.0790922,-0.9588413,0.4488564,-0.004057326,0.7452029,1.397014,0.2670989,0.2711047,1.178238,0.2145233,274.1353,78.47919,156.2677,True
1,0.9444456,-0.4731595,0.2139205,0.2130565,-1.487671,-4.390505,-2.590594,0.4886273,1.150784,0.3888233,-1.539461,0.528481,1.4,16.8,-0.4566645,0.1311399,0.05086238,-0.4484284,-4.103465,0.2627003,0.6167493,1.349159,0.3741901,-0.2198037,0.2838201,-0.07369627,-0.959734,0.4528841,-0.00381125,0.7444881,1.396809,0.2666783,0.268832,1.179026,0.2135109,274.1313,75.64996,159.207,True
1,0.9555568,-0.4539666,0.2064665,0.2035018,-1.490449,-4.391246,-2.586083,0.4868467,1.151187,0.3874679,-1.53455,0.4416792,1.4,16.8,-0.4673818,0.1248288,0.04771345,-0.4477088,-4.101002,0.266139,0.6153093,1.349353,0.3732283,-0.2272883,0.2880861,-0.07789528,-0.9608568,0.4569356,-0.003411509,0.7436541,1.396689,0.2664866,0.2666253,1.179784,0.2124736,274.152,72.94941,161.9886,True
1,0.9666679,-0.4304789,0.1893904,0.1865491,-1.49263,-4.391661,-2.582039,0.485038,1.15156,0.3860769,-1.530453,0.368372,1.4,16.8,-0.4641254,0.1290423,0.05198107,-0.4465706,-4.097783,0.268317,0.6138636,1.349394,0.3723364,-0.2411916,0.2923692,-0.08415759,-0.9621096,0.461081,-0.002641057,0.7428132,1.396572,0.2661977,0.264424,1.180567,0.2113696,274.1443,70.32246,164.6927,True
1,0.977779,-0.4101868,0.1701925,0.1717338,-1.494496,-4.391957,-2.578197,0.4833063,1.151888,0.3847992,-1.526672,0.3403971,1.4,16.8,-0.4651595,0.1461285,0.04680194,-0.4457785,-4.093269,0.2693875,0.6123393,1.349522,0.3714061,-0.2506361,0.2998691,-0.07450811,-0.9628329,0.4651927,-0.002246643,0.7419298,1.396602,0.266068,0.2622373,1.181407,0.2101877,274.1434,68.07255,167.0129,True
1,0.9888902,-0.3941609,0.1552932,0.1664835,-1.496642,-4.392077,-2.574265,0.4814825,1.152306,0.3834445,-1.523754,0.262064,1.4,16.8,-0.4608903,0.1610823,0.04049665,-0.4449274,-4.088067,0.2697763,0.6108649,1.349566,0.3704469,-0.2579601,0.3073746,-0.063797,-0.9631919,0.4697044,-0.001697499,0.7409757,1.396533,0.2658153,0.260126,1.182299,0.2089509,274.1804,66.23952,168.8965,True
1,1.000001,-0.3674828,0.1382527,0.1527178,-1.498188,-4.392205,-2.57109,0.4796486,1.152586,0.382169,-1.521068,0.2418384,1.5,16.2,-0.4629455,0.1888507,0.03436139,-0.4439223,-4.081085,0.2687769,0.6091266,1.349634,0.369267,-0.2705867,0.3233983,-0.0541451,-0.9637938,0.4744565,-0.001058607,0.7399734,1.396502,0.2654736,0.2581401,1.183218,0.2076701,274.2681,64.91118,170.2492,True
1,1.011112,-0.3397076,0.1137899,0.1453926,-1.499724,-4.391801,-2.568264,0.4777651,1.152767,0.3808298,-1.518441,0.236674,1.5,16.2,-0.4639884,0.2027451,0.03022531,-0.4430509,-4.075039,0.2686506,0.6075271,1.34961,0.3682697,-0.2810176,0.342649,-0.03810079,-0.9636489,0.4799873,-0.0007355651,0.7388954,1.396384,0.2652011,0.2562905,1.184146,0.2063655,274.3708,63.79392,171.3495,True
1,1.022224,-0.3076847,0.09145932,0.1348499,-1.500908,-4.391447,-2.56584,0.4758808,1.153016,0.3795519,-1.516971,0.1312019,1.5,16.2,-0.4555438,0.2145451,0.0163961,-0.442579,-4.068414,0.2674946,0.6058077,1.349697,0.3673091,-0.2905286,0.3607872,-0.03486425,-0.9641037,0.4854552,-0.0002274339,0.7378298,1.396386,0.2648423,0.2544719,1.185128,0.2050142,274.4793,62.68325,172.4268,True
1,1.033335,-0.2767484,0.0765997,0.1274607,-1.502127,-4.391123,-2.563725,0.4740091,1.153163,0.3782558,-1.515408,0.1406652,1.5,16.2,-0.4620643,0.2221881,-0.0005302653,-0.4424437,-4.061734,0.26691,0.6040547,1.349845,0.3662026,-0.2990312,0.3608071,-0.03586718,-0.9648616,0.490247,0.0003214435,0.7367923,1.396253,0.2646291,0.2527039,1.186107,0.2036487,274.6503,62.01543,173.0537,True
1,1.044446,-0.2436619,0.05643971,0.1264986,-1.503354,-4.390228,-2.562008,0.4721884,1.15329,0.3767908,-1.514102,0.1172936,3.4,14.3,-0.4727782,0.2255028,-0.007861428,-0.4420911,-4.055541,0.2670535,0.6023072,1.349841,0.365134,-0.3021919,0.3650825,-0.0337093,-0.9651168,0.4953538,0.0008759137,0.7356941,1.396186,0.2643695,0.2509619,1.187019,0.2022581,274.8451,61.34448,173.6831,True
1,1.055557,-0.2212446,0.04049325,0.1201858,-1.504276,-4.389534,-2.560312,0.4703591,1.153446,0.3755107,-1.512898,0.1082063,3.4,14.3,-0.4791133,0.2436731,-0.01084255,-0.4414243,-4.047879,0.2657624,0.6005636,1.349863,0.3641586,-0.3042709,0.378937,-0.03374846,-0.9657367,0.5009767,0.001057275,0.7345805,1.396078,0.2638907,0.2492259,1.187814,0.2008469,275.0112,60.88408,174.0899,True
1,1.066668,-0.1945342,0.01601494,0.1107271,-1.50475,-4.388455,-2.559102,0.4686283,1.153558,0.3740816,-1.511898,0.08966243,3.4,14.3,-0.4759272,0.243658,-0.01087396,-0.4408203,-4.041646,0.2654279,0.5988976,1.349813,0.3630977,-0.3062735,0.3885502,-0.02415925,-0.9656366,0.5065156,0.001345163,0.7334434,1.396041,0.2635605,0.2474882,1.188453,0.1994226,275.1436,60.26159,174.68,True
1,1.077779,-0.1731315,-0.01810445,0.09386475,-1.504423,-4.387066,-2.557974,0.4668693,1.15359,0.3728249,-1.51073,0.1052761,3.4,14.3,-0.457875,0.2425475,-0.01638427,-0.4404762,-4.035666,0.2645118,0.5971048,1.349898,0.3619728,-0.2966016,0.3896183,-0.01681882,-0.9656942,0.5119165,0.001283644,0.7322455,1.396085,0.2630088,0.2457657,1.188918,0.1979479,275.2246,59.47039,175.4632,True
1,1.08889,-0.1539016,-0.03730074,0.07904151,-1.504126,-4.386092,-2.556928,0.465098,1.153768,0.371496,-1.510091,0.05691021,3.4,14.3,-0.4483412,0.2489663,-0.02493563,-0.4401428,-4.028554,0.2628002,0.595454,1.349947,0.3609102,-0.2901729,0.3789628,-0.01046813,-0.9656206,0.516518,0.001666074,0.7311115,1.396056,0.262593,0.2440735,1.189218,0.1964238,275.2423,58.94398,175.9628,True
1,1.100002,-0.1303793,-0.06712881,0.06641534,-1.503373,-4.38441,-2.556427,0.4634177,1.153764,0.3702693,-1.50922,0.07865849,9.7,16,-0.4230553,0.235143,-0.04556059,-0.4409566,-4.023471,0.2622937,0.593519,1.34994,0.3598669,-0.2762492,0.3640506,0.001158709,-0.9650433,0.5209307,0.001861816,0.7299851,1.395734,0.2619605,0.2424675,1.189352,0.1948411,275.2399,58.79247,176.0832,True
1,1.111113,-0.104729,-0.08948115,0.05800915,-1.502787,-4.382618,-2.556446,0.4615965,1.153702,0.3687632,-1.508459,0.06839091,9.7,16,-0.4029362,0.2318997,-0.05645276,-0.4415345,-4.018303,0.2614047,0.5917369,1.350064,0.3589754,-0.2719439,0.3565932,0.00753122,-0.9646752,0.5254046,0.002210424,0.7286688,1.395762,0.2614427,0.240933,1.189339,0.1931947,275.2065,59.08606,175.704,True
1,1.122224,-0.07809405,-0.09157151,0.05055244,-1.502567,-4.381574,-2.556455,0.4599574,1.153659,0.3676927,-1.508185,0.02398364,9.7,16,-0.3764173,0.234011,-0.06947315,-0.4420522,-4.011505,0.2584931,0.5899765,1.350029,0.3579512,-0.2633153,0.3459532,0.02239805,-0.96379,0.5297455,0.002644785,0.7273905,1.395822,0.2610121,0.2394101,1.189253,0.1914967,275.1363,59.50059,175.1744,True
1,1.133335,-0.05254493,-0.08617784,0.04837735,-1.502505,-4.380655,-2.556767,0.4583631,1.153497,0.3665664,-1.508024,0.01413212,9.7,16,-0.3572898,0.2403872,-0.07812525,-0.4423409,-4.004157,0.2552408,0.5882385,1.349863,0.3567002,-0.2545666,0.3396025,0.04683498,-0.9623732,0.5341585,0.002820021,0.7260514,1.395919,0.2606511,0.2379572,1.18908,0.1897744,275.1002,59.87265,174.7034,True
1,1.144446,-0.02698414,-0.08291358,0.04728433,-1.502519,-4.37961,-2.557319,0.4567329,1.153242,0.3653319,-1.507438,0.05304055,9.7,16,-0.3476116,0.2466801,-0.07071103,-0.4421487,-3.996815,0.2523942,0.5864902,1.349759,0.3556597,-0.2427522,0.3385301,0.0563021,-0.9614262,0.5387109,0.002589658,0.7246346,1.395961,0.2601285,0.2365087,1.188827,0.1879878,275.0776,60.11554,174.3445,True
1,1.155557,0.001796324,-0.08813849,0.04942926,-1.502428,-4.378323,-2.558334,0.4552085,1.153116,0.3642991,-1.507124,0.02784392,17.4,19.5,-0.3263789,0.2487804,-0.07941755,-0.442506,-3.98964,0.2488625,0.5848145,1.349639,0.354398,-0.2267317,0.3204052,0.06684747,-0.9602155,0.5424611,0.00273986,0.7233218,1.395927,0.2595882,0.2351323,1.188468,0.1862711,275.0116,60.46259,173.8023,True
1,1.166668,0.01991669,-0.09126544,0.05263111,-1.502314,-4.376928,-2.559119,0.4536958,1.153139,0.3631659,-1.506814,0.02781835,17.4,19.5,-0.3168633,0.2306052,-0.07647166,-0.4427766,-3.984649,0.2477627,0.5831946,1.349571,0.3533494,-0.2171716,0.3065345,0.06785122,-0.9594171,0.5460719,0.002799249,0.7220657,1.395965,0.2590063,0.2337717,1.188019,0.1846853,274.9548,60.64819,173.4529,True
1,1.17778,0.04657259,-0.09973529,0.04733847,-1.501842,-4.375567,-2.560635,0.4523474,1.153004,0.3621635,-1.506746,0.005658459,17.4,19.5,-0.2849454,0.2187158,-0.0747504,-0.4430813,-3.9796,0.2453823,0.5816479,1.349614,0.3522892,-0.1970411,0.2798425,0.06451821,-0.9587875,0.5488656,0.002779541,0.720814,1.395917,0.2584407,0.2323816,1.187492,0.1832257,274.8921,60.51261,173.4908,True
1,1.188891,0.0625786,-0.1093696,0.0303489,-1.500954,-4.374406,-2.56194,0.4510419,1.152749,0.3612719,-1.506058,0.06251677,17.4,19.5,-0.2689853,0.2314923,-0.08225036,-0.4434376,-3.971974,0.2410952,0.5800828,1.349519,0.3512959,-0.1789555,0.2542379,0.06866117,-0.9578469,0.5513086,0.002769954,0.7194714,1.396022,0.2577865,0.230996,1.1869,0.1818901,274.77,60.15557,173.7952,True
1,1.200002,0.06895524,-0.1062086,0.0207396,-1.500288,-4.373576,-2.562977,0.4498163,1.152532,0.3602936,-1.506303,-0.0232152,21,20.3,-0.246657,0.2357002,-0.08882044,-0.4439798,-3.965003,0.2368269,0.5785351,1.349464,0.3503358,-0.1693845,0.241469,0.07931976,-0.9556413,0.5544804,0.003766509,0.7180872,1.395956,0.2564526,0.2296125,1.186303,0.1806258,274.6093,59.76842,174.1772,True
1,1.211113,0.08062157,-0.09351077,-0.0006440468,-1.499409,-4.373473,-2.5642,0.4487492,1.152298,0.3594806,-1.505756,0.0500568,21,20.3,-0.2211574,0.2345627,-0.09440296,-0.4445732,-3.95839,0.2326924,0.5769501,1.349449,0.3492618,-0.1650119,0.2372241,0.09100457,-0.9541973,0.5574802,0.00375772,0.7167895,1.396069,0.2557411,0.228376,1.185648,0.1794572,274.5054,59.89215,174.0424,True
1,1.222224,0.0955037,-0.08502139,-0.01348175,-1.498613,-4.373091,-2.565789,0.4476522,1.151846,0.358254,-1.505106,0.05865743,21,20.3,-0.2085171,0.2324889,-0.1083913,-0.4456108,-3.951878,0.2286979,0.5753764,1.349417,0.348278,-0.1594846,0.2393915,0.1111983,-0.9521179,0.5609058,0.003561179,0.7153736,1.396259,0.255549,0.2272549,1.184913,0.1783663,274.436,60.30219,173.5966,True
1,1.233335,0.1135998,-0.08071,-0.01458155,-1.498039,-4.372586,-2.567672,0.4466405,1.151489,0.3574703,-1.504995,0.009459227,21,20.3,-0.1957482,0.2303059,-0.1085492,-0.4464118,-3.945385,0.2246834,0.5737081,1.349414,0.3472879,-0.1572253,0.2405019,0.1261219,-0.9497945,0.5645052,0.003515373,0.7141173,1.396141,0.2551422,0.2261726,1.184138,0.1773267,274.34,60.6856,173.1733,True
1,1.244446,0.1327595,-0.07101089,-0.003996097,-1.497967,-4.371862,-2.569884,0.4454819,1.151026,0.3563375,-1.505081,-0.008045542,21,20.3,-0.1829738,0.2366591,-0.1107426,-0.4469871,-3.938137,0.2200107,0.5720722,1.349371,0.3463228,-0.156042,0.2351941,0.1378403,-0.9479011,0.5672865,0.003446663,0.7126786,1.396248,0.2545431,0.2251143,1.183334,0.1763595,274.2542,61.19807,172.6597,True
1,1.255558,0.1465886,-0.06347436,0.002345197,-1.497919,-4.371364,-2.572016,0.4443947,1.150609,0.3555999,-1.505121,-0.003702355,20.2,19.5,-0.1712278,0.2547713,-0.1170895,-0.4476492,-3.929512,0.2137371,0.5705017,1.349337,0.3452773,-0.1485694,0.2373311,0.1420506,-0.9457455,0.5710083,0.003132943,0.711293,1.396365,0.2540133,0.2240505,1.182478,0.175396,274.2006,61.36444,172.539,True
1,1.266669,0.1646372,-0.04316201,0.005414005,-1.498111,-4.371428,-2.574403,0.4433062,1.150104,0.3547764,-1.505171,-0.004807106,20.2,19.5,-0.17564,0.2602674,-0.1340432,-0.4489807,-3.921444,0.2088049,0.5689399,1.34919,0.3443031,-0.1420461,0.2384137,0.1536971,-0.9436464,0.5743766,0.002465555,0.7099562,1.396519,0.2534361,0.2230206,1.181541,0.1744419,274.122,61.19921,172.7156,True
1,1.27778,0.1752164,-0.01750116,0.01591476,-1.498898,-4.371695,-2.576694,0.4423004,1.149517,0.3541734,-1.504856,0.02870368,20.2,19.5,-0.1735326,0.2495795,-0.1309611,-0.449842,-3.915403,0.2052519,0.5673811,1.349053,0.3433383,-0.139879,0.2437598,0.1579465,-0.9414333,0.5782639,0.00198006,0.7086321,1.396584,0.2528977,0.2219391,1.18053,0.1734244,274.0317,60.67249,173.2404,True
1,1.288891,0.1762272,-0.0004724246,0.01262181,-1.499205,-4.372099,-2.578604,0.441281,1.148915,0.3534036,-1.504874,-0.002023463,20.2,19.5,-0.1704309,0.2485668,-0.1384582,-0.4510479,-3.908294,0.2008671,0.5657665,1.348875,0.3423777,-0.1269762,0.2543934,0.1663018,-0.9393219,0.5820618,0.0006844324,0.7073038,1.39669,0.2523651,0.2208595,1.179419,0.1724139,273.8928,60.45654,173.3843,True
1,1.300002,0.1836148,0.01972391,0.0007839948,-1.499374,-4.37308,-2.580857,0.4403145,1.148251,0.3528209,-1.504575,0.02714116,18.4,18.3,-0.1665599,0.2371224,-0.172688,-0.4536972,-3.901789,0.1968385,0.5641591,1.348636,0.3414793,-0.1236605,0.2714509,0.1758278,-0.9367893,0.5865052,-0.0003211772,0.7059819,1.396846,0.2518075,0.2197594,1.178214,0.1714813,273.7383,60.2799,173.4605,True
1,1.311113,0.1878293,0.03246955,-0.007817242,-1.499359,-4.373919,-2.582967,0.4393239,1.147694,0.3518806,-1.503984,0.05369949,18.4,18.3,-0.1623747,0.2403796,-0.1822885,-0.4554687,-3.894557,0.1919939,0.5626001,1.34841,0.3405542,-0.1246881,0.2863677,0.1757999,-0.934834,0.5911259,-0.001625327,0.7046481,1.396915,0.2512908,0.218644,1.17692,0.1707135,273.5739,59.61655,174.0513,True
1,1.322224,0.1994846,0.05054889,-0.0196455,-1.499455,-4.375335,-2.585511,0.4384207,1.147108,0.3513074,-1.504157,-0.01634374,18.4,18.3,-0.1517165,0.2456731,-0.1844759,-0.4569702,-3.887136,0.1866263,0.5610542,1.348161,0.3395042,-0.1235713,0.3012984,0.1778922,-0.9326491,0.5962323,-0.003212838,0.703298,1.397045,0.2508385,0.2174547,1.175582,0.1700935,273.4044,59.11404,174.5617,True
1,1.333336,0.2153821,0.07396883,-0.03151159,-1.499613,-4.377108,-2.588277,0.437547,1.146405,0.3503771,-1.5039,0.02356562,18.4,18.3,-0.1485202,0.2445774,-0.182377,-0.458289,-3.880239,0.1822028,0.5595114,1.347937,0.3385358,-0.1213472,0.3130139,0.183164,-0.9304392,0.600897,-0.004785434,0.7020577,1.397148,0.2503412,0.2161959,1.174221,0.1696349,273.2393,58.63289,175.1196,True
1,1.344447,0.2281452,0.07930818,-0.03580724,-1.499731,-4.378196,-2.591139,0.4365427,1.145991,0.3499825,-1.504213,-0.02891827,18.4,18.3,-0.1442505,0.2317102,-0.1750702,-0.4595684,-3.874809,0.1788057,0.5580025,1.347706,0.3375802,-0.1234907,0.324754,0.1778394,-0.9286112,0.6064642,-0.006751646,0.7008023,1.396797,0.2495339,0.2148385,1.172886,0.1692574,273.0587,57.83276,176.0648,True
1,1.355558,0.2366739,0.07500015,-0.04857102,-1.499259,-4.379319,-2.593988,0.4355949,1.145495,0.3494124,-1.504354,-0.01270277,14.7,15.6,-0.1379633,0.223207,-0.1805156,-0.4611135,-3.868961,0.174996,0.5565994,1.347517,0.3365271,-0.1160577,0.3215548,0.176709,-0.9266219,0.6112014,-0.008496815,0.6993883,1.397168,0.2492824,0.2134859,1.171555,0.1689985,272.9007,56.99274,177.0524,True
1,1.366669,0.2441587,0.06324344,-0.05916761,-1.498487,-4.380088,-2.596811,0.4347785,1.144941,0.3483849,-1.504251,0.009285698,14.7,15.6,-0.1412438,0.216879,-0.1847957,-0.4628286,-3.862857,0.1714018,0.5551212,1.347281,0.335578,-0.1054253,0.3076708,0.1776982,-0.9246149,0.614694,-0.00985343,0.6980549,1.397292,0.2487082,0.2121181,1.17022,0.1688085,272.7557,55.8411,178.3595,True
1,1.37778,0.2484596,0.04827647,-0.07080308,-1.497515,-4.380708,-2.599652,0.4338664,1.144493,0.34777,-1.504077,0.01580468,14.7,15.6,-0.1390183,0.2071543,-0.1699873,-0.4638715,-3.858022,0.168564,0.5536616,1.347149,0.3346128,-0.1011575,0.2991863,0.1776703,-0.9228204,0.6193542,-0.01193709,0.6968244,1.397123,0.2480698,0.2107645,1.16889,0.1686943,272.5693,54.66772,179.6388,True
1,1.388891,0.2549018,0.03009241,-0.08667517,-1.496256,-4.381148,-2.602717,0.4328491,1.143974,0.3471653,-1.503873,0.01835231,14.7,15.6,-0.1282306,0.2123329,-0.1583293,-0.464809,-3.851801,0.1640979,0.5521843,1.347006,0.3336143,-0.08938192,0.2917041,0.1850131,-0.9206377,0.6228786,-0.01344284,0.6955824,1.39726,0.2474434,0.2094338,1.167564,0.1685866,272.4164,53.54457,180.9648,True
1,1.400002,0.2560031,0.01617445,-0.09938013,-1.494804,-4.381688,-2.605544,0.4319094,1.143502,0.3465636,-1.503749,0.01116513,10.2,12.8,-0.1262363,0.2092403,-0.1711587,-0.4667451,-3.845938,0.1601721,0.5507096,1.346837,0.3325887,-0.07976463,0.290659,0.1859661,-0.9188305,0.6276983,-0.0159534,0.6944354,1.397156,0.2467349,0.20817,1.166224,0.1683482,272.2797,52.52966,182.2355,True
1,1.411114,0.2613474,0.007609595,-0.1099878,-1.493401,-4.382349,-2.608487,0.4310381,1.14306,0.3459847,-1.503849,-0.009299575,10.2,12.8,-0.1251316,0.2038421,-0.1626981,-0.4679696,-3.840668,0.1570612,0.5491983,1.346564,0.3315358,-0.08297409,0.2853409,0.1860144,-0.9168267,0.6314766,-0.01721787,0.6931241,1.397172,0.2460775,0.2070027,1.164858,0.1679528,272.1166,52.59755,182.2848,True
1,1.422225,0.2613412,0.008655664,-0.1142581,-1.492305,-4.383307,-2.611268,0.4300956,1.142363,0.3450325,-1.503538,0.02840909,10.2,12.8,-0.1135009,0.1985145,-0.1692469,-0.4697342,-3.835579,0.1533597,0.5477029,1.346294,0.3304586,-0.08078007,0.289622,0.1902383,-0.9146909,0.6360205,-0.01924959,0.6917263,1.397502,0.2457845,0.2058975,1.163456,0.1674119,271.9512,53.71223,181.1771,True
1,1.433336,0.2612917,0.02353923,-0.1196699,-1.491398,-4.384717,-2.614054,0.4291789,1.141758,0.3444042,-1.503551,-0.001462984,10.2,12.8,-0.1072799,0.1954197,-0.1842445,-0.4719079,-3.83002,0.1495602,0.5461878,1.345999,0.3293867,-0.07538834,0.2906814,0.1955083,-0.912367,0.6401122,-0.0211953,0.6903454,1.397691,0.2451425,0.2048497,1.162016,0.1667807,271.7508,55.44404,179.4033,True
1,1.444447,0.263403,0.02674003,-0.120755,-1.490419,-4.385837,-2.616799,0.4281765,1.141196,0.343951,-1.503357,0.01777861,10.2,12.8,-0.1061474,0.2071231,-0.1830897,-0.4734727,-3.823494,0.1448903,0.5446463,1.345704,0.3282797,-0.06889015,0.2842939,0.2071669,-0.9098216,0.6436858,-0.0228406,0.6888812,1.397781,0.2444997,0.2038228,1.160554,0.1661033,271.5652,57.38065,177.448,True
1,1.455558,0.2601834,0.03418093,-0.1218611,-1.489535,-4.387091,-2.619459,0.4272354,1.14053,0.3433359,-1.503325,0.002654458,5.9,10.3,-0.1125341,0.2338843,-0.1934457,-0.4753061,-3.81475,0.1388836,0.5430174,1.345289,0.3270345,-0.06228605,0.2960414,0.2230335,-0.9070535,0.6484977,-0.02544437,0.6874424,1.397944,0.2438107,0.2027297,1.159069,0.1653704,271.4183,59.09815,175.7389,True
1,1.466669,0.2644693,0.02888616,-0.1186427,-1.488498,-4.387815,-2.622591,0.4263406,1.139873,0.342258,-1.503224,0.009233576,5.9,10.3,-0.1113952,0.2466498,-0.1912226,-0.4769865,-3.807121,0.1334119,0.5414251,1.344876,0.3259137,-0.06956194,0.3056778,0.2369406,-0.9040484,0.6532353,-0.02743562,0.6860753,1.397954,0.2431405,0.2015995,1.157549,0.1646934,271.2326,61.7477,173.0282,True
1,1.47778,0.2687895,0.01082165,-0.1132156,-1.487313,-4.387908,-2.625723,0.4254769,1.139213,0.3416357,-1.503111,0.01023688,5.9,10.3,-0.1038483,0.2593713,-0.1879912,-0.4785173,-3.799373,0.1274554,0.539903,1.344613,0.3247926,-0.06411242,0.3099495,0.2464577,-0.9011493,0.6579058,-0.02989425,0.6847219,1.397984,0.2424242,0.2004174,1.156014,0.1641601,271.0283,65.20214,169.5141,True
1,1.488891,0.2784637,-0.01579758,-0.1151926,-1.485699,-4.387674,-2.629139,0.4246503,1.138771,0.3413136,-1.5035,-0.03572942,5.9,10.3,-0.1062267,0.2649497,-0.2156184,-0.4813893,-3.791778,0.1220753,0.5385132,1.344231,0.3237219,-0.06514844,0.3003606,0.2518195,-0.8983737,0.6614254,-0.03133608,0.68349,1.398088,0.2417545,0.1991674,1.154483,0.163761,270.8474,66.75838,168.0541,True
1,1.500003,0.278496,-0.02645737,-0.1161968,-1.48423,-4.38776,-2.632209,0.4238918,1.138163,0.3406882,-1.503446,0.005280121,5.9,10.3,-0.1051898,0.2553414,-0.2135814,-0.4833989,-3.785844,0.117994,0.5370668,1.343992,0.3226662,-0.06831793,0.2875948,0.2561384,-0.8956519,0.6649758,-0.0328469,0.6822046,1.398145,0.2411609,0.1979243,1.152933,0.1633827,270.6864,66.70065,168.3344,True
1,1.511114,0.2902626,-0.04028997,-0.1225251,-1.48243,-4.387893,-2.635942,0.4232399,1.137411,0.3395667,-1.503628,-0.01679269,3.2,7.9,-0.08682066,0.2667857,-0.1912929,-0.4844168,-3.77826,0.1117998,0.5357577,1.343687,0.3216469,-0.06079039,0.2769295,0.2646074,-0.8925643,0.668346,-0.03463201,0.6810337,1.398228,0.2404439,0.1968641,1.151315,0.1630158,270.4833,70.64567,164.5104,True
1,1.522225,0.297735,-0.04560709,-0.124629,-1.480798,-4.38799,-2.639518,0.4225889,1.136805,0.3389268,-1.50327,0.0328422,3.2,7.9,-0.07826394,0.2763439,-0.1912931,-0.4862058,-3.770097,0.1053054,0.5343145,1.343437,0.3205266,-0.05874826,0.2598528,0.2592911,-0.8900993,0.6713073,-0.03606346,0.6797488,1.398215,0.239753,0.1959922,1.149656,0.1626574,270.2683,90.174,145.0114,True
1,1.533336,0.3169201,-0.04872124,-0.1203482,-1.479596,-4.387922,-2.643665,0.421923,1.136149,0.3384454,-1.503831,-0.05160218,3.2,7.9,-0.06867331,0.2666675,-0.1861419,-0.4878586,-3.764035,0.1004307,0.5330359,1.3432,0.319474,-0.05008107,0.2385657,0.2773612,-0.8865035,0.6739098,-0.03749358,0.6785133,1.398331,0.2390115,0.1951801,1.147997,0.1622239,270.1702,134.8631,100.4278,True
1,1.544447,0.3296828,-0.04011888,-0.1129407,-1.478749,-4.388164,-2.647719,0.4212562,1.135645,0.3379591,-1.503661,0.01592457,3.2,7.9,-0.05817166,0.273179,-0.2043011,-0.4904749,-3.756111,0.09381944,0.5317185,1.342886,0.3185291,-0.05012913,0.2268302,0.2763208,-0.8836337,0.6765622,-0.03857349,0.6771699,1.398322,0.2382827,0.1944194,1.146298,0.1616184,270.2281,175.7514,59.67792,True
1,1.555558,0.3552107,-0.02505273,-0.1002575,-1.478278,-4.388676,-2.652488,0.4208288,1.134974,0.3373914,-1.504088,-0.03924586,1.7,6.1,-0.05090776,0.2615421,-0.2183263,-0.4931945,-3.750264,0.08907794,0.5305146,1.34259,0.3176265,-0.05115685,0.2129924,0.2827557,-0.8804346,0.6790193,-0.03959695,0.6760149,1.398422,0.2375286,0.1937598,1.144528,0.1608972,270.4054,198.8282,36.57512,True
1,1.566669,0.3668889,-0.009035178,-0.09928226,-1.477604,-4.389476,-2.656961,0.4202766,1.13453,0.337198,-1.503958,0.01210126,1.7,6.1,-0.0456948,0.2573368,-0.2269371,-0.4957416,-3.743958,0.08399876,0.529277,1.342269,0.3166995,-0.04901899,0.2140496,0.283792,-0.8773949,0.6822041,-0.04108405,0.674893,1.398499,0.2367966,0.1931695,1.142692,0.160153,270.6422,210.6283,24.63487,True
1,1.577781,0.4008912,0.01985793,-0.09520558,-1.477384,-4.39097,-2.66245,0.4200824,1.133776,0.3366268,-1.504536,-0.05302017,1.7,6.1,-0.04150596,0.260583,-0.2354809,-0.4984596,-3.737188,0.07846764,0.5280381,1.342093,0.3157654,-0.04578334,0.2034267,0.2869591,-0.8745528,0.6853313,-0.0430207,0.6738688,1.398255,0.2358017,0.1925803,1.140831,0.1594669,270.9156,218.6277,16.51163,True
1,1.588892,0.4252847,0.05295961,-0.09540775,-1.477177,-4.392924,-2.667607,0.41983,1.132969,0.3360186,-1.504175,0.03339894,1.7,6.1,-0.04251683,0.2606145,-0.2365476,-0.5010951,-3.731011,0.07373414,0.52688,1.341751,0.3149717,-0.04802445,0.1789185,0.2827895,-0.871528,0.6869071,-0.04340606,0.6727797,1.398299,0.2350986,0.1920485,1.138919,0.1589351,271.1875,223.2688,11.78699,True
1,1.600003,0.4369296,0.07642584,-0.09661398,-1.476945,-4.394882,-2.672652,0.4196385,1.132185,0.3354731,-1.505022,-0.07794268,1.7,6.1,-0.04580721,0.2681215,-0.2417766,-0.5035985,-3.723462,0.06775588,0.5257674,1.341416,0.3140502,-0.04061644,0.1820656,0.2763031,-0.8688787,0.689649,-0.04512327,0.6716375,1.398558,0.2346361,0.1915045,1.136983,0.1586271,271.4742,226.3161,8.694545,True
1,1.611114,0.4580879,0.1233967,-0.09156535,-1.47753,-4.397902,-2.677998,0.4194674,1.131313,0.3351235,-1.504623,0.03695523,0.7,5.4,-0.03861308,0.2586789,-0.2632408,-0.5071554,-3.71781,0.06311905,0.5246457,1.340953,0.313123,-0.03739257,0.1958858,0.2740942,-0.8661463,0.6930536,-0.04719601,0.6706111,1.398606,0.2339313,0.1909851,1.134963,0.1585656,271.675,229.2279,5.888227,True
1,1.622225,0.4686576,0.151158,-0.08640385,-1.478019,-4.400634,-2.683311,0.4193403,1.130431,0.3346493,-1.504252,0.03338249,0.7,5.4,-0.02792361,0.2703621,-0.2643049,-0.5098318,-3.710343,0.05663558,0.5235696,1.340542,0.3122342,-0.03307498,0.2044052,0.2772215,-0.8630921,0.6965995,-0.04927753,0.6695621,1.398657,0.2332466,0.1903844,1.132826,0.1586787,271.8728,232.356,2.952146,True
1,1.633336,0.4887611,0.200335,-0.06752388,-1.479594,-4.404133,-2.689091,0.4193628,1.129503,0.33407,-1.504444,-0.01787188,0.7,5.4,-0.01418695,0.276835,-0.2803529,-0.5131304,-3.702739,0.04957448,0.5226295,1.340128,0.3109727,-0.02450615,0.2086466,0.2803142,-0.8600007,0.699985,-0.05153909,0.6686568,1.398715,0.2325432,0.1897037,1.13057,0.1589314,272.137,235.3307,0.1705805,True
1,1.644447,0.4929514,0.222774,-0.0580743,-1.480537,-4.407125,-2.694297,0.4193569,1.128634,0.3334956,-1.50424,0.01870665,0.7,5.4,-0.006733686,0.268244,-0.2762261,-0.5157904,-3.69692,0.04441727,0.5217679,1.339735,0.3100932,-0.01066265,0.1990316,0.2801652,-0.8573653,0.7028623,-0.0539607,0.6678855,1.398745,0.2318404,0.1889424,1.12821,0.1593564,272.4448,238.545,357.1462,True
1,1.655559,0.4907298,0.2537162,-0.04866284,-1.482037,-4.41077,-2.699374,0.4194663,1.127777,0.3331487,-1.504578,-0.03125647,0.5,5,0.01465115,0.2434732,-0.2563981,-0.5178421,-3.692836,0.03997778,0.52087,1.339416,0.3090706,-0.003321216,0.1872568,0.271589,-0.8547682,0.7050141,-0.05564968,0.6669288,1.398914,0.2312734,0.188125,1.125774,0.1599162,272.7923,242.0753,353.8918,True
1,1.66667,0.4885468,0.2718396,-0.0455663,-1.483203,-4.414185,-2.704439,0.4195226,1.127021,0.3328717,-1.503834,0.06827112,0.5,5,0.01362231,0.2370325,-0.248986,-0.5202879,-3.687461,0.03527783,0.5200471,1.339034,0.3082471,-0.00340879,0.1829715,0.2652052,-0.8521801,0.7076537,-0.05724811,0.6660317,1.398967,0.2306316,0.1873128,1.123286,0.1605621,273.1594,245.7967,350.5282,True
1,1.677781,0.4747096,0.2686123,-0.04340919,-1.48406,-4.416988,-2.709062,0.4196693,1.12632,0.3326209,-1.50355,0.0251948,0.5,5,0.02130499,0.230379,-0.2224796,-0.5218027,-3.682477,0.03044446,0.5192981,1.338725,0.3072991,0.0008151382,0.1722813,0.2630416,-0.8495793,0.7095631,-0.05883243,0.6651257,1.399059,0.2299528,0.1865509,1.120785,0.1612099,273.5646,248.3412,348.3347,True
1,1.688892,0.460932,0.2451085,-0.04753162,-1.484232,-4.419059,-2.713609,0.419806,1.125766,0.3322177,-1.503418,0.01185738,0.5,5,0.02871412,0.2218354,-0.223678,-0.5241399,-3.677922,0.02579671,0.5184917,1.338215,0.3065772,0.01240282,0.1626334,0.2544157,-0.8471771,0.7115831,-0.06058558,0.6642857,1.399038,0.2292838,0.1858907,1.11834,0.1618728,273.9932,250.0912,346.8477,True
1,1.700003,0.4471161,0.234413,-0.04746261,-1.484668,-4.421342,-2.717947,0.4199627,1.125118,0.3319774,-1.502869,0.05018883,0.5,5,0.0446856,0.2100042,-0.218591,-0.5262625,-3.67381,0.02118758,0.517656,1.337851,0.3058469,0.02287012,0.1455252,0.2415703,-0.844915,0.7131817,-0.06221198,0.6635032,1.399093,0.2284677,0.1854809,1.116377,0.1622907,274.364,259.7653,337.2068,True
1,1.711114,0.4226734,0.2151191,-0.05479004,-1.48467,-4.423285,-2.721729,0.420076,1.124631,0.3319311,-1.502672,0.01755517,0.2,4.2,0.06601992,0.212016,-0.2166477,-0.5285709,-3.66887,0.01551877,0.5170372,1.33761,0.3052132,0.03445588,0.1241682,0.2351022,-0.8426652,0.714179,-0.06354941,0.6627086,1.39901,0.2277367,0.1855709,1.115795,0.1625247,274.2099,264.4478,332.448,True
1,1.722225,0.3960429,0.2118191,-0.05795025,-1.484964,-4.425608,-2.724998,0.4202555,1.124194,0.3319378,-1.502502,0.01539939,0.2,4.2,0.08517268,0.2076595,-0.2157945,-0.5307904,-3.66449,0.01035224,0.5165779,1.33739,0.3045595,0.04399516,0.09967445,0.2339933,-0.8402305,0.7155333,-0.06553693,0.6620601,1.398651,0.2268367,0.1858446,1.1155,0.1625261,273.8452,264.0351,332.832,True
1,1.733337,0.3683349,0.2138207,-0.06540345,-1.485037,-4.428223,-2.727955,0.4205015,1.123708,0.3318243,-1.501975,0.04810861,0.2,4.2,0.09054977,0.1990287,-0.2063349,-0.5327808,-3.660717,0.005986253,0.5160397,1.337212,0.3039861,0.05027458,0.07196428,0.2286546,-0.8381373,0.7159986,-0.06678861,0.6614352,1.398788,0.2262557,0.1861512,1.115277,0.1624977,273.4572,262.8097,334.0047,True
1,1.744448,0.3512741,0.2180217,-0.06648541,-1.485364,-4.430871,-2.731102,0.4207715,1.122977,0.3312511,-1.501558,0.03788267,0.2,4.2,0.1013014,0.1721394,-0.1821595,-0.5339297,-3.658668,0.002869556,0.5157735,1.33705,0.3034298,0.05975159,0.05913712,0.2221969,-0.8358693,0.7165557,-0.06802139,0.6609836,1.398822,0.2255723,0.1864012,1.115095,0.1625454,273.1411,263.5795,333.1649,True
1,1.755559,0.3203945,0.2136641,-0.06644289,-1.485569,-4.433214,-2.733371,0.4210304,1.122568,0.3312263,-1.501402,0.01410596,0.2,4.2,0.1109587,0.1378012,-0.1580323,-0.5348064,-3.657588,0.0003864247,0.515386,1.336808,0.3030634,0.07128779,0.03673064,0.2104106,-0.8339822,0.7168059,-0.06939372,0.6605078,1.398794,0.2248383,0.1865714,1.114945,0.1627043,272.9186,267.7429,328.9398,True
1,1.76667,0.2927501,0.1975978,-0.06739579,-1.485612,-4.43505,-2.735665,0.4212255,1.122216,0.3312387,-1.501763,-0.03302592,0.4,3.2,0.1248383,0.1163127,-0.1444998,-0.5359505,-3.656515,-0.002398443,0.5150551,1.336587,0.3025696,0.07645343,0.02390189,0.1986718,-0.8321324,0.7168092,-0.07040972,0.6599925,1.398833,0.2242253,0.1866922,1.114783,0.1629263,272.7597,274.2996,322.3605,True
1,1.777781,0.2619347,0.1719302,-0.06829686,-1.485313,-4.436359,-2.737432,0.4214203,1.121931,0.3312759,-1.501087,0.0622783,0.4,3.2,0.1397933,0.08838914,-0.1267737,-0.536766,-3.656438,-0.004519651,0.514833,1.336498,0.302192,0.08065786,0.01219552,0.1954587,-0.8301334,0.717302,-0.07185715,0.6595146,1.398864,0.2235849,0.1868278,1.114595,0.1631344,272.6054,281.1879,315.4696,True
1,1.788892,0.2354234,0.1345623,-0.06913535,-1.484722,-4.437057,-2.739318,0.4215637,1.121636,0.3310437,-1.5012,-0.01073984,0.4,3.2,0.1461453,0.07128796,-0.1227042,-0.5377774,-3.655696,-0.006985472,0.5145396,1.336411,0.3018043,0.08471492,-0.007029425,0.1816156,-0.828528,0.716496,-0.07233758,0.6592069,1.398926,0.2229919,0.1869645,1.11446,0.1633131,272.5019,287.5112,309.1117,True
1,1.800003,0.219516,0.1110707,-0.07005699,-1.484157,-4.437784,-2.741157,0.4217498,1.121426,0.3310568,-1.500887,0.02892087,0.4,3.2,0.1461763,0.06484145,-0.1163677,-0.5388443,-3.654756,-0.009409214,0.5143542,1.336288,0.3013868,0.08255895,-0.01874246,0.1795225,-0.8268061,0.7160138,-0.07319698,0.6588435,1.398977,0.2225664,0.1870891,1.11436,0.1634649,272.438,293.1958,303.3829,True
1,1.811115,0.1993565,0.08328313,-0.0762741,-1.483314,-4.438348,-2.742689,0.4218623,1.121453,0.3313968,-1.501161,-0.0251128,0.4,2.2,0.1453845,0.06995428,-0.09074122,-0.5389588,-3.652785,-0.01272192,0.5142426,1.336162,0.3010628,0.08235089,-0.03370296,0.1646488,-0.8254287,0.7148415,-0.07320497,0.6586092,1.399083,0.222023,0.1871544,1.114331,0.1636921,272.5094,300.536,295.981,True
1,1.822226,0.1728548,0.04053521,-0.08559944,-1.481848,-4.438029,-2.743894,0.4220074,1.121366,0.3312538,-1.50138,-0.01967081,0.4,2.2,0.1350119,0.08365386,-0.06708697,-0.5390164,-3.65005,-0.01608336,0.5143136,1.336097,0.300734,0.0863938,-0.04759733,0.1475935,-0.824316,0.7139465,-0.07372802,0.6584672,1.398989,0.2213948,0.1871778,1.114256,0.1639359,272.6195,306.9906,289.5808,True
1,1.833337,0.1538109,-0.004338821,-0.09811505,-1.479887,-4.437231,-2.745062,0.422154,1.121417,0.3313463,-1.501295,0.008133015,0.4,2.2,0.1308984,0.07391145,-0.04689065,-0.5389546,-3.649082,-0.01823813,0.5143005,1.336106,0.3004704,0.08833203,-0.05936145,0.1326892,-0.8232757,0.7126051,-0.0738721,0.6583104,1.398994,0.2208827,0.1874013,1.11416,0.163699,272.3004,305.5122,290.9152,True
1,1.844448,0.1283776,-0.05026559,-0.1052963,-1.477865,-4.436075,-2.745807,0.4222721,1.121468,0.3313015,-1.501093,0.01854922,0.4,2.2,0.1363645,0.04594436,-0.0184156,-0.5381721,-3.649849,-0.01921657,0.5145696,1.336163,0.3002524,0.08903834,-0.07118885,0.1028856,-0.8229733,0.7105202,-0.07338793,0.6583033,1.399182,0.2205343,0.1876401,1.114084,0.1634841,271.8769,302.9343,293.4634,True
1,1.855559,0.1167536,-0.08230919,-0.1136283,-1.475668,-4.434851,-2.746848,0.4224184,1.121555,0.331394,-1.501217,-0.01142259,0.4,2.2,0.1512019,0.01277514,-0.01032374,-0.5381242,-3.651651,-0.01981072,0.5147699,1.336238,0.3001699,0.09101174,-0.08615338,0.0911818,-0.8222217,0.7083486,-0.07313679,0.6583228,1.399359,0.2202008,0.1877816,1.114016,0.1634997,271.708,306.0601,290.3629,True
1,1.86667,0.09770162,-0.1239296,-0.1176376,-1.47343,-4.43302,-2.747512,0.4225594,1.121742,0.3315244,-1.50101,0.01931944,0.7,1.6,0.15425,-0.02989796,-0.004330864,-0.5380091,-3.654737,-0.01887169,0.5149339,1.336222,0.3000331,0.08545904,-0.1042952,0.0753115,-0.8217482,0.7058951,-0.07216261,0.6582458,1.399372,0.2197833,0.1879071,1.113971,0.163472,271.5362,307.7224,288.7068,True
1,1.877781,0.08397308,-0.163406,-0.1205991,-1.470879,-4.430675,-2.748231,0.4226518,1.121985,0.3316581,-1.501495,-0.04441951,0.7,1.6,0.1500138,-0.04915439,0.008332428,-0.5374557,-3.656682,-0.01864,0.5150757,1.336425,0.2997932,0.08314233,-0.1139019,0.06045526,-0.8213242,0.7041532,-0.07187153,0.6583568,1.399269,0.2191186,0.1880501,1.113937,0.1633437,271.2692,305.7614,290.6645,True
1,1.888893,0.07025273,-0.2039878,-0.1299443,-1.467975,-4.428098,-2.749013,0.422663,1.122054,0.331434,-1.501325,0.01609092,0.7,1.6,0.1425062,-0.05121346,0.004126316,-0.5374882,-3.657825,-0.01897795,0.515157,1.336362,0.2996621,0.07658117,-0.1160606,0.04561156,-0.8212454,0.7022076,-0.07115061,0.6584053,1.399242,0.2187304,0.1882836,1.113878,0.1631273,270.8449,299.606,296.8044,True
1,1.900004,0.06180258,-0.2274563,-0.13087,-1.465354,-4.425609,-2.749676,0.4227556,1.122277,0.3315406,-1.501495,-0.01561215,0.7,1.6,0.1350175,-0.0490122,-4.535727E-05,-0.5376512,-3.658722,-0.01944187,0.5153979,1.336469,0.2994597,0.06787796,-0.1203519,0.02973051,-0.8213471,0.7000261,-0.07015991,0.6585326,1.399467,0.2184992,0.1885904,1.113784,0.1629821,270.3892,295.6662,300.7179,True
1,1.911115,0.05334861,-0.2498646,-0.1328623,-1.462749,-4.423029,-2.750308,0.4227855,1.122651,0.3316839,-1.501736,-0.02169218,0.6,0.7,0.1287829,-0.03736064,0.01077263,-0.5370824,-3.658827,-0.0205841,0.515601,1.336517,0.2992823,0.0646446,-0.1214219,0.02657145,-0.821044,0.6980912,-0.06944086,0.6587174,1.399548,0.2181098,0.1888802,1.113762,0.1628198,270.1356,175.5012,60.88706,True
1,1.922226,0.04909745,-0.2541695,-0.1381617,-1.460043,-4.420939,-2.750936,0.4229034,1.122906,0.3317449,-1.501806,-0.006126973,0.6,0.7,0.1098685,-0.0235948,0.03132408,-0.5358855,-3.658235,-0.021676,0.5160438,1.336627,0.2990644,0.06033561,-0.1256667,0.02343763,-0.820734,0.6963313,-0.06876256,0.6589676,1.399368,0.217495,0.1890244,1.113731,0.1627012,270.4173,146.3939,90.05785,True
1,1.933337,0.04589233,-0.2509771,-0.1381823,-1.45765,-4.419231,-2.751554,0.4231004,1.123358,0.3318882,-1.501913,-0.009634864,0.6,0.7,0.08965386,-0.02459608,0.03470455,-0.5354158,-3.658894,-0.02141528,0.5164273,1.336663,0.2988167,0.0517045,-0.1267501,0.01393797,-0.8208688,0.6940506,-0.0674371,0.6593827,1.399409,0.2171323,0.1890998,1.113734,0.1627969,270.6432,147.8113,88.85583,True
1,1.944448,0.03519873,-0.2382302,-0.1393124,-1.455439,-4.417818,-2.751734,0.4232951,1.123641,0.3319981,-1.502098,-0.01678278,0.6,0.7,0.06944631,-0.0256054,0.03915731,-0.5347649,-3.659558,-0.02091194,0.5169063,1.33682,0.2985628,0.04205615,-0.1203483,0.006562175,-0.8210211,0.6926498,-0.06666398,0.6597313,1.399341,0.2167718,0.1890853,1.113777,0.1628518,270.6212,146.4281,90.29861,True
1,1.955559,0.0233635,-0.1998983,-0.1363298,-1.453788,-4.417491,-2.75162,0.4235063,1.123823,0.3319457,-1.50226,-0.01455042,0.6,0.7,0.04587179,-0.01788807,0.02133555,-0.5351702,-3.659588,-0.02067625,0.5173045,1.336842,0.2983389,0.04207887,-0.1075523,0.004391914,-0.8210883,0.6919993,-0.0668757,0.6601279,1.39926,0.2164826,0.1890773,1.113826,0.1628908,270.6123,145.8171,90.95386,True
1,1.966671,0.01259878,-0.1669104,-0.1375846,-1.452003,-4.417514,-2.751286,0.423783,1.123892,0.3316181,-1.501973,0.02637481,0.7,0.3,0.0310437,-0.0104034,0.02686596,-0.5347611,-3.659185,-0.02087572,0.5177577,1.336797,0.2981448,0.04105722,-0.1022268,0.007577097,-0.8209125,0.6904745,-0.0661886,0.6604927,1.399327,0.2161944,0.1890932,1.113882,0.1629222,270.6355,144.5526,92.25565,True
1,1.977782,-0.003516366,-0.1221877,-0.1325057,-1.450928,-4.4183,-2.75057,0.4240404,1.124057,0.3315365,-1.50189,0.007529213,0.7,0.3,0.01835468,-0.002950199,0.03343862,-0.5342088,-3.658986,-0.02080089,0.5182227,1.336887,0.298059,0.0388453,-0.08414539,-0.004159257,-0.8212294,0.6899444,-0.06614653,0.6609726,1.399328,0.2160163,0.1891395,1.113915,0.162926,270.7003,142.237,94.59109,True
1,1.988893,-0.01748305,-0.08492239,-0.129519,-1.449795,-4.419144,-2.749765,0.4242953,1.124404,0.3316348,-1.501841,0.004482496,0.7,0.3,0.02047861,-0.01257831,0.03760228,-0.5336,-3.659715,-0.02049063,0.5188063,1.336999,0.2979512,0.03556024,-0.08202851,-0.01265094,-0.8215665,0.688762,-0.06558061,0.6614819,1.399274,0.2157681,0.1894134,1.11393,0.1630386,270.7247,141.6107,95.81211,True
1,2.000004,-0.03674524,-0.05613375,-0.1158253,-1.44918,-4.419826,-2.74857,0.4245887,1.124625,0.3316247,-1.501693,0.01366753,0.7,0.3,0.01403448,-0.02961763,0.04070409,-0.5331409,-3.661418,-0.01894173,0.5193798,1.337093,0.2979569,0.03112562,-0.08948793,-0.02749562,-0.8223016,0.6874572,-0.06499764,0.6620256,1.399257,0.2154875,0.1895497,1.113931,0.1630308,270.7823,134.4772,103.0794,True
1,2.011115,-0.05917506,-0.03587586,-0.09994987,-1.448691,-4.420238,-2.747059,0.4248967,1.124812,0.3314896,-1.501751,-0.005381253,0.6,0,0.01188057,-0.03814549,0.04278431,-0.5325635,-3.662647,-0.01789618,0.5199774,1.337116,0.2979398,0.03000813,-0.09375943,-0.03067115,-0.8227016,0.6856938,-0.06400561,0.6626319,1.39932,0.2152987,0.189605,1.113971,0.1630245,270.8365,134.0335,103.553,True
1,2.022226,-0.07624345,-0.0241459,-0.08935714,-1.448076,-4.420587,-2.745757,0.4251798,1.125072,0.3313687,-1.501515,0.02177471,0.6,0,0.01736162,-0.04258338,0.06080335,-0.5312612,-3.663713,-0.01738618,0.5205176,1.337261,0.2979548,0.03418946,-0.1001823,-0.03710315,-0.8233903,0.6837861,-0.06332304,0.6630806,1.399533,0.2152545,0.1897131,1.114041,0.163238,271.022,148.506,89.14429,True
1,2.033337,-0.1072197,0.003486215,-0.08417181,-1.447738,-4.421702,-2.743436,0.425577,1.125436,0.3316026,-1.501323,0.01752343,0.6,0,0.01438896,-0.04493941,0.08635945,-0.5297161,-3.665411,-0.01577683,0.5211691,1.33773,0.2981617,0.03725588,-0.1055461,-0.04777546,-0.8242078,0.6818771,-0.06252383,0.6637399,1.399548,0.2151189,0.189813,1.114106,0.1635353,271.1503,157.6385,80.09834,True
1,2.044448,-0.1275166,0.02259344,-0.08534154,-1.447041,-4.422969,-2.741287,0.4259246,1.125731,0.3314273,-1.501695,-0.03402754,0.6,0,0.02087379,-0.05896067,0.1032276,-0.5279429,-3.667459,-0.01436855,0.5219594,1.337911,0.2983212,0.04663134,-0.117346,-0.06381559,-0.8252156,0.6792285,-0.06144312,0.6644189,1.399557,0.2150617,0.1899009,1.114167,0.1638072,271.2179,163.8525,74.07511,True
1,2.055559,-0.1564105,0.06402575,-0.08982478,-1.44681,-4.425422,-2.738276,0.4263813,1.126208,0.3318267,-1.50101,0.06303351,0.6,0,0.03572616,-0.09108526,0.1134536,-0.526483,-3.671673,-0.01142736,0.5227805,1.338107,0.2986732,0.04957189,-0.1355335,-0.08297495,-0.8266463,0.6758506,-0.05976613,0.6651699,1.399731,0.2150815,0.1899909,1.114249,0.1640748,271.3571,170.2091,67.85916,True
1,2.06667,-0.1756505,0.08419378,-0.0931336,-1.446299,-4.427481,-2.735463,0.4268368,1.126571,0.3317547,-1.501335,-0.0300455,0.4,0,0.04745907,-0.1007726,0.1196509,-0.5249064,-3.674253,-0.01011122,0.5236122,1.338272,0.2988913,0.0494546,-0.1526023,-0.08931695,-0.8276578,0.6725318,-0.05799406,0.6660022,1.399716,0.2150142,0.1900431,1.114351,0.1644181,271.5232,178.2963,59.83942,True
