loc,t,aDotUA,bDotUA,gDotUA,aUA,bUA,gUA,xUA,yUA,zUA,qE,qDotE,emgA,emgB,aDotSH,bDotSH,gDotSH,aSH,bSH,gSH,xSH,ySH,zSH,aDotUB,bDotUB,gDotUB,aUB,bUB,gUB,xUB,yUB,zUB,xHand,yHand,zHand,aHand,bHand,gHand,enable
1,0,-0.4707837,-1.835601,-0.698438,-1.351136,-3.999475,2.807099,0.6000512,1.128249,0.4886346,-1.860413,-0.02747,11.9,0.5,-0.5351864,0.2175477,-0.06270885,-0.5200711,-4.151271,-0.05379532,0.6220279,1.347539,0.3982008,-0.2896655,0.1550887,-0.08439024,-0.817567,0.2229449,-0.01596485,0.7063159,1.406869,0.2601941,0.4630827,1.012265,0.294219,297.4484,221.9049,0.6888301,True
1,0.01111111,-0.4389437,-1.798116,-0.6794912,-1.350933,-3.979499,2.806692,0.5972601,1.128454,0.4880021,-1.85993,0.04426666,11.9,0.5,-0.5639693,0.2262602,-0.06876068,-0.521129,-4.145845,-0.05141525,0.621462,1.347494,0.3980165,-0.2854595,0.1763534,-0.09514429,-0.8190253,0.2264526,-0.01547563,0.7066382,1.406738,0.2603295,0.4641347,1.012815,0.2908184,297.6334,218.6304,2.553902,True
1,0.02222222,-0.4124255,-1.756396,-0.6637764,-1.350442,-3.959823,2.806041,0.594479,1.128522,0.4872963,-1.860605,-0.06224449,11.9,0.5,-0.6009753,0.2604293,-0.05639925,-0.5215598,-4.137562,-0.05082989,0.6205606,1.347515,0.3977315,-0.2928472,0.2093922,-0.09728831,-0.8202685,0.2313238,-0.01531877,0.7068617,1.406658,0.260639,0.4660336,1.012972,0.2866407,297.6466,216.7847,2.747535,True
1,0.03333334,-0.3838867,-1.677373,-0.6418536,-1.349862,-3.94226,2.80563,0.5916747,1.128501,0.4865866,-1.860823,-0.01947552,11.9,0.5,-0.6105028,0.2796754,-0.05933928,-0.5225031,-4.130121,-0.05020858,0.619763,1.347517,0.3975129,-0.2948618,0.2573315,-0.09954289,-0.8216225,0.2373694,-0.01614994,0.7070811,1.406632,0.2610104,0.4685165,1.0128,0.2820304,297.7239,215.2429,2.377636,True
1,0.04444445,-0.3575722,-1.566322,-0.609497,-1.349082,-3.926923,2.80547,0.5890449,1.128467,0.4858687,-1.860916,-0.008562806,11.3,0.3,-0.6254696,0.3140231,-0.0812692,-0.5243695,-4.1211,-0.05065359,0.6188594,1.347462,0.3973076,-0.3160182,0.2893625,-0.09407675,-0.8225397,0.243067,-0.01585433,0.7072414,1.406648,0.2613697,0.4713103,1.012409,0.2773846,297.8755,213.7227,1.919882,True
1,0.05555556,-0.3344593,-1.449929,-0.5750456,-1.348183,-3.913457,2.80539,0.5865813,1.128357,0.4851665,-1.860906,0.0008938099,11.3,0.3,-0.637822,0.3724141,-0.1754694,-0.5297587,-4.109707,-0.05298545,0.6177916,1.347262,0.397181,-0.3411689,0.343833,-0.06945583,-0.8225716,0.2505985,-0.01633956,0.7072967,1.406605,0.2618523,0.474074,1.011868,0.2729822,298.0363,212.1842,1.53615,True
1,0.06666667,-0.3282806,-1.364613,-0.5574479,-1.34708,-3.898747,2.80563,0.583908,1.128246,0.4843233,-1.860891,0.001129657,11.3,0.3,-0.637934,0.4078209,-0.2039202,-0.5330956,-4.098801,-0.05521905,0.6168264,1.347082,0.3970108,-0.3505111,0.3747953,-0.05558504,-0.8227665,0.2576156,-0.01709243,0.7074457,1.406516,0.2622845,0.476428,1.011251,0.269054,298.1942,210.7652,1.188171,True
1,0.07777778,-0.3245714,-1.174812,-0.5298079,-1.344548,-3.890323,2.807206,0.5817398,1.127929,0.4836791,-1.860973,-0.007613631,11.3,0.3,-0.619747,0.4568757,-0.2196536,-0.5365428,-4.085832,-0.0599656,0.6157565,1.346797,0.3968394,-0.3589651,0.3950626,-0.05448558,-0.8233924,0.2646265,-0.0175244,0.7075399,1.406434,0.2627826,0.4781109,1.010645,0.2658083,298.3409,209.5664,0.9367122,True
1,0.08888889,-0.3259458,-1.064003,-0.5197988,-1.342298,-3.879679,2.808554,0.5793068,1.12765,0.4829409,-1.860158,0.07440287,11.3,0.3,-0.6131226,0.4876705,-0.2109356,-0.5388747,-4.073542,-0.06398697,0.6147051,1.346494,0.3966243,-0.3599802,0.4035876,-0.0523664,-0.8240396,0.2708398,-0.01778459,0.7075692,1.406315,0.263238,0.4789887,1.010105,0.2633138,298.4551,208.6046,0.8777217,True
1,0.1,-0.3200971,-0.8817462,-0.5080974,-1.338463,-3.874429,2.810644,0.5772364,1.127301,0.4822202,-1.859938,0.01933539,10.7,0.3,-0.6063414,0.5118949,-0.1820271,-0.5403261,-4.060841,-0.06843126,0.6137993,1.346172,0.3964033,-0.3545727,0.4163681,-0.04819905,-0.8245307,0.2777504,-0.01872575,0.707639,1.40622,0.2637405,0.4790571,1.009642,0.2614409,298.5426,207.7431,1.069863,True
1,0.1111111,-0.3078529,-0.6941494,-0.4921649,-1.334492,-3.870526,2.812688,0.5751659,1.126949,0.4813795,-1.859529,0.03736481,10.7,0.3,-0.6006471,0.4987037,-0.1374479,-0.5406505,-4.051171,-0.07016338,0.6130254,1.345969,0.3962188,-0.3438968,0.4184654,-0.04724883,-0.8250254,0.2840268,-0.01964428,0.7077029,1.406192,0.2642663,0.4782914,1.009289,0.2601577,298.5636,206.9977,1.451637,True
1,0.1222222,-0.3050153,-0.5726037,-0.4769076,-1.330621,-3.86683,2.815075,0.573141,1.126675,0.4806674,-1.859843,-0.02919763,10.7,0.3,-0.581371,0.4332769,-0.09557941,-0.5405764,-4.045857,-0.06886615,0.6122067,1.345626,0.3961761,-0.335319,0.4205816,-0.04308417,-0.8254899,0.2904285,-0.02057292,0.7078259,1.405919,0.2647033,0.4768367,1.009047,0.2592904,298.5558,206.3671,1.987692,True
1,0.1333333,-0.3183977,-0.3603889,-0.4291354,-1.32702,-3.868082,2.819347,0.5714086,1.126527,0.4800498,-1.860126,-0.02558213,10.7,0.3,-0.5527169,0.3647759,-0.07406784,-0.5407655,-4.042417,-0.06661125,0.611575,1.345406,0.396167,-0.3215712,0.421581,-0.0528233,-0.8265456,0.2969124,-0.02184618,0.7078823,1.405826,0.2652552,0.4747393,1.008912,0.2587055,298.514,205.7812,2.661524,True
1,0.1444445,-0.3400036,-0.2548498,-0.4031089,-1.323561,-3.866814,2.823547,0.5695664,1.126487,0.4795351,-1.859724,0.03684439,7.9,0.4,-0.5262435,0.3123775,-0.06518774,-0.5415059,-4.038695,-0.06470229,0.6107948,1.345157,0.396162,-0.3162772,0.4236987,-0.05607117,-0.8272519,0.3035657,-0.02291996,0.7080039,1.405786,0.2657807,0.4721525,1.008875,0.2583136,298.4434,205.3093,3.392532,True
1,0.1555556,-0.3862779,-0.0939243,-0.3688779,-1.319301,-3.870263,2.830233,0.5680027,1.126401,0.479104,-1.858884,0.07641077,7.9,0.4,-0.4756756,0.2206488,-0.08030749,-0.542854,-4.040265,-0.05974669,0.6101685,1.344859,0.3962314,-0.3066477,0.4471021,-0.05837136,-0.8281078,0.3113763,-0.02508138,0.7080175,1.405689,0.2663207,0.469341,1.008958,0.2580776,298.3853,204.9495,4.069014,True
1,0.1666667,-0.4368051,0.066976,-0.3314518,-1.315307,-3.874642,2.83771,0.5665553,1.126361,0.4788165,-1.858271,0.05554916,7.9,0.4,-0.4501917,0.1992195,-0.07860606,-0.5438281,-4.036633,-0.05855839,0.6093488,1.344615,0.3961771,-0.2991319,0.4524258,-0.05526882,-0.8287501,0.3185802,-0.02698421,0.7080836,1.405638,0.2669921,0.4663787,1.00924,0.2579415,298.3404,204.7374,4.642659,True
1,0.1777778,-0.4841672,0.2353862,-0.2919393,-1.311017,-3.882017,2.846426,0.5650837,1.126374,0.4785073,-1.856988,0.1168458,7.9,0.4,-0.4265267,0.1828582,-0.04701082,-0.5433855,-4.033769,-0.05711975,0.6087134,1.344504,0.396147,-0.2778672,0.4257424,-0.05222698,-0.8293148,0.3237424,-0.02811259,0.7081506,1.405556,0.2674398,0.4634609,1.009777,0.2578337,298.2615,204.4311,5.297086,True
1,0.1888889,-0.5315173,0.4006176,-0.2481501,-1.306987,-3.890456,2.855812,0.563563,1.126323,0.4780343,-1.856534,0.04080025,7.9,0.4,-0.4177489,0.1751069,-0.01626657,-0.5426622,-4.02992,-0.05591173,0.6081084,1.34455,0.3960521,-0.2620024,0.4043712,-0.05766392,-0.8302186,0.3285818,-0.02905056,0.7080442,1.405461,0.2679014,0.460494,1.010625,0.2576647,298.1172,204.0226,5.976094,True
1,0.2,-0.5530996,0.4954884,-0.227394,-1.302811,-3.89846,2.864705,0.5619816,1.126426,0.4775879,-1.856336,0.01807614,4.2,0.3,-0.4079835,0.1695535,0.004900254,-0.5419735,-4.026559,-0.05461398,0.6075637,1.344592,0.3960249,-0.2472709,0.3638302,-0.06410104,-0.8312131,0.3320075,-0.02917173,0.7081352,1.405381,0.2682683,0.4574137,1.011856,0.2574461,297.8853,203.5804,6.649705,True
1,0.2111111,-0.6013672,0.6094838,-0.1971547,-1.298974,-3.907937,2.87518,0.5605059,1.126582,0.4770818,-1.85628,0.005288382,4.2,0.3,-0.3746724,0.1338457,0.05221405,-0.539933,-4.025542,-0.05241021,0.6069815,1.344732,0.3961542,-0.2390217,0.3168992,-0.07683901,-0.8325319,0.3346817,-0.02849289,0.7083129,1.405339,0.2686112,0.4539986,1.013494,0.2571282,297.5511,203.1088,7.370812,True
1,0.2222222,-0.6399105,0.6733261,-0.1900511,-1.294679,-3.917126,2.886042,0.5589566,1.126787,0.4765387,-1.857,-0.06568695,4.2,0.3,-0.3446827,0.07685494,0.09725043,-0.5373796,-4.027243,-0.04800987,0.6065384,1.344877,0.3960834,-0.2305739,0.2870503,-0.07578102,-0.8333638,0.3377574,-0.02822951,0.7084061,1.405308,0.2689159,0.4501801,1.015529,0.2567357,297.1029,202.6332,8.21105,True
1,0.2333333,-0.7213089,0.8148364,-0.1727345,-1.290231,-3.930044,2.90013,0.5575958,1.127105,0.4760106,-1.856218,0.07220852,4.2,0.3,-0.3232678,0.01996025,0.1359774,-0.5344874,-4.030297,-0.04253894,0.6061221,1.345008,0.3961179,-0.2242704,0.2678481,-0.07899117,-0.8344051,0.340846,-0.02800846,0.7085016,1.405231,0.2692447,0.4461111,1.01792,0.2564039,296.5715,202.1034,9.205363,True
1,0.2444444,-0.7684143,0.8860751,-0.1635568,-1.286156,-3.941307,2.913077,0.5561604,1.127204,0.4754801,-1.856024,0.01744449,4.2,0.3,-0.31041,-0.001565129,0.1548471,-0.5322738,-4.031116,-0.0386145,0.6058142,1.345074,0.3962326,-0.2200963,0.2603605,-0.0843411,-0.8355641,0.344429,-0.02800074,0.7085855,1.405161,0.2695363,0.4418528,1.020603,0.2561542,295.9957,201.5739,10.29114,True
1,0.2555556,-0.8379226,0.9722024,-0.1544375,-1.281792,-3.954917,2.928527,0.5543529,1.127361,0.4748285,-1.854265,0.1609298,2,0.1,-0.2696204,-0.01165955,0.1916596,-0.52885,-4.031826,-0.03639556,0.6054687,1.345191,0.3962402,-0.2148146,0.2443661,-0.08435317,-0.8365538,0.3472935,-0.02772857,0.7086827,1.405083,0.2697873,0.4374558,1.02352,0.2559762,295.4092,200.9306,11.51364,True
1,0.2666667,-0.9041278,1.018883,-0.1482843,-1.277807,-3.967299,2.944012,0.5526238,1.127581,0.4741776,-1.855302,-0.09576924,2,0.1,-0.2652862,-0.01281591,0.2001333,-0.5264547,-4.031751,-0.03354065,0.6052905,1.345323,0.3962765,-0.1999526,0.2177,-0.08230542,-0.8373996,0.3493884,-0.02739807,0.7088938,1.40495,0.2700856,0.4328366,1.026696,0.2558564,294.8202,200.2654,12.80364,True
1,0.2777778,-0.9659233,1.0208,-0.151449,-1.273936,-3.978708,2.960053,0.5504294,1.12776,0.4731855,-1.854173,0.1045062,2,0.1,-0.2811218,-0.02356797,0.2204345,-0.5233202,-4.032766,-0.02901807,0.6049683,1.345474,0.3962739,-0.1957912,0.1942427,-0.0854806,-0.8384925,0.3512025,-0.02655278,0.709023,1.404837,0.2703395,0.428057,1.030088,0.2557822,294.1453,199.4651,14.26297,True
1,0.2888889,-1.003141,0.9961656,-0.1523312,-1.270604,-3.988814,2.975261,0.548455,1.127944,0.4723966,-1.854261,-0.008585243,2,0.1,-0.2907727,-0.03737044,0.2204047,-0.5208973,-4.034378,-0.02403743,0.6047224,1.345563,0.3962522,-0.1948078,0.1867771,-0.0907954,-0.8397192,0.3538926,-0.02612135,0.7091194,1.404752,0.270637,0.4229653,1.03366,0.2556333,293.4695,198.5866,15.80142,True
1,0.3,-1.061615,0.954313,-0.1722798,-1.266649,-3.997969,2.991858,0.5459881,1.128176,0.4710577,-1.85409,0.01625062,0.9,0,-0.2963015,-0.05000079,0.2054338,-0.5190842,-4.036278,-0.01890898,0.6043983,1.345642,0.3962193,-0.1990776,0.1835933,-0.09074046,-0.8407754,0.3564708,-0.0254766,0.7092333,1.404664,0.2709045,0.4177172,1.037424,0.2554293,292.7858,197.6584,17.46096,True
1,0.3111111,-1.127468,0.8804051,-0.199497,-1.262647,-4.005054,3.008692,0.5436705,1.128397,0.469682,-1.855128,-0.09463849,0.9,0,-0.3254749,-0.08051851,0.1777513,-0.5180482,-4.039894,-0.01120871,0.6038343,1.345666,0.3961468,-0.1968806,0.1867949,-0.08544572,-0.8415568,0.3594227,-0.02534131,0.7091812,1.404592,0.2712462,0.4124127,1.041349,0.2550464,292.0863,196.6319,19.24527,True
1,0.3222222,-1.171005,0.8300899,-0.2161906,-1.258817,-4.012548,3.025568,0.5411167,1.128619,0.4682286,-1.854158,0.08984188,0.9,0,-0.3438182,-0.08984043,0.15761,-0.5167837,-4.042199,-0.004878378,0.6033669,1.345792,0.3960774,-0.1990196,0.1878632,-0.08649105,-0.8426151,0.362254,-0.02492373,0.7092671,1.40451,0.2715135,0.407371,1.045381,0.2545346,291.3571,195.4358,21.16866,True
1,0.3333333,-1.245416,0.7787261,-0.2158467,-1.255731,-4.019817,3.044179,0.5383977,1.128879,0.4666331,-1.85379,0.03317101,0.9,0,-0.3674015,-0.07997091,0.1376776,-0.5159369,-4.043387,0.001044758,0.6027985,1.345837,0.3959234,-0.2000605,0.1963857,-0.08650298,-0.8436309,0.3655101,-0.02482945,0.7092555,1.404509,0.2718527,0.402513,1.049448,0.2535874,290.6687,193.9749,23.28066,True
1,0.3444445,-1.279514,0.7818725,-0.2030615,-1.253096,-4.029082,3.062233,0.5358588,1.129182,0.4653552,-1.854483,-0.06315181,0.9,0,-0.3980964,-0.04148924,0.1404302,-0.5142031,-4.041625,0.004920989,0.6021936,1.345927,0.3956728,-0.2106794,0.2134558,-0.08749967,-0.8446876,0.369372,-0.02469789,0.7092763,1.404457,0.2720618,0.3980648,1.053541,0.2521892,290.0319,192.2327,25.5077,True
1,0.3555556,-1.322208,0.8160609,-0.1638203,-1.251855,-4.039937,3.081867,0.5327588,1.129435,0.4636905,-1.853406,0.09951761,0.5,0,-0.4351383,0.01195523,0.1401768,-0.5126612,-4.03793,0.007741809,0.6014723,1.345996,0.3953826,-0.216969,0.229468,-0.08214996,-0.8455329,0.3734611,-0.02478258,0.7092551,1.404411,0.2723391,0.3939678,1.057668,0.250305,289.4258,190.219,27.75004,True
1,0.3666667,-1.353149,0.8353649,-0.1223866,-1.251134,-4.050391,3.101156,0.5298356,1.129736,0.4621286,-1.855081,-0.1535425,0.5,0,-0.4646767,0.0375165,0.1577263,-0.5103202,-4.035566,0.01168489,0.600873,1.346112,0.3952067,-0.225482,0.2358822,-0.08315015,-0.8466706,0.3771811,-0.024512,0.7094781,1.404398,0.2726538,0.3901221,1.061905,0.2480076,288.8691,188.0538,29.92355,True
1,0.3777778,-1.381922,0.8461413,-0.08621079,-1.251048,-4.060691,3.12068,0.526617,1.130028,0.4602737,-1.854771,0.03019043,0.5,0,-0.4985462,0.051386,0.1741496,-0.5077892,-4.033498,0.01655607,0.6000313,1.34621,0.3948545,-0.231829,0.2518794,-0.08312658,-0.8476634,0.3815334,-0.02459216,0.7094494,1.404353,0.2729201,0.3863994,1.066341,0.2455748,288.3098,185.5875,32.22661,True
1,0.3888889,-1.397944,0.8590122,-0.06492352,-1.251072,-4.071561,3.140562,0.5237237,1.130512,0.4587953,-1.85544,-0.06109903,0.5,0,-0.5293751,0.05041713,0.1797673,-0.5055942,-4.032845,0.02266563,0.599431,1.346224,0.3946455,-0.239322,0.2689278,-0.09055242,-0.849053,0.3862942,-0.02477725,0.7094413,1.404254,0.2730663,0.3823445,1.071056,0.2430375,287.7014,183.0041,34.66825,True
1,0.4,-1.413976,0.8793414,-0.03947419,-1.251487,-4.082698,-3.122619,0.5205083,1.130836,0.456707,-1.855697,-0.0226699,0.2,0,-0.5614743,0.04213512,0.1693491,-0.5040277,-4.032614,0.02998506,0.5984076,1.346267,0.3942225,-0.2594928,0.2892281,-0.08932282,-0.8500912,0.3914245,-0.02457911,0.7093028,1.404178,0.2733352,0.3780048,1.076062,0.2406691,287.0483,180.2526,37.4568,True
1,0.4111111,-1.417243,0.9061188,-0.0193367,-1.252493,-4.094738,-3.102685,0.5172518,1.131193,0.4545403,-1.855949,-0.0226492,0.2,0,-0.6033578,0.06938148,0.1209919,-0.5041598,-4.029144,0.03497183,0.5971511,1.34649,0.3936808,-0.2721521,0.3073874,-0.0828567,-0.8510163,0.3966585,-0.02460654,0.7090954,1.404165,0.2736685,0.3733907,1.081326,0.238555,286.3889,177.3392,40.58256,True
1,0.4222222,-1.420508,0.9296769,-0.0002619028,-1.253747,-4.10639,-3.08301,0.5140215,1.131554,0.4524138,-1.85631,-0.03248957,0.2,0,-0.6289779,0.07703888,0.1117119,-0.5031862,-4.026933,0.04077433,0.5959837,1.346559,0.3932097,-0.2922172,0.3266467,-0.07311918,-0.8517556,0.4022197,-0.02459269,0.7088457,1.40416,0.2739646,0.3686627,1.08681,0.2368524,285.7574,174.2259,44.0641,True
1,0.4333333,-1.417549,1.017335,0.04609901,-1.256631,-4.121112,-3.062854,0.5108507,1.131851,0.4501684,-1.857018,-0.0642902,0.2,0,-0.671608,0.1061339,0.09638648,-0.5024863,-4.022645,0.04587881,0.5945067,1.346655,0.3925331,-0.3091322,0.3618563,-0.07090577,-0.852595,0.4090436,-0.02521215,0.7084397,1.404123,0.2742383,0.3636151,1.092482,0.2352932,285.1154,170.8056,48.0181,True
1,0.4444444,-1.412566,1.140305,0.1167848,-1.261762,-4.13842,-3.041678,0.5078118,1.132158,0.4480484,-1.857474,-0.04094722,0.2,0,-0.7095149,0.1808186,0.1059095,-0.5008415,-4.013463,0.04686045,0.5929183,1.346677,0.3918757,-0.3272097,0.3863873,-0.07505289,-0.8538451,0.4155477,-0.02535675,0.7080296,1.404099,0.2745008,0.3583396,1.098261,0.2338524,284.4936,167.1087,52.34026,True
1,0.4555556,-1.406481,1.252568,0.1810915,-1.267738,-4.156533,-3.020651,0.504729,1.132386,0.4458952,-1.858148,-0.0612297,0.2,0,-0.7250075,0.2510621,0.122641,-0.4987051,-4.002993,0.0463382,0.5911677,1.346742,0.3911104,-0.362214,0.4354928,-0.07374908,-0.854839,0.4242195,-0.02577674,0.7073733,1.404092,0.2748065,0.3529923,1.104044,0.2325431,283.9315,163.2106,56.88023,True
1,0.4666667,-1.401559,1.405532,0.2813861,-1.276667,-4.177174,-2.998984,0.5016654,1.132387,0.4435792,-1.858069,0.007875252,0.2,0,-0.7418222,0.2873114,0.1295055,-0.4968271,-3.994222,0.04746419,0.5894845,1.346836,0.3903253,-0.378091,0.4568546,-0.06831148,-0.8555411,0.4317281,-0.02581242,0.7068622,1.403828,0.2748632,0.3475246,1.109823,0.2313866,283.4134,159.2962,61.4027,True
1,0.4777778,-1.388039,1.530816,0.3839476,-1.287163,-4.197595,-2.978188,0.498563,1.132513,0.4413509,-1.858457,-0.03539323,0.2,0,-0.7735773,0.33007,0.1301759,-0.4951104,-3.983469,0.0477566,0.587549,1.346974,0.3894928,-0.3993557,0.4835381,-0.07135381,-0.8565744,0.4400555,-0.02606995,0.7061339,1.403797,0.2751081,0.3418865,1.115651,0.2305059,282.9102,155.4211,65.91427,True
1,0.4888889,-1.370069,1.599555,0.4645183,-1.298368,-4.216959,-2.95803,0.4954091,1.132676,0.4389114,-1.858549,-0.0081305,0.2,0,-0.8066143,0.334514,0.1273353,-0.493611,-3.975717,0.05111352,0.5855956,1.347197,0.3887432,-0.4185077,0.5070068,-0.07439893,-0.8575709,0.4482293,-0.0261043,0.7054345,1.403685,0.2752371,0.336015,1.121573,0.2299513,282.4211,151.2495,70.81629,True
1,0.5,-1.354103,1.612643,0.504909,-1.308387,-4.234096,-2.938831,0.4923183,1.132996,0.4365492,-1.859214,-0.060561,0.2,0,-0.8291492,0.2919761,0.1314487,-0.4919071,-3.972072,0.05779805,0.5836533,1.347461,0.3878636,-0.4333992,0.5230223,-0.07641432,-0.8586713,0.4566367,-0.02625717,0.7046708,1.403653,0.2754521,0.3298299,1.127646,0.2297629,281.8771,146.7883,76.13521,True
1,0.5111111,-1.314517,1.57042,0.5488099,-1.31921,-4.248884,-2.921762,0.4889939,1.133163,0.43382,-1.859413,-0.01764592,0.2,0,-0.8581944,0.2538527,0.1207455,-0.4907556,-3.96886,0.06544904,0.581485,1.347621,0.3868752,-0.4565698,0.5572253,-0.0602811,-0.8590165,0.4663106,-0.02674533,0.7035954,1.40369,0.2756245,0.3234425,1.133865,0.2299906,281.3136,141.9686,81.98074,True
1,0.5222223,-1.289881,1.526872,0.5586366,-1.32896,-4.263042,-2.904628,0.4857799,1.133383,0.4313896,-1.85955,-0.01250455,0.2,0,-0.8838476,0.2465614,0.1155898,-0.4895273,-3.963428,0.07127631,0.5793371,1.347647,0.3858325,-0.4670275,0.5743433,-0.04637581,-0.8593728,0.4754705,-0.02724813,0.7027087,1.403572,0.275944,0.3170486,1.14016,0.2305431,280.8156,136.6249,88.52548,True
1,0.5333334,-1.249154,1.449229,0.558006,-1.338316,-4.27508,-2.889225,0.4822956,1.13356,0.4286053,-1.860814,-0.1155836,0.2,0,-0.9180729,0.256472,0.09682501,-0.4888568,-3.956784,0.07684232,0.5768938,1.347765,0.384635,-0.4860282,0.5914749,-0.03450051,-0.8595288,0.4849186,-0.0273781,0.7016113,1.403518,0.2760887,0.3109325,1.146408,0.2312472,280.4684,130.7174,95.69936,True
1,0.5444446,-1.218114,1.397059,0.5476271,-1.347317,-4.287426,-2.873815,0.4790251,1.133708,0.4259646,-1.860425,0.03652558,0.2,0,-0.9574566,0.2801741,0.08886573,-0.4879577,-3.948371,0.0812818,0.5742713,1.347875,0.3833046,-0.5030273,0.6255886,-0.03118641,-0.8596919,0.4953573,-0.02723215,0.7004396,1.403713,0.2760806,0.3052261,1.152461,0.2318152,280.2699,124.0714,103.5267,True
1,0.5555557,-1.161378,1.307679,0.5353364,-1.355846,-4.297252,-2.860673,0.475277,1.133922,0.4230857,-1.861243,-0.07543498,0.1,0,-0.9933798,0.3464044,0.08868119,-0.4866485,-3.935847,0.08254574,0.5716456,1.347811,0.3818371,-0.521959,0.6512539,-0.01506593,-0.8595288,0.5060982,-0.02785267,0.6992383,1.403635,0.2761483,0.3000084,1.158175,0.2320789,280.3071,117.5431,111.0387,True
1,0.5666668,-1.104611,1.20869,0.5188714,-1.363999,-4.305973,-2.848322,0.4716064,1.134198,0.4204183,-1.861056,0.01762401,0.1,0,-1.010135,0.4114825,0.08726784,-0.4852183,-3.921545,0.08171537,0.5690534,1.347853,0.3804374,-0.5325641,0.669387,-0.01179138,-0.8595965,0.5166246,-0.02816692,0.6979399,1.403652,0.2763739,0.295186,1.163484,0.2318302,280.5321,111.5353,117.8151,True
1,0.577778,-1.039278,1.087301,0.4928812,-1.370803,-4.312806,-2.837253,0.4679474,1.134359,0.417599,-1.862331,-0.1169958,0.1,0,-1.018128,0.4784427,0.1102967,-0.4825701,-3.905412,0.07912917,0.5662811,1.347905,0.378839,-0.5473424,0.6843989,-0.0009750258,-0.8591635,0.5278544,-0.02865268,0.696548,1.403256,0.2761416,0.2906881,1.168344,0.231061,280.874,106.552,123.339,True
1,0.5888891,-0.9943227,1.014864,0.4698448,-1.377578,-4.319797,-2.82656,0.4642461,1.134658,0.4147558,-1.862583,-0.02219632,0.1,0,-1.018984,0.4771782,0.133717,-0.4799762,-3.894842,0.08101576,0.5635166,1.348014,0.3773112,-0.5536011,0.695096,0.008651158,-0.858969,0.5384596,-0.02928279,0.6951753,1.403211,0.2761085,0.286352,1.172766,0.2297351,281.2567,102.3775,127.8525,True
1,0.6000003,-0.9311975,0.9200057,0.4298761,-1.382921,-4.325498,-2.817429,0.4606432,1.135038,0.4120767,-1.862982,-0.0367328,0.1,0,-1.020171,0.4590976,0.1292938,-0.4786212,-3.886021,0.08435483,0.5607845,1.347918,0.375993,-0.5619483,0.7111287,0.02363543,-0.8582809,0.5495785,-0.02997841,0.693627,1.403231,0.2763078,0.282225,1.176682,0.228007,281.6333,99.05417,131.3742,True
1,0.6111114,-0.8701231,0.7984833,0.3847503,-1.386961,-4.328984,-2.809376,0.4567147,1.135456,0.4092648,-1.862906,0.006852988,0.1,0,-1.010781,0.4324856,0.1215186,-0.4771969,-3.877865,0.08790456,0.5579894,1.347863,0.3744054,-0.5702279,0.728247,0.0417887,-0.8574654,0.5609656,-0.03091291,0.6919515,1.403222,0.2761576,0.278288,1.180077,0.2259555,281.9993,96.49336,134.0559,True
1,0.6222225,-0.8336209,0.7014671,0.353343,-1.391109,-4.332236,-2.800838,0.452898,1.135805,0.4065208,-1.863656,-0.06903438,0.1,0,-1.000174,0.4121386,0.1276202,-0.4752251,-3.869552,0.09123271,0.5551994,1.347886,0.3725803,-0.5712116,0.7293326,0.04819602,-0.8569397,0.5715723,-0.03166445,0.6904588,1.403164,0.2761006,0.2744223,1.183057,0.2236883,282.2958,94.67912,135.9095,True
1,0.6333337,-0.7626883,0.4882229,0.2853225,-1.391403,-4.330189,-2.795083,0.4487957,1.136324,0.4038861,-1.863824,-0.01519898,0.1,0,-0.9863106,0.4024322,0.1337974,-0.473126,-3.860921,0.09405006,0.5522713,1.347792,0.3708019,-0.5730872,0.7475212,0.0652133,-0.8560124,0.5838046,-0.03335236,0.6886543,1.402905,0.2757978,0.2706361,1.185677,0.2213475,282.5621,93.35928,137.2476,True
1,0.6444448,-0.7261474,0.3741271,0.24976,-1.3934,-4.33028,-2.787961,0.4449054,1.13687,0.4014778,-1.862735,0.09929085,0.1,0,-0.9809035,0.4237211,0.1339247,-0.4711238,-3.848809,0.09426951,0.5493227,1.347731,0.3689165,-0.5708582,0.758171,0.07262606,-0.8551821,0.5953032,-0.03468927,0.6867406,1.403024,0.2758358,0.2668265,1.188018,0.2189137,282.8123,92.17815,138.4433,True
1,0.655556,-0.6745681,0.2227094,0.1984278,-1.392824,-4.327358,-2.782892,0.4409509,1.137364,0.3988101,-1.863902,-0.1079369,0,0,-0.9659906,0.4429083,0.1243587,-0.4695957,-3.836761,0.09361544,0.5464197,1.347629,0.367054,-0.5676251,0.7634947,0.074707,-0.8546089,0.6067278,-0.03607039,0.6848177,1.402974,0.2755148,0.2630499,1.190129,0.2164177,283.0149,91.08986,139.586,True
1,0.6666671,-0.63917,0.1352401,0.1616439,-1.393111,-4.326038,-2.776986,0.4370902,1.137758,0.3959184,-1.862537,0.1254496,0,0,-0.9438521,0.4280418,0.1080389,-0.4685299,-3.827423,0.09522825,0.5434637,1.347638,0.3649652,-0.5717219,0.7614133,0.0896723,-0.8533924,0.6178266,-0.03695242,0.6827151,1.403027,0.2752364,0.2595138,1.191945,0.213766,283.2217,90.33691,140.3362,True
1,0.6777782,-0.583484,0.03176098,0.1078909,-1.391133,-4.322954,-2.773203,0.4332455,1.138218,0.3932941,-1.863374,-0.07804854,0,0,-0.9185012,0.4216972,0.08961393,-0.4678572,-3.817548,0.09592599,0.5402653,1.347502,0.3630204,-0.5726151,0.7540073,0.1067602,-0.8518829,0.6286215,-0.03779905,0.6805621,1.403044,0.2747416,0.2561656,1.19359,0.2109625,283.374,89.79424,140.78,True
1,0.6888894,-0.5288608,-0.07061412,0.06052575,-1.388746,-4.31927,-2.769949,0.4293072,1.138766,0.3907075,-1.862447,0.08520917,0,0,-0.9056829,0.4397923,0.08432008,-0.4666093,-3.805571,0.09480187,0.5372201,1.347394,0.3610318,-0.5618622,0.7422842,0.1183887,-0.8505002,0.6388935,-0.03881983,0.6784092,1.403062,0.2743075,0.2530392,1.195086,0.2079211,283.5902,89.29322,141.1921,True
1,0.7000005,-0.4720667,-0.1825022,0.02493542,-1.38612,-4.314334,-2.767462,0.4253206,1.139262,0.3881931,-1.863641,-0.110352,0,0,-0.8823759,0.4547796,0.06399842,-0.4659855,-3.793005,0.09257308,0.534163,1.34725,0.3589265,-0.5637907,0.7306672,0.1354836,-0.8488948,0.6496395,-0.03986672,0.67622,1.402876,0.273386,0.2500466,1.196492,0.2046016,283.837,88.92079,141.4188,True
1,0.7111117,-0.4175078,-0.2624347,-0.009782091,-1.38285,-4.309415,-2.765627,0.421582,1.139601,0.3856914,-1.863664,-0.001443543,0.1,0,-0.8452172,0.4654052,0.04667052,-0.4657192,-3.780889,0.09000047,0.5309037,1.347251,0.3567729,-0.56259,0.7253761,0.1493351,-0.8470749,0.6602411,-0.04068591,0.6739323,1.402878,0.2726619,0.2473015,1.197701,0.2010786,284.1352,88.85636,141.2197,True
1,0.7222228,-0.3769185,-0.3007627,-0.02875858,-1.380447,-4.305684,-2.763411,0.4179106,1.139972,0.3831747,-1.863604,0.004968944,0.1,0,-0.8175019,0.4994785,0.03389667,-0.4652271,-3.765843,0.08511463,0.527763,1.347183,0.3546193,-0.5538555,0.7072937,0.1737842,-0.8447472,0.6699312,-0.04132347,0.671623,1.402995,0.2721093,0.2447111,1.198699,0.197372,284.4191,88.92384,140.7568,True
1,0.7333339,-0.3012013,-0.3304576,-0.04674822,-1.377603,-4.301594,-2.76346,0.4144982,1.140116,0.3808122,-1.863661,-0.005700461,0.1,0,-0.7950864,0.5239388,0.02643547,-0.4646742,-3.751003,0.07989909,0.5246581,1.347023,0.3524342,-0.5473145,0.6902817,0.1918718,-0.8423227,0.6796018,-0.04188966,0.6692312,1.403006,0.2713001,0.242262,1.199429,0.1935493,284.6696,88.98759,140.2427,True
1,0.7444451,-0.2628413,-0.3346033,-0.04781922,-1.375778,-4.298296,-2.762226,0.4110098,1.140396,0.3783879,-1.862944,0.06524345,0.1,0,-0.7898842,0.5325518,0.01260844,-0.4644068,-3.737204,0.07665031,0.5216175,1.346839,0.3501773,-0.5375834,0.6892008,0.2056225,-0.8398806,0.6896841,-0.04302923,0.6668012,1.402964,0.2706716,0.2399423,1.199838,0.1896906,284.8867,89.23078,139.5381,True
1,0.7555562,-0.2127641,-0.3376521,-0.04996942,-1.373747,-4.294852,-2.762288,0.4077516,1.140407,0.3760478,-1.864485,-0.1418588,0,0,-0.7645658,0.5294465,-0.01216182,-0.4650039,-3.724139,0.07258925,0.5186201,1.346593,0.3479564,-0.5226296,0.6827828,0.2108049,-0.8376824,0.6997555,-0.04447905,0.6643535,1.402941,0.2697387,0.2376228,1.200009,0.1858819,285.0279,89.63808,138.673,True
1,0.7666674,-0.1605962,-0.3278772,-0.0468714,-1.372126,-4.291862,-2.762648,0.404548,1.140431,0.3736293,-1.862947,0.1414164,0,0,-0.7211528,0.5284085,-0.03708237,-0.4658396,-3.71062,0.06750501,0.5155513,1.346322,0.3459933,-0.5066083,0.6699992,0.2138468,-0.8357319,0.7096102,-0.04621011,0.6618751,1.402783,0.2686088,0.2353382,1.199884,0.1822706,285.1357,90.06163,137.8206,True
1,0.7777785,-0.1074034,-0.3031991,-0.04492578,-1.370796,-4.289471,-2.763599,0.4014822,1.140299,0.3712835,-1.863456,-0.0482761,0,0,-0.6800368,0.5200349,-0.07693762,-0.4674929,-3.697808,0.06247163,0.5125637,1.346089,0.343787,-0.48424,0.6401294,0.2211453,-0.833302,0.7179163,-0.04723009,0.6594036,1.402834,0.2674968,0.2328727,1.199624,0.1788408,285.1511,90.47904,137.0394,True
1,0.7888896,-0.05954368,-0.2774543,-0.04085524,-1.369653,-4.287421,-2.764893,0.3986803,1.140027,0.368973,-1.863381,0.007042063,0,0,-0.6452583,0.5234128,-0.117737,-0.4697891,-3.684217,0.05651414,0.5094752,1.345749,0.3412249,-0.4595861,0.6039318,0.2411939,-0.8304301,0.7258052,-0.04846873,0.6569366,1.402786,0.2663307,0.2303215,1.199203,0.1756744,285.1404,90.8299,136.4409,True
1,0.8000008,-0.0276373,-0.2602801,-0.03565508,-1.368535,-4.285152,-2.765918,0.3957793,1.139848,0.3666208,-1.863518,-0.01303034,0,0,-0.6187645,0.5458787,-0.1422812,-0.4716831,-3.66845,0.04867726,0.5065267,1.345469,0.3390143,-0.4392698,0.5719569,0.2559804,-0.8273238,0.7331821,-0.04928046,0.654456,1.402805,0.2651713,0.2276545,1.198666,0.1727371,285.0955,91.13142,135.9874,True
1,0.8111119,0.03716816,-0.2003156,-0.01901896,-1.36872,-4.284707,-2.768575,0.3935157,1.139305,0.3644669,-1.86339,0.0114008,0.1,0,-0.5826753,0.5661362,-0.16484,-0.4740294,-3.652623,0.04004728,0.5036717,1.345141,0.3366096,-0.4232154,0.5559714,0.265412,-0.8245855,0.7411727,-0.05060645,0.6519965,1.402891,0.2639685,0.2249456,1.197977,0.1700523,285.0316,91.37981,135.6635,True
1,0.8222231,0.07116506,-0.1671128,-0.007523701,-1.368676,-4.283788,-2.770557,0.3910103,1.138899,0.3622751,-1.862537,0.07748385,0.1,0,-0.5721138,0.5586855,-0.1703154,-0.475632,-3.639319,0.03438327,0.5007792,1.344763,0.3343329,-0.3912045,0.5420383,0.2746872,-0.8215809,0.7487593,-0.05246747,0.6494066,1.403083,0.2629645,0.2222394,1.197129,0.1675831,284.9328,91.60649,135.431,True
1,0.8333342,0.1104446,-0.1200131,0.009208821,-1.369376,-4.283783,-2.773093,0.3888429,1.138275,0.3602805,-1.863926,-0.1279689,0.1,0,-0.5404495,0.5374051,-0.1910398,-0.4782931,-3.627709,0.02906467,0.4980356,1.34436,0.3321905,-0.3623813,0.5270699,0.2840061,-0.8183702,0.7563871,-0.05461477,0.6469364,1.403104,0.2617576,0.219538,1.196183,0.1652402,284.7787,91.89143,135.1687,True
1,0.8444453,0.1391408,-0.09641028,0.02182547,-1.369721,-4.283157,-2.775572,0.3865136,1.137756,0.3582423,-1.862792,0.104407,0.1,0,-0.4906486,0.53421,-0.2171164,-0.4814777,-3.61457,0.02143445,0.4952737,1.343993,0.3301659,-0.3390211,0.4992911,0.284876,-0.8156298,0.7626623,-0.05579349,0.6445407,1.40322,0.2605288,0.2170053,1.195054,0.1631306,284.6204,92.10695,134.9911,True
1,0.8555565,0.1731591,-0.06956151,0.03974892,-1.370792,-4.282956,-2.778738,0.3846269,1.136944,0.3564434,-1.862872,-0.008682816,0,0,-0.4535222,0.5459452,-0.2397414,-0.4848285,-3.60059,0.01281913,0.4925953,1.3436,0.3280959,-0.3176207,0.475837,0.2996265,-0.8120559,0.7691575,-0.0574348,0.6421198,1.403228,0.2592821,0.2144846,1.193844,0.161127,284.4435,92.33235,134.8037,True
1,0.8666676,0.2039669,-0.03957046,0.05126464,-1.371817,-4.282998,-2.781928,0.3828371,1.136146,0.3546097,-1.862257,0.05605384,0,0,-0.4110805,0.5576799,-0.263493,-0.4885969,-3.586047,0.003291933,0.4900935,1.343135,0.3261378,-0.2792463,0.4427416,0.3078029,-0.808826,0.7746761,-0.05962871,0.6396364,1.403145,0.2577479,0.2120154,1.192549,0.1592552,284.2611,92.53358,134.6439,True
1,0.8777788,0.2337019,-0.007422072,0.06702317,-1.373187,-4.283435,-2.785322,0.3812575,1.135258,0.3529029,-1.862524,-0.02519779,0,0,-0.363307,0.5543935,-0.2788809,-0.492157,-3.573104,-0.005593704,0.4877345,1.342628,0.3242631,-0.2537487,0.4266835,0.305443,-0.8057857,0.7807035,-0.06189506,0.6372703,1.403135,0.2564552,0.2095682,1.191207,0.1574525,284.0609,92.73013,134.5014,True
1,0.8888899,0.2559618,0.02890019,0.07211453,-1.374631,-4.28457,-2.788687,0.3799141,1.1343,0.3514159,-1.862213,0.02836743,0,0,-0.3111979,0.5338992,-0.2784786,-0.4952265,-3.562019,-0.0136013,0.4853485,1.342179,0.3224738,-0.2029185,0.3891821,0.2869007,-0.8033835,0.7850244,-0.06436674,0.6349213,1.403131,0.2551396,0.2073236,1.189716,0.1558134,283.846,92.85203,134.4483,True
1,0.900001,0.2739522,0.06626,0.07507329,-1.376109,-4.286003,-2.791879,0.378564,1.133379,0.3500979,-1.862053,0.01414973,0,0,-0.251937,0.4569424,-0.2818212,-0.4984308,-3.556526,-0.01737553,0.4830724,1.341656,0.3207526,-0.1659291,0.351728,0.2695418,-0.8012727,0.7887477,-0.0661697,0.6326234,1.403104,0.2538147,0.2052384,1.188107,0.1542846,283.6194,93.01524,134.3711,True
1,0.9111122,0.287728,0.09084377,0.08130693,-1.377774,-4.287369,-2.795285,0.3773173,1.132429,0.3487515,-1.86177,0.02551066,0.1,0,-0.1927275,0.3650629,-0.2842334,-0.5017177,-3.554371,-0.0190155,0.4809113,1.341208,0.3192048,-0.1437253,0.3250084,0.2608559,-0.7988471,0.7927887,-0.06812872,0.630337,1.403072,0.2524443,0.2033267,1.186381,0.1528857,283.3857,93.26495,134.1888,True
1,0.9222233,0.3078803,0.1175409,0.08219537,-1.3793,-4.288997,-2.798919,0.3762212,1.13138,0.3475418,-1.861284,0.04394621,0.1,0,-0.1525167,0.3052154,-0.2819323,-0.5048235,-3.550403,-0.02167547,0.4786603,1.340797,0.3175478,-0.1043686,0.2780433,0.2680166,-0.795801,0.7952247,-0.06988108,0.6280832,1.402844,0.2509255,0.2015546,1.184567,0.1516595,283.1548,93.65812,133.8261,True
1,0.9333345,0.3344413,0.1410869,0.08629514,-1.381115,-4.290835,-2.803134,0.3753151,1.130355,0.3465703,-1.861136,0.01297382,0.1,0,-0.1003144,0.2268729,-0.2436774,-0.5061663,-3.550931,-0.0219013,0.4766459,1.340404,0.3160963,-0.06279075,0.2449326,0.2793881,-0.7924033,0.7977134,-0.07234716,0.6259049,1.402944,0.2494111,0.1997934,1.18276,0.1506013,282.9161,94.08083,133.4334,True
1,0.9444456,0.3567425,0.163552,0.09039845,-1.382917,-4.292807,-2.807394,0.3742616,1.129409,0.3453786,-1.861131,0.0001609756,0.1,0,-0.0471023,0.1828211,-0.2275165,-0.5083032,-3.54887,-0.02463903,0.4745806,1.340038,0.3145111,-0.03820392,0.2310235,0.2908814,-0.7889562,0.8007755,-0.0748303,0.6238475,1.403075,0.2480886,0.1980202,1.180994,0.1497106,282.6742,94.3714,133.2373,True
1,0.9555568,0.3918141,0.1913987,0.09659652,-1.38515,-4.295364,-2.812524,0.3734386,1.128326,0.344578,-1.861473,-0.03147428,0.1,0,-0.01181313,0.1771855,-0.2108531,-0.5101296,-3.54535,-0.02879569,0.4725409,1.339599,0.3129666,-0.01372531,0.2107235,0.2938716,-0.7857066,0.8034347,-0.07743567,0.6217703,1.403056,0.2466733,0.1963123,1.179215,0.1490296,282.4382,94.62064,133.1228,True
1,0.9666679,0.425825,0.2160174,0.09748574,-1.387186,-4.298098,-2.817753,0.372597,1.127287,0.3437753,-1.861289,0.01698629,0.1,0,0.02353495,0.2035941,-0.2024453,-0.5123256,-3.538307,-0.03611353,0.4705727,1.339128,0.3115959,0.003304422,0.1872543,0.2969371,-0.782694,0.8056701,-0.07969749,0.6197145,1.402761,0.2451341,0.194662,1.177417,0.1485562,282.1924,94.81281,133.0951,True
1,0.977779,0.4524394,0.2225126,0.1006226,-1.389195,-4.300291,-2.823273,0.3717394,1.126283,0.3430092,-1.861927,-0.05879918,0.1,0,0.04274553,0.2227332,-0.2077865,-0.5148939,-3.531818,-0.0427677,0.4688478,1.338532,0.3101914,0.02873541,0.161603,0.2914113,-0.7797485,0.8073936,-0.0820219,0.6176555,1.402722,0.2437797,0.1929501,1.175637,0.1481922,281.9464,94.96401,133.1351,True
1,0.9888902,0.5014521,0.2173135,0.09634803,-1.390621,-4.302063,-2.830015,0.3710795,1.125335,0.3422067,-1.861789,0.01293109,0.1,0,0.05974555,0.243015,-0.2216292,-0.5180493,-3.525392,-0.04939045,0.4669901,1.338057,0.3089283,0.03932106,0.1466502,0.2881282,-0.7770305,0.8092955,-0.08426561,0.6157508,1.402602,0.2424939,0.1912755,1.173765,0.1480348,281.7045,95.0949,133.1822,True
1,1.000001,0.5206655,0.2023958,0.08576184,-1.391598,-4.303572,-2.836008,0.3703209,1.124366,0.341166,-1.861608,0.01612854,0.1,0,0.07673737,0.2515419,-0.2313038,-0.521056,-3.519414,-0.0559634,0.465275,1.337499,0.3076215,0.04773191,0.1178668,0.2870637,-0.7738091,0.8102958,-0.08551064,0.6141493,1.402366,0.2411404,0.1895518,1.17179,0.1480365,281.438,95.26315,133.2272,True
1,1.011112,0.5410101,0.1639684,0.06254196,-1.391637,-4.304126,-2.8426,0.3697338,1.123482,0.3406322,-1.862378,-0.07077581,0.8,0,0.1148621,0.2419328,-0.249862,-0.5245826,-3.515065,-0.06219147,0.4636381,1.337089,0.3065121,0.05832724,0.09228764,0.2880904,-0.7706107,0.8112592,-0.08719536,0.6122625,1.402127,0.2397187,0.1877885,1.169695,0.1481299,281.1078,95.50126,133.2708,True
1,1.022224,0.5529102,0.09667465,0.02565251,-1.390443,-4.303421,-2.849118,0.3692548,1.122611,0.3400664,-1.861308,0.09814588,0.8,0,0.1284709,0.2260339,-0.2661137,-0.5282156,-3.51139,-0.0669279,0.4619842,1.336571,0.3053787,0.06357051,0.0805399,0.2827486,-0.7676253,0.8124071,-0.08901829,0.6101391,1.402139,0.2384343,0.1860687,1.167424,0.1482178,280.7535,95.87483,133.2562,True
1,1.033335,0.5605908,0.01656447,-0.01328568,-1.38837,-4.301507,-2.855928,0.3687972,1.121854,0.339668,-1.861283,0.001129524,0.8,0,0.1483664,0.1984337,-0.288911,-0.5323206,-3.509441,-0.07092584,0.4604214,1.336118,0.3043325,0.06234071,0.07198682,0.2699884,-0.7653983,0.8135174,-0.09041619,0.6085013,1.402225,0.2372911,0.1844058,1.164975,0.1481495,280.375,96.62377,132.8432,True
1,1.044446,0.5682561,-0.06247927,-0.05329481,-1.385892,-4.299171,-2.86269,0.3684195,1.121012,0.3391933,-1.86073,0.05044697,0.8,0,0.1558033,0.1866504,-0.2848206,-0.5353907,-3.506317,-0.07545108,0.4588628,1.335914,0.3033812,0.06866774,0.05918056,0.2678376,-0.7623437,0.8143845,-0.09190862,0.606727,1.401898,0.2360656,0.1830518,1.162281,0.1479735,279.9832,97.98762,131.6942,True
1,1.055557,0.5801179,-0.1137233,-0.0774962,-1.383462,-4.296741,-2.87004,0.3679674,1.120238,0.3388367,-1.860512,0.01937488,0.8,0,0.1547886,0.1844703,-0.2784374,-0.5384448,-3.502861,-0.080122,0.4573277,1.335443,0.3023078,0.0749734,0.06126862,0.2592408,-0.7598302,0.8158123,-0.09398402,0.6050593,1.401747,0.2349153,0.1820853,1.159375,0.1476242,279.5981,99.94589,129.8521,True
1,1.066668,0.591961,-0.1607412,-0.1070524,-1.380561,-4.294201,-2.877442,0.3675654,1.119272,0.3381186,-1.860181,0.02996795,2.1,0,0.1472799,0.1824113,-0.2815807,-0.5418489,-3.499287,-0.08438119,0.4558478,1.334922,0.301342,0.08130322,0.05805559,0.2549092,-0.7574089,0.8171851,-0.09599231,0.6033728,1.401933,0.2338262,0.1815097,1.15634,0.1470393,279.2515,102.3718,127.4225,True
1,1.077779,0.6047359,-0.1618629,-0.123035,-1.378286,-4.292921,-2.884837,0.3672843,1.118425,0.3379521,-1.86054,-0.03319486,2.1,0,0.1495127,0.193011,-0.2761863,-0.544993,-3.494812,-0.08994507,0.4545084,1.334404,0.3003969,0.08654518,0.05056399,0.2484841,-0.7548741,0.8179974,-0.09775319,0.6017908,1.401875,0.2327685,0.181237,1.153269,0.1461727,278.9694,105.0444,124.6215,True
1,1.08889,0.6184694,-0.1266844,-0.1275218,-1.376801,-4.293257,-2.892064,0.3671613,1.117598,0.3378005,-1.860433,0.009954624,2.1,0,0.1559943,0.2057368,-0.2729442,-0.5481739,-3.49019,-0.09586953,0.4531199,1.333966,0.2994504,0.09082552,0.05161854,0.2505587,-0.7521566,0.819167,-0.09966374,0.6003284,1.401949,0.2316978,0.181127,1.150231,0.1450462,278.7677,107.6614,121.7851,True
1,1.100002,0.6311193,-0.08403955,-0.1277923,-1.375513,-4.29396,-2.899374,0.3669619,1.116592,0.3372936,-1.860461,-0.002750023,2.1,0,0.1549225,0.202544,-0.2708244,-0.5512717,-3.486196,-0.1008273,0.4518962,1.333419,0.2985988,0.0941304,0.05483716,0.2601113,-0.74885,0.8208151,-0.1019911,0.5988634,1.401915,0.2307298,0.1811024,1.147202,0.1437268,278.644,110.3185,118.8377,True
1,1.111113,0.641533,-0.004000746,-0.1101743,-1.375489,-4.296656,-2.906435,0.3671041,1.11575,0.3375022,-1.860426,0.003100771,2.1,0,0.1494192,0.1995187,-0.2878441,-0.5552297,-3.482895,-0.1051293,0.4507,1.332929,0.2978051,0.09735851,0.06760089,0.2600383,-0.7460878,0.8228186,-0.1046484,0.5974264,1.401896,0.2298195,0.1811345,1.144172,0.142506,278.5366,113.4232,115.3055,True
1,1.122224,0.6424387,0.04935326,-0.095585,-1.375314,-4.298752,-2.913199,0.3671843,1.114809,0.337359,-1.860399,0.00237256,2.1,0,0.1472343,0.203852,-0.2941768,-0.5589549,-3.478845,-0.1100056,0.4494702,1.33235,0.297014,0.09944391,0.0782282,0.2546647,-0.7434832,0.8248897,-0.1071494,0.5958571,1.401886,0.2289512,0.1810266,1.141218,0.1415954,278.4211,116.4417,111.9406,True
1,1.133335,0.6348836,0.08240472,-0.08725695,-1.375075,-4.300853,-2.919673,0.3673227,1.113975,0.3374979,-1.860361,0.003299438,2.1,0,0.1578462,0.2123969,-0.3027278,-0.5629289,-3.474654,-0.1156928,0.4483853,1.331877,0.2963369,0.1026743,0.08248651,0.2567485,-0.7406539,0.8269576,-0.1099092,0.5945809,1.401901,0.2281685,0.1806638,1.138353,0.1411097,278.286,119.2659,108.9265,True
1,1.144446,0.6304992,0.1250513,-0.07899056,-1.375016,-4.303581,-2.926132,0.3674778,1.113073,0.3374465,-1.859791,0.05195687,2.1,0,0.1610992,0.2155421,-0.2974038,-0.5663207,-3.470459,-0.1210838,0.4472404,1.331378,0.2957458,0.1068736,0.08673489,0.251377,-0.737979,0.8293626,-0.1127769,0.5935699,1.401732,0.2273886,0.1801161,1.135567,0.1412944,278.0902,122.1778,105.9741,True
1,1.155557,0.6240332,0.1495583,-0.07487294,-1.374869,-4.306227,-2.93242,0.3678125,1.112271,0.3376975,-1.859336,0.04108794,2.1,0,0.1547858,0.2090866,-0.2856773,-0.5693359,-3.466966,-0.1255028,0.4464379,1.330895,0.295238,0.1151958,0.08133647,0.234261,-0.7359321,0.8307999,-0.1153793,0.5923302,1.401796,0.2267158,0.1793216,1.132901,0.1420558,277.8493,124.8981,103.4809,True
1,1.166668,0.6047578,0.1814636,-0.07292213,-1.374696,-4.309315,-2.937897,0.3682478,1.111481,0.3378687,-1.859341,-0.0008303654,1.1,0,0.1569334,0.1919456,-0.2751939,-0.5723042,-3.464674,-0.129199,0.4454375,1.330435,0.2946129,0.1171566,0.07703479,0.2193261,-0.7342298,0.8323365,-0.1179051,0.5912523,1.401673,0.2260542,0.1783593,1.130365,0.1432783,277.5964,127.6213,101.162,True
1,1.17778,0.5908532,0.2006115,-0.06983472,-1.374558,-4.312212,-2.943483,0.3687419,1.110859,0.3382456,-1.859125,0.01979369,1.1,0,0.1728563,0.1673169,-0.2680987,-0.5752188,-3.463188,-0.1327884,0.4447974,1.330118,0.2943733,0.1191118,0.06740129,0.2054831,-0.7325163,0.8332636,-0.1199794,0.5902802,1.401644,0.2254219,0.1772978,1.127953,0.1447918,277.3438,130.2598,99.04111,True
1,1.188891,0.5695103,0.2122625,-0.06988929,-1.374332,-4.315082,-2.948423,0.3694055,1.110255,0.3388209,-1.858378,0.06814769,1.1,0,0.1854925,0.1385047,-0.2695308,-0.5782719,-3.462992,-0.1354012,0.4442755,1.329792,0.2941957,0.1294681,0.03643481,0.1862954,-0.7308923,0.8327705,-0.1212947,0.5896207,1.401373,0.2250686,0.1763267,1.125625,0.146502,277.1038,133.0693,96.7704,True
1,1.200002,0.5545607,0.2207472,-0.067805,-1.374071,-4.317843,-2.953407,0.3699601,1.10974,0.3393946,-1.858419,-0.00427862,1.1,0,0.201383,0.1074912,-0.263556,-0.581016,-3.463251,-0.1379267,0.4436985,1.329498,0.2939765,0.1356678,0.02146536,0.1713613,-0.7293956,0.8328961,-0.1232117,0.5886461,1.401264,0.2245712,0.1754937,1.123412,0.1482461,276.8908,136.1457,94.2131,True
1,1.211113,0.5343101,0.2238794,-0.06780881,-1.373823,-4.320569,-2.958079,0.3707177,1.109253,0.3401086,-1.857873,0.05011185,0.6,0,0.2258599,0.06674209,-0.2460269,-0.5830155,-3.465025,-0.139719,0.4433711,1.32933,0.2939751,0.1535202,-0.001008712,0.1531231,-0.7282446,0.8318946,-0.1248035,0.5879972,1.401213,0.2240856,0.1749085,1.121335,0.1499538,276.7241,139.3962,91.38903,True
1,1.222224,0.5225797,0.2270573,-0.06462707,-1.373655,-4.32333,-2.962906,0.3713733,1.108743,0.3406553,-1.857952,-0.007599837,0.6,0,0.2470977,0.02497953,-0.2316679,-0.5849181,-3.467268,-0.1411105,0.4432185,1.329079,0.2938704,0.1650711,-0.01385979,0.1413282,-0.7267995,0.8313262,-0.1265097,0.5874248,1.401206,0.2234306,0.174609,1.11942,0.1515788,276.6158,142.4976,88.60889,True
1,1.233335,0.502301,0.2365495,-0.06893514,-1.373184,-4.326386,-2.967144,0.3721436,1.10835,0.3413937,-1.857789,0.01516626,0.6,0,0.2694327,-0.006117105,-0.2204273,-0.5868057,-3.469843,-0.1427297,0.4430593,1.328836,0.2938955,0.1839361,-0.04699582,0.1209789,-0.725942,0.8289375,-0.1274173,0.5870651,1.40116,0.2230039,0.174518,1.117705,0.1530644,276.5566,145.1356,86.20017,True
1,1.244446,0.4905746,0.2386301,-0.07106957,-1.372801,-4.329266,-2.971609,0.3728318,1.107928,0.3421288,-1.858067,-0.02553155,0.6,0,0.2800424,-0.02431396,-0.2153584,-0.5889543,-3.471712,-0.1444632,0.4428123,1.328537,0.2938256,0.1912699,-0.05555555,0.1124221,-0.7245551,0.8281323,-0.1290315,0.5866299,1.401335,0.2225118,0.1746303,1.116168,0.1544318,276.5269,147.2313,84.27682,True
1,1.255558,0.4724512,0.2406547,-0.07958946,-1.372119,-4.33223,-2.975629,0.3736004,1.107575,0.3429623,-1.857707,0.03325501,0.6,0,0.2886053,-0.03936729,-0.2038495,-0.5906407,-3.473963,-0.1461031,0.4427534,1.328318,0.2938938,0.1964719,-0.06731312,0.103877,-0.7235484,0.8265729,-0.1302161,0.5862926,1.401327,0.222126,0.1748296,1.114782,0.1556613,276.5229,148.7712,82.86784,True
1,1.266669,0.4479516,0.2362262,-0.09445868,-1.371019,-4.334989,-2.97928,0.3744268,1.107381,0.343853,-1.857996,-0.02659594,0.5,0,0.2886366,-0.05008417,-0.1954154,-0.5923728,-3.475781,-0.1477801,0.442754,1.328015,0.2938585,0.2027198,-0.07589501,0.09211539,-0.7227808,0.8248765,-0.1314662,0.5856396,1.401368,0.2218237,0.1750751,1.113751,0.1567345,276.4574,148.5963,83.07137,True
1,1.27778,0.4330451,0.2297083,-0.1071963,-1.369792,-4.337589,-2.983137,0.3752407,1.107003,0.3443053,-1.857748,0.02299223,0.5,0,0.2844492,-0.05333191,-0.1858178,-0.5940708,-3.477202,-0.1496047,0.4428352,1.327805,0.2939239,0.2047946,-0.08549836,0.08892536,-0.7217097,0.823191,-0.132611,0.5853545,1.401369,0.2214954,0.1753105,1.11334,0.1575996,276.1383,144.6,86.90666,True
1,1.288891,0.410708,0.2168028,-0.1156236,-1.368552,-4.339831,-2.986536,0.3761182,1.106856,0.3451188,-1.857467,0.02559762,0.5,0,0.2824509,-0.05237871,-0.1719405,-0.5954216,-3.478633,-0.1514164,0.4429637,1.327687,0.2940707,0.2035274,-0.0961988,0.07191487,-0.7213369,0.8210807,-0.1333788,0.5853841,1.401083,0.2213056,0.1758617,1.113073,0.1586326,276.2224,143.3136,88.16688,True
1,1.300002,0.391562,0.2060188,-0.1261975,-1.367126,-4.342056,-2.989982,0.3769825,1.106518,0.345685,-1.857785,-0.02918839,0.5,0,0.2836654,-0.04181707,-0.1612062,-0.5967995,-3.47906,-0.1542431,0.4430187,1.327579,0.2941656,0.2001826,-0.1132614,0.06241477,-0.7206759,0.81843,-0.1335344,0.5850371,1.40117,0.2209866,0.1764277,1.112862,0.1597679,276.3095,141.3984,90.12341,True
1,1.311113,0.3755595,0.2112432,-0.1347397,-1.365725,-4.344899,-2.993092,0.3778372,1.106372,0.3465207,-1.85747,0.02919563,0.5,0,0.2711605,-0.0398784,-0.1323119,-0.5973827,-3.479999,-0.1559968,0.4433117,1.32769,0.2945645,0.2021999,-0.1409785,0.0582028,-0.7199419,0.8147135,-0.1332124,0.5850437,1.401255,0.2206154,0.1769719,1.112639,0.1609386,276.3145,138.93,92.71429,True
1,1.322224,0.3521107,0.2154002,-0.1379506,-1.364395,-4.347614,-2.995711,0.3785801,1.106044,0.3467126,-1.857651,-0.01663719,0.2,0.2,0.2648802,-0.04530352,-0.1173832,-0.5981119,-3.481526,-0.1573774,0.4435486,1.327672,0.2948253,0.2106055,-0.1452828,0.04854142,-0.7194226,0.8124025,-0.1340963,0.5849875,1.401219,0.2202754,0.1775331,1.112423,0.1621147,276.2679,136.8309,94.88952,True
1,1.333336,0.3286601,0.2195813,-0.1390237,-1.363193,-4.350451,-2.997996,0.3793796,1.106014,0.3475587,-1.857643,0.0009773241,0.2,0.2,0.2691113,-0.06883171,-0.109102,-0.5987856,-3.484523,-0.1580179,0.4439543,1.327621,0.2950997,0.2116028,-0.1463833,0.04213818,-0.7189512,0.8097349,-0.1345093,0.585176,1.40119,0.2201176,0.1779794,1.112208,0.1631774,276.3017,132.8267,98.97415,True
1,1.344447,0.3030757,0.2248066,-0.1422359,-1.361916,-4.35336,-3.000006,0.3800671,1.106011,0.3480484,-1.857304,0.03106764,0.2,0.2,0.2808446,-0.08708701,-0.09871237,-0.5992645,-3.487409,-0.159158,0.4444222,1.327573,0.2954705,0.2156316,-0.1624369,0.02508826,-0.7189469,0.8059517,-0.1340904,0.5855515,1.401349,0.2200184,0.1784053,1.112042,0.164206,276.2327,130.327,101.4715,True
1,1.355558,0.2860369,0.222616,-0.1432751,-1.360653,-4.356012,-3.002045,0.380846,1.106056,0.3488836,-1.857165,0.01261928,0.2,0.2,0.2840001,-0.09990311,-0.09672152,-0.6000203,-3.490381,-0.1599487,0.4448422,1.327587,0.2957923,0.2208306,-0.1752597,0.0165461,-0.7187387,0.8023861,-0.1340193,0.5857319,1.401371,0.2198141,0.178688,1.111881,0.1650507,276.103,126.3371,105.538,True
1,1.366669,0.2625965,0.2214336,-0.1485653,-1.359302,-4.358443,-3.003686,0.3815947,1.106622,0.3507822,-1.857123,0.003936101,0.4,0.6,0.2958077,-0.1257231,-0.07361784,-0.5996943,-3.494288,-0.1601921,0.4454164,1.327644,0.2962236,0.218577,-0.1880528,0.008084556,-0.7186045,0.7988605,-0.1337485,0.5859402,1.401372,0.2196391,0.1789477,1.111805,0.1658796,276.0943,124.3188,107.4991,True
1,1.37778,0.2327821,0.2170654,-0.1506466,-1.357905,-4.36096,-3.0048,0.382338,1.106871,0.3516891,-1.857323,-0.01813975,0.4,0.6,0.2959848,-0.1397879,-0.04817258,-0.5991713,-3.497617,-0.160684,0.4460182,1.32779,0.2965703,0.2174367,-0.1944568,0.00278831,-0.7184473,0.7952635,-0.1334124,0.5861977,1.401391,0.219512,0.1791908,1.111762,0.1667133,276.0962,122.8817,108.9282,True
1,1.388891,0.2008788,0.2031026,-0.1505569,-1.356224,-4.362882,-3.005758,0.3830128,1.106984,0.3520055,-1.857126,0.01833585,0.4,0.6,0.2919524,-0.147462,-0.02049991,-0.5981635,-3.500762,-0.1611942,0.4466749,1.327908,0.2970064,0.2076029,-0.2104776,-0.01732377,-0.7192112,0.7905483,-0.1320238,0.5865313,1.401506,0.2196102,0.1795733,1.111705,0.167922,276.4974,126.1799,105.4486,True
1,1.400002,0.1753394,0.1934257,-0.1515412,-1.354813,-4.364941,-3.006443,0.3836872,1.107169,0.3529184,-1.856833,0.02679645,0.4,0.6,0.2867161,-0.149654,-0.009815644,-0.5976618,-3.503564,-0.1618486,0.447347,1.327988,0.2974367,0.2117652,-0.2211686,-0.02373274,-0.7192857,0.7861152,-0.1312089,0.5870489,1.401513,0.2195301,0.1800834,1.111798,0.1694613,276.3979,126.3327,105.2574,True
1,1.411114,0.1200478,0.1580392,-0.1608721,-1.35282,-4.365839,-3.005783,0.384266,1.107515,0.3539128,-1.856785,0.004418264,0.4,0.6,0.2816464,-0.1552117,0.0200141,-0.5962093,-3.506615,-0.1622068,0.4481484,1.328058,0.2979202,0.2094444,-0.2361164,-0.03751474,-0.7197645,0.7812836,-0.1298091,0.587604,1.401531,0.2195165,0.1804797,1.111795,0.1712899,276.6713,128.5007,103.4595,True
1,1.422225,0.09243941,0.1291434,-0.1670794,-1.350675,-4.366644,-3.005957,0.3849961,1.10761,0.3544736,-1.856815,-0.002581059,0.8,0.7,0.282751,-0.1691631,0.03160594,-0.5951739,-3.51046,-0.1621378,0.4489793,1.328141,0.298332,0.2125488,-0.2435946,-0.0428329,-0.7197054,0.7769427,-0.1288522,0.5883908,1.401392,0.2193127,0.180656,1.111739,0.1729985,276.6379,128.664,103.7985,True
1,1.433336,0.05632662,0.09166051,-0.1806731,-1.348194,-4.366759,-3.005347,0.3855694,1.107968,0.3553395,-1.855541,0.1166812,0.8,0.7,0.2860332,-0.1767441,0.04429441,-0.5939025,-3.514116,-0.1624289,0.449856,1.328295,0.2988932,0.2124538,-0.2489424,-0.05027412,-0.7201315,0.7723821,-0.127799,0.589054,1.401379,0.2193203,0.1807557,1.11176,0.1745128,276.3936,126.9017,105.7584,True
1,1.444447,0.01702379,0.05205167,-0.1921283,-1.345563,-4.36657,-3.004422,0.3862019,1.108324,0.3560505,-1.856567,-0.09455127,0.8,0.7,0.2851157,-0.1918555,0.06761421,-0.5919669,-3.518312,-0.1620432,0.4507987,1.328545,0.2995472,0.2134644,-0.2574931,-0.05347729,-0.7207047,0.7671348,-0.1263249,0.5895866,1.401626,0.2194867,0.1809083,1.111817,0.1758524,276.4573,127.8014,105.0768,True
1,1.455558,-0.006326661,0.02317655,-0.1983266,-1.343061,-4.366197,-3.003662,0.3867612,1.108726,0.356873,-1.856115,0.04246059,0.8,0.7,0.284051,-0.211107,0.07704802,-0.5903083,-3.523322,-0.1610195,0.4516809,1.328731,0.3001196,0.2102233,-0.2532381,-0.05878145,-0.7212128,0.762954,-0.125412,0.5903205,1.40166,0.2196076,0.1811687,1.111885,0.1769562,276.5818,127.9481,105.1185,True
1,1.466669,-0.04133405,-0.0259732,-0.2054552,-1.340385,-4.364769,-3.002422,0.3872557,1.109217,0.3577552,-1.856015,0.008990301,1.1,0.5,0.2691835,-0.2185676,0.08564241,-0.5888143,-3.52776,-0.1597931,0.4526258,1.328875,0.3008115,0.2004976,-0.2564383,-0.06932394,-0.722017,0.7583824,-0.1237118,0.5911195,1.401459,0.2195132,0.1815929,1.112009,0.1778571,276.7194,129.1324,103.9395,True
1,1.47778,-0.064688,-0.05269185,-0.2074054,-1.337796,-4.363546,-3.00113,0.3877714,1.109684,0.3585413,-1.856486,-0.04287546,1.1,0.5,0.2640654,-0.2133758,0.104909,-0.586737,-3.530951,-0.1599063,0.4536351,1.329104,0.3015003,0.1983238,-0.2596372,-0.07248758,-0.7225683,0.7536916,-0.1223286,0.5919026,1.401446,0.2196183,0.1822819,1.112161,0.1785333,276.6579,130.7277,102.2433,True
1,1.488891,-0.1071959,-0.09326005,-0.2017523,-1.3362,-4.361539,-2.998667,0.3881258,1.110448,0.3597689,-1.856158,0.03060081,1.1,0.5,0.2588905,-0.2209842,0.1251365,-0.5842528,-3.535264,-0.1589542,0.4546614,1.3294,0.302207,0.1959796,-0.2681978,-0.08948618,-0.7237976,0.7486029,-0.1205411,0.5927229,1.40142,0.2198579,0.1831096,1.112303,0.1790227,276.7916,132.2608,100.5779,True
1,1.500003,-0.130583,-0.1134763,-0.1898316,-1.335187,-4.360194,-2.996613,0.3885659,1.111182,0.3606963,-1.856441,-0.02590416,1.1,0.5,0.2565908,-0.2775168,0.135322,-0.5818,-3.543483,-0.15487,0.4557244,1.329744,0.3029301,0.1958936,-0.2756815,-0.09587189,-0.7248474,0.7431457,-0.118683,0.5935541,1.401616,0.2201936,0.1840643,1.11247,0.1793968,276.9348,134.5508,98.11517,True
1,1.511114,-0.1401495,-0.1188008,-0.1844653,-1.333116,-4.358964,-2.99502,0.3889367,1.111737,0.3613856,-1.855481,0.08832223,1.1,0.5,0.2477203,-0.3253039,0.1222129,-0.5800914,-3.55254,-0.1497788,0.4566594,1.330072,0.303586,0.1734577,-0.2788294,-0.1009488,-0.7258121,0.7380804,-0.1161141,0.5944866,1.401704,0.2204843,0.1850061,1.112656,0.1797003,277.1692,136.4652,96.00194,True
1,1.522225,-0.1550189,-0.1304451,-0.1652045,-1.331709,-4.357447,-2.993139,0.3892511,1.112325,0.3614926,-1.856307,-0.07614348,2.1,0.4,0.2337182,-0.3293773,0.108463,-0.5788295,-3.558742,-0.1467026,0.457689,1.330426,0.3041277,0.167173,-0.2702694,-0.09346104,-0.7264033,0.7338746,-0.1146792,0.5954713,1.401624,0.2207422,0.1859532,1.112936,0.1800962,277.3566,140.3724,91.86299,True
1,1.533336,-0.1656254,-0.1388523,-0.1406428,-1.330713,-4.355662,-2.991381,0.3894672,1.112878,0.3617928,-1.857231,-0.08347087,2.1,0.4,0.2019573,-0.2727067,0.1017925,-0.577801,-3.560496,-0.1463876,0.4586079,1.330654,0.3046298,0.1492062,-0.2520839,-0.08479705,-0.7268038,0.7304896,-0.113207,0.5963587,1.401656,0.2210376,0.186741,1.113174,0.1806426,277.8912,143.9767,88.29938,True
1,1.544447,-0.1794436,-0.136615,-0.1151052,-1.329588,-4.354314,-2.989551,0.3895552,1.113383,0.3618138,-1.857218,0.002000825,2.1,0.4,0.1642164,-0.1971266,0.129434,-0.5754889,-3.559356,-0.1479026,0.4595885,1.330885,0.305088,0.1417928,-0.2371507,-0.08477929,-0.7277732,0.7270204,-0.1120189,0.5972745,1.401631,0.2214334,0.1872649,1.113392,0.1812484,278.249,145.8477,86.63187,True
1,1.555558,-0.1932908,-0.1333724,-0.1001997,-1.328789,-4.353029,-2.987256,0.3897461,1.113807,0.3620512,-1.857477,-0.0235477,2.1,0.4,0.1379038,-0.1534278,0.1417774,-0.5734819,-3.559178,-0.1486646,0.4605104,1.331092,0.305577,0.133199,-0.2137268,-0.09753811,-0.7291154,0.7244385,-0.1112645,0.5981984,1.401604,0.2218387,0.1875283,1.113594,0.1817442,278.4012,147.6082,85.14194,True
1,1.566669,-0.2241599,-0.1237007,-0.06406415,-1.328133,-4.351487,-2.984497,0.3899499,1.113723,0.361619,-1.857727,-0.02253997,3.3,0.2,0.0878056,-0.1574497,0.1411556,-0.5716678,-3.562537,-0.1452275,0.4614339,1.331273,0.3060203,0.1182572,-0.1849698,-0.1081275,-0.7307155,0.7220916,-0.1104554,0.5990366,1.401652,0.2222898,0.1876539,1.113782,0.1820533,278.4754,149.5076,83.42758,True
1,1.577781,-0.2305433,-0.1247473,-0.05766088,-1.327493,-4.350115,-2.982058,0.3901252,1.114041,0.3617573,-1.857476,0.02320447,3.3,0.2,0.06731476,-0.1763821,0.124137,-0.5705913,-3.567178,-0.1414916,0.4623163,1.331307,0.3064692,0.1022527,-0.1615127,-0.1165454,-0.7322021,0.720381,-0.1097558,0.5999227,1.401592,0.2226942,0.1876626,1.113972,0.1820936,278.5431,150.2984,82.74976,True
1,1.588892,-0.2623897,-0.1438934,-0.03094169,-1.326756,-4.347343,-2.979228,0.3900958,1.113859,0.3613274,-1.857111,0.03329973,3.3,0.2,0.03608444,-0.1952001,0.0987062,-0.5699341,-3.572376,-0.1364849,0.4631058,1.331272,0.306911,0.08223723,-0.1145621,-0.1068988,-0.7333435,0.7203998,-0.1099254,0.600809,1.401455,0.2230899,0.1878597,1.114119,0.1820333,278.6551,152.1992,80.89109,True
1,1.600003,-0.2751349,-0.1534566,-0.01915696,-1.326519,-4.345148,-2.976279,0.3901839,1.113889,0.3611348,-1.857638,-0.04832004,3.3,0.2,0.0156592,-0.1906673,0.07763138,-0.569492,-3.575902,-0.1330507,0.4640092,1.331287,0.3073428,0.06640603,-0.07722256,-0.1025768,-0.7343965,0.7205873,-0.1103199,0.6017817,1.401317,0.2234416,0.1880639,1.114187,0.1818437,279.0154,152.6019,80.63291,True
1,1.611114,-0.2985058,-0.1704651,-0.003050286,-1.326754,-4.342701,-2.972788,0.3902065,1.114116,0.3612165,-1.857175,0.04292424,3.3,0.2,-0.03669526,-0.1421421,0.03805956,-0.5704486,-3.576062,-0.1307311,0.464672,1.330856,0.3075323,0.05386592,-0.03560662,-0.09084147,-0.7351598,0.7221215,-0.1116264,0.6026251,1.401129,0.2239196,0.1884153,1.114291,0.1815577,279.1956,153.6675,79.672,True
1,1.622225,-0.3197998,-0.1714983,0.012947,-1.326996,-4.340705,-2.968987,0.3901699,1.113971,0.3607812,-1.85734,-0.01531812,3.7,0.4,-0.06126435,-0.1312764,0.02559861,-0.5703495,-3.578449,-0.1273915,0.4654156,1.330707,0.3078735,0.04226859,0.007031426,-0.09083686,-0.7362953,0.7237926,-0.113015,0.6034844,1.400973,0.2243302,0.1888481,1.114346,0.1808672,279.0494,154.0319,79.21333,True
1,1.633336,-0.3336693,-0.1607855,0.0299374,-1.327613,-4.339092,-2.96516,0.3901534,1.113747,0.3602836,-1.856987,0.03265535,3.7,0.4,-0.09343439,-0.1245176,0.0003932193,-0.5710552,-3.580734,-0.1233171,0.4661345,1.330473,0.3080392,0.04229156,0.03152093,-0.09516834,-0.7376205,0.7253206,-0.1146278,0.6043379,1.400842,0.2246344,0.1894219,1.114504,0.1798612,279.0628,154.3186,78.66238,True
1,1.644447,-0.3401239,-0.1371905,0.05750837,-1.329196,-4.338173,-2.961347,0.3901832,1.11401,0.3605444,-1.856982,0.0003110135,3.7,0.4,-0.1107374,-0.1274081,-0.02609503,-0.5718915,-3.583954,-0.1190231,0.466786,1.330352,0.3081417,0.0412237,0.0251402,-0.09407216,-0.7386469,0.725177,-0.1150496,0.6051556,1.400634,0.2249875,0.1900892,1.114922,0.1786582,279.1212,154.1956,78.42701,True
1,1.655559,-0.3433552,-0.1210987,0.07765413,-1.330556,-4.337056,-2.957654,0.3902752,1.113981,0.360013,-1.857294,-0.02832989,3.7,0.4,-0.1182295,-0.1326904,-0.02713424,-0.5720337,-3.587064,-0.1148339,0.4674824,1.330315,0.3082809,0.04343246,0.008122936,-0.08232847,-0.7391108,0.7243336,-0.1150009,0.6058712,1.400681,0.2251139,0.1907394,1.115647,0.177294,279.1632,152.8884,79.43613,True
1,1.66667,-0.3349094,-0.08890549,0.1126088,-1.332941,-4.33661,-2.954323,0.3904231,1.114073,0.359544,-1.85772,-0.03855381,3.7,0.4,-0.11805,-0.1275085,-0.01110826,-0.5713306,-3.589487,-0.1115819,0.4679333,1.330516,0.3082952,0.03611683,0.002845533,-0.06839581,-0.7395151,0.7237452,-0.1148296,0.6063762,1.400861,0.2252648,0.1914271,1.116633,0.1759267,279.2061,151.1812,80.77779,True
1,1.677781,-0.3211567,-0.04815682,0.1496373,-1.335889,-4.336817,-2.951204,0.3905668,1.114282,0.3587251,-1.858001,-0.0253156,3.8,0.1,-0.1178804,-0.104134,-0.004511438,-0.5710701,-3.590333,-0.1095284,0.468583,1.33062,0.3083372,0.02135197,0.009298954,-0.0565416,-0.739873,0.7238752,-0.1147439,0.6068913,1.401,0.2254159,0.1921655,1.117888,0.1748064,279.2176,149.5011,82.06866,True
1,1.688892,-0.3042522,0.004295293,0.1823317,-1.339282,-4.338006,-2.948081,0.3907778,1.114403,0.3578939,-1.858665,-0.06041102,3.8,0.1,-0.127225,-0.05937621,-0.0008440576,-0.571051,-3.588776,-0.1091017,0.4689591,1.330797,0.3082509,0.001137266,0.01468214,-0.0552763,-0.7405154,0.7242035,-0.1143274,0.6073867,1.400937,0.2255874,0.1928222,1.11938,0.1738895,279.1736,147.2882,84.11612,True
1,1.700003,-0.2905917,0.06956871,0.2224488,-1.343937,-4.339968,-2.944635,0.3909532,1.114555,0.3575871,-1.85915,-0.04383703,3.8,0.1,-0.1409164,-0.03163859,0.001646582,-0.5711197,-3.587982,-0.107801,0.4694222,1.33082,0.3082576,-0.01177041,0.01575762,-0.06472294,-0.7415252,0.7243642,-0.1135876,0.6080352,1.400996,0.2256901,0.1933461,1.121047,0.1731429,279.0662,144.8882,86.49321,True
1,1.711114,-0.2821889,0.112329,0.2424246,-1.347754,-4.341985,-2.941322,0.3910984,1.114552,0.3568976,-1.859408,-0.02328677,3.8,0.1,-0.1778813,0.03778546,0.001525853,-0.5714723,-3.582752,-0.108968,0.4696363,1.330973,0.3080177,-0.02677278,0.01258278,-0.07201011,-0.7425618,0.7242714,-0.1126965,0.6085479,1.401041,0.2257509,0.1936611,1.122827,0.1724744,278.9279,142.3822,89.08918,True
1,1.722225,-0.2727216,0.1593831,0.2687636,-1.352067,-4.344354,-2.938189,0.3911591,1.114387,0.3559625,-1.859243,0.01523421,3.9,0,-0.1841915,0.04523766,0.005911533,-0.5713157,-3.581573,-0.1078532,0.4700302,1.331037,0.3079417,-0.02996916,0.01364994,-0.07199083,-0.7435088,0.7242247,-0.1122227,0.6089631,1.401109,0.2259853,0.1938423,1.124594,0.1719325,278.8062,139.8702,91.65194,True
1,1.733337,-0.2569102,0.2203477,0.3003419,-1.357377,-4.34813,-2.935097,0.3910846,1.114174,0.3552594,-1.859322,-0.007364884,3.9,0,-0.1902637,0.04819018,0.03795604,-0.5697998,-3.579954,-0.1068466,0.4701977,1.331118,0.3077238,-0.03199954,0.01261797,-0.0623778,-0.7438694,0.7243099,-0.1118389,0.6093266,1.401145,0.2259905,0.19391,1.126282,0.1716325,278.6679,137.3949,94.14395,True
1,1.744448,-0.2526784,0.2342701,0.3098267,-1.361334,-4.350289,-2.932001,0.3910432,1.113992,0.3542278,-1.859537,-0.01966138,3.9,0,-0.1775051,0.03208989,0.04300886,-0.5693444,-3.580834,-0.1046588,0.4703824,1.331319,0.3072844,-0.03707522,0.02333414,-0.04212445,-0.7438422,0.7250362,-0.1118402,0.6096239,1.401079,0.2258928,0.1937795,1.127837,0.1714892,278.5448,134.7425,96.96591,True
1,1.755559,-0.2441549,0.2364921,0.3204602,-1.365757,-4.35218,-2.929189,0.3908457,1.113821,0.3534982,-1.859824,-0.02608168,3.9,0,-0.1510458,2.665818E-05,0.04035296,-0.5688651,-3.582906,-0.1022175,0.4704589,1.331294,0.3070867,-0.04431649,0.04151498,-0.02610984,-0.7436292,0.7267668,-0.1122714,0.6099349,1.401046,0.2258773,0.1933994,1.12921,0.1713998,278.407,132.1323,99.80892,True
1,1.76667,-0.2366001,0.205554,0.3089163,-1.368799,-4.352726,-2.926826,0.3905629,1.113594,0.3525276,-1.859412,0.03772737,3.9,0,-0.1373961,-0.02768296,0.03359528,-0.5686073,-3.585296,-0.09904456,0.470581,1.331037,0.3070242,-0.05474475,0.06395533,-0.01115451,-0.7435365,0.7288684,-0.112856,0.6101176,1.40097,0.2258527,0.1927735,1.130368,0.1713661,278.2265,129.8131,102.3924,True
1,1.777781,-0.2311873,0.1745873,0.2941859,-1.371649,-4.352953,-2.92442,0.3903215,1.113475,0.3517294,-1.859517,-0.009911933,3.4,0,-0.1482234,-0.0231912,0.01243484,-0.5690861,-3.585443,-0.09695371,0.4705141,1.330909,0.3067253,-0.06316999,0.08742484,-0.007939769,-0.7438496,0.7313807,-0.1136919,0.6103902,1.400909,0.2259202,0.1920404,1.13128,0.1712851,278.037,128.148,104.3766,True
1,1.788892,-0.2256846,0.1137025,0.2647192,-1.373216,-4.351615,-2.922447,0.3900454,1.113397,0.350744,-1.859638,-0.01100458,3.4,0,-0.1664051,-0.0123478,-8.458644E-05,-0.5695543,-3.585072,-0.09473956,0.470553,1.330751,0.3065295,-0.07904536,0.1119809,-0.004642954,-0.744019,0.7345459,-0.1145697,0.6106113,1.400849,0.2259755,0.191319,1.131972,0.1710995,277.839,126.8859,105.9047,True
1,1.800003,-0.2148774,0.05706142,0.2298994,-1.374229,-4.349913,-2.920806,0.3897812,1.113244,0.3498127,-1.859472,0.01517437,3.4,0,-0.2016605,0.01573123,-0.0250706,-0.5706685,-3.583064,-0.09309319,0.470493,1.330643,0.3061657,-0.09821282,0.1290853,-0.007673075,-0.7443557,0.7376791,-0.1150627,0.6107726,1.400712,0.2259545,0.1907112,1.132458,0.170696,277.6757,125.9336,107.0765,True
1,1.811115,-0.2083742,0.01210113,0.1907487,-1.374685,-4.348404,-2.919001,0.3895303,1.113167,0.3488548,-1.859509,-0.003578616,3.4,0,-0.2344908,0.05208537,-0.02231729,-0.571011,-3.579604,-0.0922226,0.4703478,1.330517,0.3057017,-0.1162758,0.1536323,-0.009679552,-0.7448398,0.7414106,-0.1158904,0.6109152,1.400665,0.2259777,0.1903096,1.132791,0.1700298,277.5323,125.4072,107.729,True
1,1.822226,-0.197646,-0.0210891,0.1579265,-1.375279,-4.347007,-2.917375,0.3892714,1.113133,0.348248,-1.859712,-0.01845658,3.8,0,-0.2609248,0.1001785,-0.02591568,-0.5716198,-3.574803,-0.09267694,0.4702584,1.330486,0.3052223,-0.124699,0.165399,-0.003221262,-0.744769,0.7448352,-0.1167407,0.6110651,1.400774,0.2259836,0.1901674,1.133022,0.169012,277.4502,125.0343,108.1454,True
1,1.833337,-0.1837547,-0.04144999,0.1303424,-1.375613,-4.345826,-2.915983,0.3888972,1.113152,0.3474452,-1.859532,0.01652173,3.8,0,-0.2788822,0.13436,-0.02651848,-0.5722116,-3.569909,-0.09304339,0.4700921,1.33041,0.3047278,-0.1362974,0.1793023,0.00432137,-0.744753,0.7485818,-0.1175341,0.6111815,1.400757,0.2259767,0.190299,1.133174,0.1676377,277.4467,124.6842,108.3888,True
1,1.844448,-0.1741335,-0.05428096,0.1176249,-1.376234,-4.344624,-2.914597,0.388616,1.113113,0.346519,-1.859635,-0.009629708,3.8,0,-0.2809055,0.1503297,-0.02423338,-0.5725892,-3.566059,-0.09332941,0.4699414,1.330388,0.3041182,-0.1501501,0.1878484,0.002316292,-0.7450417,0.7518257,-0.1177157,0.6112173,1.400872,0.2259791,0.1906276,1.133303,0.1659827,277.5092,124.596,108.1871,True
1,1.855559,-0.1613293,-0.06604873,0.1017056,-1.376559,-4.343464,-2.913418,0.3882973,1.11319,0.3457949,-1.859844,-0.01910941,3.8,0,-0.2797036,0.1534114,-0.0114339,-0.5724267,-3.562656,-0.0931635,0.4697931,1.33036,0.3036304,-0.1512319,0.1942353,-0.0008839648,-0.7454007,0.7553108,-0.1185852,0.6113017,1.400881,0.2259378,0.1910526,1.133473,0.1642324,277.6006,124.562,107.7951,True
1,1.86667,-0.1389668,-0.06604934,0.08997064,-1.376971,-4.342607,-2.912819,0.3879968,1.113225,0.345114,-1.859772,0.006691704,3.8,0,-0.272226,0.1362438,-0.000996327,-0.5721375,-3.561,-0.09181195,0.4697481,1.330412,0.3031337,-0.1513344,0.1974092,-0.01154816,-0.7462348,0.7587278,-0.1194438,0.6115061,1.400785,0.2258098,0.1913884,1.133748,0.1624905,277.6966,124.2412,107.7339,True
1,1.877781,-0.1240671,-0.0639483,0.07716134,-1.377275,-4.341906,-2.912058,0.3877531,1.113243,0.3444667,-1.859876,-0.009648502,2.8,0,-0.2594936,0.1148338,0.004026877,-0.5719436,-3.560065,-0.09019753,0.4696241,1.330427,0.3027084,-0.1568324,0.1878064,-0.02423193,-0.7469725,0.7612678,-0.1192691,0.6116779,1.400757,0.2257247,0.1916234,1.134111,0.1608688,277.7724,123.6821,108.0057,True
1,1.888893,-0.1070401,-0.06185455,0.06222162,-1.377342,-4.341257,-2.911577,0.3874611,1.113267,0.3438842,-1.860404,-0.0483067,2.8,0,-0.2393974,0.06672969,0.01195518,-0.5713828,-3.561828,-0.08681452,0.469476,1.330367,0.3021958,-0.1547096,0.1899368,-0.02533048,-0.7475999,0.764527,-0.1199714,0.611753,1.400806,0.2255864,0.1917748,1.134531,0.1594723,277.8521,123.1226,108.3289,True
1,1.900004,-0.09426089,-0.06403126,0.04837764,-1.377284,-4.340425,-2.911072,0.3871471,1.113282,0.3433275,-1.860182,0.02059637,2.8,0,-0.2340107,0.06343412,0.02039621,-0.5709817,-3.560506,-0.08540278,0.4692506,1.330284,0.3017561,-0.1461366,0.1867382,-0.02007399,-0.7476766,0.76759,-0.120956,0.6117209,1.400725,0.2255239,0.1918549,1.13495,0.1583816,277.928,122.3854,108.9008,True
1,1.911115,-0.08150083,-0.06090508,0.03023885,-1.37688,-4.339951,-2.910718,0.3868866,1.113325,0.3428619,-1.860283,-0.009579871,2.8,0,-0.209596,0.03665249,0.02419718,-0.5705066,-3.561381,-0.08320967,0.4690567,1.330263,0.3012221,-0.1439633,0.185679,-0.0158329,-0.7479371,0.7705271,-0.1215909,0.6117885,1.400705,0.2253485,0.1918431,1.135325,0.1576024,277.9864,121.6135,109.6015,True
1,1.922226,-0.06018845,-0.06627531,0.01108016,-1.376227,-4.339247,-2.910916,0.3865761,1.113418,0.3424325,-1.860088,0.01780756,2.8,0,-0.1989958,0.04093146,0.0166726,-0.5707229,-3.560046,-0.08233961,0.4688125,1.330279,0.3008308,-0.1471614,0.1835739,-0.01578172,-0.7482433,0.7737252,-0.1222221,0.6118045,1.400724,0.2251704,0.1917082,1.135628,0.1570823,278.0283,120.9095,110.3183,True
1,1.933337,-0.04952573,-0.07489426,-0.01018266,-1.375226,-4.338319,-2.910826,0.386308,1.113511,0.3420506,-1.860141,-0.005045759,1.7,0,-0.1733392,0.05570759,0.01868564,-0.5705807,-3.557968,-0.08301765,0.4686146,1.330318,0.3002877,-0.1385644,0.1654733,-0.004103478,-0.7480287,0.7755234,-0.1223203,0.6118697,1.400739,0.2248733,0.1914579,1.135835,0.1567408,278.0432,120.4249,110.878,True
1,1.944448,-0.03991201,-0.08666596,-0.02396767,-1.374204,-4.337132,-2.91092,0.3860604,1.113594,0.3416517,-1.860505,-0.03333971,1.7,0,-0.1582308,0.07151069,0.03146666,-0.5697892,-3.555349,-0.08390262,0.4684854,1.330403,0.2996161,-0.1331188,0.1473914,0.01080663,-0.7474934,0.7771524,-0.122396,0.6117638,1.40075,0.2247195,0.1911342,1.135938,0.1565155,278.0468,120.3139,111.0913,True
1,1.955559,-0.02495099,-0.1069771,-0.04516902,-1.372542,-4.335748,-2.911371,0.3857954,1.113757,0.3413098,-1.860053,0.0414622,1.7,0,-0.1526669,0.08303994,0.05068909,-0.5686946,-3.552698,-0.08461555,0.4683257,1.330456,0.2990754,-0.1340517,0.1282749,0.02898768,-0.7465778,0.7786136,-0.1218306,0.6117176,1.400776,0.2244236,0.1907792,1.13593,0.1563365,278.0408,120.455,111.0585,True
1,1.966671,-0.01317058,-0.1315645,-0.06526936,-1.370629,-4.333787,-2.912013,0.3855453,1.113923,0.3409979,-1.859987,0.005589594,1.7,0,-0.1472037,0.08823709,0.06239996,-0.5677162,-3.550542,-0.08495111,0.4681305,1.330461,0.2985876,-0.1319375,0.1197451,0.0300663,-0.7462023,0.7801943,-0.1215677,0.6117001,1.40069,0.2242794,0.1904523,1.135814,0.1561325,278.0226,120.8383,110.7771,True
1,1.977782,0.007111443,-0.1486669,-0.0854246,-1.36857,-4.332055,-2.913133,0.385233,1.114117,0.3407037,-1.86017,-0.01687674,1.7,0,-0.1440603,0.07971354,0.0612327,-0.567174,-3.549316,-0.08445363,0.4680029,1.330484,0.2981389,-0.1256059,0.1122655,0.02683323,-0.7460281,0.781794,-0.121535,0.6116816,1.40069,0.2240024,0.1901995,1.135618,0.1558299,278.0038,121.4134,110.2763,True
1,1.988893,0.02418141,-0.1615197,-0.1056001,-1.366286,-4.330264,-2.914328,0.3849815,1.114265,0.3404384,-1.860129,0.003800732,0.8,0,-0.1334737,0.07009487,0.05891924,-0.5666434,-3.548409,-0.08412313,0.4677942,1.330562,0.2976496,-0.126631,0.1005903,0.03115014,-0.7458279,0.7832159,-0.1211171,0.6116717,1.400713,0.223655,0.1900627,1.13536,0.1553863,278.0192,122.2123,109.4901,True
1,2.000004,0.04016651,-0.1647078,-0.1130471,-1.3645,-4.328756,-2.915588,0.3847531,1.114383,0.3401775,-1.860487,-0.03295611,0.8,0,-0.117771,0.03497037,0.04675327,-0.5664709,-3.549916,-0.08213668,0.4675738,1.330722,0.2970948,-0.127674,0.0973857,0.03650529,-0.7449805,0.7845905,-0.1206918,0.6116223,1.400786,0.2233655,0.1900574,1.135053,0.15478,278.064,123.0993,108.5324,True
1,2.011115,0.06247777,-0.147645,-0.1216897,-1.36264,-4.328082,-2.917213,0.3845337,1.1145,0.3399515,-1.860417,0.006642369,0.8,0,-0.110547,0.02872585,0.02532369,-0.5669284,-3.550036,-0.08104159,0.4673002,1.330824,0.2965286,-0.1340192,0.1016739,0.03975734,-0.7446252,0.7865614,-0.1204447,0.6115472,1.400823,0.2230332,0.190142,1.13471,0.1540312,278.1476,123.9429,107.5374,True
1,2.022226,0.08264308,-0.124166,-0.125046,-1.361044,-4.327858,-2.918819,0.38435,1.114643,0.3396838,-1.860348,0.006045232,0.8,0,-0.1081542,0.07020392,0.03310866,-0.5664932,-3.545776,-0.08339183,0.4670489,1.330839,0.2959442,-0.1328326,0.09638086,0.05362502,-0.7434603,0.7881064,-0.1199669,0.6114475,1.400807,0.2226179,0.1903032,1.134313,0.1532074,278.2482,124.7435,106.5349,True
1,2.033337,0.09748346,-0.1006832,-0.1251997,-1.359606,-4.32787,-2.92043,0.384185,1.114728,0.3394811,-1.860694,-0.0317931,0.5,0,-0.1090728,0.09896146,0.03442806,-0.5662285,-3.541948,-0.08537003,0.4668285,1.330874,0.2953851,-0.1243715,0.08995451,0.04929568,-0.7430896,0.7893867,-0.1198577,0.6112944,1.400836,0.2223039,0.1904703,1.133877,0.152376,278.3395,125.541,105.5114,True
1,2.044448,0.114356,-0.04306205,-0.118103,-1.358904,-4.329454,-2.921937,0.3841484,1.114729,0.3393097,-1.860611,0.007730558,0.5,0,-0.1111797,0.1149961,0.02925973,-0.5661795,-3.538706,-0.08672744,0.4666239,1.330839,0.2948861,-0.1201281,0.08888978,0.04819998,-0.7426022,0.7912673,-0.1199722,0.6112601,1.400775,0.2219312,0.1905628,1.13341,0.1516285,278.4363,126.4051,104.4351,True
1,2.055559,0.1174137,0.003863534,-0.1109332,-1.358202,-4.33105,-2.923021,0.3840965,1.114715,0.339175,-1.860454,0.01411762,0.5,0,-0.1059345,0.1129044,0.02173437,-0.5662994,-3.536482,-0.08758871,0.4664203,1.330832,0.29439,-0.1138366,0.08459643,0.04070133,-0.7423231,0.7927175,-0.1198513,0.6112671,1.400715,0.2215838,0.1905231,1.132922,0.1510436,278.5096,127.3306,103.3547,True
1,2.06667,0.1183278,0.05398649,-0.1027161,-1.357788,-4.333405,-2.923912,0.3841496,1.114649,0.3390989,-1.860476,-0.002207439,0.5,0,-0.07422387,0.09693125,0.003183577,-0.5669279,-3.535619,-0.0885509,0.4662362,1.330759,0.2939999,-0.1031558,0.07713757,0.04487634,-0.7417053,0.794116,-0.1201181,0.6111456,1.400571,0.2213008,0.1903487,1.13241,0.1506973,278.5563,128.2493,102.3449,True
1,2.077781,0.1203846,0.07531674,-0.1007147,-1.357067,-4.33509,-2.924824,0.3841645,1.114537,0.3390675,-1.859897,0.05279326,0.5,0,-0.05518174,0.07877077,-0.001412215,-0.5670578,-3.534989,-0.08894825,0.466009,1.330788,0.2935131,-0.09250342,0.06007849,0.04908041,-0.7409239,0.7944851,-0.1197296,0.6109488,1.400595,0.2209113,0.190019,1.131885,0.1506665,278.5692,129.1102,101.4823,True
1,2.088892,0.117119,0.0987751,-0.09552831,-1.35662,-4.337231,-2.925571,0.3842512,1.114477,0.3390393,-1.859676,0.01969693,0.4,0,-0.0235431,0.04360494,-0.01799338,-0.5677598,-3.536399,-0.08857301,0.46587,1.330768,0.2931652,-0.08083139,0.04834181,0.05007607,-0.7400531,0.7951375,-0.1193615,0.6108063,1.400536,0.2204146,0.189531,1.131368,0.150955,278.5493,129.9926,100.7087,True
1,2.100003,0.1148776,0.1371717,-0.08617735,-1.356493,-4.340054,-2.926209,0.3844584,1.114435,0.3389907,-1.859454,0.0200936,0.4,0,-0.001235034,0.03499709,-0.02040345,-0.5679596,-3.536073,-0.08945744,0.4658254,1.330756,0.2927532,-0.06909597,0.03448038,0.05532859,-0.7390916,0.7953428,-0.1191213,0.6106823,1.400499,0.2199764,0.1889403,1.130875,0.151547,278.5081,130.8183,100.0987,True
1,2.111114,0.1158758,0.1595716,-0.08205307,-1.356287,-4.34271,-2.92695,0.3846343,1.114367,0.3390396,-1.859305,0.01347684,0.4,0,0.01046239,0.02640233,-0.01845701,-0.5680842,-3.536108,-0.08994187,0.4657272,1.330734,0.2923982,-0.05101538,0.02165318,0.05731111,-0.7382565,0.7952667,-0.1188992,0.610541,1.400663,0.2195845,0.1883099,1.13041,0.1523473,278.4497,131.5752,99.63503,True
1,2.122225,0.1136455,0.1915581,-0.07691744,-1.356286,-4.345963,-2.927394,0.384849,1.114238,0.3391123,-1.859285,0.001654199,0.4,0,0.02965255,0.02201588,-0.01442142,-0.5681759,-3.535908,-0.09098743,0.4656062,1.330654,0.2920864,-0.0351931,0.004580457,0.04975596,-0.7376258,0.7954957,-0.1187631,0.6102918,1.400628,0.2189252,0.1876781,1.130006,0.1532522,278.3719,132.3993,99.13729,True
1,2.133336,0.1103709,0.2171276,-0.07493991,-1.356243,-4.349459,-2.927768,0.3850811,1.114149,0.3392103,-1.859316,-0.002835096,0.2,0,0.04462145,0.0272454,-0.01132278,-0.5682445,-3.535006,-0.09275151,0.4655585,1.330626,0.2917657,-0.02671824,-0.008229967,0.04863566,-0.7370591,0.7948071,-0.1182443,0.6101707,1.400624,0.2184548,0.1870901,1.129689,0.1541951,278.2987,133.1523,98.7123,True
1,2.144447,0.1081357,0.2501641,-0.07194507,-1.356388,-4.353554,-2.927952,0.385286,1.114157,0.3393817,-1.859117,0.01819962,0.2,0,0.06281855,0.03242946,-0.005055878,-0.5680981,-3.534099,-0.09478803,0.4655635,1.330587,0.2914245,-0.01391428,-0.01993639,0.05495483,-0.7357808,0.7948458,-0.1183195,0.61012,1.400569,0.2180543,0.1865799,1.12945,0.1551285,278.2572,133.6008,98.54972,True
1,2.155558,0.1059062,0.2832197,-0.0657527,-1.356825,-4.357999,-2.928101,0.3855705,1.114084,0.339597,-1.859056,0.005391047,0.2,0,0.07671257,0.03981119,-0.004059277,-0.5681705,-3.532871,-0.09714759,0.4655609,1.330553,0.291126,-0.005380103,-0.03379621,0.05916714,-0.7348375,0.7938043,-0.1178403,0.6099294,1.400573,0.2175658,0.1861309,1.129279,0.1560297,278.2414,133.7946,98.5942,True
1,2.166669,0.1026457,0.3056051,-0.06162447,-1.357138,-4.362104,-2.928316,0.3859155,1.114121,0.3397589,-1.858983,0.006569374,0.2,0,0.08740791,0.04400199,-0.001994111,-0.5681854,-3.531753,-0.09944057,0.4655011,1.330525,0.290962,-8.35536E-05,-0.04443461,0.05915535,-0.7339214,0.7933601,-0.1176473,0.6099459,1.400327,0.2173975,0.1857046,1.129175,0.1568982,278.2454,133.9875,98.59406,True
1,2.17778,0.1004575,0.3248014,-0.05748122,-1.357502,-4.366431,-2.928435,0.3861468,1.114123,0.3399887,-1.859013,-0.002704937,0.2,0,0.09906497,0.02046794,0.003019935,-0.5679303,-3.532741,-0.1000874,0.4654663,1.330526,0.2907591,0.01369153,-0.05513903,0.05369906,-0.7335922,0.7920241,-0.117484,0.6097353,1.400474,0.2171693,0.185257,1.129151,0.1577796,278.2574,134.2234,98.51735,True
1,2.188891,0.100435,0.3311736,-0.06071597,-1.357586,-4.370502,-2.928695,0.3864214,1.114096,0.3402517,-1.859009,0.0003953553,0.1,0.8,0.1129051,0.002227113,0.01019157,-0.5674973,-3.533843,-0.1009655,0.4653885,1.330444,0.2906611,0.0189833,-0.05622708,0.05259475,-0.7327411,0.79109,-0.1168763,0.6096336,1.400519,0.2167134,0.1848148,1.129184,0.158745,278.2502,134.3643,98.56518,True
1,2.200002,0.09512319,0.3279724,-0.05963389,-1.357608,-4.374209,-2.928842,0.3866286,1.114211,0.3404374,-1.858957,0.004731675,0.1,0.8,0.1213644,-0.006313175,0.007911529,-0.5674317,-3.534295,-0.1021562,0.4654247,1.330523,0.2903931,0.02959253,-0.06155009,0.05357591,-0.7318303,0.7905943,-0.1166081,0.6095452,1.400574,0.2161117,0.1843778,1.129266,0.1597864,278.2359,134.4737,98.69097,True
1,2.211113,0.09519783,0.3023604,-0.06693524,-1.357149,-4.376929,-2.929334,0.3868251,1.114239,0.3407216,-1.859039,-0.007531039,0.1,0.8,0.1330214,-0.01701117,0.006644284,-0.5673487,-3.535366,-0.103153,0.4654294,1.330516,0.2902062,0.02749037,-0.0679239,0.05787797,-0.7309504,0.7892943,-0.1158755,0.6094756,1.400579,0.2156959,0.1839147,1.129378,0.160892,278.2358,134.4186,98.99097,True
1,2.222224,0.08997278,0.266035,-0.08056207,-1.356123,-4.378899,-2.929729,0.3870803,1.114256,0.3409874,-1.858862,0.01626608,0.1,0.8,0.1320457,-0.008529842,0.01205432,-0.5670221,-3.534874,-0.1049397,0.4654511,1.330465,0.289963,0.03385652,-0.07218372,0.05890162,-0.7299379,0.7884196,-0.1154121,0.6094749,1.400439,0.2153203,0.1834434,1.129483,0.1620484,278.2337,134.3507,99.32383,True
1,2.233335,0.09331511,0.2158966,-0.09410644,-1.354861,-4.380078,-2.930621,0.3873088,1.114273,0.3412726,-1.858984,-0.01138784,0.1,2,0.1247238,0.001013666,0.02179668,-0.5664623,-3.534062,-0.106735,0.4655313,1.330437,0.2897592,0.03601024,-0.06792553,0.05993178,-0.7291719,0.7876238,-0.1153085,0.6094081,1.400422,0.2149239,0.1829529,1.129577,0.1631901,278.2202,134.4259,99.53425,True
1,2.244446,0.09021081,0.1838575,-0.1056289,-1.35353,-4.381382,-2.931233,0.3875027,1.114355,0.3414695,-1.85876,0.02064698,0.1,2,0.1226721,0.007364854,0.02719534,-0.5660229,-3.533589,-0.1084034,0.4655584,1.33042,0.2895873,0.03592128,-0.07218532,0.05463382,-0.7284805,0.7866969,-0.1147127,0.609437,1.400291,0.2145233,0.1825655,1.129589,0.1642819,278.2212,134.4809,99.76132,True
1,2.255557,0.08818805,0.1454102,-0.1203075,-1.351815,-4.382097,-2.931945,0.3877234,1.11441,0.3417308,-1.859075,-0.02899548,0.1,2,0.1237701,0.004128173,0.03248446,-0.5654764,-3.533413,-0.109923,0.4656046,1.330429,0.2894382,0.03585162,-0.07325125,0.0482525,-0.7279969,0.7858995,-0.1145535,0.609412,1.400367,0.2141879,0.182348,1.129477,0.165247,278.2397,134.6832,99.80836,True
1,2.266668,0.08721476,0.1176453,-0.1297564,-1.349764,-4.382924,-2.932869,0.3879075,1.114054,0.3406563,-1.858869,0.01909457,0.1,2,0.1269445,0.000923425,0.03137024,-0.5650445,-3.533585,-0.1113593,0.4656709,1.330572,0.2892299,0.0326547,-0.07855916,0.05150284,-0.7271399,0.7844537,-0.1134267,0.6093203,1.400485,0.2136898,0.1822859,1.129238,0.1660034,278.27,135.0828,99.58096,True
1,2.277779,0.08194168,0.1005969,-0.1285814,-1.348573,-4.383877,-2.933364,0.3881477,1.114079,0.3408618,-1.858828,0.003598433,0.1,2,0.1279425,-0.01292285,0.03124239,-0.5646631,-3.534449,-0.1120496,0.4657009,1.330615,0.2890911,0.03807513,-0.08174752,0.05997812,-0.7259788,0.7831703,-0.1132371,0.6093169,1.400489,0.2133293,0.1823006,1.128914,0.1665038,278.3181,135.769,98.9823,True
1,2.28889,0.07345684,0.08992702,-0.1274446,-1.34741,-4.384895,-2.933693,0.3882958,1.114146,0.3411148,-1.859075,-0.02258109,0,2.8,0.1320819,-0.02353455,0.02365555,-0.5645715,-3.535685,-0.1125867,0.4657343,1.330698,0.2889855,0.04226962,-0.08495499,0.05568156,-0.725394,0.7819478,-0.1127487,0.6093029,1.400406,0.2131519,0.1823315,1.128527,0.1666936,278.3729,136.1559,98.74354,True
1,2.300001,0.07136325,0.080391,-0.1177973,-1.34659,-4.38568,-2.934246,0.3884741,1.114202,0.3413115,-1.858714,0.03318853,0,2.8,0.1299341,-0.02243753,0.02155827,-0.5643291,-3.535917,-0.1137202,0.4658003,1.330728,0.2888353,0.03482158,-0.08170863,0.05789581,-0.7245119,0.7814651,-0.1121542,0.6091314,1.400327,0.2127986,0.1823169,1.128046,0.166412,278.4489,136.4146,98.63637,True
1,2.311112,0.06817228,0.08257697,-0.1082181,-1.345987,-4.387008,-2.934671,0.3885894,1.114266,0.3416219,-1.858549,0.01482547,0,2.8,0.1247048,-0.01715264,0.02910958,-0.5637241,-3.535835,-0.1149993,0.4657785,1.33076,0.288743,0.03579477,-0.08173548,0.04936247,-0.7241423,0.780154,-0.1116059,0.6090826,1.400309,0.2124934,0.1824722,1.127451,0.1659531,278.5423,137.6209,97.22448,True
1,2.322223,0.07030606,0.08370627,-0.09970187,-1.345455,-4.388225,-2.935265,0.388698,1.114339,0.3418019,-1.858752,-0.01864265,0,2.8,0.1184441,-0.01082276,0.03987926,-0.5628831,-3.535438,-0.1164193,0.4658215,1.330788,0.2886128,0.03677052,-0.08173755,0.0429786,-0.7235367,0.7793035,-0.1111255,0.6091362,1.400171,0.2121611,0.182701,1.126871,0.165527,278.6401,139.1325,95.37861,True
1,2.333334,0.06181829,0.07307179,-0.09216298,-1.344946,-4.38882,-2.935452,0.3888823,1.114377,0.3422539,-1.858806,-0.004736058,0,2.8,0.1152947,-0.01406293,0.04627268,-0.5621698,-3.535941,-0.1172031,0.4658726,1.330858,0.2884746,0.03569695,-0.07641408,0.04084458,-0.7230861,0.778388,-0.1108053,0.6090851,1.40015,0.2118611,0.1829259,1.126406,0.1652892,278.7252,140.3588,93.87475,True
1,2.344445,0.06183582,0.06776176,-0.08998615,-1.344346,-4.389599,-2.935956,0.3889382,1.114624,0.3427012,-1.858975,-0.0154624,0.2,3.5,0.1131177,-0.03219891,0.05040192,-0.5613587,-3.537594,-0.1169879,0.4658704,1.330927,0.2883663,0.03681652,-0.0795927,0.04724418,-0.7220352,0.7770531,-0.1101404,0.6090617,1.400108,0.2118075,0.1830389,1.126118,0.1653323,278.7924,141.0899,92.9914,True
1,2.355556,0.05874341,0.03587661,-0.07700649,-1.343825,-4.389135,-2.936512,0.3889934,1.114679,0.342818,-1.858472,0.04618359,0.2,3.5,0.1066916,-0.02678744,0.04411405,-0.5610817,-3.537804,-0.1178174,0.4658794,1.330975,0.2882762,0.03255196,-0.07425705,0.04515512,-0.7213779,0.7762496,-0.109836,0.6090789,1.400056,0.2115245,0.1830417,1.125997,0.1656841,278.8294,141.3567,92.72074,True
1,2.366668,0.05670052,0.01139878,-0.07152676,-1.343107,-4.388574,-2.937307,0.3889942,1.114817,0.342865,-1.858811,-0.03141852,0.2,3.5,0.1035442,-0.01077926,0.04214641,-0.5607855,-3.536981,-0.1194715,0.4659133,1.331018,0.2882679,0.03791129,-0.07957679,0.04723138,-0.7208368,0.7750901,-0.1098847,0.6091629,1.400056,0.2115891,0.1830367,1.125992,0.1663039,278.8911,141.6104,92.54169,True
1,2.377779,0.0536457,-0.03115789,-0.06167904,-1.342388,-4.387012,-2.938152,0.3890133,1.114949,0.3428745,-1.858667,0.01354505,0.2,3.5,0.1035814,0.007376432,0.03696823,-0.5607051,-3.535531,-0.1218801,0.4659717,1.331061,0.2882464,0.04318975,-0.08386022,0.04507111,-0.7200687,0.7735382,-0.1091957,0.6090086,1.400448,0.2112997,0.1828858,1.126149,0.1671529,278.8246,141.4837,92.83437,True
1,2.38889,0.04631819,-0.07164214,-0.05823132,-1.341445,-4.384959,-2.938912,0.3889553,1.115037,0.3428831,-1.858893,-0.02081686,0.4,2.7,0.1025089,-0.0001060367,0.0401117,-0.5600931,-3.536109,-0.1224689,0.4660541,1.331097,0.2882776,0.05054231,-0.09242389,0.03755776,-0.71974,0.7715613,-0.1085281,0.6089534,1.400461,0.2110848,0.1826862,1.126378,0.1679898,278.7592,141.0809,93.54666,True
1,2.400001,0.04214349,-0.1004146,-0.05805659,-1.340357,-4.383193,-2.939593,0.3888633,1.115131,0.3428988,-1.858768,0.01165956,0.4,2.7,0.1024831,-0.003290713,0.03901874,-0.5596952,-3.536273,-0.1234839,0.4660901,1.331151,0.288296,0.05589006,-0.094556,0.03857405,-0.7190876,0.7702042,-0.1085014,0.609012,1.400194,0.2109008,0.1825162,1.1266,0.1686325,278.7067,140.6436,94.29016,True
1,2.411112,0.03376402,-0.1451633,-0.05458209,-1.339237,-4.380076,-2.940396,0.3887619,1.115219,0.3428607,-1.858584,0.01672618,0.4,2.7,0.1034419,-0.01710935,0.03463462,-0.5593081,-3.537531,-0.1236117,0.4661597,1.331205,0.2883587,0.06218899,-0.0988555,0.03106016,-0.7188324,0.7682961,-0.107972,0.608964,1.400178,0.2107229,0.1824929,1.126727,0.1689499,278.67,140.3119,94.82523,True
1,2.422223,0.02432344,-0.1920449,-0.05109404,-1.33806,-4.37651,-2.941114,0.3886666,1.115289,0.3427973,-1.858596,-0.001158237,0.4,2.7,0.100029,-0.0393656,0.02276091,-0.5592979,-3.539828,-0.1226444,0.466233,1.331169,0.2884276,0.06114569,-0.09775437,0.03215101,-0.7181123,0.7675138,-0.1081052,0.608848,1.400067,0.2104728,0.1826351,1.126717,0.1688612,278.6848,140.1608,95.00627,True
1,2.433334,0.01697009,-0.2250606,-0.04771009,-1.336724,-4.373409,-2.941761,0.3886836,1.115239,0.3423519,-1.858464,0.01207482,0.4,2.7,0.09557487,-0.04772777,0.006751551,-0.5596441,-3.541374,-0.1222383,0.4662591,1.331145,0.28847,0.06117472,-0.09135969,0.03319829,-0.7176303,0.7664108,-0.1079464,0.6087767,1.400042,0.2103496,0.1829247,1.126567,0.1683879,278.7398,140.2706,94.76507,True
1,2.444445,0.01063607,-0.2431838,-0.04652972,-1.335597,-4.370149,-2.942404,0.3886243,1.115279,0.3422194,-1.858324,0.01278644,0.2,1.8,0.07515311,-0.04211609,-0.01537192,-0.5603914,-3.541983,-0.1219464,0.4663098,1.331161,0.2884049,0.05262697,-0.08177506,0.03006524,-0.7173864,0.7652252,-0.1070689,0.6086372,1.400416,0.2101433,0.1833862,1.126278,0.1675679,278.7915,140.6146,94.18853,True
1,2.455556,0.007463295,-0.2506188,-0.04222007,-1.334729,-4.36734,-2.942985,0.3886196,1.115212,0.342041,-1.858418,-0.008636044,0.2,1.8,0.04539962,-0.01636507,-0.02020369,-0.5609161,-3.540883,-0.1224673,0.46635,1.331077,0.2883663,0.04626643,-0.07429329,0.03118843,-0.7168207,0.764507,-0.1067616,0.6087005,1.400356,0.210026,0.1834734,1.125165,0.1670238,278.9716,143.3708,91.56047,True
1,2.466667,0.003199995,-0.2462943,-0.03053074,-1.33421,-4.364896,-2.943491,0.388599,1.11514,0.3417461,-1.85846,-0.003708528,0.2,1.8,0.02745995,0.006033048,-0.01344254,-0.5607701,-3.539397,-0.1235036,0.4663942,1.331089,0.2883425,0.04194706,-0.0593883,0.02375032,-0.7165757,0.7642853,-0.1067057,0.6085885,1.400356,0.2098668,0.1831221,1.123903,0.1672633,278.4541,146.3092,89.06689,True
1,2.477778,0.001012538,-0.223806,-0.01149492,-1.334311,-4.363197,-2.943843,0.3886071,1.115045,0.341522,-1.858568,-0.009828405,0.2,1.8,0.01371826,0.02632872,-0.01207448,-0.5609778,-3.537609,-0.1246959,0.4664319,1.330999,0.2882943,0.04409294,-0.04768407,0.02156166,-0.7164143,0.764075,-0.1072226,0.6086306,1.400331,0.2097416,0.1827978,1.12292,0.1676301,278.0644,147.9368,87.80096,True
1,2.488889,0.001974091,-0.1853166,0.01064166,-1.334984,-4.362212,-2.944122,0.3886521,1.114934,0.3412812,-1.858645,-0.006863785,0.1,1,0.008324455,0.02748002,-0.01946793,-0.5614284,-3.537242,-0.1249446,0.4664823,1.330952,0.2882986,0.04832961,-0.04449882,0.01938152,-0.7161549,0.763626,-0.1073773,0.6085649,1.400231,0.2098653,0.1826096,1.122345,0.1678646,277.882,149.342,86.69311,True
1,2.5,0.0008231029,-0.1554287,0.02005065,-1.33539,-4.361446,-2.944284,0.3886201,1.114886,0.3410573,-1.858715,-0.006357253,0.1,1,0.007122278,0.00942314,-0.02493781,-0.5618242,-3.538321,-0.1240772,0.4664793,1.330914,0.2882881,0.04292236,-0.04238556,0.009843667,-0.7162971,0.7628083,-0.1072889,0.608718,1.40006,0.2099476,0.182609,1.122157,0.1678864,277.7694,149.9846,86.16245,True
1,2.511111,0.0007386133,-0.1244059,0.04011092,-1.336548,-4.360925,-2.944376,0.3886189,1.114805,0.3410275,-1.858851,-0.01234078,0.1,1,0.01751583,-0.009657545,-0.04224508,-0.5627909,-3.540247,-0.122935,0.4665371,1.330927,0.2882795,0.0366235,-0.03808622,0.01735769,-0.7158327,0.7624483,-0.1072013,0.6086773,1.400087,0.2098479,0.1827619,1.122223,0.1676798,277.7511,149.65,86.52911,True
1,2.522222,0.002822548,-0.1040666,0.05597046,-1.337606,-4.360037,-2.944755,0.3885216,1.114736,0.3407836,-1.858824,0.002629378,0.1,1,0.01755398,-6.174576E-05,-0.04322698,-0.5632825,-3.539596,-0.1237166,0.46636,1.330943,0.2882237,0.03568171,-0.0337857,0.03014307,-0.7149826,0.7622728,-0.107083,0.6085179,1.400313,0.209492,0.1830484,1.122527,0.1671566,277.8497,148.7011,87.39502,True
1,2.533333,0.003863988,-0.09225328,0.07081291,-1.3387,-4.359094,-2.945072,0.3884791,1.114731,0.3404942,-1.858828,-0.0004391856,0.1,1,0.00810504,0.01377063,-0.03556844,-0.5635781,-3.538447,-0.1244924,0.46635,1.330933,0.2881784,0.03034118,-0.030581,0.02806139,-0.714696,0.7619668,-0.1069861,0.608452,1.400331,0.2094016,0.183437,1.1231,0.1664875,277.7647,147.1652,88.76598,True
1,2.544444,0.001738897,-0.09329897,0.07401922,-1.339423,-4.357878,-2.945309,0.3883861,1.114638,0.3403487,-1.859045,-0.01983125,0.2,0.5,-0.003504723,0.02549636,-0.03002776,-0.5637438,-3.53726,-0.1250786,0.4663365,1.33093,0.2881229,0.02386136,-0.03057898,0.01961249,-0.7147189,0.7616086,-0.1068037,0.6083425,1.400223,0.2094555,0.1838883,1.123757,0.1658982,277.9527,145.3961,90.29745,True
1,2.555555,0.0006573293,-0.08687352,0.08037187,-1.340347,-4.356819,-2.945523,0.3884224,1.114549,0.3400514,-1.859,0.004281761,0.2,0.5,-0.01723041,0.04471175,-0.02654241,-0.5641156,-3.535045,-0.1262874,0.466393,1.330874,0.2881052,0.02159762,-0.02635198,0.006850146,-0.7148899,0.7612562,-0.1066154,0.6083316,1.400145,0.2095168,0.1843054,1.124415,0.1652873,278.4075,144.0171,91.60544,True
1,2.566666,-0.001511803,-0.07300669,0.08348282,-1.341266,-4.356336,-2.945589,0.3884556,1.114418,0.3397882,-1.858854,0.01337732,0.2,0.5,-0.0311582,0.03842794,-0.0317876,-0.5646205,-3.534823,-0.1257427,0.4664474,1.330863,0.288126,0.02268885,-0.02528374,0.008966082,-0.7147163,0.7609095,-0.1066236,0.6082983,1.400149,0.209487,0.1846618,1.12498,0.1647197,278.8557,142.8584,92.7762,True
1,2.577777,-0.01011607,-0.04640493,0.08226103,-1.342161,-4.356557,-2.945163,0.3885732,1.114328,0.3395243,-1.858864,-0.001065114,0.2,0.5,-0.03766702,0.02893867,-0.03926558,-0.5653417,-3.534848,-0.1250727,0.4664243,1.330857,0.2881255,0.02057636,-0.0167481,0.008968458,-0.7145682,0.7612538,-0.1069653,0.6082777,1.400205,0.2094657,0.1849199,1.125232,0.1642202,279.2902,141.7333,93.91501,True
1,2.588888,-0.01549768,-0.02829896,0.08428536,-1.343207,-4.356641,-2.944787,0.3886638,1.114175,0.3393471,-1.858869,-0.0004087547,0.8,0.1,-0.03779398,0.01728139,-0.04681577,-0.566016,-3.535517,-0.1240783,0.4664983,1.330894,0.2881079,0.02061402,-0.00715756,0.01000688,-0.714467,0.7617016,-0.1075573,0.6082504,1.400229,0.2094743,0.1851508,1.125433,0.1638404,279.5126,141.1947,94.51492,True
1,2.599999,-0.02192518,-0.01659359,0.08528451,-1.344227,-4.356632,-2.944356,0.3887508,1.114023,0.3391712,-1.858564,0.0279384,0.8,0.1,-0.03879938,0.02365643,-0.04355722,-0.5664687,-3.534528,-0.1244498,0.4665373,1.33085,0.2881038,0.02060766,-0.005007781,0.007882889,-0.7142912,0.7622628,-0.1083656,0.6083874,1.400037,0.2097073,0.1852822,1.125498,0.1636247,279.5753,141.0443,94.72031,True
1,2.61111,-0.02943738,0.001505706,0.08731046,-1.345386,-4.357093,-2.943668,0.3888371,1.113912,0.339072,-1.858592,-0.002761225,0.8,0.1,-0.042913,0.03744742,-0.03487377,-0.5665742,-3.532928,-0.1252162,0.4666535,1.330845,0.288132,0.01852632,0.0003333157,0.01108685,-0.7140766,0.7625746,-0.1087318,0.6083849,1.400035,0.209753,0.1853051,1.125431,0.1635402,279.5092,141.2054,94.61181,True
1,2.622221,-0.02627532,0.01214077,0.08298407,-1.346232,-4.357361,-2.943493,0.3889407,1.113822,0.3389542,-1.858574,0.001715704,0.8,0.1,-0.04396502,0.03850871,-0.03378668,-0.56693,-3.532127,-0.1252967,0.4667963,1.330796,0.2881567,0.02171124,0.005633685,0.007818513,-0.7144403,0.7627037,-0.1093166,0.6083534,1.400453,0.2098894,0.1852504,1.125261,0.1635626,279.3539,141.5056,94.36368,True
1,2.633332,-0.03486677,0.03340008,0.079665,-1.347215,-4.358392,-2.942559,0.3890391,1.113755,0.3389175,-1.858475,0.009019683,0.8,0.1,-0.03753935,0.03952186,-0.03064294,-0.5672352,-3.531191,-0.1258653,0.4669358,1.330754,0.2882133,0.02590274,0.00560439,0.001380888,-0.7146486,0.7627565,-0.1097859,0.6083882,1.400505,0.2099264,0.1851454,1.125032,0.1636427,279.149,141.918,94.00821,True
1,2.644443,-0.04127606,0.0397494,0.07643515,-1.348032,-4.3588,-2.94189,0.3891732,1.113778,0.3389897,-1.85898,-0.04621994,2,0.1,-0.02362846,0.04260438,-0.02542117,-0.5674019,-3.530246,-0.1268048,0.4671386,1.330763,0.2883444,0.0333047,-0.01360746,0.0002716384,-0.7147722,0.7612126,-0.1093294,0.6085222,1.40063,0.2100303,0.185011,1.124805,0.1637521,278.9341,142.4348,93.54058,True
1,2.655554,-0.04555802,0.04713562,0.06680206,-1.348575,-4.359433,-2.941256,0.389285,1.113886,0.3390067,-1.858483,0.04593458,2,0.1,-0.00979124,0.0232945,-0.01719404,-0.5672842,-3.530853,-0.1266181,0.4673581,1.330856,0.2885191,0.04287833,-0.02641595,0.001268586,-0.7146188,0.76013,-0.1094125,0.608646,1.400642,0.2100627,0.1848896,1.124605,0.1638624,278.7478,142.9196,93.09918,True
1,2.666665,-0.05625144,0.0576966,0.05715779,-1.349101,-4.360358,-2.940086,0.3894644,1.113975,0.339144,-1.858592,-0.01042918,2,0.1,0.008289536,-0.003514158,-0.006940599,-0.5669391,-3.532485,-0.125833,0.4675996,1.330865,0.2887821,0.04599351,-0.04560284,-0.00190955,-0.7146337,0.7585649,-0.1089249,0.6088064,1.400537,0.2100568,0.1847812,1.124483,0.1639772,278.6015,143.4099,92.61052,True
