loc,t,aDotUA,bDotUA,gDotUA,aUA,bUA,gUA,xUA,yUA,zUA,qE,qDotE,emgA,emgB,aDotSH,bDotSH,gDotSH,aSH,bSH,gSH,xSH,ySH,zSH,aDotUB,bDotUB,gDotUB,aUB,bUB,gUB,xUB,yUB,zUB,xHand,yHand,zHand,aHand,bHand,gHand,enable
2,0,-0.1632825,-0.7981763,0.05089458,-1.2506,-3.973938,3.001351,0.6015036,1.12932,0.5048018,-1.701859,0.009268616,1.2,0.3,-0.6147988,0.2795467,-0.2733193,-0.4458419,-4.370155,0.2466918,0.676744,1.341237,0.4287906,-0.266215,0.4629445,-0.1254043,-0.9666715,0.261573,0.01134347,0.7717493,1.384763,0.2960322,0.459446,1.010548,0.3027346,297.7591,203.7422,14.91386,True
2,0.01111111,-0.1612807,-0.7597094,0.06668712,-1.25316,-3.966693,3.001073,0.5999914,1.128756,0.5038741,-1.701625,0.02125995,1.2,0.3,-0.6083995,0.2816562,-0.2733588,-0.4480113,-4.361257,0.2452353,0.6758596,1.340847,0.4287779,-0.2640843,0.4640019,-0.1264825,-0.9679142,0.2678713,0.01051416,0.7718617,1.384552,0.2966866,0.4592039,1.01018,0.3009723,297.9852,202.9672,15.38694,True
2,0.02222222,-0.1582892,-0.6924855,0.08223711,-1.255353,-3.961291,3.001074,0.5988635,1.128339,0.5028756,-1.702039,-0.03805921,0.6,1,-0.5934952,0.2794635,-0.2735174,-0.4502308,-4.352819,0.2437083,0.6750792,1.340635,0.4287088,-0.2725992,0.4672167,-0.1263941,-0.9692639,0.2742931,0.01019458,0.7720272,1.384409,0.297322,0.4593594,1.009539,0.2987553,298.0393,202.7622,15.1341,True
2,0.03333334,-0.1605656,-0.6455974,0.08728969,-1.257402,-3.955313,3.001232,0.5976836,1.127809,0.5018039,-1.701474,0.05188531,0.6,1,-0.5925521,0.2881538,-0.2904951,-0.4531539,-4.342756,0.2412923,0.6742285,1.340316,0.4287524,-0.2746259,0.4778752,-0.1199899,-0.97032,0.2810989,0.0093184,0.7722608,1.384323,0.2980127,0.4598946,1.008721,0.2962236,298.0993,202.6353,14.63813,True
2,0.04444445,-0.1671438,-0.5859207,0.09330596,-1.259269,-3.950945,3.002002,0.5967971,1.127525,0.5009215,-1.701634,-0.01516519,0.6,1,-0.5873294,0.3032193,-0.3085099,-0.4562362,-4.331792,0.2378323,0.6735128,1.34013,0.4287002,-0.2746118,0.484268,-0.1210521,-0.9715601,0.2879648,0.008360728,0.7724314,1.384313,0.2987258,0.4606999,1.007818,0.2935359,298.1904,202.4497,14.06437,True
2,0.05555556,-0.1834158,-0.4912299,0.0841835,-1.260261,-3.948212,3.003671,0.5961354,1.127161,0.5001695,-1.701272,0.03317823,0.6,1,-0.5604323,0.30283,-0.2799993,-0.457619,-4.323322,0.2356914,0.672856,1.340014,0.4285431,-0.2810079,0.4821516,-0.1209806,-0.9728847,0.2944443,0.008073106,0.7726626,1.384238,0.2993293,0.4616469,1.006961,0.2908824,298.2925,202.2298,13.52523,True
2,0.06666667,-0.2017447,-0.4199401,0.08159298,-1.261428,-3.945252,3.005469,0.5954021,1.126767,0.4994698,-1.701084,0.01688633,0.2,1,-0.5441906,0.3099899,-0.2555795,-0.4588488,-4.313907,0.2328404,0.6721073,1.339802,0.4286397,-0.2693715,0.4703998,-0.1264038,-0.974277,0.3003272,0.007337808,0.7728915,1.384053,0.2998803,0.4625803,1.006229,0.2883594,298.3805,201.9936,13.05389,True
2,0.07777778,-0.2137547,-0.3294906,0.07143205,-1.262021,-3.944303,3.007973,0.5948005,1.126518,0.4990029,-1.700671,0.03760401,0.2,1,-0.5033116,0.3040538,-0.210202,-0.4589191,-4.306351,0.2303379,0.6716319,1.339668,0.428596,-0.243911,0.4383806,-0.1298397,-0.9758254,0.305056,0.006578807,0.7731725,1.383933,0.3003733,0.4634229,1.005745,0.2861529,298.4466,201.7531,12.66049,True
2,0.08888889,-0.2246142,-0.2592272,0.07098652,-1.262954,-3.943357,3.010269,0.5940897,1.126226,0.4984782,-1.700465,0.01860334,0.2,1,-0.4614909,0.27578,-0.1682517,-0.4590715,-4.301207,0.2296036,0.6711657,1.339519,0.4286065,-0.2343597,0.4181069,-0.1299178,-0.9772006,0.3097391,0.006161756,0.7734362,1.383775,0.3009515,0.4639958,1.005557,0.2843421,298.4315,201.4631,12.45076,True
2,0.1,-0.2270955,-0.1495236,0.06815631,-1.263353,-3.945449,3.013565,0.593582,1.125999,0.4982069,-1.700417,0.004351335,0.2,1,-0.4209598,0.2391772,-0.1466047,-0.4596477,-4.297398,0.2296289,0.6708913,1.339378,0.4286382,-0.221652,0.3893144,-0.1310886,-0.9786941,0.3138615,0.00590556,0.773734,1.383653,0.301446,0.4641813,1.005667,0.2829203,298.3347,201.2065,12.36466,True
2,0.1111111,-0.2274248,-0.04515981,0.06535338,-1.2637,-3.947899,3.016783,0.5929454,1.125819,0.4979815,-1.700684,-0.02443172,0.2,1,-0.3847032,0.1919149,-0.1218321,-0.460231,-4.295226,0.2309925,0.6705512,1.339279,0.4287591,-0.2003214,0.3711619,-0.1270307,-0.9798968,0.318227,0.004848817,0.7739518,1.383509,0.302,0.4639102,1.006073,0.281904,298.1833,201.0078,12.38653,True
2,0.1222222,-0.2244151,0.01233329,0.05859184,-1.263872,-3.950097,3.019836,0.5924203,1.125626,0.4977129,-1.700684,0.0002142051,0.1,0.9,-0.360203,0.1639933,-0.1095421,-0.4608089,-4.292789,0.2320133,0.6703339,1.33912,0.428838,-0.1896951,0.35942,-0.1271326,-0.9813035,0.3225645,0.004187288,0.7742584,1.383349,0.3024943,0.463157,1.006722,0.2812276,297.9666,200.8879,12.50557,True
2,0.1333333,-0.2193896,0.102743,0.03882234,-1.263127,-3.953668,3.023172,0.5922425,1.12552,0.4973931,-1.700897,-0.01943448,0.1,0.9,-0.337806,0.1317898,-0.09407884,-0.461276,-4.291469,0.2336948,0.6701651,1.338878,0.4289553,-0.1812288,0.344481,-0.1293265,-0.9826739,0.3265334,0.00371724,0.7746298,1.383116,0.3028796,0.4619468,1.00758,0.2809282,297.7119,200.8134,12.71229,True
2,0.1444445,-0.2165145,0.1984217,0.008376092,-1.261574,-3.958788,3.027005,0.592,1.125365,0.497246,-1.701027,-0.01172563,0.1,0.9,-0.2920658,0.0770967,-0.07691532,-0.4617378,-4.293876,0.2374205,0.6701592,1.338682,0.4290764,-0.1749647,0.3156944,-0.1357515,-0.9843576,0.3294131,0.003806722,0.7749617,1.382918,0.303303,0.460333,1.008582,0.2809584,297.4233,200.8049,13.0246,True
2,0.1555556,-0.2165145,0.1984217,0.008376092,-1.261574,-3.958788,3.027005,0.592,1.125365,0.497246,-1.701169,-0.01285875,0.1,0.9,-0.2920658,0.0770967,-0.07691532,-0.4617378,-4.293876,0.2374205,0.6701592,1.338682,0.4290764,-0.1749647,0.3156944,-0.1357515,-0.9843576,0.3294131,0.003806722,0.7749617,1.382918,0.303303,0.4585247,1.00964,0.2812483,297.1255,200.8488,13.47011,True
2,0.1666667,-0.2156579,0.2600606,-0.01439168,-1.260072,-3.963707,3.030896,0.5916776,1.125219,0.4970589,-1.703351,-0.199567,0.1,0.9,-0.2547234,0.04372206,-0.05733301,-0.461831,-4.295254,0.2400813,0.6702939,1.338453,0.4292173,-0.1484237,0.2815309,-0.1381389,-0.986028,0.3315806,0.003275156,0.7753781,1.382819,0.3036153,0.4568402,1.0107,0.2817866,296.8617,200.9174,14.00987,True
2,0.1777778,-0.2192138,0.3641931,-0.05340973,-1.257438,-3.971029,3.03581,0.5916127,1.125194,0.4971478,-1.701167,0.201304,0.1,0.9,-0.2259561,0.02755502,-0.05028639,-0.4620686,-4.295432,0.2417293,0.6703206,1.338292,0.4293914,-0.1260358,0.2452638,-0.1308866,-0.9872919,0.3334508,0.002755306,0.7758006,1.382587,0.3040321,0.4556218,1.011619,0.2825196,296.5947,200.889,14.5511,True
2,0.1888889,-0.226803,0.4035026,-0.06644161,-1.255678,-3.976929,3.0404,0.5913306,1.125162,0.4971519,-1.700706,0.04021784,0.1,0.9,-0.2013141,0.02196942,-0.0345911,-0.462018,-4.295407,0.2429035,0.670561,1.33808,0.429553,-0.1185693,0.223947,-0.1256167,-0.9884887,0.3355628,0.00266183,0.7761875,1.382382,0.3044167,0.4543418,1.012256,0.2830367,296.4285,200.7528,14.96975,True
2,0.2,-0.240834,0.4544046,-0.0933919,-1.253226,-3.983319,3.045612,0.591076,1.125311,0.4974496,-1.700437,0.02444401,0.1,0.9,-0.1787537,0.01848583,-0.01458677,-0.4614608,-4.295407,0.2439959,0.670699,1.337837,0.4296925,-0.1037121,0.2143192,-0.131089,-0.9901057,0.3380505,0.001712945,0.7765909,1.382119,0.3047621,0.4528812,1.012695,0.2833623,296.3655,200.5992,15.28761,True
2,0.2111111,-0.2698133,0.5103633,-0.1565902,-1.246955,-3.996044,3.056437,0.5905488,1.125635,0.4979203,-1.700372,0.005833989,0.1,0.9,-0.1274335,-0.001161315,0.01139334,-0.4606246,-4.297107,0.2465411,0.6712869,1.337408,0.4299908,-0.08037709,0.1801703,-0.1355698,-0.9932947,0.3416983,0.0005898902,0.7774899,1.38158,0.3052855,0.451257,1.013096,0.283726,296.378,200.4521,15.57952,True
2,0.2222222,-0.2816596,0.5441108,-0.2026095,-1.242644,-4.003037,3.062082,0.5903166,1.125889,0.4981511,-1.696712,0.3347588,0,0.7,-0.1072192,-0.03011059,0.02158178,-0.4603876,-4.300305,0.2498839,0.6717427,1.337294,0.4301875,-0.05499129,0.1332211,-0.1443172,-0.9952222,0.3414053,0.0002825614,0.7779866,1.381341,0.3054092,0.4493611,1.01358,0.2841786,296.419,200.1979,15.91637,True
2,0.2333333,-0.2903233,0.5800104,-0.2486425,-1.237786,-4.01063,3.068099,0.590083,1.126277,0.4983923,-1.699808,-0.2858203,0,0.7,-0.07202095,-0.07845648,0.0484914,-0.4596291,-4.3062,0.2549724,0.6722109,1.337326,0.4302707,-0.03170789,0.07670438,-0.1466356,-0.9969283,0.3400764,0.000551008,0.7785498,1.381078,0.305532,0.4468324,1.014427,0.2848861,296.5353,199.8081,16.42363,True
2,0.2444444,-0.3064805,0.6308758,-0.2809199,-1.233109,-4.019224,3.074751,0.5898876,1.126722,0.4986005,-1.700443,-0.05518929,0,0.7,-0.02095416,-0.1256866,0.06248208,-0.4592755,-4.313229,0.2598995,0.6728226,1.337272,0.4304829,-0.02016046,0.02766966,-0.152027,-0.9987009,0.3386761,0.001199754,0.7791039,1.380834,0.3056283,0.4441784,1.015795,0.286054,296.4452,199.5841,17.183,True
2,0.2555556,-0.321509,0.6626696,-0.2992223,-1.228715,-4.027804,3.081699,0.5896465,1.127142,0.4989882,-1.700419,0.002537198,0,0.7,0.003555626,-0.1440039,0.0727329,-0.4587934,-4.318614,0.2640798,0.6734658,1.337368,0.4306157,-0.005254656,-0.003250998,-0.1478949,-1.000256,0.3374383,0.001210939,0.779712,1.380556,0.3057108,0.4415593,1.017553,0.2875211,296.213,199.2294,18.25927,True
2,0.2666667,-0.361045,0.6965397,-0.3100794,-1.224557,-4.036489,3.089942,0.5895687,1.127704,0.4993467,-1.700218,0.01834298,0,1.2,0.02486239,-0.1794091,0.08924192,-0.4581217,-4.32625,0.2700781,0.6742256,1.337425,0.4308832,0.007353678,-0.05335492,-0.1532974,-1.002087,0.3347922,0.00216222,0.7802051,1.380323,0.3056872,0.4389648,1.019578,0.289096,295.9329,198.718,19.48186,True
2,0.2777778,-0.4070181,0.7452989,-0.3252837,-1.219984,-4.046841,3.099571,0.5893813,1.128319,0.4998181,-1.700033,0.01690958,0,1.2,0.04725261,-0.212701,0.106829,-0.4573383,-4.334843,0.2766987,0.6750822,1.337525,0.4310992,0.01041901,-0.08638468,-0.1586127,-1.003928,0.3325008,0.003138535,0.7807761,1.380029,0.305773,0.4363506,1.021776,0.2906562,295.6266,198.1574,20.68651,True
2,0.2888889,-0.445549,0.8016088,-0.3288145,-1.215916,-4.057918,3.109399,0.5890871,1.128833,0.500293,-1.698937,0.1001675,0,1.2,0.06640092,-0.2309407,0.1118021,-0.4569058,-4.3425,0.2821638,0.6757907,1.337628,0.4313374,0.02636081,-0.1205141,-0.1555541,-1.005635,0.3296534,0.003781955,0.7811648,1.379907,0.3057127,0.4337685,1.024071,0.2921842,295.3077,197.6004,21.83924,True
2,0.3,-0.4659282,0.8441471,-0.3301414,-1.211895,-4.069365,3.119254,0.5890031,1.129426,0.5006232,-1.698277,0.05974982,0,1.2,0.1025025,-0.2534427,0.1091155,-0.4568578,-4.350854,0.2873274,0.676631,1.337674,0.4318035,0.0326457,-0.1567513,-0.1577119,-1.007487,0.3262034,0.005052816,0.7817357,1.379737,0.3056712,0.4312421,1.026448,0.2936224,295.0438,197.0476,22.94701,True
2,0.3111111,-0.493948,0.9398916,-0.3360643,-1.207799,-4.083868,3.130759,0.5893528,1.1301,0.5008576,-1.698613,-0.03100698,0,1.2,0.1130285,-0.244801,0.09205599,-0.4570661,-4.356233,0.2907216,0.6775584,1.337768,0.4321773,0.03687011,-0.1802001,-0.1577337,-1.009293,0.3230356,0.006000635,0.7824554,1.379532,0.3058751,0.4286484,1.028951,0.2949406,294.8147,196.3762,24.07461,True
2,0.3222222,-0.4868383,1.04539,-0.3335474,-1.203942,-4.099645,3.141512,0.5899338,1.130399,0.5008812,-1.699096,-0.04358146,0.2,2.5,0.1351378,-0.2435523,0.06309851,-0.4580893,-4.361735,0.2934292,0.6782957,1.337858,0.4324284,0.03904235,-0.2068266,-0.148139,-1.010631,0.319245,0.007505587,0.783005,1.379391,0.3058541,0.4259403,1.031621,0.2962028,294.5392,195.683,25.22519,True
2,0.3333333,-0.5017676,1.379166,-0.2791722,-1.203261,-4.128474,-3.125039,0.590834,1.130766,0.5013502,-1.698877,0.02053892,0.2,2.5,0.1584657,-0.2317573,0.04381464,-0.4589383,-4.366554,0.2949398,0.6792657,1.337764,0.4327939,0.03382431,-0.2057374,-0.1406342,-1.012067,0.3167529,0.008224374,0.7837897,1.379248,0.3059652,0.4232145,1.034476,0.2975177,294.2402,195.0091,26.45285,True
2,0.3444445,-0.5106367,1.82391,-0.1967664,-1.204874,-4.165375,-3.105744,0.5916631,1.13108,0.5016069,-1.70032,-0.1319095,0.2,2.5,0.1545932,-0.1251436,0.03742137,-0.4580802,-4.361454,0.2887239,0.6800879,1.337635,0.4329867,0.04471543,-0.2078771,-0.1183836,-1.012832,0.3138288,0.008935172,0.7843926,1.379135,0.3056586,0.420485,1.037546,0.2989742,293.9113,194.3036,27.83675,True
2,0.3555556,-0.5557625,2.291208,-0.06656682,-1.210114,-4.208898,-3.082846,0.592596,1.13119,0.5021577,-1.699476,0.07839902,0.2,2.5,0.1221337,-0.046396,0.06084675,-0.4560168,-4.357385,0.284714,0.6812351,1.337536,0.4332557,0.07671382,-0.219663,-0.1123225,-1.013902,0.3104713,0.008761534,0.7850268,1.378946,0.3056633,0.4176327,1.040808,0.3006666,293.5081,193.5236,29.24588,True
2,0.3666667,-0.599035,2.520725,0.02785212,-1.215772,-4.245325,-3.062308,0.5930834,1.131384,0.5023835,-1.69976,-0.02621031,0.2,2.5,0.1341098,-0.08949624,0.1050713,-0.4542149,-4.36556,0.289683,0.6825349,1.337534,0.4336305,0.1232738,-0.2421758,-0.1373055,-1.016437,0.3063321,0.007885354,0.7857707,1.378656,0.305516,0.413924,1.044493,0.3028915,293.0406,193.1685,30.14049,True
2,0.3777778,-0.6730244,2.690712,0.1588988,-1.225445,-4.283267,-3.03944,0.5938412,1.131416,0.502949,-1.698627,0.1040599,0,3,0.176735,-0.1988332,0.1558273,-0.452634,-4.380678,0.2998863,0.6840721,1.337455,0.4340687,0.1546074,-0.2785272,-0.1876736,-1.020317,0.3012294,0.007743141,0.7865931,1.378341,0.3053975,0.4087064,1.048906,0.3060767,292.4168,193.1938,30.95608,True
2,0.3888889,-0.7287031,2.792359,0.2562452,-1.23507,-4.31813,-3.017965,0.5945897,1.131524,0.5034046,-1.698418,0.01861755,0,3,0.230952,-0.3016359,0.1863094,-0.4516561,-4.397809,0.3104436,0.685446,1.337456,0.4344161,0.1860376,-0.3265835,-0.227375,-1.024147,0.295223,0.007729026,0.7871827,1.378101,0.305248,0.4019826,1.05425,0.3107285,291.5123,193.6477,32.07976,True
2,0.4,-0.8555568,2.830897,0.3497984,-1.246678,-4.351516,-2.993486,0.5952009,1.131607,0.5038445,-1.696694,0.1576989,0,3,0.3505754,-0.474699,0.1824705,-0.453344,-4.423742,0.3257613,0.6872545,1.337315,0.4349887,0.2166891,-0.3607624,-0.2425811,-1.027416,0.2892293,0.007429687,0.7879454,1.377809,0.3050809,0.3945439,1.060413,0.3168496,290.3584,194.2881,33.8256,True
2,0.4111111,-0.9340339,2.71993,0.3622226,-1.255204,-4.378735,-2.972004,0.5958733,1.131859,0.5040531,-1.697009,-0.02946783,0,3,0.396096,-0.5355721,0.1782848,-0.453915,-4.441308,0.3358022,0.688763,1.337352,0.4352472,0.2326168,-0.3767815,-0.2416616,-1.029835,0.2838169,0.007519169,0.7887487,1.377574,0.3046482,0.3872064,1.067231,0.3241884,288.9633,195.2108,35.75308,True
2,0.4222222,-0.9847276,2.578951,0.3333215,-1.262267,-4.402877,-2.952146,0.5964037,1.131991,0.5041761,-1.693818,0.2921787,0.1,3.1,0.4211988,-0.606886,0.1603195,-0.4559188,-4.461997,0.3487505,0.6904139,1.337214,0.4356875,0.2519296,-0.3959826,-0.224802,-1.031768,0.2779186,0.007064567,0.7895054,1.377331,0.3044682,0.3805285,1.074466,0.33216,287.4473,195.8664,38.1049,True
2,0.4333333,-1.079735,2.29793,0.249953,-1.266047,-4.419817,-2.931991,0.596573,1.132413,0.5040812,-1.694954,-0.1057842,0.1,3.1,0.3902115,-0.6590883,0.1739597,-0.4567444,-4.482453,0.3640578,0.6919938,1.336979,0.4360113,0.2775933,-0.4002888,-0.2133463,-1.033602,0.2727128,0.006103965,0.7902771,1.376979,0.3042078,0.3746955,1.081964,0.3399939,285.9005,196.1811,40.72145,True
2,0.4444444,-1.123117,2.199612,0.22505,-1.272547,-4.441333,-2.912213,0.5971509,1.132667,0.5044491,-1.696323,-0.1237414,0.1,3.1,0.3838594,-0.6591024,0.1782797,-0.457399,-4.499321,0.3752258,0.6934668,1.336847,0.4363484,0.2914681,-0.4056384,-0.2092327,-1.035842,0.2674908,0.005226187,0.7911459,1.37666,0.3040364,0.3701113,1.089465,0.3469613,284.4596,195.1001,44.42687,True
2,0.4555556,-1.165224,2.036167,0.1760487,-1.277041,-4.45832,-2.893124,0.5971314,1.133184,0.5044339,-1.694552,0.1632478,0.1,3.1,0.3620255,-0.5878851,0.2047384,-0.4559236,-4.510436,0.3820701,0.6948007,1.336849,0.4365551,0.2923823,-0.4088423,-0.2209538,-1.038602,0.2623391,0.004890629,0.7919917,1.376341,0.3038814,0.3668186,1.09664,0.3524647,283.1813,192.251,49.32807,True
2,0.4666667,-1.186291,1.961474,0.1659132,-1.283958,-4.478175,-2.873725,0.5974626,1.133689,0.5046809,-1.696661,-0.1938344,0.1,3.1,0.3378156,-0.5335386,0.2140083,-0.455106,-4.521429,0.3891472,0.6963211,1.336769,0.4367919,0.2910741,-0.416311,-0.2401093,-1.041953,0.2567706,0.004778244,0.7928789,1.375945,0.3037927,0.3646335,1.1033,0.3560486,282.2663,188.1885,54.62513,True
2,0.4777778,-1.214484,1.783399,0.1542833,-1.289315,-4.491946,-2.85532,0.5970306,1.134453,0.5046451,-1.696797,-0.009956007,0,2.9,0.2902875,-0.472773,0.2310136,-0.4534117,-4.531006,0.396122,0.6975867,1.336738,0.4369745,0.2898399,-0.4099358,-0.2571489,-1.045443,0.2517163,0.004110323,0.793731,1.375618,0.3036749,0.3633,1.109467,0.3580161,281.5861,183.4713,59.73701,True
2,0.4888889,-1.217556,1.74182,0.1502767,-1.295951,-4.50931,-2.837333,0.5973015,1.135105,0.504904,-1.697692,-0.08163948,0,2.9,0.2435369,-0.4406399,0.2328098,-0.4527566,-4.541641,0.4047683,0.6990083,1.336668,0.4373882,0.2738686,-0.3949445,-0.257029,-1.048542,0.2479785,0.00384161,0.7949006,1.375497,0.3034153,0.3623059,1.115225,0.3586839,281.1935,178.4807,64.62675,True
2,0.5,-1.21802,1.551994,0.118473,-1.299819,-4.520125,-2.820795,0.5968673,1.13596,0.5048473,-1.69742,0.02593914,0,2.9,0.1998872,-0.4297825,0.2311866,-0.4522335,-4.553341,0.4143578,0.7003247,1.336645,0.437603,0.2537776,-0.3756956,-0.245141,-1.051197,0.2440719,0.003841344,0.7958705,1.375157,0.3033054,0.3614095,1.120741,0.3587098,280.9415,173.6662,69.09409,True
2,0.5111111,-1.210232,1.446432,0.09783632,-1.304378,-4.532556,-2.804238,0.5966053,1.13686,0.5049558,-1.699086,-0.1522963,0,2.9,0.1785543,-0.4435911,0.2365676,-0.4519549,-4.5671,0.4255601,0.7017075,1.336731,0.4379365,0.2389086,-0.3618084,-0.2428516,-1.053672,0.2399773,0.003813913,0.7964542,1.374811,0.3032258,0.3603926,1.126148,0.3584783,280.8106,169.0715,73.35967,True
2,0.5222223,-1.195854,1.278009,0.07440352,-1.307519,-4.540995,-2.789101,0.5961344,1.137784,0.5049343,-1.699163,-0.005552028,0,2.9,0.1433144,-0.4701069,0.2398341,-0.4520061,-4.58264,0.4390538,0.7029584,1.336784,0.4381573,0.2132965,-0.3393852,-0.2511156,-1.056703,0.2365513,0.004005661,0.7970762,1.374686,0.3031869,0.3594469,1.131492,0.3585933,280.7557,164.4323,77.80475,True
2,0.5333334,-1.170808,1.109625,0.04992783,-1.30987,-4.547582,-2.775383,0.5955659,1.13875,0.5049808,-1.699728,-0.05165201,0,2.8,0.09948942,-0.4836862,0.2315743,-0.4525084,-4.596588,0.4520143,0.7040306,1.336896,0.4384162,0.1769871,-0.3031386,-0.2667012,-1.059734,0.233539,0.004825115,0.7975416,1.374194,0.3032918,0.3584155,1.136799,0.3591247,280.7705,159.8247,82.4857,True
2,0.5444446,-1.159807,1.001983,0.03569907,-1.312692,-4.555031,-2.760954,0.5951215,1.139616,0.5050104,-1.700282,-0.05009646,0,2.8,0.0675931,-0.4804023,0.2372297,-0.4522101,-4.609957,0.4642795,0.7051225,1.336943,0.4386187,0.1535551,-0.276494,-0.2728221,-1.062419,0.23051,0.005247492,0.7981868,1.374094,0.3033669,0.3573314,1.142084,0.3601805,280.8056,155.376,87.20439,True
2,0.5555557,-1.121943,0.8230373,0.01872465,-1.313758,-4.558273,-2.748912,0.5943756,1.140535,0.5051122,-1.70133,-0.09529737,0,2.8,0.00172627,-0.4182467,0.2288498,-0.4514095,-4.617973,0.4736674,0.7057575,1.337017,0.4387705,0.09826231,-0.2049953,-0.2786994,-1.065785,0.2306597,0.005965481,0.7988083,1.373846,0.3036327,0.356274,1.147281,0.3616131,280.8515,150.9596,92.12235,True
2,0.5666668,-1.100388,0.7528068,0.01703066,-1.316401,-4.564326,-2.736103,0.593832,1.141427,0.5051584,-1.700941,0.03630893,0,2.8,-0.02904725,-0.363671,0.2179279,-0.4507571,-4.624436,0.4807128,0.7065595,1.337108,0.4389586,0.08559218,-0.1857976,-0.2743102,-1.068474,0.2288333,0.006048305,0.7995289,1.37354,0.3037715,0.3553252,1.152284,0.3631996,280.9529,146.6396,97.01196,True
2,0.577778,-1.058587,0.6741365,0.02177465,-1.31866,-4.568579,-2.724828,0.5930567,1.142205,0.5051627,-1.702142,-0.1102716,1.1,1.8,-0.06728327,-0.2780219,0.1914088,-0.4497855,-4.626178,0.4843099,0.7069994,1.337129,0.4390972,0.04545048,-0.1281771,-0.254758,-1.070457,0.2292461,0.00681423,0.8003054,1.37348,0.3040488,0.3544735,1.157059,0.36476,281.0985,142.6179,101.5955,True
2,0.5888891,-1.025403,0.6295145,0.02098843,-1.321274,-4.574009,-2.713232,0.5923753,1.142994,0.5052481,-1.70212,0.002987224,1.1,1.8,-0.100297,-0.2243926,0.168798,-0.4491197,-4.629372,0.4893737,0.707683,1.337174,0.4392567,0.0306866,-0.1036531,-0.2460861,-1.072722,0.2284109,0.007311709,0.8011367,1.373273,0.3041475,0.3537597,1.161526,0.3660443,281.3098,138.9503,105.7277,True
2,0.6000003,-0.9687975,0.5861061,0.03508791,-1.324227,-4.578323,-2.703323,0.5913996,1.143762,0.5051622,-1.703003,-0.08103284,1.1,1.8,-0.1608861,-0.1622074,0.1550431,-0.4478452,-4.629955,0.4938808,0.7079713,1.337184,0.4394085,0.01074623,-0.06949171,-0.2256696,-1.07452,0.2289155,0.007665377,0.8017473,1.373044,0.3044009,0.3530809,1.165727,0.3669938,281.5455,135.7872,109.1942,True
2,0.6111114,-0.9047545,0.5523213,0.04911318,-1.327282,-4.582779,-2.694267,0.5904217,1.144648,0.5050399,-1.702852,0.01438128,1.1,1.8,-0.2129482,-0.1054146,0.1443492,-0.4464779,-4.630181,0.4981384,0.7082531,1.337143,0.4395292,-0.0007744581,-0.04175686,-0.2127926,-1.076473,0.2293148,0.007904262,0.8025955,1.372736,0.3046653,0.3524131,1.16965,0.367598,281.8258,132.9126,112.2402,True
2,0.6222225,-0.8417912,0.5238742,0.0652546,-1.33063,-4.586897,-2.685961,0.589375,1.145462,0.5049479,-1.70395,-0.1007706,1.1,1.8,-0.2447424,-0.08298235,0.152319,-0.4448422,-4.632991,0.5044557,0.7085743,1.337108,0.439651,-0.01353876,-0.01403312,-0.2169507,-1.0791,0.2301937,0.008042214,0.8032533,1.372431,0.3049614,0.3516915,1.173342,0.3679405,282.1237,130.5014,114.7086,True
2,0.6333337,-0.7767156,0.4964568,0.07711804,-1.333755,-4.590501,-2.678801,0.5882558,1.146189,0.5047054,-1.704602,-0.05891426,1.2,1.1,-0.2703401,-0.08070265,0.1483154,-0.4439351,-4.636494,0.511402,0.7088805,1.337031,0.4397979,-0.01885195,0.009408485,-0.2201137,-1.081584,0.231163,0.008052068,0.8038325,1.372123,0.3051913,0.3508396,1.176844,0.3680797,282.3971,128.3039,116.9274,True
2,0.6444448,-0.7436272,0.4773906,0.07722539,-1.336578,-4.594403,-2.670785,0.5872048,1.146911,0.5044954,-1.704881,-0.02551213,1.2,1.1,-0.2714489,-0.09456851,0.1503244,-0.4431926,-4.641665,0.519105,0.7092384,1.336945,0.4399202,-0.01776879,0.02112183,-0.2212015,-1.083998,0.2318408,0.00785526,0.8043813,1.37186,0.3054435,0.3498819,1.180146,0.3681211,282.6506,126.4143,118.8169,True
2,0.655556,-0.690178,0.4199872,0.06905153,-1.338342,-4.59672,-2.664508,0.5860168,1.147519,0.5041082,-1.705427,-0.05000569,1.2,1.1,-0.2620559,-0.105116,0.1352124,-0.443207,-4.645783,0.5254422,0.709455,1.33673,0.4401269,-0.02406566,0.03818332,-0.2158171,-1.086012,0.2329298,0.00785526,0.8048321,1.37157,0.3057384,0.3488516,1.183226,0.368169,282.8859,124.6517,120.5941,True
2,0.6666671,-0.6730108,0.3827078,0.06076556,-1.340199,-4.599385,-2.656949,0.5849348,1.148314,0.5037992,-1.704196,0.1124911,1.2,1.1,-0.2569502,-0.1156073,0.1158783,-0.4435697,-4.6496,0.5315251,0.7095301,1.336572,0.4402981,-0.02599476,0.04033763,-0.1976893,-1.087596,0.2334181,0.007980429,0.8052073,1.371189,0.3059356,0.3477761,1.186036,0.3682724,283.1158,123.0109,122.299,True
2,0.6777782,-0.6557746,0.3198289,0.0483738,-1.340935,-4.600545,-2.650081,0.5837305,1.148938,0.5033791,-1.704951,-0.07039917,1.1,22.6,-0.2678146,-0.1303208,0.09985524,-0.4440683,-4.654182,0.5389458,0.7095996,1.336408,0.4404492,-0.02581349,0.04887789,-0.1827865,-1.089084,0.2343674,0.007793741,0.8055363,1.370907,0.3061564,0.3466472,1.188596,0.3684439,283.3182,121.6908,123.7483,True
2,0.6888894,-0.6481808,0.2782763,0.0411803,-1.342048,-4.602144,-2.642905,0.5826623,1.149674,0.5030129,-1.703429,0.1396594,1.1,22.6,-0.2679498,-0.1344507,0.08595683,-0.4445444,-4.65785,0.5450412,0.7095933,1.336266,0.4405234,-0.02465706,0.05526674,-0.1753415,-1.090691,0.2351632,0.007729559,0.8057865,1.370581,0.3064456,0.3455114,1.190894,0.3686084,283.499,120.5797,125.0341,True
2,0.7000005,-0.6299159,0.2271322,0.03084402,-1.342345,-4.602724,-2.636528,0.5814844,1.150301,0.5025403,-1.703245,0.0152252,1.1,22.6,-0.2670019,-0.1182807,0.06586219,-0.4449253,-4.65935,0.5492818,0.709484,1.336128,0.4406316,-0.02659354,0.06913868,-0.1604223,-1.091887,0.236584,0.007474694,0.8060306,1.370306,0.3066804,0.3443481,1.193034,0.368701,283.62,119.8176,125.9679,True
2,0.7111117,-0.6127749,0.2016796,0.03846155,-1.343755,-4.603779,-2.630243,0.5801907,1.150864,0.5021286,-1.702765,0.04380506,1.1,22.6,-0.266942,-0.1033496,0.06493714,-0.4445919,-4.66109,0.5537114,0.709263,1.336012,0.440726,-0.03392536,0.08088963,-0.1518305,-1.093215,0.2381179,0.00732103,0.8061684,1.370066,0.3069589,0.3432348,1.19507,0.3686286,283.7477,119.1737,126.7637,True
2,0.7222228,-0.5967723,0.1964778,0.05020601,-1.345623,-4.605167,-2.623719,0.5790465,1.151402,0.5016692,-1.703033,-0.02513263,1.1,22.6,-0.2723569,-0.0850427,0.04705258,-0.4448608,-4.661494,0.557341,0.7089688,1.33595,0.4407556,-0.05614669,0.0937372,-0.1409494,-1.094411,0.2397886,0.007955661,0.8062652,1.369847,0.3072281,0.3422184,1.197094,0.3683624,283.8823,118.5984,127.4297,True
2,0.7333339,-0.5819009,0.2158399,0.07246332,-1.348613,-4.607114,-2.617276,0.5778075,1.151877,0.501236,-1.703025,0.0008781244,2.1,38,-0.2989709,-0.0400023,0.02855898,-0.4445513,-4.659117,0.5594636,0.7085271,1.335942,0.4406567,-0.06994861,0.1044232,-0.1386816,-1.095877,0.2414965,0.008448079,0.8064982,1.369541,0.3075213,0.3413044,1.19914,0.3678669,284.0907,117.8687,128.1763,True
2,0.7444451,-0.5681248,0.2415484,0.087207,-1.351699,-4.609629,-2.61075,0.5766543,1.152338,0.5007958,-1.702615,0.03725402,2.1,38,-0.3116476,-0.01544945,0.02891412,-0.443933,-4.658413,0.5627712,0.7082098,1.335834,0.4406424,-0.08052175,0.1225618,-0.1353896,-1.097245,0.2437733,0.00864542,0.8065673,1.369342,0.3078125,0.3404299,1.201243,0.3672,284.3283,116.9276,129.028,True
2,0.7555562,-0.5470244,0.3153499,0.1240207,-1.357002,-4.613531,-2.604522,0.5754284,1.152677,0.5003436,-1.702559,0.004656526,2.1,38,-0.3306947,0.01980931,0.02729553,-0.443076,-4.655979,0.5650141,0.7076168,1.335802,0.4406602,-0.09727945,0.1631133,-0.117147,-1.097955,0.2475053,0.00858763,0.8065811,1.369237,0.3082438,0.3395895,1.203416,0.3664729,284.5705,115.9228,129.8961,True
2,0.7666674,-0.5343058,0.3431981,0.1408907,-1.361157,-4.616504,-2.598456,0.5741346,1.153072,0.4999118,-1.702402,0.01414373,2.1,38,-0.3392084,0.04337695,0.01801186,-0.4425247,-4.653402,0.5667832,0.7071301,1.335772,0.4406974,-0.1056211,0.1791307,-0.1032171,-1.098524,0.2502675,0.008849151,0.8065805,1.369101,0.308538,0.3387201,1.205694,0.3658173,284.8216,114.8161,130.8615,True
2,0.7777785,-0.5109918,0.3871222,0.1682998,-1.366608,-4.620133,-2.592788,0.572795,1.153424,0.4994798,-1.702778,-0.03455903,4.3,49.3,-0.3509492,0.06271192,0.006588846,-0.4420911,-4.65045,0.568387,0.7064642,1.335793,0.4407024,-0.1214236,0.1951635,-0.0902814,-1.099067,0.2533641,0.00930615,0.8064858,1.368987,0.308845,0.3377988,1.208078,0.3653694,285.083,113.6635,131.9056,True
2,0.7888896,-0.4919022,0.4171802,0.1947274,-1.372033,-4.623443,-2.587113,0.5714939,1.153797,0.4990542,-1.702569,0.01923305,4.3,49.3,-0.3637514,0.07028311,0.0003907159,-0.4416954,-4.648417,0.5709327,0.7058917,1.335759,0.4406915,-0.1319638,0.2026502,-0.08165585,-1.099743,0.2560279,0.009871007,0.8063313,1.368886,0.3091805,0.3367472,1.210581,0.3652724,285.3357,112.2312,133.3172,True
2,0.8000008,-0.4791307,0.4237194,0.2117251,-1.37715,-4.626152,-2.581701,0.5701318,1.154194,0.4985886,-1.702849,-0.02591546,4.3,49.3,-0.3798261,0.08008239,-0.01428159,-0.4416064,-4.645125,0.5727836,0.7051332,1.335782,0.4406462,-0.1341011,0.2143696,-0.08484306,-1.100771,0.2591579,0.01001642,0.8062109,1.368764,0.30951,0.3355706,1.213128,0.3655357,285.5892,110.7495,134.9203,True
2,0.8111119,-0.4642154,0.4281005,0.2223454,-1.382091,-4.628871,-2.576584,0.5687479,1.154634,0.4980175,-1.702582,0.024523,4.3,49.3,-0.3819987,0.07906738,-0.01853746,-0.4414696,-4.64303,0.5751222,0.7043054,1.335751,0.4405515,-0.1425901,0.2420847,-0.08797829,-1.101808,0.263278,0.009971407,0.8059316,1.36861,0.3098125,0.3342679,1.21567,0.3661431,285.8032,109.172,136.723,True
2,0.8222231,-0.4524596,0.4164125,0.2202817,-1.386374,-4.631269,-2.571513,0.5673199,1.155006,0.497499,-1.70198,0.05389799,4.3,49.3,-0.3831057,0.08553386,-0.02592149,-0.4412879,-4.64014,0.5767946,0.7034597,1.335798,0.4404194,-0.1478044,0.2623397,-0.08261262,-1.10237,0.2672385,0.009942912,0.8055617,1.368585,0.3100917,0.3328803,1.21813,0.3670134,285.9773,107.5737,138.6581,True
2,0.8333342,-0.4502602,0.3929493,0.2140197,-1.389915,-4.633185,-2.566238,0.5658672,1.15544,0.496917,-1.701084,0.08033567,7.1,27.6,-0.3926434,0.09943715,-0.02677442,-0.4407984,-4.6365,0.5781363,0.7026068,1.335934,0.440309,-0.1446114,0.2644472,-0.08264244,-1.103087,0.2702841,0.01016049,0.805135,1.36851,0.3103411,0.331411,1.220448,0.367986,286.1265,106.0378,140.609,True
2,0.8444453,-0.4501517,0.3566592,0.2035977,-1.393006,-4.634415,-2.561102,0.5643259,1.15592,0.4963901,-1.699476,0.1449605,7.1,27.6,-0.394871,0.1049009,-0.03949077,-0.4408053,-4.632667,0.579123,0.7016634,1.336038,0.4401915,-0.1391314,0.2633916,-0.06885219,-1.103403,0.2735242,0.009934656,0.8047205,1.368569,0.3106637,0.3298636,1.222563,0.3689009,286.2702,104.6545,142.4169,True
2,0.8555565,-0.4489437,0.3097328,0.194294,-1.395468,-4.635053,-2.556136,0.5627599,1.156474,0.4957728,-1.697092,0.214957,7.1,27.6,-0.3884628,0.1123357,-0.04054343,-0.4404474,-4.629269,0.5801433,0.7007036,1.336058,0.4401412,-0.147515,0.2655615,-0.05598436,-1.103651,0.2769289,0.01033067,0.8043313,1.368546,0.3110271,0.3282568,1.224402,0.3696328,286.4092,103.4916,143.9494,True
2,0.8666676,-0.448851,0.2820056,0.1891449,-1.398361,-4.635921,-2.551189,0.56122,1.156963,0.4952631,-1.694594,0.2245979,7.1,27.6,-0.3894876,0.1240724,-0.04148728,-0.439869,-4.625095,0.5806932,0.6996708,1.336175,0.4400408,-0.152739,0.264509,-0.04632155,-1.103595,0.2799737,0.0107866,0.8038045,1.368691,0.3113406,0.3265755,1.225958,0.3700675,286.499,102.6106,145.113,True
2,0.8777788,-0.4455509,0.2468073,0.1808447,-1.400682,-4.636223,-2.54628,0.5595099,1.157552,0.494664,-1.691837,0.248076,7.1,27.6,-0.3851541,0.1261084,-0.03405253,-0.4392245,-4.6221,0.5822027,0.6985309,1.33621,0.4399791,-0.1558671,0.2687843,-0.04096619,-1.103835,0.2835023,0.0110372,0.8032387,1.368742,0.3116403,0.3248212,1.227263,0.3701375,286.5251,101.9637,145.9358,True
2,0.8888899,-0.4465223,0.2169139,0.1703773,-1.402772,-4.636662,-2.541358,0.5578982,1.158033,0.4941061,-1.68877,0.2759998,8.7,31.5,-0.3818654,0.1217135,-0.02134408,-0.4384282,-4.619921,0.5844262,0.6974663,1.336301,0.4398479,-0.1547427,0.2751614,-0.03670677,-1.103814,0.2868909,0.01118474,0.8026625,1.368745,0.3119583,0.323029,1.228353,0.3698235,286.5023,101.5466,146.4116,True
2,0.900001,-0.4464554,0.1945161,0.1662585,-1.404954,-4.636827,-2.536427,0.5562085,1.158618,0.4935424,-1.685312,0.3112735,8.7,31.5,-0.384068,0.1164478,-0.02670175,-0.4382253,-4.617186,0.5862427,0.6963535,1.33646,0.4397218,-0.1536224,0.2741002,-0.03139077,-1.103919,0.2902495,0.0113163,0.8020203,1.368839,0.3122165,0.3212132,1.22929,0.3692096,286.4572,101.2489,146.6454,True
2,0.9111122,-0.447428,0.1678405,0.1589665,-1.406708,-4.63682,-2.531649,0.5543741,1.159165,0.4930239,-1.681687,0.3262662,8.7,31.5,-0.3830651,0.1068844,-0.02999881,-0.4381497,-4.614954,0.5882673,0.6950909,1.336706,0.4395587,-0.1525618,0.2719782,-0.03140629,-1.104384,0.2936803,0.01138448,0.8014631,1.368961,0.3123283,0.3193443,1.230149,0.3683695,286.4186,101.0521,146.7221,True
2,0.9222233,-0.4452553,0.1561228,0.1569094,-1.40885,-4.637025,-2.526885,0.5525551,1.15978,0.4924319,-1.677813,0.3487018,8.7,31.5,-0.3765674,0.1131662,-0.02147468,-0.4372873,-4.612158,0.5896473,0.6938913,1.336898,0.4394326,-0.1535957,0.2687768,-0.02924483,-1.104372,0.2966988,0.01152163,0.8005676,1.369154,0.3125362,0.3174885,1.23094,0.3674256,286.3881,100.933,146.6799,True
2,0.9333345,-0.4431131,0.155104,0.1632964,-1.411374,-4.637249,-2.522048,0.550677,1.160414,0.4916823,-1.673945,0.3479839,10.2,49.7,-0.3679167,0.1290549,-0.01499428,-0.4359078,-4.608341,0.5900095,0.6925799,1.33722,0.4392111,-0.1503152,0.2645071,-0.01967139,-1.104002,0.2996682,0.01185932,0.799662,1.369186,0.3127863,0.3155934,1.231745,0.3664714,286.3612,100.7943,146.6481,True
2,0.9444456,-0.4367528,0.1668728,0.1685459,-1.41438,-4.63788,-2.517299,0.5488191,1.160999,0.4910486,-1.669868,0.366856,10.2,49.7,-0.3615002,0.137558,-0.01603482,-0.4350838,-4.604527,0.5904366,0.691281,1.337434,0.4390557,-0.1501706,0.2634414,-0.007934697,-1.103408,0.3027071,0.01188223,0.79875,1.36932,0.3130047,0.3136234,1.232597,0.3655849,286.3571,100.6081,146.6856,True
2,0.9555568,-0.43151,0.1968244,0.1853898,-1.41835,-4.638964,-2.512396,0.5468149,1.161568,0.4904325,-1.665537,0.3899763,10.2,49.7,-0.3593919,0.13756,-0.01817199,-0.4343807,-4.601533,0.5917597,0.6899287,1.337617,0.438915,-0.1511515,0.2655648,0.000611838,-1.102849,0.3058611,0.01237811,0.7977374,1.369414,0.313345,0.3115557,1.233529,0.3648235,286.3354,100.2951,146.9158,True
2,0.9666679,-0.4304869,0.2139482,0.1970015,-1.422135,-4.639791,-2.507571,0.5449628,1.162136,0.4898598,-1.661307,0.3804163,10.2,49.7,-0.3584402,0.1301797,-0.02675339,-0.4339898,-4.598758,0.5932463,0.688525,1.337758,0.4387386,-0.1468545,0.2698135,0.003774019,-1.102442,0.3093083,0.01239116,0.7968583,1.369533,0.3136117,0.3093907,1.234556,0.3642056,286.3032,99.84376,147.356,True
2,0.977779,-0.4348113,0.2363738,0.2075139,-1.426264,-4.640956,-2.502469,0.5429418,1.162629,0.4892027,-1.65677,0.4085398,10.2,49.7,-0.3605522,0.1344497,-0.02669258,-0.4333245,-4.595188,0.5940527,0.6870551,1.337898,0.4385026,-0.1510428,0.2762219,0.009138254,-1.102113,0.3129443,0.01255787,0.7958305,1.3697,0.3138065,0.3071573,1.235655,0.3637763,286.2854,99.28468,147.9197,True
2,0.9888902,-0.440173,0.2491637,0.2106331,-1.430049,-4.642037,-2.497336,0.5410212,1.163208,0.4885647,-1.65225,0.4067598,11.5,59.7,-0.3787199,0.1420757,-0.03707967,-0.4326944,-4.591193,0.5950399,0.685463,1.33814,0.4382126,-0.1488494,0.280491,0.01549041,-1.101898,0.3166451,0.01266014,0.7951881,1.369962,0.3139527,0.3048339,1.236827,0.3635754,286.2658,98.55425,148.6898,True
2,1.000001,-0.4443559,0.22465,0.2107911,-1.432932,-4.641988,-2.492336,0.5388782,1.163733,0.4879489,-1.647422,0.4348376,11.5,59.7,-0.3787876,0.1378662,-0.04244675,-0.4324526,-4.587595,0.5959529,0.6839106,1.338309,0.4379852,-0.1509113,0.2900889,0.01976237,-1.101497,0.3206049,0.01260554,0.7941561,1.37013,0.3141444,0.3025027,1.23801,0.3635949,286.2519,97.74409,149.6201,True
2,1.011112,-0.4464014,0.1969402,0.2099109,-1.435603,-4.641568,-2.487431,0.5367305,1.164379,0.487298,-1.642704,0.4244752,11.5,59.7,-0.3617994,0.143203,-0.0521223,-0.4320787,-4.583498,0.5954418,0.6822665,1.338469,0.4376829,-0.1508719,0.2986357,0.02187949,-1.101218,0.3249704,0.01235334,0.7930487,1.370404,0.3143568,0.3001112,1.239209,0.3637667,286.2458,96.86848,150.6881,True
2,1.022224,-0.4452028,0.1543112,0.2059199,-1.437481,-4.640526,-2.482774,0.5343986,1.165035,0.4866593,-1.637993,0.4239993,11.5,59.7,-0.3523306,0.143286,-0.06499392,-0.4321756,-4.578787,0.5947105,0.6806045,1.338633,0.4373901,-0.1582521,0.3125357,0.02936236,-1.101126,0.3297233,0.01268517,0.7921546,1.37047,0.3144891,0.2977039,1.240391,0.3640012,286.2432,96.02558,151.7732,True
2,1.033335,-0.4429181,0.1009237,0.1860183,-1.438257,-4.639165,-2.478193,0.5319216,1.165764,0.4860885,-1.633317,0.4208329,13.6,66.8,-0.3545668,0.1541012,-0.08082272,-0.4319392,-4.573072,0.5935619,0.6787198,1.338792,0.4371986,-0.1624921,0.3232474,0.02830565,-1.10119,0.3348488,0.01225134,0.7910361,1.370739,0.3145418,0.2952707,1.241529,0.3641436,286.2551,95.1987,152.8439,True
2,1.044446,-0.4470358,0.05396634,0.1746009,-1.438961,-4.637436,-2.473324,0.5294466,1.166473,0.485518,-1.628598,0.4244708,13.6,66.8,-0.3620827,0.1445653,-0.08297692,-0.4320174,-4.569187,0.5943571,0.6768506,1.338905,0.4368405,-0.156094,0.3338983,0.02819139,-1.101241,0.3396448,0.0118785,0.7900404,1.370844,0.3146884,0.2928035,1.242614,0.3640561,286.2587,94.45238,153.7857,True
2,1.055557,-0.4519217,-0.09435695,0.1403923,-1.435687,-4.632401,-2.468836,0.526491,1.167446,0.4849696,-1.623596,0.4503237,13.6,66.8,-0.3663917,0.139261,-0.08508161,-0.4318033,-4.565981,0.5957278,0.674787,1.339145,0.436388,-0.1463544,0.3616106,0.03655924,-1.100683,0.3456706,0.01053999,0.7885636,1.371205,0.3148804,0.2902708,1.243617,0.3636362,286.2876,93.907,154.4332,True
2,1.066668,-0.4516511,-0.1871867,0.115409,-1.433067,-4.628329,-2.464344,0.5238712,1.168315,0.4843915,-1.618074,0.4974631,13.6,66.8,-0.3696263,0.1350385,-0.08722355,-0.4318784,-4.561707,0.5961249,0.6729637,1.339284,0.4360247,-0.1389075,0.3616548,0.03856312,-1.100705,0.3511033,0.009948238,0.7870343,1.37154,0.3149378,0.287665,1.244492,0.3628516,286.3183,93.63628,154.6753,True
2,1.077779,-0.4469765,-0.3301843,0.07476889,-1.427281,-4.621861,-2.460357,0.5209077,1.169395,0.4836674,-1.612688,0.4845758,13.6,66.8,-0.3813502,0.1329488,-0.08709852,-0.431529,-4.558253,0.5976408,0.6708949,1.339673,0.4355297,-0.1378794,0.3605831,0.03535727,-1.100366,0.3556195,0.009427857,0.7856759,1.371737,0.3150308,0.2849957,1.245218,0.3616958,286.3256,93.52905,154.6842,True
2,1.08889,-0.4457042,-0.4028399,0.04114321,-1.422641,-4.616987,-2.456123,0.5180683,1.170401,0.4828522,-1.607301,0.4846109,17.8,74.9,-0.3950514,0.1210842,-0.06681389,-0.430778,-4.556939,0.6012067,0.66882,1.339904,0.4350793,-0.1283386,0.3648702,0.02664378,-1.10141,0.3611969,0.007694139,0.7840791,1.37206,0.3154824,0.2822851,1.245752,0.3600267,286.3201,93.80792,154.2405,True
2,1.100002,-0.4369577,-0.4873988,-0.02650467,-1.41541,-4.612162,-2.452286,0.5151129,1.171392,0.4818816,-1.601753,0.4991541,17.8,74.9,-0.4046516,0.08796841,-0.05319402,-0.4309474,-4.557243,0.6063243,0.6666903,1.340108,0.4345448,-0.1208748,0.3776332,0.02441611,-1.101193,0.3664371,0.006413158,0.7825489,1.372269,0.3156013,0.2796649,1.246032,0.3578685,286.2719,94.34886,153.4259,True
2,1.111113,-0.4347885,-0.5035116,-0.04771397,-1.410618,-4.608204,-2.448089,0.5122246,1.172269,0.4809208,-1.595817,0.5344492,17.8,74.9,-0.4185922,0.08598983,-0.0626708,-0.431332,-4.553911,0.6083581,0.6644782,1.339896,0.4339595,-0.1218331,0.4021529,0.02758762,-1.100721,0.3725753,0.004936702,0.78034,1.37232,0.3155491,0.2770742,1.246091,0.3551645,286.2207,95.24258,152.155,True
2,1.122224,-0.4241934,-0.4854382,-0.05955249,-1.406759,-4.605225,-2.444259,0.5093662,1.173082,0.4798489,-1.589984,0.5243582,17.8,74.9,-0.430203,0.1158946,-0.06547448,-0.430746,-4.548119,0.6082085,0.6622688,1.33994,0.4333308,-0.124881,0.4202819,0.03719588,-1.099821,0.3785004,0.003724164,0.7782868,1.37276,0.3155942,0.2744698,1.245969,0.3520446,286.1823,96.40263,150.4919,True
2,1.133335,-0.4147318,-0.4416842,-0.05131316,-1.404428,-4.60274,-2.440373,0.5064987,1.173889,0.4788172,-1.583306,0.6016538,18,68.7,-0.4217378,0.1362438,-0.08028077,-0.4306997,-4.541643,0.606789,0.6600011,1.339954,0.4327359,-0.1225661,0.4277844,0.04988396,-1.099603,0.3845852,0.001975533,0.7770412,1.373316,0.3159611,0.2718113,1.245651,0.3486708,286.1919,97.89676,148.4037,True
2,1.144446,-0.3990584,-0.3381851,-0.03386816,-1.404623,-4.602644,-2.436479,0.5037092,1.17451,0.477581,-1.577078,0.5595978,18,68.7,-0.4227388,0.1661419,-0.08638375,-0.4301351,-4.534036,0.6047032,0.6575681,1.340097,0.4321425,-0.1128531,0.4341655,0.0583015,-1.09862,0.3902448,9.214538E-05,0.7751499,1.373515,0.315824,0.2690326,1.245213,0.3453161,286.1241,99.20271,146.4259,True
2,1.155557,-0.3888765,-0.1726869,0.02153756,-1.40853,-4.604011,-2.432238,0.5008446,1.17507,0.4762549,-1.570238,0.6158907,18,68.7,-0.4216889,0.1533133,-0.08225583,-0.4299918,-4.530484,0.606173,0.6551985,1.340227,0.4314528,-0.1107149,0.4373563,0.05827428,-1.097963,0.3958606,-0.001303351,0.7732785,1.373831,0.3157609,0.2660846,1.244732,0.3422404,285.9887,100.3132,144.7073,True
2,1.166668,-0.3827337,-0.08617452,0.05400985,-1.410728,-4.604119,-2.428058,0.4980877,1.17571,0.4750512,-1.563521,0.6040034,18,68.7,-0.4165596,0.1310233,-0.09318084,-0.4309032,-4.527204,0.6077091,0.6528344,1.340376,0.4307218,-0.1064673,0.440538,0.05610099,-1.097355,0.4015259,-0.002867426,0.7714419,1.37415,0.3157115,0.2629126,1.244307,0.339655,285.7849,101.1655,143.3818,True
2,1.17778,-0.3798907,0.03771091,0.101161,-1.415913,-4.605944,-2.423656,0.4953659,1.176053,0.4737346,-1.556075,0.6705219,18,68.7,-0.4008362,0.1087505,-0.1105887,-0.4322214,-4.523909,0.6086388,0.6503878,1.340532,0.4298913,-0.1096608,0.4469158,0.05400396,-1.096792,0.4070987,-0.004201936,0.7692646,1.374374,0.3153028,0.2594293,1.244049,0.3377564,285.524,101.5602,142.6956,True
2,1.188891,-0.3811574,0.1092897,0.1326594,-1.419952,-4.607001,-2.419193,0.4924724,1.176646,0.4724679,-1.548302,0.699784,16.3,56,-0.3807127,0.1023662,-0.1204269,-0.4330076,-4.519724,0.6083789,0.6478695,1.340624,0.4290864,-0.1042506,0.4458015,0.05932882,-1.095362,0.4119704,-0.005890113,0.7671617,1.37473,0.3151426,0.2556094,1.244043,0.3366711,285.1822,101.3027,142.9249,True
2,1.200002,-0.3824949,0.2043054,0.1650811,-1.426103,-4.609387,-2.414526,0.4897298,1.176913,0.4711096,-1.540529,0.6994187,16.3,56,-0.3754376,0.1205864,-0.1341503,-0.4335067,-4.513193,0.6064191,0.6453363,1.340806,0.4281406,-0.09236477,0.4394031,0.07625464,-1.093941,0.4172301,-0.007703993,0.7650276,1.375201,0.3148119,0.2516879,1.244176,0.3363124,284.8477,100.7975,143.6865,True
2,1.211113,-0.393397,0.2950777,0.2060509,-1.432696,-4.61152,-2.409564,0.4868288,1.177215,0.4696338,-1.532385,0.7332195,16.3,56,-0.3775912,0.133457,-0.142533,-0.4339781,-4.506818,0.6049988,0.6427162,1.341057,0.4271896,-0.08786571,0.4362102,0.0964973,-1.091768,0.422472,-0.009669672,0.7631325,1.375855,0.3145101,0.2476914,1.24444,0.3365339,284.5253,99.79894,145.1178,True
2,1.222224,-0.3956335,0.3324489,0.2207293,-1.437998,-4.61315,-2.405005,0.4841321,1.177565,0.4682798,-1.524253,0.7317576,16.3,56,-0.3774918,0.1611741,-0.1443973,-0.4337932,-4.499452,0.6023908,0.640097,1.341372,0.4261625,-0.07697602,0.437265,0.1166594,-1.089498,0.4277928,-0.01186678,0.7610592,1.376349,0.3141267,0.2436264,1.244816,0.3370854,284.2307,98.59175,146.8702,True
2,1.233335,-0.3904252,0.374063,0.2300528,-1.443691,-4.615255,-2.400679,0.4813181,1.177839,0.4668939,-1.515699,0.7702666,16.3,56,-0.3816505,0.1921136,-0.1472623,-0.4335136,-4.49099,0.5990797,0.6373519,1.34166,0.4250846,-0.07363683,0.4308635,0.1315807,-1.087231,0.4326828,-0.01344763,0.7587677,1.376683,0.3136303,0.2395498,1.24524,0.3377867,283.9627,96.99141,149.045,True
2,1.244446,-0.387317,0.4082465,0.2436858,-1.449806,-4.617265,-2.396383,0.4784841,1.178276,0.4654307,-1.507805,0.7098473,13.6,56.7,-0.384837,0.2124464,-0.1555598,-0.4335024,-4.482337,0.5955989,0.634589,1.342059,0.424047,-0.07670954,0.4276784,0.1422926,-1.085155,0.4378544,-0.01510039,0.7565538,1.377207,0.3132184,0.2354696,1.245685,0.3384175,283.7014,95.23077,151.3919,True
2,1.255558,-0.3799308,0.432835,0.2541795,-1.455786,-4.61915,-2.392203,0.4758256,1.178705,0.4639912,-1.499957,0.70608,13.6,56.7,-0.3676339,0.2357482,-0.149107,-0.4328457,-4.47371,0.591229,0.6318609,1.342568,0.4229591,-0.08083293,0.4191701,0.1572925,-1.082676,0.4426307,-0.01627751,0.7542751,1.377815,0.3125813,0.2315489,1.246035,0.3387966,283.4767,93.77386,153.3602,True
2,1.266669,-0.371422,0.439293,0.2594556,-1.461401,-4.620857,-2.388189,0.4730376,1.17923,0.4625659,-1.491818,0.7326626,13.6,56.7,-0.3536181,0.2558489,-0.1405268,-0.4320457,-4.46498,0.5867596,0.6291004,1.343,0.4219327,-0.08286858,0.4127789,0.1680069,-1.080188,0.4474361,-0.01756488,0.7520728,1.378502,0.3121445,0.2277042,1.246296,0.3388194,283.2647,92.43376,155.055,True
2,1.27778,-0.3661322,0.4521261,0.2646982,-1.467448,-4.622728,-2.3841,0.4701717,1.179703,0.4610894,-1.483738,0.7271385,13.6,56.7,-0.3482179,0.2568196,-0.1331099,-0.4314694,-4.45749,0.5836528,0.6263313,1.343477,0.4207766,-0.07839669,0.4000108,0.1903458,-1.077378,0.452026,-0.01903361,0.7496276,1.37921,0.3114681,0.2238899,1.246499,0.3384665,283.004,91.11192,156.5993,True
2,1.288891,-0.3650878,0.4585143,0.2646598,-1.47313,-4.624475,-2.37989,0.4673543,1.180135,0.4597828,-1.475721,0.721324,11.3,51.1,-0.3417671,0.2577916,-0.1257134,-0.4309442,-4.449974,0.5806285,0.6233886,1.343821,0.4195986,-0.08257699,0.3915049,0.2010593,-1.074848,0.4566037,-0.02001126,0.7472928,1.37974,0.3108845,0.2201631,1.246632,0.3377824,282.7204,89.93584,157.8968,True
2,1.300002,-0.3608135,0.4531602,0.2582999,-1.478318,-4.62613,-2.375926,0.4644335,1.180593,0.4583199,-1.46752,0.738308,11.3,51.1,-0.355606,0.2599803,-0.1255634,-0.4304712,-4.442173,0.5779832,0.6205413,1.344289,0.4183972,-0.08559859,0.387271,0.2181426,-1.071908,0.4613748,-0.02125762,0.7448384,1.380404,0.3102255,0.2164382,1.246749,0.3368263,282.4524,88.89235,158.9696,True
2,1.311113,-0.3544082,0.443504,0.2444957,-1.482917,-4.627955,-2.371901,0.4616972,1.180804,0.4566522,-1.45924,0.7452763,11.3,51.1,-0.3333158,0.2567508,-0.1322028,-0.4305405,-4.434431,0.5739794,0.6175787,1.344761,0.4171154,-0.08861357,0.3894254,0.2362892,-1.068732,0.4664262,-0.02238893,0.7424058,1.381211,0.309588,0.2126826,1.246862,0.3357178,282.2086,87.82939,159.9874,True
2,1.322224,-0.3522281,0.4263811,0.2296815,-1.487285,-4.629635,-2.367929,0.4588064,1.181171,0.455174,-1.451347,0.7099767,11.3,51.1,-0.3268253,0.2844408,-0.1341269,-0.4296174,-4.424037,0.5679196,0.6146392,1.345192,0.4158857,-0.09912384,0.3894718,0.2502614,-1.065506,0.4715568,-0.02334953,0.7399175,1.381838,0.3089337,0.2089224,1.246949,0.3345933,281.9821,86.79527,160.9612,True
2,1.333336,-0.3511203,0.4103238,0.2169992,-1.491501,-4.631115,-2.363948,0.4558028,1.181622,0.4537182,-1.443346,0.720269,11.3,51.1,-0.3522726,0.3143741,-0.1335988,-0.4283641,-4.412739,0.5625989,0.6115693,1.345566,0.4145458,-0.1063995,0.3991061,0.2641887,-1.06216,0.47731,-0.02479403,0.7374821,1.382586,0.3082333,0.2051565,1.246987,0.3335169,281.791,85.74808,162.0381,True
2,1.344447,-0.3521328,0.3932307,0.2096507,-1.495636,-4.63235,-2.359984,0.4527655,1.182077,0.4523005,-1.435527,0.7035785,9.1,48.2,-0.350014,0.3238595,-0.123938,-0.4271913,-4.403645,0.5581656,0.6085889,1.345919,0.4132469,-0.1158777,0.418323,0.2717265,-1.059031,0.4836731,-0.02608566,0.7349456,1.383126,0.307596,0.2014556,1.246901,0.3325084,281.6166,84.73799,163.1492,True
2,1.355558,-0.3530362,0.3355653,0.1865755,-1.497858,-4.632805,-2.355997,0.4496247,1.182442,0.4508915,-1.427774,0.6978282,9.1,48.2,-0.3475745,0.3663238,-0.1097061,-0.4249846,-4.391428,0.5508328,0.6055458,1.346242,0.4118152,-0.1102898,0.4364534,0.2897656,-1.055313,0.4902595,-0.02856613,0.7323589,1.383827,0.3068645,0.1976895,1.246769,0.3315716,281.3998,83.74963,164.2222,True
2,1.366669,-0.3540225,0.3077674,0.1697016,-1.500683,-4.633792,-2.351962,0.4467093,1.182941,0.449497,-1.420142,0.686948,9.1,48.2,-0.3454189,0.3695004,-0.1086307,-0.4238266,-4.381187,0.5452498,0.6026092,1.346558,0.4105146,-0.1059388,0.4418138,0.2961401,-1.051661,0.4968619,-0.03085938,0.7298647,1.38425,0.3061211,0.1937946,1.246658,0.3307104,281.1457,82.68471,165.3764,True
2,1.37778,-0.354984,0.2692386,0.1422489,-1.502298,-4.634467,-2.347942,0.4436952,1.183328,0.4480214,-1.412527,0.6853859,9.1,48.2,-0.3243368,0.3696348,-0.1322772,-0.4238772,-4.369771,0.5377764,0.5995536,1.346744,0.4092395,-0.1079977,0.4333061,0.3046946,-1.048159,0.5022072,-0.03226686,0.7272925,1.384789,0.3053339,0.1898252,1.246568,0.3299096,280.9179,81.61333,166.5885,True
2,1.388891,-0.3527685,0.236097,0.1190302,-1.504176,-4.635341,-2.343916,0.4408154,1.183719,0.4468532,-1.40506,0.6720572,7.4,44.1,-0.3180884,0.3665313,-0.1451512,-0.4236429,-4.359074,0.5315078,0.5965406,1.347009,0.4078279,-0.1003847,0.4162633,0.3216637,-1.044287,0.5069408,-0.03393373,0.7241054,1.385539,0.3046579,0.1858855,1.246437,0.3290925,280.7169,80.7831,167.592,True
2,1.400002,-0.3516315,0.2104589,0.1074744,-1.505773,-4.635771,-2.339999,0.4378136,1.1841,0.4454424,-1.39767,0.6650572,7.4,44.1,-0.3149481,0.3558756,-0.1463485,-0.4232914,-4.349465,0.5261605,0.5936148,1.347105,0.4064569,-0.08849689,0.4151875,0.3375166,-1.040165,0.5124145,-0.03610767,0.7214316,1.386093,0.3038659,0.1820528,1.246273,0.328233,280.4981,79.98201,168.5545,True
2,1.411114,-0.3494185,0.1773272,0.08639979,-1.507051,-4.636214,-2.336014,0.4348558,1.184368,0.4439042,-1.390353,0.6584512,7.4,44.1,-0.3032852,0.3526745,-0.1507573,-0.4229451,-4.338972,0.5196499,0.5906488,1.347217,0.4049699,-0.07023954,0.423684,0.349009,-1.036273,0.5184812,-0.03902756,0.7186327,1.386438,0.3030338,0.1783406,1.246064,0.327291,280.3068,79.41939,169.234,True
2,1.422225,-0.3387499,0.1740886,0.0757616,-1.508715,-4.637144,-2.332663,0.431756,1.184709,0.4421639,-1.383153,0.6479558,7.4,44.1,-0.2853894,0.3250024,-0.1607913,-0.4235555,-4.330258,0.5144522,0.5877412,1.347284,0.4035172,-0.05639648,0.4321715,0.3456254,-1.033063,0.5245417,-0.04196476,0.7160613,1.386978,0.3022897,0.174743,1.245828,0.3263001,280.1199,78.87413,169.8232,True
2,1.433336,-0.3323568,0.1719089,0.06511945,-1.510307,-4.638156,-2.329096,0.4289576,1.185035,0.4406579,-1.37585,0.6574263,7.4,44.1,-0.2620621,0.2950571,-0.1591658,-0.4239326,-4.323269,0.5102603,0.5849886,1.347427,0.402164,-0.04063231,0.4150694,0.3294942,-1.030086,0.5294593,-0.04455362,0.7135401,1.387439,0.3013871,0.1711606,1.245598,0.3252198,279.9721,78.22123,170.5621,True
2,1.444447,-0.3206629,0.1815052,0.05972424,-1.5124,-4.639499,-2.325893,0.4262527,1.18534,0.4391396,-1.369279,0.5903671,5.3,43,-0.2292443,0.2619646,-0.1661987,-0.4249393,-4.316327,0.5055947,0.5822456,1.347486,0.4007819,-0.03335536,0.3979932,0.3166298,-1.027372,0.5340907,-0.04674886,0.7111508,1.387946,0.3004274,0.1675475,1.245368,0.3239952,279.8486,77.57467,171.3286,True
2,1.455558,-0.3068923,0.206006,0.05423523,-1.514899,-4.641232,-2.322778,0.4236289,1.185588,0.4375782,-1.36191,0.6639763,5.3,43,-0.2091333,0.2341937,-0.1677182,-0.4257814,-4.310411,0.5018713,0.579616,1.347677,0.3993723,-0.03149614,0.3574882,0.3006767,-1.024746,0.5373144,-0.048167,0.7087416,1.388463,0.2993946,0.1638721,1.245116,0.3226194,279.7103,76.96232,172.0182,True
2,1.466669,-0.2973496,0.2220125,0.0530621,-1.517495,-4.642961,-2.319738,0.4210152,1.185885,0.436115,-1.355041,0.6175936,5.3,43,-0.206982,0.2288136,-0.1624761,-0.4261297,-4.302912,0.4974705,0.5769013,1.347917,0.3980796,-0.0314928,0.3393743,0.3038685,-1.021666,0.5410836,-0.04985837,0.7062448,1.389192,0.2984962,0.1603059,1.244759,0.3211875,279.5039,76.42844,172.5368,True
2,1.47778,-0.2835771,0.2465576,0.05291548,-1.520695,-4.644871,-2.31693,0.4185083,1.186122,0.4348793,-1.348094,0.6253033,5.3,43,-0.2014567,0.2382143,-0.1453905,-0.4256456,-4.295407,0.4926758,0.574364,1.348158,0.3967021,-0.02932951,0.3244626,0.3102549,-1.018182,0.5448908,-0.05161313,0.7038242,1.389752,0.2975309,0.156866,1.244314,0.3198018,279.2675,75.78047,173.1395,True
2,1.488891,-0.2676491,0.2657793,0.05278735,-1.5237,-4.646828,-2.314443,0.4160221,1.186407,0.4335361,-1.341207,0.6198258,5.3,43,-0.2043554,0.2550468,-0.1207047,-0.424558,-4.287026,0.4875116,0.5718337,1.348358,0.3953187,-0.02606314,0.3180788,0.3144759,-1.014977,0.5492367,-0.05409812,0.7016637,1.390327,0.2966318,0.1535059,1.24382,0.3185459,279.0277,74.94908,173.951,True
2,1.500003,-0.2570058,0.2690134,0.0538274,-1.526419,-4.648464,-2.311889,0.4135098,1.186719,0.4321933,-1.334596,0.5946763,4.2,51.7,-0.1893608,0.2484798,-0.1091876,-0.4241052,-4.280657,0.4832953,0.5693077,1.34859,0.3939345,-0.02298078,0.3095383,0.3059299,-1.012047,0.5531425,-0.05600761,0.6992875,1.390855,0.2956715,0.1501797,1.243327,0.3174838,278.7847,73.97222,174.9245,True
2,1.511114,-0.2367482,0.2615505,0.04322736,-1.528609,-4.65,-2.309818,0.4110906,1.187254,0.4312875,-1.328177,0.5774077,4.2,51.7,-0.1722948,0.2398229,-0.1019819,-0.4239273,-4.274193,0.4788742,0.5666967,1.348807,0.3925278,-0.02314517,0.2956848,0.2931521,-1.009548,0.5567729,-0.05771949,0.6969002,1.391211,0.2946615,0.146893,1.242855,0.3166848,278.558,72.71129,176.2225,True
2,1.522225,-0.2260651,0.2508835,0.03583223,-1.530519,-4.651546,-2.3076,0.4086026,1.187659,0.4300635,-1.32144,0.6066862,4.2,51.7,-0.1627443,0.2344781,-0.1031964,-0.4239294,-4.267114,0.4740608,0.564183,1.349075,0.3911927,-0.02757454,0.2754406,0.2804359,-1.007009,0.5598261,-0.05908756,0.6943653,1.391707,0.293582,0.1436054,1.242425,0.3161277,278.3666,71.26116,177.8269,True
2,1.533336,-0.215373,0.2348019,0.0146229,-1.531642,-4.653345,-2.305495,0.4061635,1.188071,0.4289258,-1.315288,0.5529193,4.2,51.7,-0.1499244,0.226896,-0.09593045,-0.4236477,-4.261269,0.4699422,0.5617125,1.349361,0.389817,-0.02980414,0.2541349,0.2762244,-1.004245,0.5624987,-0.06013125,0.6920041,1.392173,0.2925136,0.140316,1.242038,0.3157421,278.1696,69.79865,179.4893,True
2,1.544447,-0.2067967,0.2123354,-0.004411191,-1.53247,-4.6549,-2.303321,0.4037293,1.188394,0.427845,-1.308514,0.6101538,3,44,-0.1582222,0.2363251,-0.07551801,-0.4224466,-4.254707,0.466026,0.559343,1.349535,0.3883905,-0.0318293,0.2413623,0.2869053,-1.000993,0.5653364,-0.06146815,0.6895186,1.392581,0.2914488,0.1370673,1.241683,0.3154953,277.9753,68.4856,180.9998,True
2,1.555558,-0.2056369,0.1770291,-0.02868973,-1.532336,-4.656281,-2.301032,0.40123,1.188774,0.4267802,-1.301881,0.5967586,3,44,-0.1592444,0.2362747,-0.07020018,-0.4220162,-4.248269,0.462084,0.5567555,1.34978,0.3869631,-0.03390554,0.2445688,0.2911853,-0.9978065,0.5689346,-0.0629779,0.6871364,1.393026,0.290442,0.133823,1.241332,0.3152913,277.8387,67.25785,182.4876,True
2,1.566669,-0.204479,0.141683,-0.05935194,-1.531844,-4.657765,-2.29872,0.3988175,1.189293,0.4255126,-1.295036,0.6162365,3,44,-0.161261,0.2457786,-0.0615776,-0.4212332,-4.241266,0.4576211,0.5542057,1.350041,0.3855703,-0.04017898,0.2520387,0.2987066,-0.9944403,0.5727094,-0.06457686,0.6848614,1.393438,0.2892272,0.1306113,1.24091,0.3150584,277.724,66.37126,183.6254,True
2,1.577781,-0.2044262,0.1213407,-0.07520234,-1.531464,-4.659224,-2.29637,0.3963072,1.189691,0.4244382,-1.288101,0.6242995,3,44,-0.1632344,0.261674,-0.05181801,-0.4199272,-4.233323,0.4522775,0.5516415,1.350249,0.384203,-0.05497119,0.25422,0.3095183,-0.9908125,0.5764464,-0.06551696,0.6825268,1.393831,0.2882421,0.1274249,1.240365,0.3147377,277.5969,65.65076,184.5577,True
2,1.588892,-0.2064762,0.0935169,-0.09420395,-1.530479,-4.660588,-2.294055,0.3938641,1.190156,0.4234881,-1.281246,0.6168849,3,44,-0.1674843,0.2744933,-0.05593865,-0.4194569,-4.225488,0.4471343,0.5490929,1.350573,0.3829708,-0.06988238,0.2499926,0.3107542,-0.9875236,0.5797122,-0.06609939,0.6800694,1.394429,0.287343,0.1242096,1.239695,0.3142655,277.3995,65.06478,185.3392,True
2,1.600003,-0.2000379,0.07643063,-0.1036863,-1.529682,-4.661867,-2.291998,0.3913875,1.190598,0.4225171,-1.274367,0.6190801,1.7,36,-0.1674828,0.2841215,-0.06010777,-0.4186905,-4.216892,0.4411612,0.5465512,1.350827,0.3816667,-0.07847193,0.2414867,0.3065964,-0.9844258,0.5828421,-0.06666771,0.6777493,1.394855,0.2863884,0.1209655,1.238929,0.3136001,277.1242,64.55364,186.0083,True
2,1.611114,-0.1861268,0.05402678,-0.1163405,-1.528497,-4.663189,-2.29033,0.3889697,1.191121,0.4216108,-1.26754,0.6144313,1.7,36,-0.1642568,0.2894073,-0.05903746,-0.4180492,-4.209171,0.4358154,0.5441387,1.351017,0.3802567,-0.09247017,0.2308314,0.2950441,-0.9817418,0.5853234,-0.06665466,0.6755381,1.395158,0.2855129,0.1177061,1.238086,0.3127812,276.8171,64.14316,186.468,True
2,1.622225,-0.1807709,0.04548291,-0.1216091,-1.527802,-4.664406,-2.288541,0.3865514,1.191459,0.4206948,-1.260914,0.5959521,1.7,36,-0.1673264,0.2935692,-0.04724997,-0.4167229,-4.20149,0.4307413,0.5416822,1.351257,0.3790121,-0.09991783,0.2297861,0.2961916,-0.9786211,0.5885811,-0.06710154,0.6732491,1.395552,0.2846353,0.1144756,1.237183,0.3118824,276.4804,63.89873,186.6922,True
2,1.633336,-0.1722792,0.05506884,-0.1259354,-1.527478,-4.666154,-2.28687,0.3841221,1.191902,0.4197774,-1.254403,0.5856358,1.7,36,-0.1692206,0.2890503,-0.01851572,-0.4147826,-4.195168,0.4270491,0.5393813,1.351274,0.3778224,-0.09667125,0.2297495,0.2993742,-0.975134,0.5915188,-0.06808718,0.6708301,1.395743,0.283711,0.1112751,1.236244,0.3109744,276.1407,63.59315,186.9642,True
2,1.644447,-0.1616604,0.06575149,-0.1259696,-1.527813,-4.667543,-2.285396,0.381694,1.192402,0.4189546,-1.247347,0.6355128,1.8,43.9,-0.1649083,0.28363,-0.01008447,-0.4134185,-4.188342,0.4225534,0.5369232,1.351478,0.3765042,-0.09569293,0.2286468,0.2908768,-0.9719542,0.5945616,-0.06890823,0.6684092,1.396065,0.2828104,0.108132,1.235264,0.310122,275.8163,63.33697,187.1995,True
2,1.655559,-0.1394467,0.1202217,-0.1146069,-1.529575,-4.670298,-2.284457,0.3792468,1.192721,0.418061,-1.240479,0.6178806,1.8,43.9,-0.164102,0.2528663,-0.0242369,-0.4133343,-4.183532,0.4199184,0.5345511,1.351598,0.3754117,-0.09997436,0.2297206,0.2887914,-0.9690151,0.5979281,-0.06956577,0.6661155,1.396349,0.2820458,0.1050106,1.234246,0.3093692,275.5189,62.69045,187.8498,True
2,1.66667,-0.1310425,0.1628758,-0.1106185,-1.531147,-4.673069,-2.283293,0.3768798,1.192922,0.4168761,-1.233664,0.6131179,1.8,43.9,-0.1641737,0.2529404,-0.03169933,-0.4128065,-4.176316,0.4151738,0.5321528,1.351735,0.3741617,-0.1064814,0.2254346,0.2793004,-0.966165,0.6006252,-0.0697418,0.6639681,1.396483,0.2811666,0.1018374,1.233238,0.3087583,275.203,61.4586,189.1089,True
2,1.677781,-0.1216091,0.2162424,-0.09924245,-1.533876,-4.676368,-2.282167,0.3743659,1.193094,0.4160047,-1.22723,0.5783696,1.8,43.9,-0.1769559,0.2647623,-0.03679521,-0.412064,-4.168152,0.4100791,0.529727,1.351683,0.3731232,-0.1032715,0.2264929,0.2803297,-0.9632185,0.6039608,-0.07058522,0.6616844,1.396698,0.2804666,0.09860392,1.232271,0.3083244,274.8994,59.41265,191.2076,True
2,1.688892,-0.1206284,0.2440229,-0.08768156,-1.536333,-4.678977,-2.280655,0.3718299,1.193074,0.4154222,-1.219986,0.6527192,1.8,43.9,-0.1941109,0.2681447,-0.04832664,-0.4115782,-4.159911,0.4054404,0.5271708,1.351759,0.3720527,-0.1052059,0.2361301,0.291006,-0.9597952,0.6083604,-0.07240362,0.6595907,1.396572,0.2795899,0.09530514,1.23132,0.308119,274.6927,56.67248,194.0866,True
2,1.700003,-0.1270246,0.2461547,-0.08449591,-1.537943,-4.68146,-2.278925,0.369305,1.193166,0.4145892,-1.212924,0.635281,1.2,35.1,-0.2016928,0.2618864,-0.05897066,-0.4114387,-4.152634,0.4013107,0.5246658,1.351735,0.3709843,-0.1083688,0.2489218,0.2910262,-0.9567784,0.6125882,-0.07352615,0.6572727,1.396751,0.2789404,0.09196314,1.230323,0.3081076,274.5391,53.58616,197.4004,True
2,1.711114,-0.1515291,0.2407314,-0.08762676,-1.539261,-4.683693,-2.276122,0.3669194,1.193279,0.4135756,-1.205451,0.6732676,1.2,35.1,-0.2018999,0.2471119,-0.07295928,-0.4116842,-4.146015,0.3977085,0.5221008,1.351589,0.369982,-0.1050925,0.2776627,0.2909852,-0.9535773,0.6178249,-0.07557146,0.6550168,1.397325,0.278609,0.08853803,1.229266,0.308307,274.4112,50.06434,201.1078,True
2,1.722225,-0.1632091,0.2235706,-0.1002809,-1.539906,-4.686012,-2.273839,0.3644964,1.193412,0.4127145,-1.198158,0.6564099,1.2,35.1,-0.2021281,0.2377181,-0.09223504,-0.4123234,-4.138439,0.3932104,0.5194826,1.351431,0.36889,-0.1029265,0.291506,0.2909463,-0.9506047,0.6227365,-0.07733393,0.6527193,1.397486,0.2780535,0.08508763,1.228105,0.3086998,274.295,46.13379,205.2615,True
2,1.733337,-0.1727002,0.1893726,-0.1128444,-1.539557,-4.687924,-2.271493,0.3620047,1.193438,0.4119542,-1.190099,0.7266084,1.2,35.1,-0.2118317,0.2475084,-0.1090981,-0.4127932,-4.129632,0.3878372,0.5169106,1.351169,0.3678925,-0.1018328,0.312815,0.2887615,-0.9480385,0.6282045,-0.07931186,0.6507007,1.397719,0.2777522,0.08164224,1.226859,0.3091593,274.1521,41.68791,210.0696,True
2,1.744448,-0.1779212,0.1530541,-0.1264638,-1.538805,-4.689738,-2.269297,0.3595005,1.193471,0.4111786,-1.183737,0.571131,1.7,42.2,-0.2203342,0.2635671,-0.1131265,-0.4126611,-4.120051,0.3819282,0.5143272,1.351018,0.3668036,-0.1049868,0.3309221,0.2898443,-0.9450504,0.6336318,-0.0810376,0.6485212,1.39793,0.2773414,0.07826946,1.225611,0.309526,273.9709,36.54963,215.6199,True
2,1.755559,-0.1736073,0.1349201,-0.1316834,-1.538412,-4.691631,-2.267427,0.3570134,1.193531,0.410291,-1.177088,0.5987968,1.7,42.2,-0.2311158,0.2680252,-0.1289654,-0.4133428,-4.110845,0.3764708,0.5117862,1.350802,0.3658955,-0.1028423,0.3500884,0.2866039,-0.9423164,0.639594,-0.08345442,0.6463275,1.398024,0.2769978,0.07500259,1.224424,0.3097117,273.791,32.27744,220.2094,True
2,1.76667,-0.1704597,0.1509464,-0.1264605,-1.539382,-4.694074,-2.265508,0.3546439,1.193385,0.4095678,-1.170673,0.5770913,1.7,42.2,-0.2473194,0.2522726,-0.1449522,-0.4145146,-4.103453,0.3731384,0.5092732,1.350674,0.3649518,-0.1137147,0.3532908,0.2664426,-0.9407611,0.6445786,-0.08464032,0.6440224,1.398175,0.2765722,0.07183163,1.223298,0.3096807,273.6277,29.34916,223.3331,True
2,1.777781,-0.1705512,0.184064,-0.1117551,-1.541302,-4.696692,-2.263526,0.3523037,1.193214,0.4088337,-1.164523,0.553201,1.7,42.2,-0.2600796,0.2437424,-0.138524,-0.4148864,-4.096617,0.3702146,0.5068551,1.35045,0.3640301,-0.116014,0.3554091,0.2504849,-0.9388687,0.6498033,-0.08635646,0.6418698,1.398275,0.2762575,0.06871861,1.222225,0.3094364,273.4823,26.85917,225.9365,True
2,1.788892,-0.1771039,0.2427588,-0.09295348,-1.544648,-4.700122,-2.261293,0.3499922,1.192911,0.4081633,-1.158075,0.5805625,1.7,42.2,-0.2652694,0.2436169,-0.1224828,-0.4144475,-4.089386,0.366794,0.504477,1.350213,0.3632095,-0.1053327,0.3639745,0.2492818,-0.9365458,0.6565202,-0.08953654,0.6397001,1.397802,0.2754641,0.06565997,1.221177,0.3090253,273.3717,24.08617,228.7481,True
2,1.800003,-0.1814931,0.2929935,-0.06450582,-1.548412,-4.703058,-2.259148,0.3477219,1.192345,0.4073157,-1.151607,0.5821689,1.1,42,-0.2716682,0.2372314,-0.1203542,-0.4147676,-4.082571,0.3638211,0.5020697,1.349994,0.3623178,-0.1000681,0.367149,0.2428284,-0.9344355,0.6619986,-0.0918503,0.6375414,1.397823,0.2751312,0.06267522,1.220114,0.308579,273.3257,20.5649,232.2264,True
2,1.811115,-0.1911645,0.3261384,-0.04021426,-1.552104,-4.705781,-2.256696,0.3454906,1.192026,0.4065742,-1.145029,0.592359,1.1,42,-0.2770718,0.2244864,-0.1214984,-0.4154302,-4.076294,0.361493,0.4996327,1.349555,0.3615425,-0.1012352,0.37144,0.2300211,-0.9330864,0.6680409,-0.094457,0.6353899,1.397971,0.2749281,0.05970669,1.219046,0.3082261,273.3441,16.25985,236.4766,True
2,1.822226,-0.185883,0.3454473,-0.02329724,-1.55571,-4.708516,-2.254766,0.3432733,1.191679,0.4058928,-1.138793,0.5610234,1.1,42,-0.275089,0.2139255,-0.1312036,-0.4163437,-4.06973,0.3586266,0.4972512,1.34933,0.3607445,-0.09391323,0.3745933,0.2171206,-0.9318907,0.6733052,-0.09682694,0.6331784,1.398178,0.2751439,0.05672046,1.217978,0.3080949,273.4569,11.948,240.7982,True
2,1.833337,-0.1880112,0.3465943,-0.008392945,-1.55881,-4.710633,-2.25257,0.3410366,1.191399,0.4052196,-1.132262,0.5882788,1.1,42,-0.2741248,0.2086767,-0.139786,-0.4173173,-4.063177,0.3556311,0.4949402,1.348996,0.3600361,-0.09185594,0.3777745,0.2096367,-0.9302661,0.6788778,-0.09920222,0.6310558,1.398208,0.2749674,0.05376048,1.216876,0.30819,273.6531,8.03175,244.8625,True
2,1.844448,-0.1837342,0.342377,-0.005176902,-1.561672,1.570139,-2.250664,0.3388426,1.191068,0.4045441,-1.126434,0.523523,1.1,42,-0.2721316,0.1906164,-0.1452973,-0.4183437,-4.05803,0.3540164,0.49261,1.348699,0.3593314,-0.08250599,0.3787919,0.1892899,-0.929261,0.6842764,-0.1016142,0.6290095,1.398202,0.2746706,0.05081398,1.215775,0.3084611,273.8553,3.762114,249.3555,True
2,1.855559,-0.1879257,0.3232093,-0.002909958,-1.564026,1.568271,-2.248437,0.3366314,1.190711,0.4038749,-1.119921,0.5868836,0.9,34.5,-0.2596183,0.1491156,-0.1554127,-0.4202846,-4.055249,0.3540172,0.4901403,1.348355,0.3587022,-0.07407045,0.3723703,0.1828134,-0.9278682,0.6893234,-0.10412,0.6268812,1.398199,0.2745595,0.04790775,1.214679,0.308854,274.0626,0.05068534,253.323,True
2,1.86667,-0.1900187,0.3050819,-0.003884256,-1.566022,1.566514,-2.246277,0.3344424,1.190439,0.4032125,-1.113917,0.5398178,0.9,34.5,-0.2501898,0.1246213,-0.1599898,-0.4216658,-4.05209,0.3537557,0.4878534,1.347955,0.3579299,-0.07742125,0.3765989,0.1668357,-0.9273809,0.6942832,-0.1062356,0.6246498,1.398328,0.2746711,0.04503742,1.213595,0.3092806,274.2713,356.8932,256.757,True
2,1.877781,-0.19314,0.2827446,0.002650529,-1.56797,1.565272,-2.24407,0.3322405,1.190102,0.4025846,-1.107392,0.5878276,0.9,34.5,-0.2481372,0.1107849,-0.1622722,-0.4231625,-4.048942,0.3535149,0.4855506,1.347599,0.3572898,-0.07308358,0.3883112,0.1710355,-0.9258799,0.7003245,-0.1092213,0.622517,1.398325,0.2746215,0.04221995,1.212503,0.3096733,274.4678,354.5571,259.3598,True
2,1.888893,-0.1951893,0.2582978,0.01132113,-1.569834,1.564126,-2.241927,0.3299839,1.189839,0.4019217,-1.101236,0.553739,0.9,34.5,-0.2524087,0.1161618,-0.1643072,-0.4242181,-4.043375,0.3515359,0.4833247,1.347178,0.3566222,-0.05809644,0.3925746,0.1751051,-0.9244732,0.7066004,-0.1128845,0.6204395,1.398131,0.2741094,0.03944299,1.211388,0.3099562,274.651,352.4134,261.7477,True
2,1.900004,-0.1941052,0.251928,0.01455909,4.711187,1.562766,-2.239841,0.3277454,1.189553,0.4012785,-1.095044,0.5574417,1.3,33.3,-0.2481799,0.122597,-0.1706769,-0.4256381,-4.038027,0.3492451,0.4810593,1.346818,0.3560419,-0.04855308,0.3936092,0.1707381,-0.9232689,0.7122752,-0.1161197,0.6183417,1.39811,0.2739997,0.03670475,1.210254,0.3100739,274.8152,350.1802,264.1778,True
2,1.911115,-0.1876484,0.2306651,0.01788417,4.709588,1.561811,-2.237992,0.3256505,1.189224,0.4006629,-1.088977,0.5459554,1.3,33.3,-0.2418276,0.1119171,-0.1697798,-0.4270975,-4.034285,0.3483026,0.4788333,1.346433,0.3554516,-0.04121882,0.3701874,0.1664192,-0.9220604,0.7170967,-0.1185589,0.6164544,1.397824,0.2737291,0.03399434,1.209107,0.3099909,274.9815,347.9509,266.5466,True
2,1.922226,-0.1865527,0.2189459,0.01795976,4.707892,1.560763,-2.236003,0.3234607,1.188982,0.4000003,-1.082929,0.5442557,1.3,33.3,-0.2311928,0.1001192,-0.1657218,-0.4283167,-4.031273,0.3478642,0.4768145,1.345961,0.3548212,-0.03083611,0.3498972,0.1471518,-0.9215608,0.7211738,-0.1209483,0.6143945,1.397763,0.2735713,0.03126869,1.207969,0.3097026,275.1454,345.659,268.9134,True
2,1.933337,-0.175788,0.1891467,0.01387104,4.707115,1.559976,-2.234538,0.3213458,1.18871,0.3993998,-1.077062,0.5277121,1.3,33.3,-0.2279792,0.09794503,-0.1625836,-0.4296632,-4.027535,0.3469276,0.4745429,1.345672,0.3543553,-0.02033761,0.3445253,0.1363988,-0.9207166,0.7258951,-0.1236753,0.6123384,1.397804,0.2736149,0.0285764,1.206831,0.3092595,275.3022,343.4858,271.096,True
2,1.944448,-0.1736085,0.1645922,0.00870233,4.706285,1.559265,-2.232681,0.3191712,1.188583,0.3987014,-1.07084,0.5603523,1.3,33.3,-0.2173444,0.08721983,-0.1595866,-0.43099,-4.024762,0.3464778,0.4723766,1.345309,0.3537564,-0.01508132,0.3413109,0.13102,-0.9198691,0.7307326,-0.1265563,0.6102044,1.397748,0.2734745,0.02599033,1.205658,0.3087102,275.4372,341.4629,273.0961,True
2,1.955559,-0.1639161,0.1358369,0.001409553,4.706203,1.558712,-2.231212,0.3169746,1.188437,0.3980875,-1.065238,0.5033163,1.1,34.9,-0.2065588,0.07632759,-0.1395611,-0.4318023,-4.022881,0.3468301,0.4701025,1.344915,0.3531151,-0.0151476,0.3466813,0.1267568,-0.9190319,0.7367979,-0.1295817,0.6081116,1.397716,0.2730632,0.0234288,1.204468,0.3081042,275.5634,339.3969,275.1292,True
2,1.966671,-0.1585277,0.1037837,-0.01222859,4.706172,1.558121,-2.229536,0.3147193,1.188384,0.3978446,-1.058791,0.5811056,1.1,34.9,-0.2054649,0.07735762,-0.1363586,-0.4327541,-4.019722,0.3463044,0.4678655,1.34455,0.3524916,-0.0172177,0.3510083,0.1299752,-0.9179256,0.743217,-0.1332209,0.606055,1.397555,0.2728069,0.0209129,1.20323,0.3074825,275.6631,337.3618,277.1377,True
2,1.977782,-0.1520395,0.07394305,-0.01950671,4.706678,1.55782,-2.228068,0.3124948,1.188262,0.3972459,-1.053029,0.5178118,1.1,34.9,-0.2096757,0.07196835,-0.1278578,-0.4337054,-4.017291,0.3466932,0.4655507,1.344269,0.3518386,-0.02046469,0.3467453,0.1289587,-0.9169333,0.7479424,-0.1354982,0.6040597,1.397479,0.272716,0.01835497,1.201974,0.3068649,275.779,335.0538,279.4406,True
2,1.988893,-0.1444879,0.04198388,-0.02463995,4.70735,1.557689,-2.226672,0.3103308,1.188096,0.3966975,-1.046767,0.5641287,1.1,34.9,-0.224506,0.1029703,-0.1316801,-0.4344479,-4.010894,0.3439483,0.4633971,1.343936,0.3511696,-0.02468172,0.3467738,0.1343483,-0.9156395,0.7532643,-0.1382045,0.6020105,1.397529,0.2727406,0.01575888,1.200695,0.3062856,275.864,332.6095,281.8372,True
2,2.000004,-0.1401708,0.02173307,-0.02665195,4.708025,1.557638,-2.225176,0.3080886,1.187943,0.3961587,-1.040863,0.5309396,1.1,36.1,-0.222236,0.122073,-0.1240521,-0.4347248,-4.005351,0.341426,0.4612476,1.343563,0.3505175,-0.02149099,0.351031,0.1353808,-0.914603,0.7586815,-0.141123,0.6000118,1.397358,0.2726777,0.0131113,1.199405,0.3058227,275.9588,330.1016,284.2821,True
2,2.011115,-0.1358355,-0.003804342,-0.02542827,4.70883,1.55792,-2.223754,0.3059472,1.187825,0.3955963,-1.034869,0.5394757,1.1,36.1,-0.214732,0.1166355,-0.1156612,-0.4353805,-4.002016,0.340634,0.4590419,1.3432,0.3498709,-0.01518071,0.3563266,0.1289292,-0.9138653,0.7639993,-0.1442493,0.5980335,1.397347,0.2727718,0.01048912,1.198075,0.3054497,276.0597,328.0285,286.4073,True
2,2.022226,-0.1357718,-0.02511084,-0.02529274,4.709809,1.558347,-2.222252,0.303763,1.18771,0.3949957,-1.028693,0.5560611,1.1,36.1,-0.2084252,0.1049253,-0.1190219,-0.4364186,-3.999217,0.3402646,0.4569387,1.342844,0.3492293,-0.008840919,0.3584339,0.1235316,-0.913313,0.7692583,-0.1475636,0.5961099,1.397286,0.2726178,0.007930322,1.196677,0.3051117,276.1697,326.1516,288.3835,True
2,2.033337,-0.134626,-0.05490609,-0.02191324,4.711108,1.559087,-2.220642,0.3017631,1.187663,0.3943408,-1.022681,0.5408654,1.1,36.1,-0.2073978,0.08784533,-0.1159947,-0.4373528,-3.997594,0.3409933,0.4549078,1.342605,0.3487008,-0.01006517,0.3456344,0.1129138,-0.9128501,0.7735475,-0.1499517,0.5941545,1.397299,0.2726123,0.005394167,1.195221,0.3047541,276.308,324.1631,290.4745,True
2,2.044448,-0.1345872,-0.06664054,-0.02503737,4.712179,1.559347,-2.219212,0.2996523,1.187569,0.3936977,-1.016547,0.5523093,1.1,36.1,-0.2000274,0.06543374,-0.1152096,-0.4384756,-3.996787,0.342266,0.4528549,1.34232,0.3480966,-0.009016484,0.3392397,0.1129089,-0.9121748,0.7781619,-0.1526939,0.5922302,1.397266,0.2724748,0.00291565,1.193719,0.3043186,276.4653,322.0009,292.7328,True
2,2.055559,-0.1324165,-0.08048943,-0.02495522,-1.569645,1.559961,-2.217776,0.2974943,1.187358,0.3928895,-1.01038,0.5550109,1.3,35.6,-0.1968579,0.06651762,-0.1173584,-0.4395015,-3.993575,0.3415771,0.4506795,1.341793,0.3475652,-0.005682647,0.3382074,0.1235,-0.911355,0.7835932,-0.1562312,0.590238,1.397197,0.2721663,0.0004925467,1.192196,0.3037531,276.631,319.6994,295.1134,True
2,2.06667,-0.1323895,-0.08902694,-0.02810043,-1.568414,1.560276,-2.216309,0.2952956,1.187201,0.3921754,-1.004511,0.527932,1.3,35.6,-0.2010783,0.08147007,-0.1193047,-0.4403207,-3.989196,0.3400441,0.4485284,1.341466,0.3469243,-0.01731452,0.3393138,0.1310894,-0.9101588,0.7888049,-0.158885,0.588142,1.39723,0.2720854,-0.001831867,1.190683,0.3030216,276.7932,317.2746,297.5736,True
2,2.077781,-0.1270549,-0.09112152,-0.02489413,-1.567431,1.560784,-2.215061,0.2931687,1.187049,0.3914599,-0.9984872,0.542283,1.3,35.6,-0.2189652,0.1165979,-0.1103043,-0.4406536,-3.983007,0.3376244,0.4462361,1.341433,0.346421,-0.02672535,0.3489533,0.1428794,-0.9090562,0.79466,-0.1620075,0.5861759,1.397057,0.2719362,-0.004165608,1.189211,0.302145,276.9275,315.1896,299.6404,True
2,2.088892,-0.1174843,-0.08142319,-0.0132445,-1.567137,1.561236,-2.214132,0.2910469,1.186833,0.3907545,-0.9924169,0.5463586,1.3,35.6,-0.2285392,0.1251975,-0.1133264,-0.4413114,-3.978106,0.335962,0.4441706,1.340951,0.3455439,-0.01928356,0.3531761,0.141722,-0.9083206,0.7997614,-0.1651597,0.5841961,1.397107,0.2720568,-0.00654588,1.187754,0.3011319,277.0337,313.4009,301.3827,True
2,2.100003,-0.1100407,-0.0749424,-0.002636023,-1.56685,1.56187,-2.213161,0.2889534,1.186649,0.3900697,-0.9865931,0.523836,1.3,35.6,-0.2296358,0.1295139,-0.1186019,-0.4421977,-3.973462,0.3343316,0.4421094,1.340616,0.344918,-0.02256176,0.3595679,0.1332321,-0.9077997,0.8053107,-0.1681568,0.5823177,1.397029,0.2720163,-0.008977972,1.1863,0.300039,277.156,311.5328,303.1485,True
2,2.111114,-0.1047334,-0.06306618,0.01964207,-1.567034,1.562653,-2.212183,0.2868883,1.186421,0.3892405,-0.9808795,0.5138665,1.4,33.6,-0.2402872,0.1242097,-0.1153561,-0.4428437,-3.96959,0.3339702,0.4400514,1.340118,0.3441238,-0.02060822,0.3584898,0.1150828,-0.9079664,0.8107107,-0.1714266,0.5804359,1.396693,0.2716954,-0.01138007,1.18483,0.298928,277.3157,309.7526,304.8069,True
2,2.122225,-0.1057926,-0.06298871,0.03242467,-1.566954,1.563727,-2.210981,0.2847963,1.186185,0.3885152,-0.9747952,0.5478971,1.4,33.6,-0.2349907,0.1070992,-0.1102338,-0.4434957,-3.967208,0.3343548,0.4380581,1.339732,0.3435152,-0.0142553,0.3446262,0.1150329,-0.9072766,0.8152407,-0.1742546,0.5784569,1.396634,0.271642,-0.01372545,1.183323,0.2978517,277.5113,308.2668,306.1825,True
2,2.133336,-0.1026143,-0.0554281,0.04833662,-1.567018,1.564637,-2.209873,0.2828237,1.185848,0.3876195,-0.9687014,0.5484325,1.4,33.6,-0.2318183,0.09213239,-0.106152,-0.4443942,-3.965134,0.334945,0.4359804,1.339368,0.3428514,-0.01323299,0.3392885,0.1096735,-0.9071579,0.8198254,-0.1772014,0.5765322,1.396651,0.2714911,-0.01601166,1.18177,0.2968277,277.7361,306.9353,307.4529,True
2,2.144447,-0.1047366,-0.05540245,0.05473237,-1.566961,1.565785,-2.208731,0.2806944,1.185622,0.3868275,-0.9624105,0.5665047,1.4,33.6,-0.2318253,0.09106517,-0.1061566,-0.4451234,-3.962173,0.3348768,0.4339878,1.338956,0.3422632,-0.008862108,0.3456813,0.1181431,-0.9062641,0.8253112,-0.1806185,0.5745709,1.396572,0.2714398,-0.01825591,1.180176,0.2958286,277.9831,305.7856,308.5935,True
2,2.155558,-0.1047236,-0.05855092,0.06220954,-1.566938,1.566997,-2.207594,0.2786348,1.185334,0.3860245,-0.9564359,0.537407,1.5,32.3,-0.2328848,0.09320045,-0.1061327,-0.4459431,-3.958704,0.3344142,0.4319791,1.338578,0.3417625,0.008235872,0.3381616,0.1243378,-0.9055712,0.8294944,-0.1839304,0.5725909,1.396531,0.2715142,-0.02047085,1.178549,0.2948217,278.2281,304.652,309.7335,True
2,2.166669,-0.1015318,-0.06060266,0.07603893,-1.566886,1.568822,-2.206557,0.2765265,1.184962,0.3854003,-0.9503815,0.5450313,1.5,32.3,-0.2393612,0.0986692,-0.1177431,-0.447132,-3.954411,0.3333972,0.4300021,1.338169,0.3412504,0.01252162,0.3370683,0.126424,-0.904776,0.8341017,-0.1871331,0.5705756,1.396489,0.27157,-0.02265217,1.176895,0.2937739,278.4748,303.5846,310.8079,True
2,2.17778,-0.1015003,-0.06266493,0.08461817,-1.567169,1.56991,-2.205472,0.2744828,1.184645,0.3845909,-0.9443553,0.542295,1.5,32.3,-0.2394558,0.09020862,-0.1242157,-0.4484172,-3.951639,0.3335513,0.4280328,1.33771,0.3407085,0.01663336,0.3466232,0.1103859,-0.9048771,0.8394846,-0.1907513,0.5686553,1.396333,0.2715776,-0.02487775,1.175241,0.292671,278.7313,302.4368,311.9264,True
2,2.188891,-0.1036163,-0.06686522,0.09529439,-1.567263,-4.711596,-2.204254,0.2724666,1.184278,0.3837998,-0.9384287,0.5332699,1.5,32.3,-0.2247184,0.06788626,-0.1351962,-0.4498878,-3.95016,0.3339423,0.4258083,1.337122,0.340193,0.01341215,0.3455353,0.1093543,-0.904435,0.8439167,-0.1934046,0.5667607,1.396153,0.2715805,-0.02709152,1.173586,0.291515,278.9748,301.3386,312.9547,True
2,2.200002,-0.10252,-0.0764393,0.09748977,-1.567041,-4.70993,-2.203174,0.2705187,1.183905,0.3829911,-0.9323679,0.545592,1.5,32.3,-0.2172607,0.06893009,-0.1352529,-0.4509462,-3.94698,0.3333138,0.4239343,1.336761,0.3396604,0.01654863,0.3540392,0.1018512,-0.904401,0.8494014,-0.1970814,0.5648136,1.396048,0.2715821,-0.02927718,1.171917,0.2903132,279.214,300.3784,313.818,True
2,2.211113,-0.1046366,-0.08175035,0.1007181,-1.566853,-4.708281,-2.201941,0.2685478,1.183443,0.3821511,-0.9262075,0.5546052,2.6,34.2,-0.214201,0.0647788,-0.1481057,-0.4527172,-3.944204,0.3330848,0.4219687,1.336251,0.339128,0.02086926,0.3518996,0.1060466,-0.9040366,0.8544478,-0.2006391,0.5631015,1.395727,0.2712376,-0.03143178,1.17024,0.2890813,279.4709,299.504,314.6122,True
2,2.222224,-0.1046411,-0.07527067,0.114527,-1.567454,-4.706577,-2.200779,0.2665769,1.182969,0.3813097,-0.9203182,0.5297341,2.6,34.2,-0.2121908,0.06275553,-0.1598596,-0.4545004,-3.941087,0.3327212,0.4200733,1.335631,0.338573,0.02539334,0.3434048,0.1326461,-0.9022939,0.8595155,-0.2041838,0.5611506,1.39558,0.2711282,-0.03351139,1.16855,0.2878085,279.7212,298.626,315.4255,True
2,2.233335,-0.1025209,-0.06780906,0.1176477,-1.567464,-4.705306,-2.199778,0.2647409,1.182451,0.3805814,-0.9142973,0.5422005,2.6,34.2,-0.1950974,0.08831099,-0.1661614,-0.4557489,-3.935847,0.329604,0.4182552,1.335201,0.3379464,0.03822255,0.3295239,0.1378345,-0.9014369,0.8637705,-0.2078629,0.5592808,1.395424,0.2707071,-0.03550643,1.166844,0.2864835,279.9465,297.7222,316.259,True
2,2.244446,-0.1014596,-0.06773738,0.1272301,-1.56779,-4.703498,-2.198699,0.2628149,1.181958,0.3797677,-0.9085923,0.513281,2.6,34.2,-0.1802255,0.0904316,-0.1716034,-0.4573303,-3.932026,0.3276828,0.4163713,1.33465,0.3373735,0.05006123,0.3177942,0.1515737,-0.8999317,0.8682634,-0.2116372,0.5573775,1.395254,0.2704918,-0.03747504,1.165128,0.2851092,280.1787,296.926,316.9622,True
2,2.255557,-0.09719495,-0.06768881,0.1357076,-1.567573,-4.701878,-2.197794,0.2610455,1.181348,0.3790257,-0.9031072,0.4934436,6.6,31.2,-0.1621074,0.08392406,-0.1675779,-0.4588382,-3.929315,0.3265374,0.4145165,1.334198,0.3368826,0.05869141,0.3092406,0.164269,-0.8984595,0.8723295,-0.2150505,0.555447,1.395189,0.2703669,-0.03942247,1.163416,0.2837048,280.4307,296.2558,317.5103,True
2,2.266668,-0.09082885,-0.05804281,0.1409665,-1.568327,-4.700374,-2.197074,0.2591837,1.180862,0.3781726,-0.8974746,0.5071248,6.6,31.2,-0.1597749,0.1115124,-0.1566824,-0.4594592,-3.9237,0.3233959,0.4126117,1.333604,0.3363307,0.06846026,0.2964641,0.183351,-0.8965963,0.8767526,-0.2188762,0.5536071,1.394909,0.2701106,-0.04131372,1.161694,0.2823221,280.6621,295.502,318.1214,True
2,2.277779,-0.08231603,-0.05373696,0.1441317,-1.568994,-4.698744,-2.196453,0.2574535,1.180285,0.3773589,-0.8921419,0.4796897,6.6,31.2,-0.1554487,0.1199862,-0.1534448,-0.460443,-3.919125,0.3208648,0.4108605,1.333037,0.3357809,0.07805696,0.2868554,0.1864557,-0.8951119,0.8808959,-0.2226424,0.5518045,1.394708,0.2698879,-0.04317522,1.159971,0.2809672,280.8884,294.8245,318.6842,True
2,2.28889,-0.07167494,-0.04836412,0.1462207,-1.569619,-4.697231,-2.196058,0.2557349,1.179726,0.3765678,-0.8869013,0.4714805,6.6,31.2,-0.1523428,0.1329045,-0.1682704,-0.462198,-3.913237,0.3172477,0.4090621,1.332392,0.3351731,0.0853907,0.2793833,0.1778748,-0.8940498,0.8852767,-0.2264353,0.5500407,1.394437,0.2696097,-0.04496874,1.158224,0.2796502,281.1095,294.1954,319.2135,True
2,2.300001,-0.0631422,-0.05046988,0.1451617,-1.570041,-4.695697,-2.195663,0.2540061,1.179176,0.3757811,-0.8816187,0.4754283,6.6,31.2,-0.1460381,0.1297614,-0.1758157,-0.4638518,-3.90873,0.3146658,0.4074092,1.331777,0.3346291,0.09282365,0.2836204,0.1745918,-0.8930346,0.8898906,-0.2306098,0.5483127,1.394241,0.2694309,-0.04675714,1.156476,0.2783644,281.3777,293.7714,319.567,True
2,2.311112,-0.05672497,-0.05898004,0.1441479,-1.570194,-4.693886,-2.195256,0.2524826,1.178592,0.3750625,-0.8764857,0.4616972,14.4,27,-0.1333915,0.1095197,-0.1814582,-0.4657879,-3.906145,0.3134735,0.4058138,1.331098,0.3340697,0.1001911,0.2932008,0.1681237,-0.8920674,0.8952854,-0.2347691,0.5466741,1.394042,0.2689824,-0.04847507,1.15471,0.2770957,281.6403,293.3914,319.8875,True
2,2.322223,-0.04175784,-0.07923702,0.1346766,-1.569562,-4.692082,-2.195222,0.2510554,1.178023,0.3743525,-0.8711711,0.47848,14.4,27,-0.1218165,0.08823055,-0.1870971,-0.4678194,-3.903709,0.3123425,0.4043674,1.330448,0.3334818,0.1066558,0.28787,0.1765857,-0.8905994,0.8997872,-0.238925,0.5452446,1.393764,0.2686486,-0.05014587,1.152917,0.2758371,281.8899,292.9598,320.2504,True
2,2.333334,-0.0353001,-0.1038213,0.1188509,-1.568451,-4.690289,-2.195033,0.2496804,1.177502,0.3736699,-0.8658549,0.4784589,14.4,27,-0.1196466,0.09673432,-0.1859744,-0.4693811,-3.899414,0.3098894,0.4029265,1.32984,0.3329749,0.1161888,0.2782797,0.1754545,-0.8892242,0.9043523,-0.2432603,0.5437137,1.393407,0.2685547,-0.05175714,1.151081,0.2745884,282.1331,292.4514,320.6793,True
2,2.344445,-0.02886448,-0.1209385,0.1040446,-1.56737,-4.688629,-2.194902,0.248269,1.176925,0.3729975,-0.8609515,0.4407973,14.4,27,-0.1121181,0.1105359,-0.1837707,-0.4706237,-3.894304,0.3064491,0.4015022,1.329215,0.3323901,0.1235056,0.2516203,0.1690219,-0.8880305,0.9073602,-0.246785,0.5422798,1.393121,0.2682123,-0.05320066,1.149186,0.2733495,282.368,291.837,321.21,True
2,2.355556,-0.0234564,-0.1519584,0.08186841,-1.565224,-4.686884,-2.194847,0.2470118,1.176467,0.3724134,-0.8557056,0.4726238,52.4,24.6,-0.08746195,0.126322,-0.1742586,-0.4715819,-3.889146,0.3020003,0.4002524,1.3286,0.3318815,0.1298597,0.233523,0.1721919,-0.886389,0.9110109,-0.2504301,0.5408778,1.392804,0.2677348,-0.05447667,1.147214,0.2721184,282.5848,291.0355,321.922,True
2,2.366668,-0.01591319,-0.1829901,0.05649457,-1.56271,-4.685275,-2.195005,0.2458722,1.175997,0.3718767,-0.8507606,0.444821,52.4,24.6,-0.06310083,0.09213816,-0.1748098,-0.4734126,-3.888022,0.3008573,0.3990864,1.328008,0.3314044,0.1381335,0.2121807,0.1572376,-0.8854281,0.9137096,-0.2536504,0.5396521,1.392704,0.2674797,-0.05567579,1.145177,0.2709036,282.8161,290.101,322.7527,True
2,2.377779,-0.01268888,-0.1959034,0.03420083,-1.560505,-4.684102,-2.194971,0.2447743,1.175557,0.3713267,-0.8459936,0.4289949,52.4,24.6,-0.0388339,0.02915786,-0.172444,-0.4756922,-3.890452,0.3026541,0.3979403,1.32747,0.3309047,0.1348706,0.1994011,0.1540938,-0.8843271,0.9164532,-0.2567788,0.5383494,1.392472,0.2670918,-0.05686785,1.1431,0.2697239,283.0626,289.1168,323.6258,True
2,2.38889,-0.005231041,-0.2003055,0.00865785,-1.558155,-4.683316,-2.195166,0.2437348,1.175156,0.3708436,-0.8419669,0.3621836,52.4,24.6,-0.03137869,0.007726133,-0.16207,-0.4772976,-3.890463,0.3030123,0.3966311,1.326927,0.3303883,0.135879,0.1908827,0.1519761,-0.88311,0.9195101,-0.2601144,0.5371442,1.392429,0.2667351,-0.05797755,1.141018,0.2686088,283.3134,287.8875,324.7387,True
2,2.400001,0.0001137214,-0.2110716,-0.01151133,-1.555651,-4.682271,-2.195284,0.2426491,1.174703,0.3703694,-0.8381341,0.3453681,52.4,24.6,-0.0514269,0.02259052,-0.1478937,-0.4781882,-3.888142,0.3020326,0.3956274,1.32649,0.329824,0.1316161,0.1674659,0.1573807,-0.8814914,0.9215652,-0.2627645,0.5359192,1.392273,0.2662604,-0.05898201,1.138987,0.2675956,283.5637,286.6347,325.877,True
2,2.411112,0.005462862,-0.2217766,-0.0220986,-1.552987,-4.681106,-2.195538,0.2416324,1.174299,0.369957,-0.8351913,0.2644091,85.1,18.2,-0.0438743,0.01817617,-0.135227,-0.4793226,-3.88708,0.3014573,0.3944598,1.325967,0.329263,0.1262251,0.1525789,0.1564095,-0.8799958,0.92399,-0.2654093,0.5347039,1.392008,0.2659161,-0.05994181,1.137089,0.2667203,283.8271,285.5349,326.8809,True
2,2.422223,0.005496582,-0.2314094,-0.02949233,-1.55042,-4.679822,-2.195632,0.2406443,1.173838,0.3694944,-0.8324232,0.2493808,85.1,18.2,0.003374666,0.07857408,-0.121232,-0.4792998,-3.880688,0.2942282,0.3934943,1.325424,0.3286388,0.1197805,0.1408745,0.1543656,-0.8787079,0.9260827,-0.2678716,0.5336388,1.391827,0.2654641,-0.06088942,1.135383,0.2660136,284.0422,284.5623,327.791,True
2,2.433334,0.01084877,-0.241015,-0.03476001,-1.547619,-4.678517,-2.195955,0.2396888,1.173516,0.3692045,-0.8302106,0.1988557,85.1,18.2,0.03560787,0.1637474,-0.1292403,-0.479687,-3.869961,0.2832261,0.3925409,1.324882,0.3279917,0.1186642,0.1355374,0.1522509,-0.8774988,0.9281006,-0.2703045,0.5324404,1.391764,0.2650907,-0.06184921,1.13389,0.265457,284.1864,283.7385,328.605,True
2,2.444445,0.01406206,-0.2452648,-0.03580438,-1.545143,-4.677341,-2.196312,0.2387048,1.173217,0.368885,-0.8280567,0.194209,85.1,18.2,0.04730183,0.1840574,-0.1408769,-0.4808827,-3.862955,0.276145,0.3916257,1.324381,0.3274984,0.1250004,0.1131496,0.1522116,-0.8760026,0.92934,-0.2727114,0.531477,1.391606,0.264657,-0.06277426,1.132602,0.2650065,284.2628,283.0529,329.3267,True
2,2.455556,0.01945262,-0.2654414,-0.02822069,-1.54216,-4.675241,-2.196768,0.23773,1.173123,0.3687396,-0.8265387,0.136175,85.1,18.2,0.06445895,0.1753122,-0.1251355,-0.481304,-3.859462,0.2718544,0.3908891,1.323895,0.3271081,0.1397283,0.09394056,0.1403681,-0.8749145,0.930689,-0.2754577,0.5305687,1.391362,0.2640617,-0.063651,1.131496,0.2645971,284.2995,282.4583,329.9709,True
2,2.466667,0.01527638,-0.2931426,-0.02698006,-1.538545,-4.673007,-2.196845,0.2366979,1.173072,0.3685362,-0.8251112,0.1286079,81.6,11.4,0.08364002,0.1463445,-0.1117424,-0.4818995,-3.85766,0.2686877,0.3901146,1.323435,0.3267615,0.1460701,0.07794364,0.1392571,-0.8735254,0.931688,-0.2779842,0.5296166,1.391217,0.2636144,-0.06447905,1.130552,0.2641972,284.318,281.824,330.6169,True
2,2.477778,0.00595325,-0.3837904,-0.03812018,-1.532073,-4.669474,-2.19675,0.2358238,1.173264,0.3684552,-0.8238947,0.1093826,81.6,11.4,0.105868,0.07257716,-0.09455215,-0.4828673,-3.861304,0.2699876,0.3893987,1.323174,0.3266242,0.1427855,0.05664911,0.1371875,-0.8720947,0.9321335,-0.2795552,0.5287547,1.391021,0.2632439,-0.06528785,1.129746,0.2637848,284.3376,281.1964,331.2291,True
2,2.488889,-0.001401406,-0.4212334,-0.05918366,-1.526399,-4.667029,-2.196618,0.2350459,1.173358,0.3682764,-0.8229035,0.08980583,81.6,11.4,0.1182622,0.01194061,-0.1091083,-0.4852066,-3.864224,0.2709841,0.3886856,1.322912,0.3264472,0.1383276,0.03002096,0.12556,-0.8709021,0.9320565,-0.2808554,0.5278584,1.390788,0.2628386,-0.06605798,1.12908,0.2633187,284.3589,280.4012,331.9966,True
2,2.5,-0.002456024,-0.4276948,-0.06980099,-1.521861,-4.665189,-2.19662,0.2343246,1.173386,0.3679919,-0.8228171,0.007839589,81.6,11.4,0.1150667,-0.004089832,-0.1017769,-0.4862469,-3.864644,0.2701963,0.3881332,1.322535,0.3261917,0.1360563,0.01616684,0.116017,-0.8698763,0.932074,-0.2822756,0.5270683,1.390662,0.262511,-0.06678571,1.128574,0.262747,284.3499,279.2395,333.1261,True
2,2.511111,-0.01103797,-0.4107848,-0.0869503,-1.517655,-4.664117,-2.196263,0.2336411,1.173458,0.3677652,-0.8238004,-0.08861113,59.3,10.6,0.09502392,0.005420379,-0.08445627,-0.4864397,-3.863302,0.2686837,0.3874968,1.322261,0.3259001,0.13174,0.01831054,0.1107308,-0.8690091,0.933035,-0.2841699,0.5262335,1.39053,0.2621055,-0.06734469,1.128264,0.2620308,284.286,277.5009,334.7794,True
2,2.522222,-0.02287614,-0.3714213,-0.0903996,-1.514739,-4.663473,-2.195665,0.2330517,1.173383,0.3675532,-0.8258095,-0.1810133,59.3,10.6,0.06740676,0.01186795,-0.07773884,-0.4868344,-3.862135,0.2678892,0.3868851,1.32197,0.3255954,0.1285354,0.02470821,0.108627,-0.8680605,0.9341352,-0.2861567,0.5254796,1.390364,0.2617974,-0.0677955,1.128203,0.261213,284.1948,275.9764,336.1465,True
2,2.533333,-0.03688546,-0.3171202,-0.08860964,-1.512766,-4.663211,-2.194812,0.2323744,1.17334,0.3674226,-0.8280892,-0.2046226,59.3,10.6,0.02814479,0.02256824,-0.06555884,-0.4871332,-3.860696,0.2675183,0.3862358,1.321742,0.3252904,0.1114164,0.02581001,0.1013501,-0.867366,0.934938,-0.2873644,0.5247801,1.390243,0.2613704,-0.06821679,1.128427,0.2603645,284.0697,274.8653,337.0685,True
2,2.544444,-0.04870958,-0.2808733,-0.08032429,-1.510785,-4.662722,-2.193925,0.2316979,1.173086,0.3669996,-0.8311923,-0.279182,59.3,10.6,0.03471162,0.01059327,-0.04122832,-0.48682,-3.861384,0.267538,0.3856878,1.321396,0.3249593,0.09761705,0.02265622,0.1068314,-0.8660813,0.9356522,-0.2884414,0.5241333,1.390066,0.2610667,-0.06866643,1.128967,0.2595807,283.9006,273.9131,337.8165,True
2,2.555555,-0.06697017,-0.2275617,-0.06467676,-1.510239,-4.662498,-2.192561,0.2310185,1.172988,0.3668852,-0.8349841,-0.3410793,59.3,10.6,0.04890617,0.04012998,-0.01657476,-0.4858336,-3.858795,0.2642069,0.3850936,1.321211,0.3245597,0.09116106,0.0226652,0.1005058,-0.8653409,0.9363273,-0.2897176,0.523455,1.389923,0.2608049,-0.06916046,1.12985,0.2589479,283.6757,273.2744,338.2734,True
2,2.566666,-0.07988816,-0.1806375,-0.05112281,-1.509743,-4.662339,-2.191277,0.2302978,1.172894,0.3666997,-0.8396766,-0.422392,72.7,14.6,0.04470864,0.05612841,-0.01637814,-0.4856173,-3.856201,0.2615629,0.38452,1.320963,0.3242843,0.08351361,0.01627014,0.0846146,-0.8649793,0.9364132,-0.2904172,0.5228448,1.389736,0.2605309,-0.0697577,1.131096,0.2585038,283.3669,272.9614,338.5037,True
2,2.577777,-0.08957196,-0.1465025,-0.03961808,-1.509372,-4.662114,-2.189941,0.2295913,1.172827,0.3665969,-0.8446061,-0.443063,72.7,14.6,0.03608413,0.05306022,-0.02591637,-0.4862037,-3.854777,0.2602558,0.3839789,1.320714,0.3239243,0.08003351,0.006654825,0.06122072,-0.8650986,0.9358841,-0.290777,0.5222211,1.389754,0.2603557,-0.07040852,1.132663,0.2581924,282.9603,272.8785,338.6068,True
2,2.588888,-0.1099642,-0.09532505,-0.02289297,-1.509904,-4.662173,-2.188003,0.2290021,1.172753,0.3662708,-0.8505763,-0.5377422,72.7,14.6,0.03093403,0.04755215,-0.004619453,-0.4855161,-3.854543,0.2598774,0.3834792,1.320524,0.3238201,0.08218079,0.02263259,0.05903301,-0.8649457,0.9372562,-0.2926545,0.5217284,1.389611,0.2600586,-0.07108372,1.13456,0.2579899,282.5474,273.063,338.4385,True
2,2.599999,-0.1174895,-0.07189077,-0.0198457,-1.509654,-4.662245,-2.186519,0.2283872,1.172684,0.3660979,-0.8570479,-0.5823406,72.7,14.6,0.03827584,0.00912809,0.0002722051,-0.4855715,-3.856965,0.2614063,0.3829901,1.320268,0.3236492,0.08105988,0.02901803,0.0526422,-0.8647257,0.9380862,-0.2940202,0.5211694,1.389445,0.2598176,-0.07175712,1.136768,0.2578569,282.0768,273.3181,338.2134,True
2,2.61111,-0.138961,-0.0154608,-0.01486987,-1.511056,-4.663242,-2.184171,0.2278171,1.172572,0.3659046,-0.8634884,-0.5788342,70.1,19,0.0455695,-0.02282884,-0.003298695,-0.4860759,-3.859645,0.2630282,0.3824991,1.320019,0.3234832,0.07886499,0.02261869,0.04842272,-0.8642054,0.9381577,-0.2948495,0.5204958,1.389164,0.2594945,-0.07236768,1.139251,0.257756,281.5468,273.7249,337.855,True
2,2.622221,-0.1475611,0.0100869,-0.01183293,-1.511498,-4.663622,-2.182234,0.2271651,1.172293,0.3651261,-0.871356,-0.7091011,70.1,19,0.04968044,-0.03980815,-0.01202311,-0.4867843,-3.861565,0.264013,0.382,1.319748,0.3232844,0.08090037,0.00556615,0.04415977,-0.8637303,0.9376755,-0.2954274,0.5198786,1.389061,0.2591715,-0.07288799,1.141987,0.257624,280.9776,274.3606,337.292,True
2,2.633332,-0.1551229,0.04521853,-0.0120537,-1.512833,-4.66473,-2.180182,0.2265873,1.172224,0.3649633,-0.8784586,-0.637845,70.1,19,0.0571234,-0.04837715,-0.01004435,-0.4871071,-3.862963,0.2643049,0.3814892,1.319592,0.3230925,0.08615731,0.005544245,0.0377107,-0.8635843,0.9378007,-0.2966559,0.51927,1.388932,0.2588663,-0.07332268,1.144912,0.2574427,280.3365,274.9593,336.7019,True
2,2.644443,-0.1594197,0.05691005,-0.01212128,-1.513374,-4.665205,-2.178251,0.2259344,1.171896,0.3642352,-0.8869317,-0.7636079,70.1,19,0.06157673,-0.03789584,0.005996115,-0.4864754,-3.86352,0.2639648,0.3809868,1.319423,0.3228772,0.08618707,0.009807851,0.03984034,-0.8630863,0.9383881,-0.297939,0.5186458,1.388793,0.2586188,-0.07376282,1.148001,0.2572231,279.675,276.0878,335.6084,True
2,2.655554,-0.16373,0.07174975,-0.02180178,-1.514161,-4.666475,-2.176161,0.2253433,1.171889,0.3640711,-0.895237,-0.7471814,70.1,19,0.06371517,-0.01651827,-0.002350688,-0.4866964,-3.861978,0.2618793,0.3803448,1.319134,0.3226883,0.07976596,-0.01147923,0.0420691,-0.8623204,0.9375196,-0.2980644,0.5180722,1.388665,0.2583294,-0.0742066,1.151168,0.2568782,278.9629,277.3173,334.4487,True
2,2.666665,-0.1584451,0.08343352,-0.02826613,-1.514831,-4.66752,-2.17448,0.2248043,1.171677,0.3633723,-0.9037368,-0.7651026,59.4,21.2,0.06396668,0.01103702,0.01282151,-0.4859081,-3.860051,0.259487,0.3797896,1.318945,0.3224914,0.07223363,-0.01360346,0.03681854,-0.8621377,0.9371982,-0.2982306,0.5174177,1.388616,0.2580724,-0.07461006,1.154356,0.2564637,278.2648,278.653,333.0937,True
2,2.677776,-0.1605748,0.08341561,-0.02826371,-1.515291,-4.66816,-2.172582,0.2242155,1.171512,0.3626347,-0.9121369,-0.7558407,59.4,21.2,0.05763436,0.01100171,0.01927212,-0.4854309,-3.860043,0.2590321,0.379307,1.318777,0.3222594,0.07760211,-0.008285075,0.03994826,-0.8616769,0.937529,-0.2994078,0.5169019,1.388507,0.2578077,-0.07498031,1.157484,0.2559568,277.5636,280.0087,331.7076,True
2,2.688887,-0.1552452,0.08015391,-0.04102932,-1.515454,-4.669358,-2.17095,0.2236569,1.17158,0.3625462,-0.9210873,-0.8061159,59.4,21.2,0.0512031,-0.002837755,0.02133349,-0.4852258,-3.861373,0.2598888,0.3789105,1.318753,0.3220038,0.0755547,-0.006134126,0.04742836,-0.8608988,0.9379525,-0.3004386,0.5162668,1.388421,0.2574518,-0.07530105,1.160543,0.2554607,276.9365,281.284,330.3349,True
2,2.699998,-0.1530687,0.05982463,-0.05475448,-1.514754,-4.670229,-2.169149,0.2232181,1.171641,0.3621361,-0.9295055,-0.7570575,59.4,21.2,0.05458988,-0.01160829,0.04572184,-0.484102,-3.862989,0.2606302,0.3785304,1.318678,0.3217928,0.07127745,-0.005058993,0.0464114,-0.8603917,0.9381577,-0.3011138,0.5158286,1.388341,0.2571859,-0.07555994,1.1635,0.2549698,276.3134,283.0864,328.5501,True
2,2.711109,-0.1487013,0.02248529,-0.06517181,-1.513408,-4.670596,-2.167599,0.2227249,1.171818,0.3621154,-0.9384335,-0.8040705,46,21.1,0.0696338,-0.003244229,0.05631931,-0.4830628,-3.862919,0.2593306,0.3782289,1.318682,0.3215699,0.07551535,-0.005072441,0.04423487,-0.8599922,0.9382488,-0.3021487,0.5153493,1.388303,0.2568796,-0.07578304,1.166353,0.2544519,275.7453,284.7934,326.8327,True
2,2.72222,-0.1443641,-0.006332355,-0.07565003,-1.511889,-4.671083,-2.166021,0.2223722,1.171852,0.3618462,-0.9468566,-0.7576244,46,21.1,0.07710926,-0.00115452,0.05733564,-0.4823858,-3.863156,0.2584329,0.377878,1.318618,0.3213775,0.0744516,-0.007197265,0.04531614,-0.8593946,0.9382924,-0.3029093,0.514915,1.388278,0.2565794,-0.07594599,1.169135,0.2540179,275.22,285.933,325.5736,True
2,2.733331,-0.139975,-0.05334766,-0.09985505,-1.508968,-4.671427,-2.164589,0.222054,1.17207,0.3618658,-0.9555491,-0.782807,46,21.1,0.08664209,-0.01397222,0.05712371,-0.4819757,-3.864469,0.2583359,0.3775576,1.318607,0.3212209,0.06370266,-0.01783362,0.03904907,-0.8590761,0.9376193,-0.3028219,0.5145438,1.388311,0.256345,-0.07602112,1.171871,0.2537078,274.6958,286.778,324.6456,True
2,2.744442,-0.1345797,-0.0789876,-0.1135445,-1.506637,-4.671912,-2.163238,0.221776,1.172181,0.3617632,-0.9639663,-0.7573364,46,21.1,0.08879671,-0.0129362,0.05924452,-0.4812966,-3.86517,0.257904,0.3773002,1.318653,0.3210561,0.06165028,-0.02206932,0.04866868,-0.8581418,0.9376212,-0.3032342,0.5141696,1.388277,0.2559721,-0.07600682,1.174579,0.2535441,274.1451,287.7432,323.6356,True
2,2.755553,-0.1238346,-0.1110082,-0.1283007,-1.503245,-4.672673,-2.162231,0.221763,1.173415,0.364718,-0.9724452,-0.7632848,46,21.1,0.09746079,0.0007902086,0.06888141,-0.480177,-3.864642,0.2561644,0.3770308,1.318675,0.3209457,0.05850528,-0.02950981,0.05510489,-0.8571863,0.937238,-0.3035372,0.5137996,1.388276,0.255656,-0.07587471,1.177242,0.2534899,273.5658,289.2001,322.207,True
2,2.766664,-0.1013917,-0.1366204,-0.1441395,-1.499919,-4.673141,-2.161817,0.2216958,1.173481,0.3650756,-0.980708,-0.7437401,31.6,19.2,0.1071287,0.01778592,0.07001805,-0.4792055,-3.863231,0.2534229,0.3768486,1.318828,0.3209116,0.05842466,-0.03803351,0.05085706,-0.8565727,0.9366133,-0.3036161,0.5135534,1.388343,0.255235,-0.07564448,1.179847,0.253521,272.9677,290.3331,321.1022,True
2,2.777775,-0.08115282,-0.134463,-0.1494835,-1.497796,-4.67381,-2.161553,0.2216063,1.1736,0.3652792,-0.9890543,-0.7515778,31.6,19.2,0.1155195,0.01467848,0.05713093,-0.4789684,-3.863394,0.2520008,0.3767399,1.318928,0.3207979,0.04973425,-0.05400249,0.03925617,-0.8561924,0.935318,-0.3030131,0.5131869,1.388345,0.25492,-0.07527883,1.182409,0.2537283,272.4631,288.3889,322.7312,True
2,2.788886,-0.06517246,-0.1312524,-0.1506079,-1.495162,-4.674589,-2.161419,0.2215017,1.173696,0.3651452,-0.9974561,-0.7567412,31.6,19.2,0.1133544,0.03184871,0.04560122,-0.4785812,-3.861498,0.2491041,0.3766098,1.318928,0.3201497,0.05077286,-0.06785779,0.04032793,-0.8553541,0.9338948,-0.3026272,0.512924,1.388359,0.2546513,-0.0747149,1.18504,0.2545871,272.0039,282.2263,328.3498,True
2,2.799997,-0.03643424,-0.12048,-0.1453629,-1.493562,-4.675235,-2.161952,0.2215169,1.173757,0.3653789,-1.005176,-0.6946179,31.6,19.2,0.1155795,0.04885539,0.04893564,-0.4776843,-3.859414,0.2459898,0.3763821,1.318942,0.3200421,0.05623568,-0.07743297,0.05519884,-0.8539469,0.9329769,-0.3028214,0.5126413,1.388346,0.2543192,-0.07415186,1.18766,0.2559344,271.3496,284.9817,325.7679,True
2,2.811108,-0.0119361,-0.1171588,-0.1358156,-1.491738,-4.675556,-2.162589,0.2215541,1.17372,0.3653588,-1.012569,-0.6654278,17.7,15.5,0.1369774,0.05188148,0.05728989,-0.4765823,-3.858517,0.2429208,0.3763202,1.319018,0.3199477,0.05847837,-0.08381639,0.0668991,-0.8525535,0.9319486,-0.3028906,0.5124258,1.388335,0.254045,-0.07370353,1.190144,0.2574044,270.7491,307.6502,303.6887,True
2,2.822219,0.007208141,-0.1085667,-0.1326721,-1.490195,-4.675976,-2.163097,0.2214767,1.17362,0.3655484,-1.020134,-0.6816871,17.7,15.5,0.1461335,0.02125494,0.02494762,-0.4776156,-3.859854,0.2422821,0.3762791,1.318929,0.3199027,0.06036834,-0.0881118,0.04557962,-0.8524507,0.9304518,-0.3026334,0.5121867,1.388379,0.2537773,-0.0733434,1.192358,0.2586369,270.5389,3.726859,248.202,True
2,2.83333,0.03164117,-0.08503713,-0.1296371,-1.489345,-4.677001,-2.164204,0.221537,1.173486,0.3657329,-1.026857,-0.6047199,17.7,15.5,0.1424412,-0.0220791,-0.009529034,-0.479304,-3.862693,0.2433445,0.3761729,1.318914,0.3198185,0.06963386,-0.09136776,0.01672646,-0.8528497,0.9288109,-0.302632,0.5120382,1.388313,0.2534008,-0.07293282,1.1942,0.2594865,270.7809,42.8673,209.3941,True
2,2.844441,0.04440112,-0.07861555,-0.1307489,-1.487939,-4.677868,-2.164922,0.2216809,1.173423,0.3658988,-1.033058,-0.5578908,17.7,15.5,0.1285704,-0.0401832,-0.004250605,-0.4794057,-3.864872,0.2443006,0.3761779,1.318814,0.3197465,0.07178056,-0.09883308,0.01990755,-0.8521082,0.9271383,-0.3023828,0.51183,1.388293,0.2531321,-0.07248634,1.195638,0.2598776,271.0679,59.6327,192.7513,True
2,2.855552,0.06035987,-0.0721966,-0.133993,-1.486565,-4.678906,-2.166101,0.2217587,1.173224,0.3660884,-1.039672,-0.596252,17.7,15.5,0.1242321,-0.04436371,-0.01064259,-0.4798372,-3.865989,0.2440936,0.3760212,1.318718,0.3195858,0.06445067,-0.09559664,0.03063759,-0.8510962,0.9263762,-0.3023987,0.5116248,1.388244,0.2528336,-0.07207574,1.196713,0.2598749,271.2802,69.44482,182.8451,True
2,2.866663,0.07847492,-0.07536495,-0.138242,-1.484817,-4.679766,-2.167481,0.2218695,1.172973,0.3662424,-1.04502,-0.4802467,8.7,12,0.1296205,-0.0294683,-0.01055037,-0.479875,-3.865197,0.2417146,0.3759525,1.318642,0.3195057,0.05913645,-0.08494326,0.02961168,-0.85066,0.9255617,-0.3022725,0.5114727,1.388237,0.2526309,-0.07165322,1.197469,0.2596436,271.4194,76.37476,175.7085,True
2,2.877774,0.09233025,-0.0774412,-0.136104,-1.483211,-4.680404,-2.168924,0.2219918,1.172807,0.3663976,-1.050377,-0.4830763,8.7,12,0.1415717,0.007683069,-0.00178281,-0.4792523,-3.862274,0.2371052,0.3758631,1.318613,0.3194456,0.06021845,-0.08281385,0.03066242,-0.8500506,0.9246266,-0.3023591,0.511282,1.388193,0.2523899,-0.07123231,1.197978,0.2593288,271.5103,83.34419,168.5186,True
2,2.888885,0.1210859,-0.07732862,-0.1328953,-1.482,-4.680812,-2.171056,0.2220929,1.172802,0.3670886,-1.054827,-0.4005178,8.7,12,0.1371531,0.02283691,-0.02504162,-0.4802489,-3.860045,0.2338242,0.3757719,1.318548,0.3194022,0.06020383,-0.08599769,0.03067169,-0.8493833,0.9236363,-0.3023191,0.5111247,1.388223,0.2521057,-0.07084792,1.198275,0.2590632,271.6373,89.61544,162.0531,True
2,2.899997,0.1349207,-0.07294795,-0.1201466,-1.480884,-4.681159,-2.172843,0.2222739,1.172567,0.3672323,-1.058477,-0.3284074,8.7,12,0.1297349,0.02175285,-0.01965427,-0.4801935,-3.859679,0.2324045,0.3756968,1.318467,0.3193378,0.05477566,-0.08813102,0.02220633,-0.8491415,0.9221794,-0.3017037,0.5109645,1.388195,0.2518442,-0.07050187,1.198356,0.25893,271.7638,94.36166,157.1774,True
2,2.911108,0.1444869,-0.0654386,-0.117,-1.479889,-4.681882,-2.174645,0.2224085,1.172371,0.367506,-1.062187,-0.334803,8.7,12,0.1275011,0.006886482,-0.02404137,-0.4807325,-3.860423,0.2317709,0.3755862,1.318411,0.3193426,0.05161146,-0.09557246,0.02650704,-0.8484272,0.9206905,-0.3012142,0.5107666,1.388268,0.2516553,-0.07021484,1.198261,0.2589824,271.8089,98.46307,152.9533,True
2,2.922219,0.1593913,-0.0611227,-0.1148998,-1.478761,-4.682482,-2.176867,0.2225511,1.172034,0.3676512,-1.064482,-0.2056152,4.3,9,0.1371678,0.008906081,-0.01664931,-0.4805797,-3.860154,0.2296651,0.375542,1.318387,0.3192821,0.05483852,-0.1009049,0.0307406,-0.8475499,0.9191782,-0.3009138,0.5106072,1.388195,0.2513771,-0.06996871,1.198025,0.2593028,271.8075,101.5189,149.8099,True
2,2.93333,0.1721764,-0.06105705,-0.1106476,-1.477564,-4.683028,-2.179079,0.2226473,1.171742,0.3679338,-1.066683,-0.1984158,4.3,9,0.140364,0.01423469,-0.0187618,-0.4808151,-3.85937,0.2273588,0.3754405,1.318289,0.319319,0.05377084,-0.1083426,0.03289843,-0.8467228,0.9178215,-0.3004507,0.5104288,1.388107,0.2510047,-0.0697687,1.197659,0.2598299,271.7962,102.8538,148.5625,True
2,2.944441,0.1817791,-0.06634092,-0.1084864,-1.476191,-4.683408,-2.181305,0.2226778,1.171463,0.368114,-1.068973,-0.206529,4.3,9,0.1487929,0.005738825,-0.02531418,-0.4814068,-3.859642,0.2256664,0.3752466,1.318268,0.3192503,0.05049249,-0.1221842,0.0286848,-0.8461427,0.9156439,-0.2994011,0.5102261,1.388103,0.2507432,-0.06964178,1.197189,0.2604964,271.7828,103.9424,147.635,True
2,2.955552,0.2020594,-0.07902963,-0.1041463,-1.4747,-4.683465,-2.18422,0.2227333,1.171296,0.3685095,-1.070589,-0.1451753,4.3,9,0.1488262,0.01639763,-0.02627958,-0.4816268,-3.858499,0.2230459,0.3750719,1.31819,0.3191772,0.04952379,-0.123234,0.03828834,-0.8449662,0.9141491,-0.2988682,0.5099863,1.388064,0.2504299,-0.0695512,1.196587,0.2612167,271.7814,104.9005,146.8597,True
2,2.966663,0.2223522,-0.09599087,-0.09978253,-1.472804,-4.683239,-2.187379,0.2227339,1.17101,0.3687274,-1.071924,-0.1201599,2.3,6.7,0.1393005,0.0377663,-0.02918468,-0.4818228,-3.856007,0.2196189,0.3748988,1.318115,0.319078,0.05275108,-0.1200401,0.04038226,-0.8441379,0.9128904,-0.2987153,0.5096133,1.387999,0.2501788,-0.06952395,1.195854,0.2619248,271.7497,106.4871,145.4283,True
2,2.977774,0.2373403,-0.1204691,-0.1038937,-1.470402,-4.683126,-2.190475,0.2226943,1.17074,0.3689134,-1.073709,-0.1616115,2.3,6.7,0.1381966,0.0474397,-0.03760465,-0.4823267,-3.853872,0.2162375,0.3747058,1.317999,0.3189759,0.05283324,-0.1147048,0.04676621,-0.8431216,0.9117996,-0.2985779,0.5093322,1.387937,0.2499285,-0.06956271,1.195011,0.2625561,271.6723,109.4282,142.6099,True
2,2.988885,0.2480709,-0.1470963,-0.1079897,-1.467591,-4.682748,-2.193604,0.2226955,1.170457,0.3690381,-1.074915,-0.1083701,2.3,6.7,0.1349563,0.07102819,-0.0522718,-0.4831581,-3.850097,0.2115743,0.3744502,1.31784,0.3188925,0.04982131,-0.1018792,0.06170372,-0.8417496,0.9116523,-0.2987896,0.5090587,1.38776,0.2496514,-0.06959473,1.194054,0.2630878,271.5908,113.6666,138.4501,True
2,2.999996,0.2545055,-0.1620182,-0.1121584,-1.464928,-4.682515,-2.196647,0.222705,1.170175,0.3691444,-1.075627,-0.06392208,2.3,6.7,0.1273907,0.07116474,-0.06391781,-0.4840844,-3.848228,0.2088017,0.3742043,1.317733,0.3188338,0.04680494,-0.09333132,0.07663436,-0.8403013,0.9111105,-0.2988011,0.5088174,1.387748,0.2493801,-0.06962467,1.192953,0.2634693,271.5472,118.5608,133.6346,True
2,3.011107,0.2662834,-0.1822496,-0.1162985,-1.461968,-4.682158,-2.199993,0.2226796,1.169909,0.369168,-1.076248,-0.05592248,2.3,6.7,0.1145954,0.06373895,-0.06174158,-0.4846069,-3.847114,0.2069793,0.3739544,1.317611,0.3187213,0.04478642,-0.09117408,0.08730996,-0.8387839,0.910537,-0.2987172,0.5085309,1.387674,0.2491624,-0.06967292,1.191696,0.263674,271.5267,125.3071,126.9371,True
2,3.022218,0.2769744,-0.19713,-0.1151367,-1.459185,-4.68148,-2.203318,0.2226535,1.169453,0.3691854,-1.076711,-0.04150329,1.2,5,0.1071471,0.07338254,-0.06477895,-0.4852066,-3.84445,0.203735,0.3737251,1.317465,0.3185942,0.04485568,-0.08478382,0.09261914,-0.8375183,0.9098838,-0.298739,0.508271,1.387611,0.2489228,-0.0697119,1.190285,0.2636981,271.5168,134.1476,118.0972,True
2,3.033329,0.2812667,-0.2088028,-0.1107852,-1.456645,-4.680627,-2.206522,0.2227413,1.169044,0.3695588,-1.077446,-0.06666335,1.2,5,0.1009122,0.1085504,-0.06331865,-0.4853989,-3.839247,0.1982793,0.373512,1.317252,0.3184137,0.04379746,-0.07943745,0.09263828,-0.8362305,0.9097872,-0.2990317,0.5080097,1.387544,0.24862,-0.06975876,1.188766,0.2635717,271.5229,144.6935,107.5046,True
2,3.04444,0.2834041,-0.210918,-0.1097092,-1.454024,-4.680198,-2.209781,0.2227861,1.168685,0.3695979,-1.077799,-0.03142647,1.2,5,0.09551675,0.1172019,-0.07382983,-0.4860748,-3.835379,0.1940251,0.3732935,1.317048,0.3182757,0.0427411,-0.08049862,0.09371649,-0.8349207,0.9090167,-0.2989515,0.5077395,1.387455,0.2483799,-0.06980731,1.187165,0.2633288,271.592,154.8778,97.25352,True
2,3.055551,0.2897826,-0.2065421,-0.1012237,-1.452257,-4.680057,-2.213179,0.2227211,1.168622,0.3699274,-1.077967,-0.01499584,1.2,5,0.07934531,0.1046246,-0.08872094,-0.4874757,-3.833287,0.1918584,0.3730766,1.316884,0.318193,0.03530829,-0.06555422,0.09376498,-0.8340483,0.9092787,-0.2990669,0.5075032,1.387488,0.248244,-0.06979838,1.185472,0.2630198,271.705,163.595,88.40906,True
2,3.066662,0.2950634,-0.1915821,-0.0959903,-1.450462,-4.67972,-2.216625,0.2228404,1.168056,0.3699641,-1.07833,-0.03295902,0.8,4.4,0.06980462,0.1056882,-0.08435304,-0.4879023,-3.830575,0.188967,0.3728153,1.316727,0.3180563,0.0332543,-0.05595016,0.09910423,-0.8327066,0.9094762,-0.2994322,0.5072337,1.387482,0.2480528,-0.06971578,1.183723,0.2627358,271.8412,172.1554,79.67976,True
2,3.077773,0.2982037,-0.1776172,-0.09180225,-1.449833,-4.680048,-2.219802,0.2229312,1.167633,0.3704858,-1.078748,-0.03773234,0.8,4.4,0.05796123,0.1015868,-0.09600294,-0.4891321,-3.827973,0.1864247,0.3725714,1.316524,0.3178842,0.02277276,-0.03354404,0.1098355,-0.8312913,0.9103877,-0.2999524,0.5068813,1.387436,0.2479248,-0.06969372,1.182021,0.2625231,272.0128,180.9134,70.78027,True
2,3.088884,0.3044938,-0.1433752,-0.07496603,-1.449715,-4.680061,-2.223269,0.2227889,1.167164,0.370584,-1.078978,-0.0206092,0.8,4.4,0.06101739,0.1006532,-0.1109446,-0.490509,-3.825068,0.1830039,0.3723131,1.316387,0.317683,0.02595276,-0.02397073,0.1055236,-0.830372,0.9107934,-0.3007191,0.5066236,1.387361,0.2478218,-0.06975491,1.180447,0.2624717,272.1871,188.0614,63.52151,True
2,3.099995,0.3055055,-0.1241262,-0.06443922,-1.448852,-4.679955,-2.226712,0.2228364,1.166773,0.3706281,-1.078945,0.003215855,0.8,4.4,0.06107697,0.1123589,-0.1097702,-0.4913601,-3.821149,0.1788185,0.372012,1.316167,0.3175893,0.02590812,-0.01439567,0.1001768,-0.8295987,0.9112101,-0.3011396,0.5063028,1.387221,0.2477119,-0.06974062,1.178928,0.2626065,272.3156,191.8994,59.63174,True
2,3.111106,0.3065067,-0.1069249,-0.05071247,-1.448978,-4.680356,-2.229891,0.2228378,1.16588,0.3702509,-1.07931,-0.03326079,0.8,4.4,0.04610383,0.10071,-0.1108103,-0.4925058,-3.819242,0.1771537,0.3717888,1.315951,0.3174715,0.02370732,-0.01120372,0.09381253,-0.8286655,0.9115281,-0.3014235,0.5060417,1.387178,0.247503,-0.06976113,1.177495,0.2629835,272.382,195.6328,55.85718,True
2,3.122217,0.3107207,-0.08871685,-0.03697722,-1.448673,-4.680021,-2.233567,0.2228295,1.165441,0.3702338,-1.079409,-0.008670201,4.2,4.3,0.03760232,0.09538017,-0.1065258,-0.4934353,-3.816963,0.1749617,0.3715525,1.315681,0.3173521,0.02582813,-0.001629533,0.09163731,-0.8279406,0.9121616,-0.3020885,0.5057535,1.387012,0.2473903,-0.06990398,1.176149,0.2635253,272.3901,199.4387,52.17732,True
2,3.133328,0.3085488,-0.07588617,-0.0306587,-1.448475,-4.679905,-2.236826,0.2227976,1.165067,0.3701425,-1.079292,0.01069647,4.2,4.3,0.03559907,0.09739593,-0.09370369,-0.4938459,-3.814387,0.1723704,0.3713749,1.31545,0.3172145,0.02364203,0.004761223,0.08632542,-0.8272716,0.9127737,-0.3025021,0.5054765,1.386993,0.2471969,-0.07003334,1.174806,0.2641053,272.3929,202.2005,49.67778,True
2,3.144439,0.2999856,-0.06204564,-0.02754711,-1.448085,-4.679906,-2.239851,0.2229169,1.164691,0.3700898,-1.079755,-0.04237967,4.2,4.3,0.03982566,0.08671341,-0.09278044,-0.4947445,-3.812808,0.1703795,0.3712178,1.315266,0.3171437,0.02249325,0.004759263,0.07888806,-0.8266015,0.9132502,-0.302994,0.5052524,1.386811,0.2470262,-0.07014649,1.173391,0.264578,272.3592,204.9617,47.19082,True
2,3.15555,0.2946541,-0.06201777,-0.02756673,-1.447668,-4.680345,-2.242847,0.2228734,1.163993,0.3695812,-1.079474,0.02613115,4.2,4.3,0.0374517,0.05915901,-0.1068733,-0.4964351,-3.812794,0.1700229,0.3710009,1.315064,0.3170481,0.01393927,0.0005186908,0.080034,-0.8258814,0.9132684,-0.3024344,0.5051284,1.386726,0.246918,-0.07023665,1.171908,0.2648666,272.4222,209.3362,42.96209,True
2,3.166661,0.2776269,-0.06952758,-0.02750928,-1.446649,-4.679923,-2.24533,0.2229061,1.163551,0.3695018,-1.079279,0.01763317,4.2,4.3,0.03210443,0.05170465,-0.1047653,-0.4974753,-3.811723,0.1690609,0.370785,1.314746,0.3169751,0.01619063,0.009049229,0.08851635,-0.8248657,0.9142927,-0.303509,0.5048807,1.386638,0.246865,-0.07031637,1.1704,0.2649575,272.5806,214.1616,38.17995,True
2,3.177772,0.2723178,-0.07595551,-0.03066162,-1.445545,-4.679603,-2.24816,0.2229482,1.16311,0.3694391,-1.079366,-0.008015079,8.9,4.2,0.03643511,0.04947286,-0.09630454,-0.4981432,-3.810484,0.1674313,0.3705498,1.314563,0.3168762,0.01619561,0.01224105,0.08956818,-0.82408,0.9148455,-0.3038776,0.5046399,1.386553,0.2467606,-0.07034968,1.168905,0.2648805,272.7506,217.5419,34.81872,True
2,3.188883,0.2585256,-0.09624697,-0.0336977,-1.444209,-4.678669,-2.250663,0.2229455,1.162705,0.3691771,-1.078857,0.04663579,8.9,4.2,0.04278523,0.04306464,-0.09749264,-0.4992005,-3.809485,0.1659256,0.3703604,1.314429,0.3167784,0.006538581,0.01331631,0.083281,-0.8234116,0.91527,-0.3038755,0.5043908,1.386528,0.2465873,-0.07040062,1.167414,0.2646322,272.882,219.3096,33.06523,True
2,3.199994,0.2553365,-0.09946612,-0.0358085,-1.442986,-4.678291,-2.253399,0.2230245,1.162221,0.3691354,-1.079269,-0.03800989,8.9,4.2,0.04175697,0.05694156,-0.09948051,-0.5001971,-3.806719,0.1631,0.370122,1.314259,0.3166184,0.003279515,0.01119305,0.07905065,-0.8228396,0.9156674,-0.3038957,0.5041794,1.386498,0.2464662,-0.07040262,1.165942,0.2642614,273.0779,220.8196,31.4675,True
2,3.211105,0.2446774,-0.09735674,-0.03260212,-1.442118,-4.677517,-2.255797,0.2230355,1.161714,0.3689163,-1.07903,0.02237213,8.9,4.2,0.03125432,0.08357177,-0.0948686,-0.5008628,-3.802836,0.1597071,0.3698366,1.314162,0.3164558,0.003331676,0.01440147,0.0822372,-0.8220358,0.916585,-0.3047029,0.5039376,1.386451,0.2464023,-0.07035123,1.164515,0.2638301,273.2825,221.9971,30.17889,True
2,3.222216,0.2393519,-0.09630728,-0.03259972,-1.44115,-4.677078,-2.258401,0.2229099,1.161226,0.3688917,-1.0794,-0.03401773,12.1,4.2,0.02177657,0.09740986,-0.08932228,-0.5014237,-3.799378,0.1567206,0.3695416,1.314059,0.3162796,-0.001795772,0.02297667,0.1003818,-0.8207442,0.91824,-0.305406,0.503715,1.386491,0.2462816,-0.07026614,1.163156,0.2633499,273.4767,222.8694,29.21463,True
2,3.233327,0.2286656,-0.08353072,-0.02840511,-1.440726,-4.676777,-2.260654,0.2228309,1.160999,0.3689399,-1.079152,0.02304117,12.1,4.2,0.0006599724,0.126184,-0.08139418,-0.501682,-3.794374,0.153074,0.3692766,1.31392,0.316071,-0.01233535,0.02088918,0.1111565,-0.8192096,0.9191163,-0.3055751,0.5032874,1.386372,0.2461569,-0.07012919,1.161849,0.2628926,273.6306,223.2047,28.76567,True
2,3.244438,0.2254587,-0.08034667,-0.02842432,-1.439893,-4.6765,-2.263058,0.2227662,1.160726,0.368886,-1.079454,-0.02779198,12.1,4.2,-0.005457655,0.1580313,-0.06612182,-0.5015404,-3.788266,0.1479319,0.3690291,1.313722,0.3159435,-0.01453553,0.0251449,0.1037165,-0.8184896,0.9200342,-0.3059554,0.5030591,1.386291,0.2460759,-0.07003974,1.160601,0.2624753,273.7499,223.6499,28.22693,True
2,3.255549,0.2137448,-0.08143315,-0.02628073,-1.439029,-4.676046,-2.265087,0.2226511,1.160487,0.3688498,-1.079243,0.01959684,12.1,4.2,-0.008586049,0.1579707,-0.05863528,-0.5017145,-3.784731,0.1450166,0.3688751,1.313581,0.3158557,-0.004034664,0.02510476,0.09080331,-0.8182717,0.9205813,-0.3064497,0.5028384,1.386196,0.2460337,-0.07006604,1.159416,0.262152,273.8861,224.1967,27.55913,True
2,3.26666,0.2031559,-0.1017277,-0.02828928,-1.43717,-4.675218,-2.267193,0.2224452,1.1602,0.3685136,-1.07945,-0.01901514,12.1,4.2,-0.009705186,0.1334206,-0.05353525,-0.5020847,-3.783409,0.1440144,0.3686535,1.313484,0.3158214,-0.00942637,0.03149927,0.08339539,-0.8177646,0.9216087,-0.3068388,0.5026228,1.386152,0.2459846,-0.07018046,1.158331,0.2619824,274.0555,225.4548,26.21245,True
2,3.277771,0.1925405,-0.1156554,-0.03565214,-1.435387,-4.674573,-2.269061,0.2223383,1.159977,0.3684502,-1.079162,0.02651722,14.5,3.6,0.00071311,0.086553,-0.05835414,-0.5031494,-3.784313,0.1444088,0.3684042,1.313293,0.3158307,-0.009530608,0.02936143,0.07592936,-0.8174637,0.9221747,-0.3068505,0.5024393,1.386067,0.245945,-0.07031693,1.157341,0.2619678,274.2045,226.3486,25.31923,True
2,3.288882,0.171308,-0.1413397,-0.04399225,-1.433141,-4.673516,-2.27044,0.2222175,1.159783,0.3685088,-1.079246,-0.007799558,14.5,3.6,0.004816689,0.05353187,-0.06083973,-0.503959,-3.785154,0.1449476,0.3682058,1.313109,0.3157866,-0.01487071,0.02297921,0.07492745,-0.8167441,0.9225209,-0.3069674,0.5022205,1.386071,0.2459702,-0.07047968,1.156442,0.2620455,274.3098,226.9109,24.86115,True
2,3.299993,0.162811,-0.1510025,-0.0513817,-1.431117,-4.672819,-2.272085,0.2222074,1.159618,0.3684301,-1.079144,0.009492937,14.5,3.6,0.007897668,0.03331352,-0.06425916,-0.5048272,-3.785291,0.1448861,0.3679951,1.313031,0.3157196,-0.02231323,0.03471472,0.07498186,-0.8162844,0.9237998,-0.3071466,0.5019857,1.385959,0.245959,-0.07064484,1.155584,0.2620885,274.3966,226.7261,25.19961,True
2,3.311104,0.1489682,-0.1542443,-0.0534681,-1.429549,-4.672036,-2.273358,0.2221404,1.159463,0.3685684,-1.078702,0.04039541,14.5,3.6,-0.003745429,0.046122,-0.06189781,-0.5053018,-3.78323,0.1434924,0.3677832,1.312877,0.315526,-0.02225114,0.0432414,0.07923412,-0.815486,0.9251956,-0.3077956,0.5017821,1.385971,0.2459216,-0.07073568,1.154731,0.2620664,274.5124,226.2844,25.69118,True
2,3.322215,0.1393889,-0.1553443,-0.05451836,-1.427833,-4.671345,-2.274767,0.2220196,1.159206,0.3685675,-1.079101,-0.03671427,15.8,3.6,-0.007793173,0.0705299,-0.04990873,-0.5052256,-3.779737,0.1406248,0.3675629,1.312743,0.3154049,-0.02011857,0.04751015,0.07814148,-0.8149251,0.9266537,-0.3086809,0.5015208,1.386036,0.2459111,-0.07075426,1.153896,0.2619715,274.666,225.9106,26.04663,True
2,3.333326,0.1265831,-0.1489789,-0.054534,-1.426607,-4.67074,-2.275785,0.221968,1.159052,0.3686907,-1.078897,0.01909954,15.8,3.6,-0.02033401,0.1045692,-0.03881219,-0.5049417,-3.774854,0.1370002,0.3673522,1.312652,0.3152046,-0.02126586,0.04537945,0.07176222,-0.8145305,0.9275534,-0.308908,0.5013195,1.385994,0.2458086,-0.07069662,1.153097,0.2618169,274.8233,225.6254,26.27579,True
2,3.344437,0.1180127,-0.1297906,-0.04824718,-1.425788,-4.670274,-2.277002,0.2217284,1.158848,0.368772,-1.079139,-0.02223817,15.8,3.6,-0.02874722,0.1109163,-0.03015323,-0.5048651,-3.771983,0.1349738,0.3671006,1.312587,0.3150682,-0.02669792,0.03898449,0.06330314,-0.8142391,0.9279302,-0.3087227,0.5012048,1.385937,0.2458043,-0.07064243,1.152364,0.261638,274.9543,225.3727,26.44287,True
2,3.355548,0.112635,-0.1116629,-0.04303331,-1.425075,-4.670079,-2.278116,0.2216909,1.158634,0.368809,-1.078913,0.02098525,15.8,3.6,-0.03301561,0.1066645,-0.02908938,-0.5050302,-3.769732,0.1335112,0.3669613,1.312476,0.314992,-0.02781962,0.03790208,0.05799816,-0.813715,0.9285027,-0.308862,0.5008738,1.385738,0.2457943,-0.07062612,1.151687,0.261451,275.054,224.9249,26.81497,True
2,3.366659,0.1083206,-0.09460396,-0.03886646,-1.424575,-4.669823,-2.279151,0.2217118,1.158493,0.3688161,-1.07922,-0.02823034,15.8,3.6,-0.02665856,0.09383093,-0.02714071,-0.505215,-3.76852,0.1325461,0.3668309,1.312316,0.3149335,-0.02251935,0.03681384,0.05581109,-0.8133038,0.9290788,-0.3091616,0.5007403,1.385705,0.2458313,-0.07066552,1.15108,0.2612911,275.1508,224.7708,26.88389,True
2,3.37777,0.1018966,-0.08287108,-0.03361133,-1.424055,-4.669641,-2.28009,0.2216902,1.158314,0.3688931,-1.079298,-0.006790837,16.3,3.4,-0.01822646,0.08426398,-0.03263161,-0.5055985,-3.766878,0.1310571,0.3667541,1.312206,0.3149242,-0.02252346,0.031493,0.05793741,-0.8128314,0.9296146,-0.3090732,0.5006707,1.38564,0.2458298,-0.07079147,1.150546,0.2611831,275.2144,224.7181,26.87578,True
2,3.388881,0.09864397,-0.06690921,-0.03370742,-1.423533,-4.669673,-2.280959,0.2217959,1.158096,0.3688664,-1.079304,-0.0004175198,16.3,3.4,-0.003417328,0.06183922,-0.03404952,-0.5060491,-3.766856,0.1306736,0.366684,1.312074,0.314971,-0.02041928,0.0282779,0.05578417,-0.8123781,0.9298589,-0.3091507,0.5005314,1.385659,0.2458575,-0.07086245,1.150044,0.2611527,275.2702,224.8372,26.73829,True
2,3.399992,0.09542973,-0.06050947,-0.03054967,-1.422996,-4.669505,-2.281924,0.2218751,1.15805,0.3689246,-1.079306,-0.0001347754,16.3,3.4,0.003953487,0.04371055,-0.03534751,-0.5063596,-3.766899,0.1304472,0.3666423,1.311972,0.31497,-0.01827617,0.02614079,0.05789483,-0.8117709,0.9303816,-0.3093056,0.5004048,1.385599,0.2458858,-0.07085612,1.149576,0.26119,275.3271,225.0652,26.51926,True
2,3.411103,0.09219025,-0.04565772,-0.03809433,-1.422556,-4.669933,-2.28283,0.2218748,1.158084,0.3689942,-1.079352,-0.004223711,16.3,3.4,0.004975181,0.02877064,-0.03337031,-0.5066957,-3.767119,0.1305892,0.3666049,1.311903,0.3150041,-0.01190779,0.02399028,0.0557045,-0.811218,0.9308733,-0.3098021,0.5003337,1.385548,0.2458103,-0.0707989,1.149138,0.261283,275.3683,225.1478,26.45871,True
2,3.422215,0.08686933,-0.04570278,-0.04340593,-1.421896,-4.669962,-2.283735,0.2218616,1.158154,0.3691754,-1.079502,-0.01352186,16.3,3.4,0.01673709,0.02011764,-0.02503196,-0.5066217,-3.767235,0.1301476,0.3666219,1.311826,0.3150284,0.001917884,0.02502657,0.05447994,-0.8109805,0.9316188,-0.3106378,0.5003886,1.385586,0.2457666,-0.07068211,1.14872,0.261413,275.4096,225.2763,26.36748,True
2,3.433326,0.08902655,-0.05424942,-0.04655071,-1.420709,-4.66978,-2.284867,0.2218666,1.158274,0.3692191,-1.07961,-0.009720997,14.4,2.4,0.02321189,0.0210765,-0.01655912,-0.5064847,-3.766655,0.1291529,0.3666039,1.311834,0.3149955,0.002943212,0.01116252,0.05342823,-0.8102247,0.9312491,-0.310483,0.5002865,1.38556,0.2457337,-0.07058351,1.148352,0.2615601,275.4792,225.5498,26.11371,True
2,3.444437,0.09117441,-0.06063895,-0.04862691,-1.419869,-4.669538,-2.285966,0.2218376,1.158333,0.3694592,-1.079612,-0.0001494287,14.4,2.4,0.02857803,0.02315172,-0.01339765,-0.5066153,-3.765908,0.1280317,0.3666183,1.311905,0.315088,0.01131,-0.003801553,0.04163903,-0.8099924,0.9303631,-0.3104125,0.5002755,1.385628,0.2457726,-0.0705789,1.148065,0.2617408,275.5616,225.7423,25.91509,True
2,3.455548,0.08694793,-0.07458165,-0.06131964,-1.418158,-4.669511,-2.286793,0.2218617,1.158413,0.3696425,-1.079848,-0.02148533,14.4,2.4,0.03184202,0.01343956,-0.00180171,-0.5062861,-3.766322,0.1279335,0.3665976,1.311902,0.3150871,0.006954204,-0.008061381,0.03317565,-0.8097736,0.9302519,-0.3103206,0.5001812,1.385609,0.2457521,-0.07062149,1.147852,0.2619655,275.6335,225.7636,25.90682,True
2,3.466659,0.07741772,-0.09817054,-0.08245718,-1.415967,-4.669463,-2.287321,0.2218707,1.158482,0.369832,-1.079859,-0.0007914169,14.4,2.4,0.03077915,0.00701794,0.001340712,-0.5062333,-3.766728,0.1280003,0.3665944,1.311956,0.3151271,0.007022536,-0.003796929,0.0385024,-0.8090742,0.9306076,-0.3106918,0.5002178,1.385565,0.2458205,-0.07051852,1.147578,0.2622752,275.756,224.472,27.2415,True
2,3.47777,0.07324975,-0.1334949,-0.1067313,-1.412714,-4.669192,-2.288064,0.2218317,1.158681,0.3700671,-1.079643,0.01972013,12.2,2.1,0.02556691,0.009057818,0.01312416,-0.5057257,-3.766476,0.1277276,0.3665422,1.311941,0.3151267,-0.0004506484,-0.0005902722,0.03644691,-0.8087807,0.9307885,-0.3105339,0.5001643,1.385496,0.2458127,-0.07058781,1.147404,0.2624944,275.7547,225.0139,26.72585,True
2,3.488881,0.06904085,-0.1549151,-0.1215064,-1.409638,-4.668904,-2.288686,0.2218219,1.158651,0.370079,-1.079363,0.02550317,12.2,2.1,0.02361409,0.02813689,0.02397778,-0.5049838,-3.764842,0.1261033,0.3665099,1.311987,0.3150566,0.0005551875,-0.004873778,0.0311103,-0.8085778,0.9303361,-0.3103986,0.5001168,1.385629,0.2457006,-0.07060718,1.147193,0.2627211,275.8051,224.3623,27.38524,True
2,3.499992,0.05954643,-0.1891406,-0.1383294,-1.405813,-4.66835,-2.28911,0.2218522,1.158782,0.3703682,-1.079576,-0.01968601,12.2,2.1,0.02477034,0.04515284,0.02626453,-0.5044842,-3.762926,0.1240948,0.3665608,1.31201,0.3150253,-0.0005070092,-0.006993147,0.03218781,-0.808199,0.9304208,-0.3103722,0.5002235,1.385653,0.245662,-0.07061357,1.146946,0.262949,275.919,223.2613,28.49043,True
2,3.511103,0.05211942,-0.2020094,-0.1478263,-1.402523,-4.667996,-2.289456,0.2218686,1.158786,0.3704717,-1.079539,0.003658827,12.2,2.1,0.03018378,0.05360095,0.03162871,-0.503763,-3.761371,0.1221778,0.3666485,1.312022,0.3149984,-0.0006330463,-0.01553525,0.02261512,-0.8080958,0.9296569,-0.3098034,0.5003106,1.385533,0.245542,-0.07061053,1.146587,0.2631601,276.086,222.1619,29.59827,True
2,3.522214,0.04568392,-0.1871309,-0.148992,-1.400077,-4.668253,-2.289754,0.2219003,1.158957,0.3706281,-1.079354,0.01690225,12.2,2.1,0.0344472,0.05464435,0.03159646,-0.5033891,-3.760274,0.1207395,0.366713,1.312042,0.3150828,-0.001788961,-0.02725809,0.01731448,-0.8079562,0.9287379,-0.3090417,0.500294,1.38544,0.245486,-0.07076082,1.144822,0.2635562,277.1992,220.9267,31.05076,True
