loc,t,aDotUA,bDotUA,gDotUA,aUA,bUA,gUA,xUA,yUA,zUA,qE,qDotE,emgA,emgB,aDotSH,bDotSH,gDotSH,aSH,bSH,gSH,xSH,ySH,zSH,aDotUB,bDotUB,gDotUB,aUB,bUB,gUB,xUB,yUB,zUB,xHand,yHand,zHand,aHand,bHand,gHand,enable
2,0,-0.06533145,-1.256353,0.1255013,-1.490516,-4.319045,-2.828827,0.7016721,1.208207,0.442951,-0.9399382,0.00623895,22.3,9,-0.4440221,0.2462302,-0.02335271,-0.5582348,-4.617493,0.0196749,0.7666521,1.430062,0.3749635,-0.1335771,0.255369,0.04249779,-0.9887428,0.08684555,0.03003167,0.8350129,1.462016,0.2158468,0.4981593,1.012083,0.2811854,313.0585,253.425,344.4453,False
2,0.01111111,-0.07395963,-1.203081,0.130533,-1.488417,-4.307547,-2.828719,0.6996787,1.208389,0.4425128,-0.9395941,0.03140071,22.3,9,-0.4335004,0.2623528,-0.04781761,-0.5594774,-4.610923,0.01848154,0.7656546,1.430022,0.3749509,-0.1399643,0.2575031,0.04148054,-0.9882724,0.09019993,0.0298274,0.8348285,1.462034,0.2161391,0.4975059,1.012053,0.2791383,312.9016,251.3676,345.8748,False
2,0.02222222,-0.08477098,-1.124245,0.1354603,-1.486973,-4.297643,-2.828243,0.6978676,1.20845,0.4418843,-0.9394993,0.008400613,25.7,7.9,-0.4206926,0.2687012,-0.04787353,-0.5599552,-4.604718,0.01742746,0.7647872,1.430075,0.3750348,-0.1505629,0.2671086,0.04581795,-0.9875566,0.09400799,0.02971342,0.8346502,1.462131,0.2164927,0.497219,1.011988,0.2764223,312.9002,250.2401,346.2586,False
2,0.03333334,-0.09030759,-1.042149,0.152089,-1.486273,-4.288379,-2.827666,0.6962185,1.208511,0.4413352,-0.9395403,-0.003772828,25.7,7.9,-0.3992343,0.2609707,-0.02466534,-0.5593059,-4.599969,0.01710069,0.7639838,1.430068,0.3750668,-0.1537227,0.2713701,0.04797188,-0.9868737,0.09760978,0.02937547,0.8345416,1.462239,0.2167432,0.4972135,1.011868,0.2732092,312.9413,249.3608,346.1954,False
2,0.04444445,-0.1021833,-0.9643411,0.1655367,-1.48582,-4.279791,-2.826911,0.6946024,1.208564,0.440773,-0.9393539,0.01712793,25.7,7.9,-0.3971501,0.2438889,-0.02161415,-0.5594209,-4.595957,0.0180826,0.7632272,1.430051,0.3750277,-0.1526528,0.2788151,0.04583663,-0.9862421,0.1014102,0.02875628,0.8343495,1.462315,0.2169781,0.4974442,1.011752,0.2697597,312.9949,248.4845,346.0156,False
2,0.05555556,-0.111954,-0.8823216,0.1672509,-1.485303,-4.27224,-2.825952,0.6930355,1.208579,0.4402053,-0.9393497,0.0002610143,25.7,7.9,-0.3950333,0.2364073,-0.01955754,-0.5595009,-4.591475,0.01862508,0.7624006,1.430025,0.3750196,-0.1527923,0.2809289,0.02879037,-0.9864072,0.1052455,0.0283379,0.8342097,1.462344,0.2172692,0.4977795,1.011673,0.266309,313.0501,247.7009,345.7691,False
2,0.06666667,-0.1174022,-0.8280168,0.1659006,-1.484481,-4.264265,-2.825163,0.6914556,1.208573,0.4395347,-0.9393065,0.004032741,28.3,6.9,-0.3940277,0.2407301,-0.02911092,-0.5599675,-4.586168,0.01845437,0.7615439,1.429964,0.3749163,-0.1486545,0.2766289,0.01384303,-0.9866729,0.1084482,0.02797145,0.8339374,1.462313,0.2175088,0.4981395,1.011686,0.2630628,313.0953,247.0184,345.5119,False
2,0.07777778,-0.1250349,-0.7406735,0.1665253,-1.484611,-4.258649,-2.823987,0.6901659,1.20852,0.4389284,-0.9392682,0.003505842,28.3,6.9,-0.3801567,0.2524158,-0.03232972,-0.5603749,-4.580145,0.01713744,0.7607449,1.429905,0.3749068,-0.1455302,0.2766152,0.005294159,-0.986828,0.1121383,0.02745932,0.833775,1.462332,0.2177973,0.4983667,1.011783,0.2601331,313.1218,246.4061,345.3066,False
2,0.08888889,-0.1327113,-0.6416366,0.1607029,-1.484815,-4.254259,-2.822542,0.6889313,1.208365,0.4382379,-0.939477,-0.01899821,28.3,6.9,-0.354628,0.2598329,-0.04100173,-0.5610141,-4.574297,0.01531664,0.7599245,1.429822,0.3748195,-0.1402222,0.2819174,0.00205263,-0.9867422,0.115909,0.02676424,0.8335629,1.462321,0.2180533,0.4983234,1.011943,0.2575883,313.1089,245.8542,345.2023,False
2,0.1,-0.1467658,-0.5393754,0.164443,-1.485752,-4.25094,-2.820759,0.68792,1.20826,0.4376643,-0.9393896,0.008204124,28.3,6.9,-0.3408538,0.2502216,-0.04544734,-0.5616394,-4.569687,0.0147358,0.7591854,1.42977,0.3747969,-0.1433934,0.2861859,0.004205702,-0.9865547,0.1198632,0.02628061,0.8333795,1.462329,0.2183256,0.4980038,1.012158,0.2554388,313.0436,245.3791,345.2088,False
2,0.1111111,-0.1543924,-0.4616228,0.1651236,-1.486665,-4.247671,-2.818988,0.6867975,1.20817,0.4370644,-0.9392884,0.009181691,28.3,6.9,-0.3238473,0.2373511,-0.04354943,-0.5619664,-4.565697,0.01444339,0.7584637,1.429737,0.3747222,-0.1380074,0.2861783,0.009486543,-0.9862341,0.1235592,0.02545396,0.8332806,1.462319,0.2184331,0.4974392,1.012437,0.2536962,312.9482,245.1227,345.1805,False
2,0.1222222,-0.1674081,-0.3444367,0.1698596,-1.488669,-4.247074,-2.816711,0.6860553,1.208009,0.4365304,-0.939126,0.01487105,28.2,6.3,-0.2993615,0.2212262,-0.03747492,-0.562074,-4.562125,0.01383086,0.7578194,1.429674,0.3747177,-0.1348433,0.2776486,0.007337668,-0.9861526,0.1268983,0.02500069,0.8331099,1.462339,0.2186656,0.4966393,1.012761,0.2523118,312.8374,245.0134,345.1666,False
2,0.1333333,-0.1760762,-0.273088,0.1684403,-1.490214,-4.245741,-2.814493,0.6852951,1.207846,0.4360459,-0.9392276,-0.009350864,28.2,6.3,-0.2728305,0.1966142,-0.03787554,-0.5625454,-4.559536,0.0138242,0.7572559,1.429596,0.3746414,-0.1316642,0.262719,0.006253451,-0.9861893,0.1296133,0.02468644,0.8330719,1.462289,0.2188821,0.4957131,1.01317,0.2512314,312.7358,245.0044,345.1769,False
2,0.1444445,-0.2040186,-0.14315,0.1667424,-1.492656,-4.247796,-2.811111,0.6849244,1.207469,0.4355092,-0.9390674,0.01482542,28.2,6.3,-0.2449468,0.1909699,-0.01150515,-0.5617496,-4.555892,0.0127347,0.7566917,1.429568,0.374608,-0.1210426,0.255234,0.004036127,-0.986209,0.1326244,0.0240321,0.8329186,1.462317,0.2191355,0.4946876,1.013654,0.2503254,312.631,245.0497,345.1993,False
2,0.1555556,-0.2169939,-0.05477949,0.1673309,-1.495252,-4.248938,-2.808157,0.6844123,1.207304,0.4350691,-0.9391541,-0.008021089,28.2,6.3,-0.2246834,0.1833848,-0.005334511,-0.5616074,-4.55243,0.0116215,0.7560458,1.42942,0.3745832,-0.1178959,0.2541539,-0.001304861,-0.9862085,0.1359311,0.02346698,0.8326604,1.462316,0.2192476,0.4936365,1.014242,0.2495473,312.5001,245.2296,345.1293,False
2,0.1666667,-0.2245767,-0.002574355,0.1649493,-1.497669,-4.249798,-2.804996,0.683822,1.207165,0.4347339,-0.9384074,0.06845843,28.1,6.1,-0.1905347,0.1725018,0.006019094,-0.5612894,-4.549492,0.01006994,0.7555221,1.429431,0.3745093,-0.108308,0.2402765,-0.0003129616,-0.9862016,0.1383719,0.02286004,0.8325008,1.462277,0.2194226,0.4925926,1.014897,0.2488158,312.3143,245.4192,345.0482,False
2,0.1777778,-0.2374814,0.06021923,0.1582319,-1.500075,-4.251953,-2.801738,0.6833916,1.206986,0.4343467,-0.9388314,-0.03929598,27.4,5.7,-0.1511745,0.1467266,0.01189836,-0.5609352,-4.547922,0.00915355,0.7551578,1.429368,0.3744771,-0.1009559,0.2253408,-0.009948133,-0.986567,0.140828,0.02242435,0.8323444,1.462222,0.219564,0.4915045,1.015597,0.2481064,312.1447,245.7432,344.8303,False
2,0.1888889,-0.2556897,0.1059351,0.1409464,-1.502011,-4.254252,-2.797934,0.6831003,1.206862,0.4338853,-0.9388196,0.001672704,27.4,5.7,-0.1182613,0.1135313,0.01564229,-0.5606444,-4.547595,0.009341571,0.7548255,1.429296,0.3744895,-0.09139336,0.2135917,-0.01215111,-0.9867981,0.1430494,0.02177933,0.8322016,1.462234,0.2196529,0.4904115,1.016385,0.2473985,311.9996,246.0285,344.6252,False
2,0.2,-0.2717827,0.1623117,0.1257409,-1.504304,-4.257493,-2.794049,0.6828785,1.206707,0.4334886,-0.9389486,-0.01171618,27.4,5.7,-0.1047099,0.07953885,-0.003898191,-0.5612484,-4.547688,0.01019431,0.7545348,1.429246,0.3744962,-0.07653819,0.189056,-0.01438668,-0.9870352,0.1445108,0.02136015,0.8320743,1.462248,0.2197461,0.489306,1.01726,0.2466591,311.8428,246.2536,344.4378,False
2,0.2111111,-0.2846354,0.1941894,0.1127915,-1.506315,-4.26017,-2.79006,0.6825989,1.206564,0.433135,-0.9385698,0.03479643,27.4,5.7,-0.1016563,0.06042232,-0.01259146,-0.5617096,-4.547287,0.01088141,0.7541727,1.429112,0.3744926,-0.0659349,0.1677275,-0.01765326,-0.9873425,0.1459335,0.02084962,0.8319055,1.462281,0.2197838,0.4881737,1.018218,0.2459137,311.6436,246.51,344.216,False
2,0.2222222,-0.2964649,0.2505559,0.09438445,-1.508497,-4.264639,-2.785905,0.6824472,1.206362,0.4327383,-0.9386647,-0.008885924,27,4.6,-0.08033597,0.04535156,-0.003286965,-0.5613613,-4.547083,0.01092162,0.7540495,1.429039,0.3744726,-0.053236,0.1400045,-0.02413609,-0.9879678,0.1468243,0.02042032,0.8318113,1.462279,0.2198324,0.4870178,1.019261,0.2451963,311.4244,246.7764,343.9936,False
2,0.2333333,-0.3061672,0.3101129,0.07702371,-1.510707,-4.269607,-2.781798,0.6823913,1.206178,0.4322672,-0.9387015,-0.00312237,27,4.6,-0.05366631,0.02916796,0.009159764,-0.5608665,-4.54742,0.01089899,0.7539006,1.42898,0.3744159,-0.04472839,0.1314629,-0.02420152,-0.9882394,0.148171,0.0199034,0.8316331,1.462219,0.2198792,0.4858143,1.020385,0.2445471,311.1841,247.0805,343.7379,False
2,0.2444444,-0.3116096,0.3664984,0.05860679,-1.512853,-4.275255,-2.777581,0.6824019,1.205827,0.4316463,-0.9388058,-0.009406305,27,4.6,-0.04198661,0.004566465,0.01633723,-0.5605016,-4.548626,0.01207477,0.7538517,1.428929,0.374332,-0.02988822,0.1058606,-0.02857059,-0.9887981,0.1485256,0.01953429,0.8316177,1.462132,0.2197986,0.4845377,1.021559,0.2439772,310.9244,247.3862,343.4948,False
2,0.2555556,-0.3127895,0.4282315,0.04869404,-1.515461,-4.281494,-2.773713,0.6823437,1.205669,0.4312255,-0.939029,-0.02022736,27,4.6,-0.02271046,-0.008440711,0.03525947,-0.5595094,-4.549642,0.01256799,0.7537292,1.428904,0.3743172,-0.02032215,0.09838659,-0.02970872,-0.989147,0.1495586,0.01887942,0.8315097,1.462074,0.2198157,0.483136,1.022757,0.2435312,310.6556,247.7782,343.2108,False
2,0.2666667,-0.3150224,0.4782637,0.03670263,-1.518137,-4.288006,-2.769468,0.682215,1.205462,0.4306755,-0.9390993,-0.006157449,26.8,4.4,0.03201906,-0.0004773177,0.07963478,-0.556982,-4.54899,0.009795106,0.7537076,1.428705,0.3741207,-0.006461404,0.09410146,-0.02769265,-0.9894112,0.150649,0.01792254,0.8314862,1.461908,0.2196596,0.4816054,1.023955,0.2432392,310.3633,248.2425,342.951,False
2,0.2777778,-0.3193488,0.5144244,0.02692246,-1.520643,-4.294382,-2.765439,0.6820621,1.20534,0.4302807,-0.9395717,-0.04311478,25.5,3.4,0.05116683,-0.009085983,0.08048017,-0.5560585,-4.549646,0.00908058,0.7536789,1.428636,0.3740137,-0.008531021,0.08239615,-0.0180758,-0.9893004,0.1513042,0.01772067,0.8313881,1.46184,0.2196133,0.4799451,1.02511,0.2430965,310.0752,248.7602,342.7032,False
2,0.2888889,-0.325763,0.5239705,0.0183422,-1.522909,-4.300137,-2.761189,0.6819583,1.205114,0.4297609,-0.9393235,0.02311642,25.5,3.4,0.04047952,-0.02717927,0.08575218,-0.5551119,-4.55114,0.01047182,0.7535876,1.42856,0.3739097,-0.002101811,0.06747212,-0.01279832,-0.9894218,0.151554,0.01718804,0.83123,1.46186,0.2195251,0.4782027,1.026249,0.2431375,309.8365,249.3323,342.4265,False
2,0.3,-0.3428439,0.5451823,0.006506443,-1.525169,-4.306541,-2.756491,0.6817884,1.204997,0.4293947,-0.9395515,-0.0209932,25.5,3.4,0.03934549,-0.0271101,0.07723897,-0.5545276,-4.551755,0.01060338,0.7536012,1.428434,0.3737786,0.007350013,0.05039867,-0.0256446,-0.9901718,0.1515027,0.01679203,0.8311719,1.46177,0.2194152,0.4763442,1.027362,0.2433197,309.636,249.921,342.1808,False
2,0.3111111,-0.3513803,0.5525544,-0.005253792,-1.527205,-4.312525,-2.752071,0.6818283,1.204973,0.4289696,-0.9393821,0.01571499,25.5,3.4,0.04118707,-0.03753795,0.04625239,-0.5550566,-4.553068,0.01108887,0.7537563,1.428408,0.3736322,0.01365137,0.04077864,-0.03421715,-0.9909676,0.1514813,0.01648044,0.8311334,1.461789,0.2193005,0.474447,1.028491,0.2436365,309.4167,250.4845,341.9994,False
2,0.3222222,-0.3684352,0.5609299,-0.02661961,-1.528533,-4.318918,-2.747147,0.6817452,1.204706,0.4283512,-0.9390119,0.03373524,23.6,3.1,0.03154954,-0.06311158,0.05359072,-0.5542943,-4.555773,0.01343512,0.7537995,1.428373,0.3735595,0.02414182,0.02370026,-0.05026806,-0.9921308,0.1510277,0.01605806,0.8311025,1.461727,0.2191598,0.4725499,1.029625,0.2440099,309.1783,251.0328,341.8594,False
2,0.3333333,-0.3780417,0.5704091,-0.04371974,-1.530113,-4.325448,-2.742212,0.6815758,1.204692,0.4279447,-0.9393188,-0.02826224,23.6,3.1,0.04021596,-0.07290643,0.07581922,-0.5526118,-4.558046,0.01457149,0.7538964,1.428245,0.3734362,0.03471209,0.01514477,-0.05887522,-0.993145,0.1507922,0.01541145,0.8310812,1.461879,0.2189426,0.470681,1.030812,0.2444214,308.9724,251.5828,341.6924,False
2,0.3444445,-0.3887508,0.6022747,-0.05880666,-1.532027,-4.333217,-2.737192,0.6814648,1.204666,0.4276443,-0.9389672,0.03249542,23.6,3.1,0.05728515,-0.07299458,0.07887232,-0.5517595,-4.559242,0.01433526,0.7539729,1.428192,0.3733294,0.03587985,0.02472846,-0.04931344,-0.9934347,0.1514646,0.01452674,0.8310236,1.461831,0.2188203,0.4688825,1.032073,0.2448327,308.7257,252.1073,341.5651,False
2,0.3555556,-0.4069194,0.6362451,-0.07390478,-1.534133,-4.341084,-2.731853,0.681245,1.20472,0.4273756,-0.9390231,-0.005360757,23.6,3.1,0.05857115,-0.06144329,0.1002571,-0.5499891,-4.559942,0.01424551,0.7541662,1.428186,0.3731623,0.03917493,0.01941139,-0.03654978,-0.9933324,0.1514377,0.01399118,0.8308896,1.461737,0.2186828,0.4669995,1.033327,0.2451591,308.4649,252.5877,341.4312,False
2,0.3666667,-0.4154529,0.6457626,-0.08354315,-1.535912,-4.348249,-2.726841,0.6810791,1.204833,0.4271374,-0.9391084,-0.007629599,23.6,3.1,0.06073768,-0.06255099,0.1055571,-0.548674,-4.561186,0.01462315,0.7542831,1.4282,0.3730962,0.03596701,0.008757411,-0.0354491,-0.9937527,0.1509802,0.01400104,0.8308575,1.461605,0.2185616,0.4650585,1.034646,0.2454745,308.2498,253.0658,341.2001,False
2,0.3777778,-0.4335827,0.6594644,-0.1049273,-1.537352,-4.356081,-2.721149,0.6808951,1.204906,0.4268339,-0.938907,0.01856119,21.2,2.8,0.06819797,-0.09038056,0.1191338,-0.5469429,-4.564818,0.01661173,0.7544832,1.428239,0.3729439,0.04852043,-0.02750424,-0.05575931,-0.9950715,0.1491547,0.01403299,0.8308656,1.461547,0.2183487,0.4630201,1.036073,0.2458861,308.0463,253.6083,340.8669,False
2,0.3888889,-0.4506696,0.6838425,-0.1210469,-1.538993,-4.364375,-2.715383,0.6808041,1.204788,0.4263983,-0.9392862,-0.03474889,21.2,2.8,0.07239141,-0.1085126,0.1200222,-0.5457504,-4.568284,0.01864958,0.7547363,1.428167,0.3727729,0.05055039,-0.03923771,-0.06641233,-0.9960787,0.1482545,0.01378292,0.8307929,1.461608,0.2180917,0.4608519,1.037645,0.2464579,307.8253,254.1809,340.5629,False
2,0.4,-0.4666777,0.7029363,-0.1296782,-1.540751,-4.372622,-2.709526,0.6806531,1.204857,0.4261265,-0.9387797,0.04670718,21.2,2.8,0.07216468,-0.1318267,0.1038661,-0.5451917,-4.572658,0.02158679,0.754994,1.428121,0.3726013,0.05689201,-0.04777503,-0.07071823,-0.9970374,0.1472695,0.01347906,0.8307685,1.461555,0.2178984,0.4586176,1.039376,0.247206,307.5209,254.7401,340.3619,False
2,0.4111111,-0.4784174,0.7134985,-0.141461,-1.542333,-4.380804,-2.70361,0.6806269,1.204977,0.4257841,-0.9387808,-0.0004411316,21.2,2.8,0.06866235,-0.159332,0.08024285,-0.5452273,-4.577689,0.02528618,0.755327,1.428118,0.3724773,0.05794837,-0.06163681,-0.06751533,-0.9976074,0.1457412,0.01382447,0.8307524,1.461431,0.2174463,0.4562451,1.041199,0.2480887,307.1512,255.3424,340.1912,False
2,0.4222222,-0.5039915,0.7208537,-0.151095,-1.54394,-4.389005,-2.697001,0.680551,1.205059,0.4255798,-0.9388335,-0.004634047,20.8,3,0.05450059,-0.1782281,0.05144646,-0.5457014,-4.582575,0.02933099,0.7555202,1.428013,0.3722544,0.06432031,-0.06271492,-0.06969827,-0.9984654,0.1448748,0.01336427,0.8307137,1.461362,0.2172205,0.4537581,1.043073,0.2490824,306.745,256.0281,339.9883,False
2,0.4333333,-0.5157208,0.7303674,-0.1596717,-1.545737,-4.397363,-2.690805,0.6803933,1.205102,0.425313,-0.9389081,-0.006655001,18,3.3,0.05017544,-0.1770761,0.04189945,-0.5456237,-4.586249,0.0319321,0.7557222,1.428081,0.3720067,0.0611084,-0.06271794,-0.06966808,-0.9991952,0.1439523,0.01353871,0.8307037,1.461127,0.2168422,0.4512616,1.045015,0.2501922,306.3676,256.7303,339.7832,False
2,0.4444444,-0.5338449,0.7420062,-0.1672007,-1.547483,-4.40599,-2.684132,0.6802809,1.205176,0.4250746,-0.9383659,0.04972354,18,3.3,0.05669603,-0.1558313,0.04733265,-0.5449626,-4.587957,0.03254862,0.755891,1.428165,0.3718774,0.06213411,-0.06699484,-0.07394016,-1.000242,0.1427654,0.01344017,0.8306915,1.461117,0.2166643,0.4488326,1.047027,0.25139,305.9926,257.408,339.611,False
2,0.4555556,-0.5413152,0.7483593,-0.1715001,-1.549322,-4.414495,-2.677695,0.6802795,1.205287,0.4248581,-0.9388745,-0.04682622,18,3.3,0.05690033,-0.1442631,0.06659593,-0.5435538,-4.590493,0.03404558,0.756043,1.428221,0.3716817,0.05789374,-0.06911574,-0.07177014,-1.000955,0.1417778,0.01336401,0.8306954,1.460943,0.2165349,0.4464095,1.049085,0.252626,305.6308,258.0781,339.4173,False
2,0.4666667,-0.5466526,0.7557601,-0.1768823,-1.551041,-4.42297,-2.671339,0.6802123,1.205503,0.4244781,-0.9386194,0.02387881,18,3.3,0.04964552,-0.135873,0.088021,-0.542038,-4.593092,0.03603417,0.7563951,1.428289,0.3714206,0.05790439,-0.0765698,-0.06856582,-1.001593,0.1404856,0.01347719,0.8307008,1.461057,0.2162569,0.4439461,1.051167,0.253865,305.2528,258.7769,339.1841,False
2,0.4777778,-0.549884,0.773892,-0.1716523,-1.553699,-4.431985,-2.664954,0.680149,1.205685,0.4242117,-0.9389539,-0.03073131,16.3,1.8,0.06152739,-0.1296595,0.1050184,-0.5403655,-4.595589,0.03710822,0.7566365,1.428379,0.3712111,0.052589,-0.08614539,-0.06531572,-1.002216,0.1389719,0.013874,0.8307031,1.461013,0.2159681,0.4414869,1.053282,0.2551206,304.8798,259.4864,338.9323,False
2,0.4888889,-0.5445799,0.7951601,-0.1771036,-1.55587,-4.44111,-2.659272,0.6801296,1.205912,0.4238727,-0.9391941,-0.02156858,16.3,1.8,0.06903626,-0.1318754,0.1124038,-0.5389237,-4.598629,0.03869307,0.756959,1.428359,0.3709354,0.05682264,-0.09468092,-0.06747894,-1.003139,0.1373822,0.01389611,0.8308108,1.460924,0.2156708,0.4391037,1.055455,0.2563989,304.5085,260.2086,338.6869,False
2,0.5,-0.5371453,0.8069035,-0.1750326,-1.558527,-4.450152,-2.653518,0.6800447,1.206086,0.4235828,-0.9392831,-0.007906554,16.3,1.8,0.06680556,-0.1413973,0.1048917,-0.5381098,-4.602362,0.04121402,0.7572073,1.428479,0.3707278,0.05676389,-0.1032086,-0.07279658,-1.004124,0.1357401,0.01414139,0.8308367,1.460877,0.2153845,0.4367615,1.057671,0.257657,304.1575,260.9464,338.428,False
2,0.5111111,-0.527608,0.8356835,-0.1730518,-1.561553,-4.459875,-2.647992,0.6799236,1.206329,0.4234529,-0.9400442,-0.06944696,16.3,1.8,0.06143435,-0.149886,0.1038072,-0.5370818,-4.606133,0.04401752,0.7574388,1.428558,0.3705473,0.05461902,-0.1032122,-0.07491081,-1.005056,0.1343563,0.01430757,0.8308116,1.460713,0.2150538,0.4344495,1.059935,0.2589017,303.817,261.7533,338.0722,False
2,0.5222223,-0.5190837,0.83676,-0.1730566,-1.564216,-4.468889,-2.642515,0.6797246,1.206577,0.4232764,-0.9400506,-2.481839E-05,16,1.7,0.05822077,-0.1541338,0.1038007,-0.5360256,-4.609855,0.04668175,0.7576708,1.428632,0.3702984,0.04927136,-0.1053361,-0.07699459,-1.005986,0.1329148,0.01474033,0.8308501,1.460633,0.2147613,0.4321836,1.062214,0.2601587,303.438,262.5499,337.704,False
2,0.5333334,-0.5179719,0.8143427,-0.181458,-1.566191,-4.477137,-2.636791,0.6795164,1.206744,0.4230731,-0.9402418,-0.01750981,15.2,0.8,0.03674595,-0.1699222,0.09107129,-0.5355415,-4.61446,0.05094121,0.7577529,1.42864,0.3699934,0.04599089,-0.109607,-0.08655103,-1.007285,0.1312763,0.0151699,0.8307123,1.460672,0.2145288,0.4299324,1.064455,0.2614521,303.0754,263.3746,337.2672,False
2,0.5444446,-0.5189505,0.7759033,-0.1972462,-1.567358,-4.484804,-2.631083,0.6792409,1.207027,0.4227741,-0.9402562,-0.001167346,15.2,0.8,0.00896892,-0.1611829,0.07751752,-0.535127,-4.617419,0.05443661,0.7579656,1.428683,0.3697946,0.04591951,-0.1106854,-0.09507613,-1.00869,0.1297561,0.0154466,0.8307306,1.460542,0.2141504,0.42767,1.066642,0.2628475,302.7521,264.2234,336.7876,False
2,0.5555557,-0.5156761,0.7331924,-0.2161961,-1.567998,-4.492024,-2.625399,0.6789616,1.207291,0.4225047,-0.9399595,0.02704767,15.2,0.8,0.007935658,-0.1462425,0.07444201,-0.5344623,-4.619689,0.05637353,0.7581587,1.428765,0.3695135,0.0417416,-0.1042764,-0.08651968,-1.009301,0.1286901,0.01568043,0.8306273,1.460543,0.2138047,0.4253874,1.068747,0.2643486,302.4238,265.0184,336.4199,False
2,0.5666668,-0.4931761,0.6713701,-0.2297222,-1.568053,-4.498154,-2.620756,0.6785738,1.20765,0.4222324,-0.9399233,0.003084416,15.2,0.8,0.0132836,-0.1462937,0.07759658,-0.5335467,-4.623152,0.0590287,0.758443,1.428911,0.3692126,0.04180936,-0.1000125,-0.08013906,-1.010065,0.1275031,0.01572756,0.8306489,1.460412,0.213428,0.4231097,1.070754,0.2659091,302.0907,265.7243,336.2038,False
2,0.577778,-0.4643157,0.6202244,-0.2400872,-1.568113,-4.504022,-2.616562,0.6781108,1.207988,0.4221377,-0.9399456,-0.00208097,13.4,0.5,0.007969037,-0.1537691,0.08290928,-0.5325598,-4.627115,0.06253316,0.758635,1.428999,0.3689141,0.03329118,-0.09999672,-0.07900164,-1.010883,0.1262232,0.01640054,0.8306589,1.460318,0.21314,0.4208669,1.072683,0.2674652,301.7769,266.3249,336.1099,False
2,0.5888891,-0.419437,0.5531691,-0.2418535,-1.568668,-4.515543,-2.608628,0.6775436,1.208608,0.4219935,-0.9409587,-0.09262459,13.4,0.5,-0.004853651,-0.1654555,0.08505808,-0.5307595,-4.635612,0.07039534,0.7587893,1.429206,0.3682032,0.02686243,-0.09786773,-0.08428439,-1.013035,0.1236435,0.01729217,0.8307616,1.460071,0.2125409,0.4187039,1.074556,0.2689727,301.4787,266.8416,336.0704,False
2,0.6000003,-0.4033995,0.5244392,-0.2406411,-1.568796,-4.521027,-2.604717,0.6774085,1.208824,0.4219961,-0.9377022,0.2985733,13.4,0.5,-0.000389494,-0.1314269,0.09167591,-0.5295269,-4.636202,0.07064354,0.7586513,1.429343,0.3679643,0.02155155,-0.08081754,-0.08425941,-1.013995,0.1232844,0.0176019,0.8307834,1.460125,0.2121899,0.4165215,1.076354,0.2704018,301.2374,267.2687,335.9849,False
2,0.6111114,-0.3873909,0.510628,-0.2384417,-1.569181,-4.526875,-2.600917,0.6771303,1.209113,0.4220102,-0.9413321,-0.3344599,13.4,0.5,-0.0002522841,-0.1048198,0.09507336,-0.5283749,-4.636896,0.07124276,0.7586143,1.429468,0.3676805,0.01206228,-0.07013892,-0.07460265,-1.014492,0.1228097,0.0180581,0.8307465,1.460084,0.21191,0.4139817,1.078204,0.2719537,301.1615,267.6867,335.8044,False
2,0.6222225,-0.376693,0.4946604,-0.2383598,-1.569422,-4.532438,-2.597211,0.6766846,1.209514,0.4219825,-0.9418887,-0.04775463,12.5,0.5,-0.01284619,-0.07498807,0.1028536,-0.52703,-4.63662,0.07152079,0.758486,1.429594,0.3674397,0.002587914,-0.06265898,-0.061746,-1.014736,0.1221247,0.01877316,0.830724,1.459944,0.2114263,0.4117457,1.080243,0.2737035,300.7863,268.2013,335.7181,False
2,0.6333337,-0.3457294,0.461652,-0.2456339,-1.56898,-4.537468,-2.594352,0.6763752,1.209824,0.422025,-0.9417982,0.008191115,12.5,0.5,-0.02866625,-0.06330562,0.1169209,-0.5252446,-4.637449,0.07312427,0.7584548,1.42964,0.3670075,-0.002675869,-0.06477256,-0.05317552,-1.015045,0.1211487,0.01956118,0.8307461,1.459777,0.2109568,0.4099682,1.082286,0.2754989,300.2692,268.8203,335.6129,False
2,0.6444448,-0.333967,0.43716,-0.2476384,-1.568632,-4.542549,-2.590864,0.6761445,1.210202,0.4220376,-0.9416559,0.01273357,12.5,0.5,-0.03391631,-0.06229611,0.1265618,-0.5235018,-4.639238,0.07528757,0.7585685,1.429802,0.3666282,-0.008046836,-0.06795923,-0.05738488,-1.015824,0.1201874,0.02037425,0.8306726,1.459795,0.2105792,0.4084145,1.084145,0.2771915,299.8506,269.433,335.4581,False
2,0.655556,-0.333967,0.43716,-0.2476384,-1.568632,-4.542549,-2.590864,0.6761445,1.210202,0.4220376,-0.9422594,-0.05541036,12.5,0.5,-0.03391631,-0.06229611,0.1265618,-0.5235018,-4.639238,0.07528757,0.7585685,1.429802,0.3666282,-0.008046836,-0.06795923,-0.05738488,-1.015824,0.1201874,0.02037425,0.8306726,1.459795,0.2105792,0.4069154,1.085742,0.2787108,299.5657,269.8857,335.3712,False
2,0.6666671,-0.3168369,0.3966895,-0.2484851,-1.56785,-4.546562,-2.587927,0.6759038,1.210575,0.4220722,-0.9448352,-0.2352804,12.5,0.5,-0.04033485,-0.07080645,0.1276098,-0.5221996,-4.641884,0.07820559,0.7585626,1.429913,0.3662899,-0.01131327,-0.0668911,-0.06587939,-1.016862,0.1194749,0.02098731,0.8306436,1.459897,0.210428,0.4056787,1.087064,0.2800542,299.2657,270.2139,335.3969,False
2,0.6777782,-0.2954647,0.3626125,-0.2536237,-1.566809,-4.550634,-2.585293,0.6756756,1.21093,0.4221528,-0.941241,0.3303039,12.6,1.1,-0.03621418,-0.06320502,0.1063273,-0.521759,-4.642876,0.07936406,0.7585531,1.430047,0.3660247,-0.01668606,-0.05730201,-0.07330133,-1.017956,0.1191268,0.02154497,0.8306158,1.45983,0.2101574,0.4050109,1.087983,0.2810382,298.9393,270.5352,335.4053,False
2,0.6888894,-0.2837006,0.3434563,-0.2545844,-1.56611,-4.554981,-2.58251,0.6753676,1.211382,0.4223349,-0.9410881,0.01068407,12.6,1.1,-0.02565115,-0.0685228,0.09874111,-0.5209931,-4.64498,0.0812147,0.7586758,1.430159,0.3658316,-0.01561104,-0.05197566,-0.07224664,-1.018659,0.1186476,0.02204032,0.8305922,1.459698,0.2098103,0.4043489,1.088461,0.2816904,298.9814,270.6309,335.3759,False
2,0.7000005,-0.2442178,0.3083497,-0.2597037,-1.564771,-4.558552,-2.58102,0.6750706,1.21182,0.4225144,-0.9412762,-0.01707507,12.6,1.1,-0.02688593,-0.08226125,0.08479667,-0.5205942,-4.647861,0.0840475,0.7586776,1.430262,0.3655412,-0.02300537,-0.04663026,-0.06579803,-1.019185,0.1182392,0.02276204,0.8305789,1.459628,0.2095132,0.4036022,1.088719,0.2822108,299.1751,270.4755,335.4587,False
2,0.7111117,-0.2314088,0.2945254,-0.2574999,-1.56387,-4.562382,-2.57881,0.6749167,1.212175,0.4225562,-0.9410077,0.02457201,12.6,1.1,-0.03977535,-0.09065804,0.07524577,-0.5202075,-4.650564,0.08722065,0.7586838,1.430333,0.3652663,-0.01977272,-0.04768883,-0.0604971,-1.019672,0.117675,0.02323448,0.8305793,1.459648,0.2092023,0.402747,1.08895,0.2827886,299.3792,270.2802,335.5624,False
2,0.7222228,-0.2036663,0.2711538,-0.2541749,-1.562744,-4.565716,-2.577448,0.6745991,1.212524,0.4226432,-0.9420986,-0.1000964,12.6,1.1,-0.0386374,-0.09180072,0.08481614,-0.5190453,-4.652955,0.08970459,0.7586956,1.430474,0.3649752,-0.01978365,-0.05621393,-0.05942279,-1.020324,0.1165228,0.02410587,0.830635,1.459506,0.2087595,0.4017724,1.089324,0.2835701,299.532,270.1796,335.6503,False
2,0.7333339,-0.1886776,0.2424376,-0.2497607,-1.561415,-4.568571,-2.576021,0.6742547,1.212943,0.4227886,-0.9413108,0.07276873,12.7,1.3,-0.02353478,-0.08883689,0.1070883,-0.5171422,-4.654992,0.09120181,0.7586125,1.430596,0.3645501,-0.0166343,-0.0572836,-0.06370828,-1.021182,0.1158506,0.02466513,0.8306208,1.459423,0.2084148,0.4007998,1.089898,0.2846125,299.5079,270.1904,335.7772,False
2,0.7444451,-0.1843599,0.2115809,-0.244268,-1.560005,-4.570999,-2.574081,0.6739663,1.213329,0.4229138,-0.9418525,-0.0503533,12.7,1.3,-0.03097207,-0.08776398,0.1092895,-0.5159971,-4.657318,0.09385858,0.7585319,1.430671,0.3641756,-0.01668143,-0.05728665,-0.06796605,-1.022026,0.1151835,0.02535702,0.8305607,1.459445,0.2080576,0.3998326,1.090652,0.2858705,299.3921,270.3653,335.8783,False
2,0.7555562,-0.1714901,0.1700684,-0.2419161,-1.558041,-4.572773,-2.572682,0.6737192,1.213721,0.4229586,-0.9416522,0.01867281,12.7,1.3,-0.0362609,-0.06852677,0.1041517,-0.5150543,-4.657727,0.09479229,0.7585289,1.430784,0.3638337,-0.02195588,-0.05833659,-0.06152874,-1.022542,0.1143766,0.02618979,0.8305396,1.459379,0.2077231,0.3988349,1.091519,0.2872515,299.205,270.5688,336.004,False
2,0.7666674,-0.1576076,0.1530382,-0.2439498,-1.556295,-4.575242,-2.571381,0.6734084,1.214161,0.4230816,-0.9409198,0.06658819,12.7,1.3,-0.03299707,-0.06111701,0.1073727,-0.5138745,-4.659142,0.09611215,0.7585553,1.430947,0.3634498,-0.01657499,-0.05407447,-0.05518953,-1.022996,0.1139034,0.02652801,0.8304797,1.459395,0.2074935,0.3978422,1.092431,0.2886641,299.0009,270.7419,336.1681,False
2,0.7777785,-0.138374,0.1222178,-0.2363249,-1.554435,-4.576801,-2.570482,0.6731762,1.214528,0.4231212,-0.9412282,-0.02888782,12.8,1.1,-0.03197742,-0.0781899,0.1104305,-0.5126303,-4.662345,0.09918171,0.7585698,1.431103,0.3630886,-0.01761356,-0.05194332,-0.05198765,-1.023513,0.1132725,0.02715998,0.830443,1.459327,0.2071149,0.3968983,1.09335,0.2900065,298.8039,270.87,336.3824,False
2,0.7888896,-0.1308858,0.1115829,-0.2341267,-1.552862,-4.578856,-2.569345,0.67287,1.214879,0.4230688,-0.94124,-0.0008501021,15.1,1,-0.03090151,-0.08354206,0.1135789,-0.511344,-4.664873,0.1016198,0.7584914,1.43116,0.3628223,-0.01869704,-0.05513319,-0.0519703,-1.024053,0.1125116,0.02800127,0.8303934,1.459275,0.2067633,0.3960503,1.094232,0.2911855,298.6067,270.9113,336.6327,False
2,0.8000008,-0.1234372,0.112752,-0.2170827,-1.552043,-4.580922,-2.568187,0.6727644,1.215152,0.4229934,-0.941469,-0.0210499,15.1,1,-0.03315691,-0.08662359,0.09972386,-0.5108294,-4.667167,0.1040505,0.7584548,1.431273,0.3625259,-0.01336576,-0.0583296,-0.0498743,-1.024462,0.1117572,0.02845454,0.8303269,1.459225,0.2062809,0.3952711,1.095033,0.292188,298.4419,270.9234,336.8216,False
2,0.8111119,-0.1191654,0.1138395,-0.212827,-1.550833,-4.583145,-2.567122,0.6725709,1.215447,0.4229867,-0.9411047,0.03334687,15.1,1,-0.03112961,-0.08653498,0.08692627,-0.5103671,-4.669148,0.1060676,0.7582914,1.431387,0.3622575,-0.01554099,-0.05833135,-0.05518271,-1.025264,0.1110148,0.02906254,0.8302726,1.459196,0.2059355,0.3945969,1.095707,0.2929913,298.2902,270.9163,336.9939,False
2,0.8222231,-0.1170492,0.1192285,-0.2021984,-1.550075,-4.585444,-2.565823,0.6724555,1.215743,0.4230316,-0.9409001,0.01832783,15.1,1,-0.02584112,-0.08117381,0.07946698,-0.5098159,-4.670788,0.1076088,0.7582477,1.431458,0.3619344,-0.01551841,-0.05726125,-0.05305319,-1.025805,0.1103688,0.02953419,0.8301836,1.459187,0.2056201,0.3939764,1.09623,0.2935944,298.2001,270.9247,337.1103,False
2,0.8333342,-0.1149146,0.1214347,-0.1872881,-1.549551,-4.587375,-2.564757,0.672364,1.215906,0.4230349,-0.9408623,0.00324726,17.9,0.4,-0.02050894,-0.0694326,0.07418333,-0.5092321,-4.671529,0.1083025,0.7583553,1.431521,0.3616145,-0.01018602,-0.0615291,-0.05095268,-1.026187,0.1093885,0.03003407,0.8300526,1.459126,0.2052467,0.3934691,1.096637,0.2940352,298.1656,270.9463,337.1643,False
2,0.8444453,-0.1085243,0.1204324,-0.1776904,-1.548895,-4.589371,-2.563727,0.672224,1.216144,0.4230452,-0.9405305,0.03021087,17.9,0.4,-0.007733438,-0.06412636,0.07092012,-0.5086457,-4.672537,0.1088953,0.7583472,1.431558,0.3613048,-0.003830381,-0.06153978,-0.05419817,-1.026872,0.1086634,0.03036856,0.8299257,1.45908,0.2049506,0.3930148,1.096952,0.2943843,298.1725,270.877,337.2307,False
2,0.8555565,-0.1053423,0.1269458,-0.1553484,-1.548991,-4.591219,-2.562695,0.6721187,1.21618,0.4229555,-0.9406402,-0.01036577,17.9,0.4,0.0006955713,-0.07048928,0.06228302,-0.508317,-4.674705,0.1104735,0.7583514,1.431627,0.3609672,-0.004825845,-0.06259473,-0.04566608,-1.027106,0.1077941,0.0308932,0.8298063,1.459044,0.2046213,0.3926062,1.097235,0.2947326,298.2018,270.8217,337.2668,False
2,0.8666676,-0.107479,0.1301531,-0.1521712,-1.548478,-4.593398,-2.561367,0.6720005,1.216336,0.4228678,-0.9406205,0.001895327,17.9,0.4,0.006892033,-0.08637297,0.04612807,-0.508562,-4.677803,0.1128965,0.7583239,1.431647,0.3606396,0.00264854,-0.06367338,-0.04253164,-1.027481,0.1068581,0.03120932,0.8296804,1.458869,0.2041664,0.3922158,1.097514,0.2951159,298.2086,270.8203,337.2925,False
2,0.8777788,-0.1107149,0.1494351,-0.1288354,-1.549214,-4.595515,-2.560053,0.6719791,1.216607,0.4225535,-0.9405358,0.007657274,18.1,0.4,0.01421867,-0.1001887,0.03744108,-0.508635,-4.681114,0.115444,0.7583299,1.431715,0.3603578,0.002653919,-0.06047748,-0.04253489,-1.027971,0.1062156,0.03150307,0.8295667,1.458808,0.2038198,0.3917986,1.097803,0.2955481,298.1948,270.8615,337.3244,False
2,0.8888899,-0.1064889,0.1676519,-0.1108135,-1.550074,-4.597925,-2.55903,0.6720003,1.216602,0.4224007,-0.9401805,0.03238014,20.5,0.2,0.02483746,-0.09164013,0.02782656,-0.5087761,-4.682631,0.1160403,0.7582922,1.431695,0.3600419,-0.001643851,-0.0647321,-0.04462351,-1.028537,0.1052369,0.03235022,0.8296104,1.45873,0.2034967,0.3913436,1.098103,0.2960064,298.1553,270.9969,337.3159,False
2,0.900001,-0.1044044,0.1880017,-0.09174065,-1.55129,-4.600482,-2.557867,0.6719618,1.216675,0.422199,-0.9401214,0.005116008,20.5,0.2,0.01742087,-0.07988219,0.02690937,-0.5085322,-4.683713,0.1170587,0.7582213,1.431749,0.3597968,-0.003790691,-0.07538127,-0.04352609,-1.028971,0.103806,0.03330922,0.8294939,1.458641,0.2031591,0.3908572,1.098446,0.2964817,298.1538,271.14,337.3324,False
2,0.9111122,-0.0990961,0.1997792,-0.08221237,-1.552201,-4.602947,-2.556994,0.6717631,1.216745,0.4220119,-0.9403909,-0.02466117,20.5,0.2,0.01428114,-0.05959195,0.02282804,-0.5084124,-4.683624,0.1168646,0.7580737,1.431754,0.3595171,-0.01114701,-0.07322003,-0.03067273,-1.028744,0.1030036,0.03424053,0.8293623,1.458626,0.2027659,0.3904011,1.0989,0.2969279,298.1573,271.3961,337.2763,False
2,0.9222233,-0.0991067,0.2062113,-0.07371975,-1.553091,-4.605214,-2.555881,0.6716655,1.216709,0.4218006,-0.940245,0.01356648,20.5,0.2,0.02187551,-0.03943416,0.0293132,-0.5078233,-4.683456,0.1161919,0.7580061,1.431784,0.3592672,-0.00259351,-0.06577505,-0.02862171,-1.029016,0.1024786,0.03425145,0.829231,1.45855,0.202414,0.3899722,1.099437,0.2973305,298.0826,271.7095,337.1182,False
2,0.9333345,-0.1001803,0.2084022,-0.06201332,-1.554184,-4.607384,-2.554691,0.6715448,1.216714,0.4215481,-0.9404692,-0.02069442,22.6,1.2,0.02074158,-0.04149637,0.01970551,-0.5081636,-4.684733,0.1168489,0.7579905,1.431899,0.3588514,0.005885489,-0.06578918,-0.03295021,-1.029509,0.1017237,0.03440005,0.8291036,1.458498,0.2020404,0.3894901,1.100017,0.2976816,297.9947,272.0302,336.9179,False
2,0.9444456,-0.09910422,0.2041487,-0.06092291,-1.554806,-4.609481,-2.553647,0.6714282,1.216751,0.4212606,-0.9402072,0.0241087,22.6,1.2,0.01531914,-0.04565911,0.01012927,-0.5084566,-4.685996,0.1179828,0.7579612,1.431956,0.3586128,0.005837291,-0.07430992,-0.03613847,-1.030077,0.1005046,0.03508821,0.8289679,1.458591,0.2017088,0.3889175,1.100591,0.2979913,297.875,272.2952,336.7504,False
2,0.9555568,-0.09377203,0.1967154,-0.057686,-1.555444,-4.611377,-2.552619,0.6714036,1.216868,0.4209723,-0.9400644,0.01281057,22.6,1.2,0.02151557,-0.07224387,-0.000782839,-0.5091043,-4.689667,0.120716,0.7580714,1.431818,0.3584898,0.01007138,-0.08497117,-0.03722876,-1.030582,0.09899436,0.03559767,0.8288604,1.458556,0.2013443,0.3883381,1.10113,0.2982726,297.7498,272.5669,336.5852,False
2,0.9666679,-0.09057431,0.1914095,-0.05445673,-1.556137,-4.613241,-2.551612,0.6714051,1.216825,0.4206386,-0.9401789,-0.01057241,22.6,1.2,0.04158358,-0.08393335,-0.01701707,-0.5100124,-4.692393,0.1218647,0.7580198,1.431849,0.3582003,0.01432139,-0.08390596,-0.03619417,-1.030873,0.09810353,0.03608423,0.8287116,1.458534,0.2009139,0.3877805,1.101626,0.2985142,297.6586,272.8412,336.4352,False
2,0.977779,-0.08097961,0.1861583,-0.04377243,-1.557061,-4.614888,-2.550988,0.6712444,1.216886,0.4203789,-0.9401854,-0.0005108052,22.6,1.2,0.05008478,-0.08073951,-0.02131737,-0.510381,-4.693862,0.1223302,0.7579988,1.431853,0.3579264,0.01437702,-0.07750887,-0.03087434,-1.031073,0.0973653,0.03630208,0.8285747,1.458501,0.2005544,0.3872948,1.102085,0.2987128,297.5927,273.0483,336.3479,False
2,0.9888902,-0.07136181,0.1723345,-0.04262383,-1.5576,-4.616362,-2.550539,0.671164,1.216949,0.4200883,-0.9401816,0.0003280348,23.4,1,0.04904705,-0.08610421,-0.01602261,-0.5105168,-4.696232,0.1238037,0.7579778,1.431874,0.3576734,0.01336346,-0.0774971,-0.02232608,-1.030815,0.09637021,0.03700276,0.8283083,1.458456,0.2002096,0.3869284,1.10252,0.2988685,297.5365,273.232,336.2733,False
2,1.000001,-0.06706929,0.1542784,-0.0340015,-1.558171,-4.617358,-2.54993,0.671047,1.216991,0.4198518,-0.9405257,-0.03148502,23.4,1,0.03220664,-0.07874195,0.005478723,-0.5097999,-4.697875,0.125404,0.7578891,1.431905,0.3574622,0.009071983,-0.0806856,-0.02441301,-1.031138,0.09524249,0.03772474,0.8281476,1.458392,0.1998203,0.3866127,1.102907,0.2989681,297.482,273.4358,336.1589,False
2,1.011112,-0.05852579,0.1468484,-0.03183255,-1.558668,-4.618706,-2.549609,0.6709439,1.217038,0.4196057,-0.940677,-0.01361029,23.4,1,0.02916446,-0.05641529,0.01313107,-0.5093924,-4.697789,0.1250905,0.7577977,1.43193,0.3572211,0.01436764,-0.08068789,-0.02765211,-1.031579,0.09437817,0.03785337,0.8280679,1.458427,0.1995091,0.3862828,1.103239,0.2990092,297.4502,273.6279,336.0322,False
2,1.022224,-0.05638327,0.1404678,-0.03073365,-1.559174,-4.620065,-2.549006,0.6707321,1.217091,0.4193618,-0.9404506,0.02075117,23.4,1,0.02926008,-0.04152565,0.01644154,-0.509116,-4.697786,0.1246295,0.7576742,1.431985,0.3569999,0.01116761,-0.07214873,-0.02655218,-1.031614,0.09399734,0.0384398,0.8278515,1.458462,0.1991165,0.3859829,1.10351,0.2990022,297.4168,273.7617,335.9503,False
2,1.033335,-0.04679294,0.1394093,-0.03285532,-1.559661,-4.621572,-2.548809,0.6705927,1.217095,0.419163,-0.9406461,-0.01815135,22.2,1.2,0.02713308,-0.04686753,0.01961403,-0.5088688,-4.699301,0.1256951,0.7575288,1.431951,0.3567638,0.01230837,-0.06468602,-0.01911189,-1.031564,0.09347869,0.03853301,0.8276855,1.45845,0.1988521,0.385704,1.103722,0.2989495,297.4008,273.8642,335.8804,False
2,1.044446,-0.04997098,0.1308717,-0.03387584,-1.55994,-4.622721,-2.548137,0.6704539,1.217071,0.4189427,-0.9403249,0.02952423,22.2,1.2,0.01745912,-0.04352862,0.006938071,-0.5092342,-4.699889,0.1263404,0.7573968,1.431854,0.3565733,0.009154037,-0.04975079,-0.01802402,-1.031562,0.09364021,0.03839053,0.8275294,1.458311,0.1987681,0.3854161,1.103879,0.2988795,297.3999,273.9562,335.7999,False
2,1.055557,-0.04995857,0.1255382,-0.0349156,-1.560233,-4.623948,-2.547588,0.6702856,1.217057,0.4187679,-0.9406317,-0.02839378,22.2,1.2,0.02275385,-0.02427033,-0.006807498,-0.5097328,-4.698905,0.1250727,0.7572563,1.431826,0.3564146,0.009159531,-0.04122949,-0.01909792,-1.031805,0.09349919,0.03836577,0.827341,1.458263,0.1985278,0.385066,1.103992,0.2988252,297.4203,274.0377,335.7204,False
2,1.066668,-0.04780799,0.1170373,-0.03167365,-1.560601,-4.624958,-2.547194,0.6702037,1.216987,0.4185617,-0.940139,0.04528638,22.2,1.2,0.02703989,-0.026449,-0.0025925,-0.5095549,-4.699695,0.1252903,0.7571464,1.4318,0.3561563,0.007000331,-0.04227729,-0.02226661,-1.032044,0.09317322,0.03853541,0.8271598,1.458301,0.1983056,0.384718,1.10408,0.2988324,297.4162,274.1276,335.6457,False
2,1.077779,-0.04566695,0.1106723,-0.0273777,-1.561021,-4.625873,-2.546744,0.6700864,1.216914,0.4184031,-0.9401678,-0.00311715,22.2,1.2,0.0312831,-0.03072758,-0.002659311,-0.509638,-4.700731,0.1256871,0.7569983,1.431727,0.3560026,0.01127756,-0.03802231,-0.02124153,-1.032255,0.09286922,0.03842568,0.826959,1.458281,0.1980901,0.3843733,1.10415,0.2989014,297.4148,274.2111,335.6091,False
2,1.08889,-0.04992039,0.108577,-0.01777782,-1.561754,-4.626636,-2.546134,0.6699489,1.216824,0.4182053,-0.9403057,-0.01252215,20.8,1.1,0.03443191,-0.02642948,-0.01011029,-0.5100577,-4.701082,0.1255896,0.7568877,1.431691,0.3558469,0.01135897,-0.02840335,-0.01272972,-1.032077,0.09331223,0.03814499,0.8267045,1.45825,0.1977708,0.3840396,1.104223,0.2990288,297.4103,274.3073,335.584,False
2,1.100002,-0.04565784,0.1085861,-0.01671305,-1.562214,-4.627691,-2.545763,0.6698484,1.216699,0.4179909,-0.9402322,0.00681759,20.8,1.1,0.04826991,-0.02861698,-0.01023466,-0.5101749,-4.701788,0.1252399,0.7567894,1.431605,0.3556318,0.01465275,-0.0273201,-0.002102043,-1.031701,0.09317615,0.03784325,0.8265069,1.458194,0.1975141,0.3837615,1.104303,0.2991898,297.3882,274.44,335.5475,False
2,1.111113,-0.04777636,0.1022331,-0.008153237,-1.562913,-4.628284,-2.545208,0.669835,1.216602,0.4177947,-0.9400352,0.01793278,20.8,1.1,0.05146122,-0.0296954,-0.01026859,-0.5103421,-4.702497,0.1251699,0.7566707,1.431535,0.3555019,0.02102678,-0.02732791,-0.003222512,-1.031809,0.09289665,0.03765364,0.8262268,1.458156,0.1973078,0.3835031,1.104382,0.2993476,297.3694,274.5963,335.493,False
2,1.122224,-0.04458684,0.1023073,0.005693652,-1.563928,-4.628872,-2.544791,0.6697592,1.216502,0.417516,-0.940237,-0.01861602,20.8,1.1,0.04917574,-0.02847097,-0.02941672,-0.5113807,-4.702658,0.1249531,0.7564864,1.431401,0.3553369,0.0241902,-0.0198663,-0.009644654,-1.032097,0.09325112,0.03696974,0.8260405,1.45808,0.1970706,0.3832332,1.104461,0.2994581,297.357,274.7672,335.4254,False
2,1.133335,-0.03927235,0.1076723,0.01099341,-1.564934,-4.629827,-2.544515,0.6696339,1.21638,0.4172716,-0.9400564,0.0166213,20.4,1.2,0.03186506,-0.03242636,-0.06020293,-0.5131565,-4.703081,0.1255241,0.7563688,1.431328,0.3552375,0.02845822,-0.01773522,-0.008615828,-1.032153,0.09324712,0.03658704,0.8258997,1.458048,0.1969097,0.3829886,1.104541,0.2995131,297.3282,274.9121,335.36,False
2,1.144446,-0.03606888,0.106604,0.009938464,-1.565612,-4.630681,-2.544286,0.6695125,1.216207,0.4170499,-0.9401566,-0.009287031,18.3,0.5,0.03184862,-0.04737937,-0.05499199,-0.5136748,-4.705004,0.1267904,0.7562151,1.431274,0.3551354,0.03162553,-0.02413452,-0.0118293,-1.032369,0.09269226,0.03631833,0.8256745,1.458067,0.1971488,0.3828132,1.104633,0.2994925,297.3145,275.0744,335.2699,False
2,1.155557,-0.0381842,0.09705789,0.01851119,-1.566422,-4.630999,-2.5438,0.6694513,1.216046,0.4168577,-0.9402908,-0.01217794,18.3,0.5,0.03508377,-0.04208251,-0.05284694,-0.5142053,-4.705521,0.1267436,0.7560306,1.431219,0.355052,0.03048503,-0.02094629,-0.02141087,-1.032929,0.09255537,0.03612338,0.8254793,1.458042,0.1970367,0.3826379,1.104732,0.2993633,297.3104,275.2554,335.1434,False
2,1.166668,-0.0339139,0.09388894,0.02172557,-1.567244,-4.63161,-2.543604,0.6694322,1.215964,0.4166746,-0.9403185,-0.002458523,18.3,0.5,0.03090058,-0.02609614,-0.05056627,-0.5147097,-4.704528,0.1257515,0.7559003,1.431232,0.3549621,0.02732329,-0.01769881,-0.01818544,-1.032884,0.09320664,0.03555347,0.8252856,1.457976,0.1966178,0.3824197,1.10482,0.2991467,297.2887,275.3991,334.9979,False
2,1.17778,-0.02006442,0.09287282,0.02599699,-1.568158,-4.632185,-2.543826,0.6692485,1.215875,0.4164684,-0.9400303,0.02628668,18.3,0.5,0.03742215,-0.009132382,-0.04303246,-0.5148982,-4.703391,0.1241683,0.7557748,1.431141,0.3548021,0.02961165,-0.01448895,-9.712891E-05,-1.03228,0.09311796,0.03518409,0.8250955,1.457978,0.1964941,0.3821988,1.104878,0.2988912,297.2448,275.4951,334.8631,False
2,1.188891,-0.008333009,0.08439402,0.02924507,-1.568937,-4.632508,-2.544112,0.6690176,1.215776,0.4162481,-0.9402674,-0.0218837,15.4,0.3,0.03849539,-0.01662597,-0.03991058,-0.5154282,-4.704384,0.1243779,0.7556121,1.431193,0.3545628,0.02541617,-0.01446397,0.007391731,-1.031996,0.09308507,0.03504081,0.8248045,1.458122,0.1965744,0.3820425,1.104916,0.2986226,297.2284,275.5861,334.7333,False
2,1.200002,-0.0008260171,0.05675233,0.03685445,-1.569334,-4.631866,-2.54434,0.6688086,1.215707,0.4161055,-0.9406759,-0.0371855,15.4,0.3,0.02778148,-0.03364094,-0.03782665,-0.515964,-4.706242,0.1261649,0.7554858,1.431037,0.3545773,0.01903999,-0.01872203,0.009575724,-1.031949,0.09248146,0.03529834,0.8246366,1.458115,0.1967242,0.3819284,1.104946,0.2983663,297.2413,275.6782,334.6077,False
2,1.211113,0.003445823,0.05036297,0.03582604,-1.569844,-4.631953,-2.544472,0.6687392,1.21566,0.4158978,-0.9407105,-0.002911979,15.4,0.3,0.01716048,-0.02400159,-0.03873299,-0.516405,-4.706035,0.126142,0.7552953,1.431003,0.3544767,0.01471076,-0.02191794,0.002157954,-1.032181,0.09208345,0.03547357,0.8244628,1.458105,0.1966226,0.3817566,1.104943,0.2981287,297.2521,275.7856,334.4859,False
2,1.222224,0.0119773,0.04714845,0.02945845,-1.570203,-4.632228,-2.544901,0.668545,1.215661,0.4157534,-0.9405678,0.01299813,15.4,0.3,0.01513019,-0.01232722,-0.03224029,-0.5165872,-4.70553,0.1255545,0.7550559,1.430973,0.3544581,0.01257201,-0.02300078,0.002171164,-1.032268,0.09138917,0.03587544,0.8242668,1.458263,0.1967418,0.3815463,1.10489,0.2979015,297.2509,275.8719,334.4078,False
2,1.233335,0.02689657,0.04185176,0.02949131,4.712035,-4.632508,-2.545854,0.6682942,1.215595,0.4154272,-0.9403877,0.01628765,13,0,-0.002840484,-0.001689039,-0.0202967,-0.5166703,-4.705049,0.1256991,0.7545815,1.430946,0.3542686,-0.003368048,-0.003847959,0.003346337,-1.032222,0.09102618,0.03663977,0.8239548,1.458113,0.1967556,0.3813969,1.104794,0.2976559,297.254,275.9047,334.3884,False
2,1.244446,0.02689657,0.04185176,0.02949131,4.712035,-4.632508,-2.545854,0.6682942,1.215595,0.4154272,-0.9411164,-0.06680876,13,0,-0.002840484,-0.001689039,-0.0202967,-0.5166703,-4.705049,0.1256991,0.7545815,1.430946,0.3542686,-0.003368048,-0.003847959,0.003346337,-1.032222,0.09102618,0.03663977,0.8239548,1.458113,0.1967556,0.3812883,1.104667,0.29739,297.2943,275.9541,334.3474,False
2,1.255558,0.03436102,0.04074629,0.0199171,4.711369,-4.633092,-2.5468,0.6678139,1.215516,0.4151273,-0.9401593,0.08805079,13,0,-0.01651519,0.01211178,-0.006226075,-0.5162346,-4.703481,0.1249888,0.7540743,1.430925,0.3540056,-0.01196229,0.009972064,-0.004050931,-1.032506,0.09114455,0.0375266,0.8234048,1.458192,0.1962035,0.3811747,1.104493,0.2971184,297.3282,275.9839,334.2937,False
2,1.266669,0.03651163,0.02795543,0.01785407,4.711379,-4.632887,-2.547194,0.6676922,1.215462,0.4149959,-0.9407366,-0.05365022,13,0,-0.03241678,0.01210449,0.00349019,-0.515825,-4.70335,0.125808,0.7538195,1.430926,0.3538978,-0.01621953,0.01743539,-0.005087881,-1.032577,0.09168172,0.03756788,0.8232461,1.458199,0.1961224,0.3810928,1.104295,0.2968932,297.399,275.9619,334.2555,False
2,1.27778,0.03545595,0.02259525,0.01256044,4.711327,-4.632876,-2.547521,0.6675237,1.215441,0.4149215,-0.9405869,0.01415373,11.6,0,-0.02807709,0.02592178,0.005695386,-0.5155512,-4.701723,0.1244636,0.7536067,1.430934,0.3537314,-0.01515853,0.02168742,-0.006170642,-1.032724,0.09202766,0.03755616,0.8231524,1.457927,0.195699,0.3808413,1.104067,0.2967004,297.4731,276.05,334.164,False
2,1.288891,0.03974296,0.009804116,0.01049491,4.711546,-4.632545,-2.548113,0.6672875,1.215366,0.4147592,-0.9402839,0.02752054,11.6,0,-0.03019044,0.02591432,0.00784307,-0.5153472,-4.701159,0.124388,0.7533853,1.4309,0.3535964,-0.01934536,0.03128324,-0.0008188539,-1.032541,0.09272555,0.03741954,0.8232915,1.457796,0.195755,0.3806326,1.103832,0.2965558,297.5089,276.0664,334.1637,False
2,1.300002,0.04402737,0.0002301233,0.01268366,4.711535,-4.632027,-2.54884,0.6669852,1.215351,0.4146142,-0.9401428,0.01264516,11.6,0,-0.03878598,0.02067181,0.001479523,-0.5155811,-4.70109,0.1250754,0.7531991,1.430836,0.3534884,-0.02042948,0.03447444,-0.004010871,-1.03269,0.09320891,0.0373756,0.8232465,1.457717,0.1956034,0.3805237,1.103601,0.2964473,297.5372,276.0295,334.2115,False
2,1.311113,0.03659527,-0.01256552,0.0138114,4.711782,-4.631409,-2.548983,0.6667075,1.215267,0.4144926,-0.9403664,-0.02058926,11.6,0,-0.03994834,0.01970616,-0.01023383,-0.516005,-4.700377,0.1249057,0.7529006,1.430771,0.3533771,-0.01617545,0.04085679,-0.006183671,-1.032809,0.09400679,0.03701075,0.8231515,1.457672,0.1955442,0.3804388,1.103378,0.296365,297.577,275.9973,334.2531,False
2,1.322224,0.03873163,-0.01467649,0.0170205,4.711662,-4.631041,-2.549517,0.666469,1.215214,0.4143581,-0.9404863,-0.01075045,11.6,0,-0.04103998,0.01545764,-0.0113228,-0.5161883,-4.700261,0.125326,0.7527388,1.430717,0.3532724,-0.0172304,0.0440356,-0.00618103,-1.032881,0.09435406,0.03700382,0.8229197,1.4578,0.1956868,0.3803172,1.103149,0.2962715,297.6075,275.9736,334.3094,False
2,1.333336,0.03980874,-0.02003246,0.01065977,4.711947,-4.630789,-2.549999,0.6661638,1.215185,0.4142292,-0.9398764,0.05576176,10.4,0.8,-0.03999753,0.0004952475,-0.00611877,-0.5161142,-4.70134,0.1266911,0.7525159,1.430706,0.3532534,-0.01412117,0.04399832,-0.01580389,-1.033493,0.09456166,0.03705655,0.8228592,1.457705,0.1955667,0.380152,1.102908,0.296129,297.6358,275.9564,334.3582,False
2,1.344447,0.03555416,-0.02216544,0.01066896,4.711998,-4.63053,-2.550272,0.6659506,1.215173,0.4140844,-0.9401827,-0.02847136,10.4,0.8,-0.04323141,0.003752902,-0.01246006,-0.5164183,-4.70101,0.1269835,0.7523227,1.430639,0.3531883,-0.01312483,0.04612558,-0.02433061,-1.033933,0.09537299,0.03675961,0.822629,1.457818,0.1953368,0.3799621,1.102665,0.2959206,297.6742,275.9117,334.4063,False
2,1.355558,0.03129734,-0.02112239,0.007467268,4.712092,-4.630426,-2.550547,0.6656798,1.21513,0.4138894,-0.9401603,0.002348985,10.4,0.8,-0.04008085,0.001645178,-0.01675698,-0.5166916,-4.700896,0.1272647,0.7521067,1.430601,0.3530583,-0.0173495,0.04398714,-0.02109478,-1.033982,0.0955425,0.03682806,0.8225462,1.457586,0.195255,0.3797794,1.102443,0.2956592,297.7141,275.8707,334.4187,False
2,1.366669,0.03129145,-0.01791234,0.01064949,4.711917,-4.630176,-2.550909,0.6654578,1.215116,0.4137478,-0.9399318,0.02082864,10.4,0.8,-0.04013297,-0.00258337,-0.02105023,-0.5170868,-4.701155,0.1279308,0.751869,1.430563,0.3529701,-0.01629337,0.03865883,-0.02109836,-1.034207,0.0958469,0.03679556,0.8224161,1.457558,0.1951752,0.3795941,1.102237,0.2953737,297.7498,275.794,334.4418,False
2,1.37778,0.03235956,-0.01788095,0.01704456,4.711648,-4.6297,-2.551379,0.6652112,1.215003,0.4136126,-0.9399089,0.001916491,9.2,3.6,-0.04652601,0.001723561,-0.02309441,-0.5173531,-4.700656,0.1282858,0.7516154,1.430582,0.3529055,-0.01836168,0.04291934,-0.01363686,-1.034233,0.09634917,0.03692313,0.822246,1.457808,0.1952281,0.3794282,1.102067,0.2950889,297.7872,275.7367,334.4531,False
2,1.388891,0.02381335,-0.008280045,0.02231403,4.711205,-4.629698,-2.551286,0.6650127,1.214998,0.4135079,-0.9400053,-0.008799937,9.2,3.6,-0.05392969,0.01239872,-0.02188807,-0.5174959,-4.699564,0.1281918,0.7513823,1.430562,0.3528073,-0.0162222,0.04291674,-0.01258954,-1.034356,0.0968842,0.03676041,0.8220942,1.457801,0.1951475,0.3792467,1.101932,0.2948137,297.8167,275.7039,334.4533,False
2,1.400002,0.01420762,0.0002522171,0.02759194,4.710649,-4.629663,-2.551128,0.6648079,1.214926,0.4133577,-0.9401214,-0.01054141,9.2,3.6,-0.04849176,0.01227051,-0.008086191,-0.5171129,-4.699404,0.1283873,0.7511455,1.430626,0.3527634,-0.01730751,0.03970325,-0.01471405,-1.034686,0.09698833,0.03685895,0.8219979,1.457868,0.1951897,0.3790847,1.101835,0.2945533,297.8276,275.7088,334.4255,False
2,1.411114,0.005685609,0.001306096,0.02864971,4.71035,-4.62947,-2.550995,0.6646172,1.214908,0.4132631,-0.9395776,0.04982049,9.2,3.6,-0.05379888,0.006928705,-0.002756542,-0.5169739,-4.699593,0.1293388,0.750917,1.430548,0.3525956,-0.02151825,0.04291178,-0.009355143,-1.034566,0.09766398,0.03689463,0.8218462,1.45787,0.195128,0.3789356,1.101751,0.294296,297.8238,275.744,334.3679,False
2,1.422225,-0.002843932,0.004502632,0.03182577,4.709876,-4.629352,-2.550675,0.6644536,1.214868,0.4131444,-0.9394876,0.007795648,9.2,3.6,-0.05169072,0.01120732,-0.007001015,-0.5171763,-4.699215,0.1295721,0.7507331,1.430605,0.3525336,-0.02152589,0.04289727,-0.01041726,-1.034658,0.09798049,0.03696388,0.8217084,1.457681,0.1951036,0.3787768,1.101691,0.294056,297.8554,275.7838,334.2995,False
2,1.433336,-0.007109426,0.00660998,0.02969594,4.709465,-4.62916,-2.550475,0.6642828,1.214801,0.4129734,-0.9395664,-0.007145013,7.8,4.9,-0.05168759,0.02082606,-0.01118758,-0.517327,-4.697991,0.1291053,0.7504851,1.430588,0.3524904,-0.02044587,0.03435721,-0.007232208,-1.034825,0.09774427,0.03725576,0.8216016,1.45773,0.1951091,0.3785912,1.101673,0.293837,297.8831,275.8201,334.2453,False
2,1.444447,-0.00710844,0.005561715,0.03289746,4.709053,-4.628914,-2.550396,0.6640797,1.214768,0.4128623,-0.9394503,0.01072731,7.8,4.9,-0.04738401,0.01862927,-0.004846798,-0.5171571,-4.697751,0.129265,0.7503086,1.430584,0.3524194,-0.0204281,0.03329846,-0.005100286,-1.034795,0.09820686,0.03722566,0.8214768,1.457887,0.1948895,0.3784062,1.101712,0.293642,297.8906,275.8364,334.2137,False
2,1.455558,-0.009233152,0.002350656,0.03186188,4.708717,-4.628479,-2.550204,0.6638927,1.214756,0.4127848,-0.9396154,-0.01517328,7.8,4.9,-0.04525094,0.01968187,-0.004853056,-0.5171443,-4.697405,0.1294286,0.7502091,1.430542,0.3523126,-0.01940532,0.02476151,-0.00937028,-1.035202,0.09805759,0.03739557,0.8214109,1.457834,0.1947203,0.3782184,1.101808,0.2934626,297.8771,275.8892,334.1637,False
2,1.466669,-0.01349878,0.004478683,0.03291447,4.708315,-4.628362,-2.549905,0.6636739,1.21472,0.4126914,-0.9398029,-0.01697009,7.8,4.9,-0.03992185,0.01003204,0.0003572946,-0.5169819,-4.697873,0.1300946,0.7500592,1.430526,0.3522458,-0.01412089,0.0204906,-0.01366803,-1.035439,0.09822444,0.0372768,0.8214492,1.457693,0.1947699,0.3780223,1.101944,0.2932769,297.8393,275.9596,334.1054,False
2,1.47778,-0.01456286,0.001272938,0.03080207,4.708103,-4.628146,-2.549627,0.6634418,1.214712,0.4125063,-0.9397433,0.005624737,7.5,5.3,-0.03789571,-0.009128597,-0.002999411,-0.51722,-4.699392,0.1317245,0.7499739,1.430488,0.352241,-0.00985036,0.01729371,-0.01263856,-1.035564,0.09843456,0.03706188,0.8213919,1.457671,0.1945956,0.3778277,1.102099,0.2930764,297.7946,276.0169,334.041,False
2,1.488891,-0.01456388,0.002321228,0.02760054,4.707905,-4.628092,-2.549459,0.6631855,1.214685,0.4124105,-0.9396586,0.007695816,5.7,7.6,-0.03166055,-0.02184055,-0.01593088,-0.5179209,-4.70056,0.1328997,0.7498423,1.430493,0.3522291,-0.008860471,0.01515278,-0.02116743,-1.036087,0.09858823,0.03705496,0.8213158,1.457633,0.1945095,0.3776382,1.102255,0.2928584,297.7556,276.0531,333.978,False
2,1.500003,-0.01348057,-0.007261492,0.02872459,4.707747,-4.627482,-2.549343,0.6629387,1.214724,0.4123251,-0.9397103,-0.004746398,5.7,7.6,-0.02856254,-0.03245356,-0.02242777,-0.5184514,-4.701673,0.1341152,0.7495837,1.430473,0.3521562,-0.00997834,0.02048597,-0.02861781,-1.036594,0.09931074,0.03682433,0.8212187,1.457424,0.1943712,0.3774118,1.102397,0.2926304,297.728,276.092,333.9137,False
2,1.511114,-0.01879602,-0.01048607,0.02554802,4.707675,-4.627164,-2.549015,0.6626494,1.214736,0.4121928,-0.9398594,-0.0135519,5.7,7.6,-0.03611051,-0.03982283,-0.02988068,-0.5191401,-4.70296,0.1358891,0.7493796,1.43048,0.3521099,-0.00681155,0.01516395,-0.03076099,-1.036877,0.09951514,0.03670608,0.8210502,1.457406,0.194272,0.3771498,1.102524,0.2923916,297.7033,276.1073,333.8787,False
2,1.522225,-0.01558814,-0.01798432,0.01706673,4.708014,-4.626826,-2.548884,0.6624295,1.214771,0.4120798,-0.9399478,-0.00798843,5.7,7.6,-0.04983871,-0.02063396,-0.02429593,-0.5191113,-4.702098,0.1362465,0.7491355,1.430405,0.3519859,-0.008906077,0.01517507,-0.02648325,-1.037038,0.09975043,0.03674763,0.8210236,1.457412,0.1941774,0.3768789,1.102633,0.2921621,297.682,276.109,333.8428,False
2,1.533336,-0.01344019,-0.02440759,0.01071411,4.708294,-4.626432,-2.548835,0.6621955,1.214729,0.4119503,-0.9397603,0.01722716,3,8.7,-0.04750835,-0.003720481,-0.008201735,-0.5185239,-4.701163,0.135859,0.7489413,1.430335,0.3518586,-0.003466334,0.02156887,-0.01588621,-1.036888,0.1002864,0.0361873,0.8208832,1.457571,0.1942716,0.3766344,1.102729,0.2919336,297.6686,276.1025,333.8276,False
2,1.544447,-0.01130508,-0.02653974,0.009660843,4.708427,-4.626095,-2.548769,0.6619505,1.214726,0.4118586,-0.939951,-0.01758604,3,8.7,-0.04740644,0.01008378,-0.002769724,-0.5183007,-4.700192,0.1354774,0.7488741,1.430308,0.3517597,-0.003444392,0.0247768,-0.01375381,-1.036876,0.1008964,0.0359343,0.820683,1.457469,0.1941984,0.3763847,1.102811,0.2916999,297.6593,276.0721,333.8385,False
2,1.555558,-0.01237348,-0.02760769,0.01072526,4.708594,-4.62571,-2.548512,0.6619061,1.214705,0.4116337,-0.9400666,-0.01037951,3,8.7,-0.04738091,0.01005998,0.0004266761,-0.5181963,-4.700049,0.1358897,0.7487224,1.430287,0.3516781,-0.01203426,0.02052804,-0.02006543,-1.037308,0.1010572,0.03639716,0.8206378,1.457427,0.1940949,0.3761691,1.102881,0.2914769,297.6292,276.003,333.8783,False
2,1.566669,-0.01665247,-0.01803977,0.008542348,4.708519,-4.625817,-2.548197,0.6617283,1.214656,0.4115574,-0.9400564,0.001010254,3,8.7,-0.04101566,0.0004378967,0.000289175,-0.5184605,-4.700931,0.1366937,0.7485865,1.430475,0.3513703,-0.008931926,0.01305593,-0.0296721,-1.037973,0.1009753,0.03643151,0.8205492,1.45741,0.1939855,0.3759708,1.102915,0.2912686,297.5942,275.9567,333.893,False
2,1.577781,-0.0145281,-0.01165127,0.007444673,4.70843,-4.625832,-2.548184,0.6615267,1.214638,0.4114599,-0.939862,0.01776279,2.7,9.1,-0.03475149,-0.0155139,-0.00841826,-0.5191268,-4.702522,0.1381283,0.7485201,1.430411,0.3512633,-0.00252028,0.01305099,-0.02759098,-1.03812,0.1012184,0.03608423,0.8204486,1.457401,0.194005,0.3758127,1.102916,0.2910776,297.5779,275.9452,333.8964,False
2,1.588892,-0.01880816,-0.002066335,0.00845759,4.708141,-4.626021,-2.547832,0.6613897,1.2146,0.411397,-0.9397923,0.006187948,1.6,10,-0.02104544,-0.02078363,-0.02348375,-0.5199566,-4.703138,0.1384372,0.748361,1.430415,0.3511605,-0.006711272,0.01732692,-0.02010262,-1.038093,0.1015868,0.0361074,0.8203428,1.457382,0.1939054,0.3757315,1.102896,0.2908858,297.579,275.9346,333.9129,False
2,1.600003,-0.01669967,0.007538714,0.01160426,4.707736,-4.626143,-2.547665,0.6612586,1.214659,0.4112873,-0.9401033,-0.02841517,1.6,10,-0.01780272,-0.0133529,-0.02239523,-0.5202357,-4.702909,0.1382322,0.7481965,1.430445,0.3510551,-0.01202068,0.01307324,-0.01685403,-1.038112,0.1015365,0.0364917,0.8201821,1.457358,0.1938004,0.3756055,1.102859,0.2907088,297.6068,275.9174,333.897,False
2,1.611114,-0.01138257,0.0128675,0.0105134,4.707481,-4.626316,-2.547751,0.6611216,1.214677,0.4111969,-0.9398061,0.02738993,1.6,10,-0.0153878,0.001343553,0.005396396,-0.5191705,-4.702057,0.1376479,0.7480687,1.430531,0.3509724,-0.009926159,0.00773991,-0.02006233,-1.038429,0.1014358,0.03657266,0.8200833,1.457343,0.1937125,0.3754352,1.102821,0.2905684,297.632,275.9101,333.8702,False
2,1.622225,-0.009231754,0.003273503,0.008432585,4.707618,-4.626135,-2.547735,0.6610117,1.214743,0.4110513,-0.9399627,-0.01452945,1.6,10,-0.01747545,-0.006172753,0.01387823,-0.5187976,-4.70293,0.1385896,0.7480263,1.430333,0.3510706,-0.01317114,0.002435501,-0.02216598,-1.038837,0.1015778,0.03705949,0.8199381,1.457517,0.1933873,0.3752514,1.10281,0.2904813,297.6699,275.9404,333.8302,False
2,1.633336,-0.01455156,0.004265599,-0.003295642,4.707948,-4.626422,-2.547456,0.6608729,1.214829,0.4109745,-0.9402391,-0.02513771,1,9.7,-0.02387432,-0.013626,0.0170722,-0.5185339,-4.703882,0.1399243,0.7478352,1.430382,0.3510036,-0.01963872,0.006694019,-0.03169554,-1.039371,0.1018005,0.03740143,0.8198284,1.457222,0.1934748,0.3750755,1.102858,0.2904343,297.701,275.9897,333.8072,False
2,1.644447,-0.01774437,0.003177114,-0.006486803,4.708091,-4.626515,-2.547149,0.660746,1.214859,0.410913,-0.9401497,0.008360023,1,9.7,-0.02071926,-0.007188789,0.008576868,-0.5186986,-4.703714,0.1398828,0.7477529,1.430344,0.3510132,-0.01754045,0.008816689,-0.03597667,-1.039909,0.102021,0.03741289,0.8197324,1.457177,0.1933899,0.3749208,1.102953,0.290409,297.6879,276.0345,333.806,True
2,1.655559,-0.02091208,-0.007500672,-0.009622023,4.708431,-4.626214,-2.546903,0.6605499,1.214902,0.4109139,-0.9398589,0.02650322,1,9.7,-0.01855576,-0.002941653,0.009653542,-0.5185856,-4.703376,0.1396213,0.7475429,1.430299,0.3510137,-0.01963517,0.005639188,-0.03062469,-1.039984,0.1021053,0.03768612,0.8196453,1.457097,0.1934295,0.3747908,1.103073,0.2903754,297.6539,276.0303,333.8457,True
2,1.66667,-0.01983099,-0.01497827,-0.01384312,4.708918,-4.62603,-2.546707,0.660368,1.214947,0.4108877,-0.9398104,0.004211357,1,9.7,-0.0163611,-0.004080617,0.0181501,-0.5180823,-4.70364,0.1399784,0.7474546,1.43027,0.3509376,-0.0174366,-0.0018119,-0.02104771,-1.039898,0.1017776,0.03797242,0.819555,1.457056,0.1933279,0.3746337,1.103205,0.2903476,297.6252,275.9938,333.876,True
2,1.677781,-0.0166295,-0.01818602,-0.01808407,4.709295,-4.626018,-2.546597,0.6601912,1.214958,0.4109793,-0.9398892,-0.007214892,1,9.7,-0.01851443,-0.007251155,0.01707878,-0.5179374,-4.703896,0.1404876,0.7473513,1.430269,0.3507919,-0.01741794,-0.003912391,-0.01678795,-1.039993,0.1020854,0.03820251,0.8194393,1.457227,0.1930106,0.374448,1.103344,0.290336,297.5938,275.9761,333.8823,True
2,1.688892,-0.009178956,-0.01497005,-0.01703353,4.709452,-4.626052,-2.546764,0.6599737,1.214983,0.4109569,-0.9399627,-0.006613386,0.5,8.4,-0.01861994,-0.0242628,0.01268854,-0.5181063,-4.705683,0.1422823,0.747267,1.430282,0.3507633,-0.01418993,-0.00604423,-0.01255166,-1.039971,0.1019111,0.03833967,0.8193724,1.457204,0.192883,0.3742343,1.10348,0.2903299,297.5543,275.9398,333.9157,True
2,1.700003,-0.01238908,-0.008599678,-0.01920326,4.709667,-4.626294,-2.546459,0.6599458,1.214983,0.4109328,-0.9400586,-0.008743865,0.5,8.4,-0.009014176,-0.02539412,0.01580244,-0.5178133,-4.706408,0.1427188,0.7471856,1.430371,0.3506651,-0.01215438,-0.004969178,-0.02109575,-1.040582,0.102274,0.03856923,0.8193464,1.457177,0.1927736,0.3740156,1.103601,0.2903307,297.5088,275.8829,333.9592,True
2,1.711114,-0.01453179,-7.062173E-05,-0.01712462,4.709682,-4.626576,-2.546307,0.6597956,1.215067,0.4109752,-0.9403329,-0.02502953,0.5,8.4,-0.009069075,-0.01999476,0.006255785,-0.518086,-4.706349,0.142746,0.7470339,1.430362,0.3506191,-0.01531834,-0.0006967625,-0.0189417,-1.040713,0.1024983,0.03865898,0.819243,1.457291,0.1928272,0.3737978,1.103694,0.2903636,297.4719,275.8531,333.9654,True
2,1.722225,-0.01986033,0.0009843339,-0.01713193,4.709814,-4.62672,-2.545897,0.6596724,1.215105,0.4109719,-0.9398732,0.04223506,0.5,8.4,-0.01866787,-0.01246276,0.002131084,-0.518176,-4.705948,0.1430557,0.7468373,1.430354,0.3506017,-0.01320572,0.00357422,-0.02004058,-1.041121,0.1029827,0.03871331,0.8191403,1.457202,0.1927874,0.3736017,1.103745,0.2904264,297.4409,275.8728,333.9594,True
2,1.733337,-0.02413323,0.008446742,-0.01504493,4.709713,-4.62712,-2.545564,0.6595549,1.215197,0.4109914,-0.939968,-0.009064268,0.5,8.4,-0.02071133,-0.003980637,0.008604349,-0.5178224,-4.705511,0.1429846,0.7467061,1.430384,0.3505404,-0.01957295,0.008915283,-0.01892747,-1.041278,0.1033562,0.03889227,0.8190341,1.457273,0.1928122,0.3734735,1.103764,0.2905192,297.4457,275.8848,333.9713,True
2,1.744448,-0.0241442,0.01481579,-0.01934008,4.709815,-4.627644,-2.545272,0.6594009,1.215247,0.4109845,-0.9397411,0.02086958,0.5,8.4,-0.01731113,0.008649958,0.02785208,-0.5166591,-4.704588,0.1423023,0.7466573,1.430415,0.3504837,-0.01532396,0.003592677,-0.01789762,-1.041495,0.1033524,0.03910373,0.8188602,1.457222,0.1927161,0.3733394,1.103774,0.2906351,297.4795,275.881,333.9975,True
2,1.755559,-0.02307919,0.01692158,-0.02362154,4.710176,-4.628109,-2.5451,0.659253,1.215285,0.4109163,-0.939813,-0.006743777,0.5,8.4,-0.01517985,-0.0009856066,0.03309405,-0.5161291,-4.705476,0.1431865,0.7465382,1.430436,0.3503175,-0.01530679,-0.0006700931,-0.01576484,-1.041654,0.1031382,0.03928482,0.8187597,1.457028,0.1927702,0.3731831,1.103799,0.2907595,297.519,275.8735,334.0362,True
2,1.76667,-0.02203278,0.02651683,-0.02260694,4.709991,-4.628748,-2.544875,0.65908,1.215374,0.4109693,-0.9398881,-0.006744063,0.5,8.4,-0.01203339,-0.01485524,0.03402839,-0.5158245,-4.706903,0.1444669,0.7464714,1.43047,0.3502805,-0.01535178,-0.006000864,-0.02002043,-1.042006,0.1028742,0.03961559,0.8186692,1.456986,0.1926968,0.3729901,1.103871,0.2908919,297.549,275.8847,334.0536,True
2,1.777781,-0.02416701,0.02650484,-0.02367483,4.710101,-4.629103,-2.544452,0.6589408,1.215404,0.410917,-0.9400277,-0.01268881,0.5,8.4,-0.01210892,-0.01692149,0.02656088,-0.5157467,-4.707199,0.1449532,0.746381,1.430409,0.3501933,-0.01751759,-0.01130943,-0.02213393,-1.042426,0.1028197,0.04002891,0.8185495,1.456942,0.1925857,0.3727419,1.103987,0.2910335,297.5363,275.8972,334.0761,True
2,1.788892,-0.02735387,0.02016371,-0.01298899,4.709887,-4.62901,-2.544049,0.6587459,1.215504,0.4109232,-0.9399915,0.003442745,2,7.1,-0.01218742,-0.02540296,0.02117007,-0.5157659,-4.708354,0.1460755,0.7463338,1.430432,0.3501644,-0.01215396,-0.008114787,-0.01898573,-1.042497,0.1029646,0.03985554,0.8184942,1.456998,0.1925845,0.372467,1.104133,0.2911842,297.5,275.9124,334.0911,True
2,1.800003,-0.02944624,0.0009197029,-0.02353468,4.710591,-4.628812,-2.54373,0.6586579,1.215638,0.4108994,-0.9397954,0.01787698,2,7.1,-0.0133424,-0.03494954,0.01577312,-0.5159512,-4.70986,0.1476915,0.7463099,1.430504,0.3501699,-0.01116807,-0.005983001,-0.02752253,-1.043104,0.1031984,0.03997272,0.8184123,1.456964,0.1925018,0.3721844,1.104308,0.2913549,297.4702,275.9788,334.0551,True
2,1.811115,-0.03260728,-0.01402595,-0.02878796,4.711602,-4.628452,-2.543209,0.6584554,1.215742,0.4109068,-0.9398114,-0.001625983,2,7.1,-0.01231936,-0.03063607,0.008340221,-0.5161595,-4.710198,0.1480688,0.7462461,1.430547,0.3501148,-0.01543167,-0.004912496,-0.02855596,-1.043493,0.1031754,0.04024276,0.8183788,1.456903,0.192384,0.3719148,1.104505,0.2915164,297.4383,276.046,334.0487,True
2,1.822226,-0.03578467,-0.02364947,-0.03299971,4.712356,-4.628211,-2.542697,0.6583175,1.215839,0.4108126,-0.9399217,-0.01001291,2,7.1,-0.01002273,-0.01688773,0.02014047,-0.5155501,-4.709789,0.1475157,0.7462131,1.430675,0.3498287,-0.01759159,-0.008113026,-0.03172734,-1.043926,0.1028685,0.04064889,0.8183635,1.456765,0.1924798,0.3716874,1.104733,0.2916254,297.4097,276.0818,334.0784,True
2,1.833337,-0.0325947,-0.019381,-0.03302542,-1.57047,-4.62843,-2.542483,0.6581706,1.215899,0.4107878,-0.9397507,0.01574774,2.2,7.5,-0.01097109,-0.009507718,0.03085798,-0.5148087,-4.709683,0.1475775,0.7461571,1.430713,0.3497448,-0.01646795,-0.01022921,-0.02534253,-1.044001,0.1028137,0.04070136,0.8181844,1.456878,0.1924045,0.371529,1.104978,0.2916614,297.3474,275.992,334.195,True
2,1.844448,-0.03687168,-0.01190963,-0.0288053,-1.570365,-4.628608,-2.541918,0.6579751,1.215984,0.4107699,-0.9397635,-0.001302578,3.3,6.9,-0.01206434,-0.02124215,0.03290031,-0.5145754,-4.711208,0.1490212,0.746047,1.430708,0.3497362,-0.01750264,-0.008093563,-0.02213996,-1.044129,0.1027852,0.04093012,0.8181034,1.45688,0.1923389,0.3713599,1.105208,0.2916264,297.2794,275.8566,334.3137,True
2,1.855559,-0.04223931,0.00620483,-0.02677242,-1.570601,-4.629338,-2.541228,0.6578629,1.21604,0.4107552,-0.9400847,-0.02933758,3.3,6.9,-0.01218823,-0.02326325,0.01796483,-0.5150591,-4.711926,0.1497061,0.7459147,1.430742,0.3496258,-0.01960137,-0.007019665,-0.01892665,-1.044228,0.1027786,0.04118365,0.8180004,1.456767,0.1923959,0.3711827,1.105421,0.2915362,297.2285,275.7754,334.3621,True
2,1.86667,-0.04548752,0.03284191,-0.02478453,4.712056,-4.630486,-2.540606,0.6577054,1.216076,0.410732,-0.9397789,0.02821313,3.3,6.9,-0.01112057,-0.008297218,0.01061275,-0.5151662,-4.711065,0.1490664,0.7457832,1.430761,0.3495755,-0.01956192,-0.01021016,-0.01359708,-1.044198,0.1025224,0.04154371,0.8179055,1.456752,0.1923466,0.370982,1.105605,0.2914337,297.1949,275.7554,334.3277,True
2,1.877781,-0.04978023,0.04562189,-0.02485874,4.711825,-4.631465,-2.539823,0.6574917,1.216138,0.4107008,-0.9396378,0.01262876,3.3,6.9,-0.006765265,0.0001471108,0.01810136,-0.5146287,-4.710677,0.1486808,0.7457299,1.430768,0.3495471,-0.01738058,-0.01127476,-0.01041584,-1.044191,0.1023357,0.04136102,0.8177506,1.456634,0.1924043,0.3707411,1.10577,0.2913521,297.1953,275.761,334.2723,True
2,1.888893,-0.04767775,0.06052869,-0.02706808,4.711441,-4.632677,-2.539362,0.6573082,1.216213,0.410707,-0.939731,-0.008585612,5.1,5.3,-0.008777387,0.007534397,0.02882354,-0.5139368,-4.710158,0.1483756,0.7456263,1.430693,0.3496058,-0.01950031,-0.01020473,-0.009333728,-1.044264,0.102247,0.04169871,0.817649,1.456593,0.1923721,0.3704683,1.105947,0.2913389,297.2114,275.8068,334.1896,True
2,1.900004,-0.04767775,0.06052869,-0.02706808,4.711441,-4.632677,-2.539362,0.6573082,1.216213,0.410707,-0.9396218,0.01011277,5.1,5.3,-0.008777387,0.007534397,0.02882354,-0.5139368,-4.710158,0.1483756,0.7456263,1.430693,0.3496058,-0.01950031,-0.01020473,-0.009333728,-1.044264,0.102247,0.04169871,0.817649,1.456593,0.1923721,0.3701263,1.106151,0.2914301,297.2197,275.8943,334.0976,True
2,1.911115,-0.04770067,0.07225922,-0.02500407,4.711001,-4.633782,-2.538841,0.6571436,1.216309,0.4106019,-0.9404091,-0.07208946,5.1,5.3,-0.00983806,0.007535253,0.02989929,-0.5135363,-4.710072,0.1485162,0.7455496,1.430748,0.3496494,-0.02061207,-0.005938854,-0.01465463,-1.044614,0.1025278,0.04197062,0.817516,1.456723,0.1921921,0.3697738,1.106401,0.2916279,297.1894,275.9679,334.0762,True
2,1.922226,-0.04878257,0.08182018,-0.02931591,4.710695,-4.635051,-2.538254,0.6569631,1.216378,0.4105799,-0.9400261,0.03567513,5.1,5.3,-0.009968308,-0.003036124,0.01916613,-0.5137866,-4.710854,0.1493221,0.7454715,1.43077,0.3496203,-0.0206543,-0.01233556,-0.01891254,-1.045036,0.102114,0.04230325,0.8174379,1.456677,0.1920741,0.3695519,1.106674,0.291888,297.104,276.0622,334.0657,True
2,1.933337,-0.05410506,0.08287539,-0.03039066,4.71046,-4.636115,-2.53756,0.656795,1.216421,0.4106002,-0.9399004,0.01110187,5.1,5.3,-0.005661943,-0.007375099,0.02655855,-0.513254,-4.711645,0.1498707,0.7453674,1.430907,0.3495696,-0.01637457,-0.01340751,-0.01681164,-1.04507,0.1018818,0.04243081,0.8173989,1.456689,0.1920388,0.3692763,1.106926,0.2921888,297.072,276.2167,333.9922,True
2,1.944448,-0.0700689,0.07752768,-0.02930777,4.710333,-4.636937,-2.536338,0.656584,1.21647,0.4105918,-0.9398338,0.006006525,5.1,5,-0.0003458366,0.001164284,0.02125963,-0.5130708,-4.711023,0.1491911,0.7452154,1.430971,0.3494713,-0.01204457,-0.009154634,-0.011519,-1.044935,0.1018134,0.04222841,0.8172779,1.456692,0.1920702,0.3689292,1.107168,0.2925107,297.066,276.3678,333.9388,True
2,1.955559,-0.07326264,0.07645626,-0.02930311,4.710136,-4.637797,-2.535414,0.6563973,1.216528,0.4105988,-0.9397433,0.008244283,5.7,3.2,-0.001478964,0.005510875,0.01064824,-0.513263,-4.710527,0.1488052,0.7451332,1.431002,0.3494365,-0.01198176,-0.009147123,-0.004062182,-1.044736,0.1017056,0.04240977,0.8171928,1.456699,0.1920414,0.3685267,1.107411,0.2928526,297.0494,276.4781,333.9086,True
2,1.966671,-0.08177707,0.07110487,-0.03034431,4.710137,-4.638483,-2.534202,0.6563174,1.216664,0.4106321,-0.9392511,0.04500434,5.7,3.2,-0.003600258,0.001227082,0.01382833,-0.5130452,-4.711095,0.1494079,0.7451,1.43104,0.3494012,-0.01627279,-0.009134827,-0.006155687,-1.04489,0.1017166,0.04291231,0.817046,1.456863,0.1918194,0.3681048,1.107663,0.2932075,297.0164,276.5779,333.8879,True
2,1.977782,-0.09135925,0.06790172,-0.0281997,4.709959,-4.639148,-2.532849,0.6561406,1.216759,0.4106405,-0.9395605,-0.02861778,5.7,3.2,0.005998691,-0.006309796,0.01902049,-0.5127038,-4.711844,0.1496896,0.7450606,1.431069,0.3493736,-0.01417652,-0.01340289,-0.009365073,-1.045125,0.1013664,0.04318582,0.8169487,1.456855,0.1917808,0.36766,1.107947,0.2935459,296.9917,276.6684,333.8866,True
2,1.988893,-0.09241357,0.06255919,-0.03030518,4.710054,-4.639799,-2.531806,0.6559135,1.216885,0.4105442,-0.9393854,0.01636456,5.7,3.2,0.005925723,-0.0147953,0.01469513,-0.5127256,1.570551,0.150344,0.74503,1.431012,0.3492684,-0.01419453,-0.01126789,-0.01256961,-1.045492,0.1014173,0.04323695,0.816849,1.456765,0.1918046,0.3672603,1.108293,0.2938551,296.9557,276.7581,333.8782,True
2,2.000004,-0.1009502,0.06999978,-0.03034759,4.709734,-4.640849,-2.530382,0.6557649,1.21697,0.4105024,-0.9392927,0.008318333,5.5,3.7,0.00482654,-0.0126198,0.00939374,-0.5128412,1.570409,0.1504611,0.7450126,1.431038,0.3492553,-0.01315668,-0.01446422,-0.01577804,-1.04588,0.101186,0.043405,0.8166893,1.456959,0.1916926,0.3669353,1.108718,0.2941243,296.914,276.8276,333.8727,True
2,2.011115,-0.106304,0.08278994,-0.02722811,4.709201,-4.642167,-2.529043,0.6556627,1.21705,0.4104147,-0.9396671,-0.03422753,5.5,3.7,0.01448321,-0.01058554,0.01679337,-0.5123491,1.570221,0.1501267,0.7449331,1.431078,0.3491781,-0.01098358,-0.01658977,-0.01045931,-1.045721,0.100931,0.04356266,0.8165369,1.456943,0.1916518,0.3665773,1.109216,0.2943305,296.8569,276.91,333.8498,True
2,2.022226,-0.1073998,0.09451543,-0.02515902,4.708551,-4.643432,-2.527745,0.6556292,1.217153,0.4104757,-0.9393923,0.02548473,5.5,3.7,0.02200338,-0.01602371,0.02734508,-0.5117365,1.569308,0.150378,0.7449387,1.431132,0.349148,-0.003508769,-0.02299547,-0.007320061,-1.045738,0.1003157,0.04365214,0.8165131,1.456855,0.1917331,0.3661683,1.109769,0.294464,296.764,276.9922,333.8119,True
2,2.033337,-0.1084791,0.1009334,-0.01986699,4.707819,-4.644541,-2.52652,0.6554819,1.217259,0.4104888,-0.9395025,-0.01028174,5.5,3.7,0.01882435,-0.02458596,0.03369773,-0.5112492,1.567818,0.1515712,0.7449475,1.431298,0.3491447,-0.004556092,-0.02299149,-0.00518058,-1.045745,0.1000151,0.04389023,0.8164265,1.456857,0.1917093,0.3657426,1.110367,0.2945596,296.6682,277.1257,333.6899,True
2,2.044448,-0.1074133,0.09882988,-0.01558943,4.707185,-4.645378,-2.525326,0.6552997,1.217393,0.4106097,-0.9396207,-0.01065109,5.5,3.7,0.01873823,-0.03200297,0.02724639,-0.5113461,1.566401,0.1526471,0.7449465,1.431324,0.3492196,-0.002489202,-0.03152518,-0.01051914,-1.046139,0.09927559,0.04430248,0.8162849,1.456864,0.1917875,0.3653465,1.111005,0.2946618,296.57,277.2885,333.5187,True
2,2.055559,-0.103125,0.08498369,-0.01657979,4.707079,-4.645909,-2.524321,0.6550825,1.217551,0.4106362,-0.9397528,-0.01194592,4.3,7.1,0.01542086,-0.04256935,0.0176043,-0.5116295,1.564781,0.1540093,0.7449766,1.431363,0.3492267,-0.0003588721,-0.03685426,-0.009466345,-1.046227,0.09859249,0.04457413,0.8162181,1.456851,0.1917641,0.3650027,1.111671,0.2948161,296.4737,277.4547,333.337,True
2,2.06667,-0.09563974,0.07005489,-0.02182716,4.707301,-4.6464,-2.523476,0.6549155,1.217716,0.4106879,-0.9398306,-0.007045744,4.3,7.1,0.01648912,-0.04150517,0.01760911,-0.5113866,1.563983,0.1545062,0.74498,1.431382,0.3491983,0.0006323457,-0.0400558,-0.01586512,-1.046673,0.09803029,0.04503006,0.8160971,1.457007,0.1916087,0.3646341,1.112334,0.2950253,296.3811,277.6237,333.178,True
2,2.077781,-0.09348365,0.05726437,-0.02388917,4.707453,-4.646758,-2.522502,0.6546944,1.21788,0.4107292,-0.9400437,-0.01938785,4.3,7.1,0.01325842,-0.04573681,0.01547211,-0.5113876,1.562657,0.155597,0.7449861,1.431457,0.3492062,-0.001474954,-0.04217947,-0.01264924,-1.046726,0.09738807,0.04542953,0.8160403,1.456997,0.1916029,0.3642317,1.112976,0.2952832,296.2873,277.7653,333.0742,True
2,2.088892,-0.09133141,0.04659865,-0.02702773,4.707699,-4.647106,-2.521561,0.6544838,1.218035,0.4107661,-0.9402237,-0.01631714,4.3,7.1,0.01001054,-0.05102182,0.01227005,-0.5113354,1.561241,0.1568818,0.7450778,1.431437,0.3491859,-0.005734473,-0.03792693,-0.01474431,-1.046908,0.09687328,0.04572434,0.8159674,1.456893,0.1916881,0.3638185,1.113574,0.2955592,296.1777,277.8488,333.0586,True
2,2.100003,-0.08597186,0.0295646,-0.02693545,4.708111,-4.647036,-2.520791,0.6542597,1.218215,0.4108138,-0.9400953,0.01188557,3,9.7,0.00371841,-0.04574226,0.02194914,-0.5108284,1.560392,0.1578061,0.7450805,1.431474,0.3491752,-0.007902984,-0.0336797,-0.01899159,-1.047274,0.09641056,0.046241,0.8158454,1.456897,0.1916301,0.3634397,1.114106,0.295837,296.0695,277.8987,333.0717,True
2,2.111114,-0.07742902,0.01573515,-0.02686646,4.708541,-4.647117,-2.520056,0.6541723,1.218319,0.4108868,-0.9400958,-0.0002172078,3,9.7,0.002779357,-0.03195277,0.03058449,-0.510137,1.560468,0.1577326,0.7450314,1.431498,0.349118,-0.008989364,-0.02515981,-0.02325241,-1.047656,0.09644851,0.04636643,0.815751,1.456852,0.1916585,0.3630714,1.114558,0.2960938,295.994,277.9478,333.0799,True
2,2.122225,-0.07315475,0.01145255,-0.03217627,4.709044,-4.647504,-2.519418,0.6539424,1.218482,0.4107411,-0.9402535,-0.01441126,3,9.7,0.003827959,-0.02979789,0.02740175,-0.5099288,1.559958,0.1580762,0.7450335,1.431574,0.3491039,-0.005915042,-0.02519041,-0.03713419,-1.048659,0.09599151,0.04663435,0.8156759,1.456835,0.1917055,0.3627236,1.114938,0.2963133,295.9455,277.9678,333.111,True
2,2.133336,-0.06569151,0.00827114,-0.03215692,4.709328,-4.647657,-2.518938,0.6537253,1.218632,0.4107804,-0.9402791,-0.002230902,3,9.7,-0.006928395,-0.03607254,0.01785221,-0.5101328,1.558747,0.1595359,0.7450027,1.431625,0.3491132,-0.01443158,-0.02197972,-0.03706574,-1.049091,0.09585902,0.04712943,0.8156128,1.456834,0.1917477,0.3624398,1.115261,0.2964768,295.9009,277.941,333.1734,True
2,2.144447,-0.05289009,-0.0002112249,-0.0299791,4.709705,-4.647613,-2.518776,0.6535163,1.218753,0.4108381,-0.9403393,-0.005529167,3,9.7,-0.0133338,-0.04030435,0.0178769,-0.509941,1.557525,0.1609039,0.7450033,1.431667,0.34902,-0.02191002,-0.02411383,-0.03912902,-1.049541,0.09525621,0.0479329,0.8155924,1.456693,0.1917861,0.3622251,1.115527,0.2965834,295.8632,277.9164,333.2247,True
2,2.155558,-0.04754779,-0.007680536,-0.03419891,4.710324,-4.647624,-2.518418,0.6533285,1.218849,0.4108722,-0.9404623,-0.01122333,1.9,12.1,-0.01341914,-0.03808457,0.006175502,-0.5103266,1.556934,0.161583,0.7449285,1.431681,0.3490117,-0.02827832,-0.0262301,-0.03587722,-1.049837,0.09483916,0.0486722,0.815511,1.45665,0.191839,0.3619697,1.115737,0.2966228,295.8546,277.8771,333.2828,True
2,2.166669,-0.04541437,-0.01193729,-0.03418032,4.710845,-4.647683,-2.517868,0.653223,1.218942,0.4109147,-0.9407308,-0.02449187,1.9,12.1,-0.01016526,-0.0253212,0.007314492,-0.5101115,1.557279,0.1613063,0.7448963,1.431618,0.3490312,-0.03249972,-0.01876726,-0.03159078,-1.050091,0.0948092,0.04928686,0.8154074,1.456637,0.1918912,0.3617119,1.115914,0.2966228,295.8542,277.818,333.3162,True
2,2.17778,-0.03901332,-0.01620293,-0.03735155,4.711481,-4.647708,-2.517657,0.6531024,1.219016,0.4109745,-0.94049,0.02214652,1.9,12.1,0.002753809,-0.005182664,0.01375614,-0.5096683,1.558503,0.1597241,0.7448219,1.431633,0.348917,-0.03041166,-0.001734916,-0.04014841,-1.050811,0.09552066,0.04918619,0.8153273,1.456608,0.1918914,0.3614827,1.116056,0.2966061,295.8317,277.7439,333.3504,True
2,2.188891,-0.03687304,-0.0183328,-0.03840708,4.712015,-4.647805,-2.517386,0.65295,1.219086,0.4110265,-0.9402072,0.02563253,1.9,12.1,-0.003496292,-0.002077204,0.029814,-0.5087234,1.558434,0.1600429,0.7447428,1.431663,0.348871,-0.0251578,0.006790414,-0.05086822,-1.051937,0.09637793,0.04879257,0.8153684,1.456708,0.1919286,0.3612924,1.116157,0.2965967,295.8074,277.6492,333.4062,True
2,2.200002,-0.02834872,-0.02044594,-0.03839678,-1.570582,-4.647871,-2.51736,0.652873,1.21907,0.4110799,-0.940474,-0.02461367,1.7,11.7,-0.02256075,-0.01065824,0.04801321,-0.5076347,1.557258,0.1619756,0.7446603,1.43164,0.3488126,-0.02508263,0.0195711,-0.04448645,-1.052122,0.09691909,0.04883598,0.8153378,1.45656,0.1919932,0.3611532,1.116237,0.2966182,295.8008,277.5544,333.4701,True
2,2.211113,-0.0187534,-0.02471384,-0.04370112,-1.569778,-4.64801,-2.517446,0.6527576,1.219043,0.4111435,-0.9404005,0.00692483,1.4,12.9,-0.02479066,-0.01590272,0.03840294,-0.5075969,1.556453,0.1630403,0.7445396,1.431596,0.3487954,-0.02291768,0.02915725,-0.04238378,-1.052486,0.09768888,0.04863305,0.8152966,1.456556,0.1920714,0.3610326,1.116296,0.2966828,295.7917,277.4644,333.5408,True
2,2.222224,-0.007032808,-0.0236305,-0.04370465,-1.569227,-4.648065,-2.517803,0.6526713,1.219011,0.4112098,-0.9405752,-0.01610094,1.4,12.9,-0.01441662,-0.008195794,2.904527E-05,-0.5088938,1.557061,0.1623793,0.7443112,1.431556,0.3488481,-0.02503404,0.04620065,-0.04451253,-1.052985,0.09893177,0.04831747,0.8152385,1.456533,0.1921983,0.3609006,1.116332,0.2967936,295.7777,277.3986,333.6064,True
2,2.233335,0.005737182,-0.01714467,-0.03095026,-1.568801,-4.648118,-2.518253,0.6523821,1.218973,0.4112799,-0.9406402,-0.005862291,1.4,12.9,-0.01326905,0.0281022,-0.008225208,-0.5090249,1.561074,0.1590219,0.7439572,1.431578,0.3488364,-0.03669579,0.06221304,-0.03910913,-1.053773,0.1012,0.04864077,0.8152368,1.456569,0.1923547,0.3607843,1.116329,0.2969489,295.7371,277.3459,333.6744,True
2,2.244446,0.005737182,-0.01714467,-0.03095026,-1.568801,-4.648118,-2.518253,0.6523821,1.218973,0.4112799,-0.9409283,-0.02635888,1.4,12.9,-0.01326905,0.0281022,-0.008225208,-0.5090249,1.561074,0.1590219,0.7439572,1.431578,0.3488364,-0.03669579,0.06221304,-0.03910913,-1.053773,0.1012,0.04864077,0.8152368,1.456569,0.1923547,0.3606431,1.116256,0.2971428,295.6945,277.2736,333.7667,True
2,2.255557,0.01423902,-0.009566625,-0.01181508,-1.568975,-4.64803,-2.518752,0.6522437,1.21892,0.4115005,-0.9404154,0.04706017,1.2,14.6,-0.0344159,0.04516299,0.001660923,-0.5083815,1.563761,0.1579444,0.7435696,1.431593,0.3489203,-0.04825196,0.051605,-0.01877084,-1.053715,0.1021835,0.04942001,0.8151693,1.456643,0.1927187,0.3604965,1.116094,0.297366,295.6786,277.235,333.8472,True
2,2.266668,0.01848402,-0.003104407,-0.0001296145,-1.569387,-4.647964,-2.51911,0.6521114,1.218826,0.4115629,-0.9408634,-0.04145281,1.2,14.6,-0.03450161,0.04524413,-0.008991394,-0.5087416,1.56492,0.1573193,0.7434032,1.431544,0.3490148,-0.04822322,0.05267354,-0.01557616,-1.053731,0.1028674,0.04961309,0.8151512,1.45663,0.1929171,0.3603978,1.115879,0.2975828,295.728,277.2617,333.8803,True
2,2.277779,0.02486675,-0.0009247384,0.005196859,-1.569726,-4.647923,-2.519548,0.6521032,1.218709,0.4117522,-0.9405054,0.03306929,1.2,14.6,-0.02396886,0.03462211,-0.01874665,-0.5093136,1.565086,0.1570349,0.743288,1.43145,0.3492668,-0.04398806,0.05798793,-0.01988137,-1.054139,0.1038476,0.04944212,0.8150643,1.456616,0.1931889,0.3602759,1.115611,0.2977776,295.7858,277.261,333.907,True
2,2.28889,0.024853,0.005489641,0.009423984,-1.57009,-4.647999,-2.519834,0.6520131,1.218625,0.4118342,-0.9404836,0.001621027,1.2,14.6,-0.02094416,0.02727936,-0.03587257,-0.5102169,1.565429,0.1569052,0.7432088,1.431352,0.3494289,-0.03967555,0.05692497,-0.01457653,-1.054229,0.1048272,0.04921176,0.8150302,1.456591,0.1933661,0.3602439,1.115344,0.2979421,295.8705,277.2959,333.9065,True
2,2.300001,0.03443375,0.007695491,0.01900492,-1.57067,-4.647885,-2.520535,0.6518955,1.218572,0.411902,-0.9405065,-0.00209174,1.4,13,-0.02101915,0.01880056,-0.04126096,-0.5108241,1.56559,0.156951,0.7431688,1.431401,0.3496139,-0.03222443,0.03988685,-0.01144286,-1.054183,0.1048222,0.04931295,0.8149786,1.456568,0.1935017,0.3602353,1.115083,0.2980489,295.9313,277.3343,333.8901,True
2,2.311112,0.04296048,0.004550305,0.02541611,4.712181,-4.647553,-2.52129,0.6518059,1.218505,0.4119811,-0.9403004,0.01880025,1.4,13,-0.01558678,0.02188496,-0.02955997,-0.5106686,1.566284,0.1563787,0.7431022,1.431372,0.3497145,-0.02261158,0.02814914,-0.007259264,-1.054257,0.1046122,0.04921362,0.8149633,1.456559,0.1935804,0.3602759,1.114834,0.2981131,295.9724,277.3534,333.8547,True
2,2.322223,0.0440383,-0.00607427,0.02973638,4.71201,-4.646962,-2.521723,0.6517724,1.21842,0.4119618,-0.9406365,-0.03090296,1.4,13,-0.009103535,0.02498876,-0.02106916,-0.5106074,1.567029,0.1554812,0.7429724,1.431394,0.3497217,-0.01093377,0.0110959,-0.008409223,-1.054458,0.1043529,0.04910283,0.8149682,1.45655,0.1936681,0.3602792,1.114599,0.2981371,296.0297,277.3766,333.8152,True
2,2.333334,0.04725128,-0.01457498,0.03084299,4.711942,-4.646554,-2.522337,0.6518027,1.218371,0.411953,-0.9406631,-0.002209725,1.4,13,-0.01115261,0.02598239,-0.0103953,-0.5103714,1.567649,0.1552727,0.7429237,1.431282,0.3498864,0.004005705,-0.003834007,-0.001061791,-1.054269,0.1038396,0.04902267,0.8147422,1.4567,0.1936152,0.3602629,1.114387,0.2981179,296.0771,277.4128,333.7706,True
2,2.344445,0.04407705,-0.02525097,0.02770278,4.712149,-4.645906,-2.522718,0.6518216,1.218283,0.4119556,-0.94027,0.03586943,0.9,11.9,-0.009060524,0.02707945,-0.0157306,-0.5106713,1.568458,0.1545904,0.7428656,1.431227,0.3500142,0.01144088,-0.005979777,-0.00325286,-1.054394,0.1036818,0.04871561,0.8146642,1.456747,0.1937125,0.3602782,1.114182,0.2980464,296.0948,277.4313,333.7501,True
2,2.355556,0.04194816,-0.02740023,0.0245154,4.712241,-4.645586,-2.523039,0.6518583,1.218145,0.4120033,-0.9403585,-0.008403685,0.9,11.9,0.003570135,0.0100398,-0.02448689,-0.5113887,1.567438,0.1551741,0.7428231,1.431183,0.3501918,0.01785965,-0.01023565,0.002021608,-1.054246,0.1036208,0.04850415,0.8145747,1.456646,0.1937337,0.3603579,1.11398,0.2979015,296.1095,277.4197,333.7583,True
2,2.366668,0.03980864,-0.0231319,0.02662263,4.711999,-4.645292,-2.52341,0.6519253,1.218008,0.4120648,-0.940106,0.02317673,0.9,11.9,0.01832423,0.004781926,-0.04169151,-0.5124476,1.567444,0.15445,0.7427205,1.431105,0.3503911,0.02640955,0.005728855,0.001933587,-1.054217,0.1042962,0.04758004,0.8144535,1.456686,0.1939108,0.3605145,1.113774,0.2976933,296.1219,277.3644,333.7743,True
2,2.377779,0.03980032,-0.0145576,0.03616697,4.711257,-4.644967,-2.524032,0.6518751,1.217901,0.4121261,-0.9399989,0.009554477,0.9,11.9,0.03420549,0.01337299,-0.05880096,-0.5135704,1.568904,0.1522505,0.7425464,1.431019,0.3505671,0.0296189,0.01958788,0.001898033,-1.054071,0.1053833,0.04676085,0.8142079,1.456566,0.1940634,0.3607002,1.113549,0.2974426,296.1331,277.2622,333.7953,True
2,2.38889,0.04081991,0.006823715,0.04990266,4.709944,-4.645032,-2.524527,0.6519059,1.217733,0.4121459,-0.9400341,-0.00324836,0.9,11.9,0.03945773,0.0037852,-0.06105449,-0.5143363,1.568946,0.1514934,0.7424834,1.430984,0.3506968,0.02543702,0.02386512,0.0104516,-1.053613,0.1058692,0.04640318,0.8141145,1.456578,0.1942174,0.3608794,1.113302,0.2972005,296.1563,277.1772,333.7711,True
2,2.400001,0.04506578,0.01537634,0.05519468,4.709025,-4.644779,-2.525215,0.6518998,1.217529,0.4121013,-0.9402807,-0.02251149,0.9,12.6,0.03429994,0.001510974,-0.04185224,-0.5142415,1.568007,0.1521554,0.7424225,1.43099,0.3506815,0.02112629,0.01429999,0.007299153,-1.053692,0.1058869,0.04642582,0.8140137,1.45655,0.1942544,0.3610319,1.113044,0.2970049,296.209,277.1628,333.6956,True
2,2.411112,0.04717749,0.02497367,0.05620961,4.708138,-4.644902,-2.525816,0.6519186,1.217385,0.412111,-0.940156,0.01152962,0.9,12.6,0.02379312,0.01317309,-0.02889322,-0.5139784,1.568989,0.1515016,0.7423391,1.430913,0.3507493,0.02742852,0.000441514,-0.001263862,-1.054034,0.1055608,0.04597282,0.8140457,1.456396,0.1944337,0.3611216,1.112786,0.2968603,296.2792,277.2439,333.5706,True
2,2.422223,0.04715115,0.0377495,0.05615199,4.707136,-4.645063,-2.52631,0.6520275,1.217212,0.4121943,-0.9403062,-0.01382151,0.9,12.6,0.02591871,0.01209771,-0.02891633,-0.5142628,1.569237,0.1509235,0.7422926,1.430801,0.3508546,0.03595209,-0.00383357,-0.0002659636,-1.054017,0.105332,0.04538692,0.8139875,1.456368,0.194515,0.3611819,1.112538,0.2967586,296.338,277.4061,333.4177,True
2,2.433334,0.04610044,0.03133349,0.05193301,4.706647,-4.644802,-2.526795,0.6521077,1.217089,0.4122844,-0.9402061,0.00923988,0.9,12.6,0.02046244,0.003675318,-0.03958802,-0.5151635,1.568791,0.1513903,0.7422268,1.430725,0.3509462,0.03483903,-0.004896294,-0.004517538,-1.054233,0.1053436,0.04521808,0.8137565,1.456503,0.194633,0.3612358,1.112287,0.2966675,296.3665,277.529,333.3201,True
2,2.444445,0.04185129,0.02597052,0.04663358,4.706332,-4.644693,-2.527108,0.6520805,1.216965,0.4122841,-0.9400617,0.01309081,0.7,12.5,0.02689641,0.002539827,-0.0343285,-0.5154623,1.568827,0.1507831,0.7421467,1.430683,0.3510644,0.0315812,0.005752629,-0.01408885,-1.054696,0.1058894,0.04469796,0.8136801,1.456501,0.1947844,0.3613212,1.112034,0.2965994,296.4015,277.6111,333.224,True
2,2.455556,0.04187932,0.01528748,0.04029593,4.706263,-4.644483,-2.527647,0.652067,1.21683,0.4123151,-0.9400287,0.002912423,1.9,15.7,0.0247393,0.002568295,-0.03644177,-0.5158862,1.569144,0.1504193,0.7420995,1.430572,0.351284,0.03480292,0.01320486,-0.01305326,-1.054704,0.1063449,0.04389662,0.813633,1.45653,0.1951227,0.3614724,1.111788,0.2965791,296.4435,277.6813,333.1233,True
2,2.466667,0.03445812,-0.002857824,0.03826142,4.7064,-4.643596,-2.52776,0.6519961,1.216709,0.4123809,-0.9398535,0.0160031,1.9,15.7,0.01717108,0.002704427,-0.05022956,-0.5168983,1.569466,0.1502204,0.7420115,1.430466,0.3514404,0.03914718,0.02492313,-0.005644285,-1.054498,0.1071114,0.04295253,0.8135555,1.456553,0.1953394,0.3616328,1.111543,0.2965918,296.483,277.6989,333.0988,True
2,2.477778,0.03658161,0.0003477512,0.03823775,4.705985,-4.643599,-2.528245,0.652014,1.216544,0.4124048,-0.9400682,-0.01973275,1.9,15.7,0.02032866,0.005940067,-0.05661919,-0.5176594,1.570201,0.1492427,0.7419429,1.430394,0.351635,0.03063826,0.02813488,-0.004507008,-1.05445,0.1075765,0.04269873,0.8134705,1.456594,0.1955163,0.3617111,1.111294,0.2966118,296.52,277.6921,333.1214,True
2,2.488889,0.03976034,0.007856216,0.04672135,4.705121,-4.643415,-2.528799,0.6519426,1.216406,0.4124537,-0.939682,0.03549571,1.9,15.7,0.02992251,0.006955545,-0.05562162,-0.5181862,1.570485,0.1483876,0.7418551,1.430323,0.3517346,0.03178018,0.02068668,0.006144228,-1.053994,0.1075215,0.04234479,0.8133895,1.456609,0.1956198,0.3617449,1.111043,0.2966262,296.5352,277.6675,333.162,True
2,2.5,0.04401002,0.011095,0.05309502,4.704334,-4.643175,-2.529396,0.6519802,1.216237,0.4124823,-0.9400187,-0.03112332,2.5,23.5,0.02248187,0.009116048,-0.05554698,-0.5187779,-4.712182,0.1478475,0.7417536,1.43032,0.3518176,0.03396028,0.00897266,0.01467112,-1.053401,0.107068,0.04213281,0.8132359,1.456561,0.1957347,0.361757,1.1108,0.2966044,296.5578,277.6371,333.1994,True
2,2.511111,0.04612787,0.01749648,0.05412701,4.703564,-4.643141,-2.52999,0.6519277,1.216108,0.4124947,-0.9401363,-0.0104534,2.5,23.5,0.01193618,0.01440388,-0.0447681,-0.5188669,-4.711455,0.1474922,0.7416822,1.430297,0.3518658,0.03506972,-0.001674652,0.02212984,-1.052889,0.1065463,0.04196849,0.8131474,1.456583,0.1957793,0.3617763,1.110575,0.2965588,296.59,277.696,333.129,True
2,2.522222,0.04186325,0.0206706,0.05092,4.702908,-4.643139,-2.530321,0.6518309,1.21606,0.4123859,-0.9401752,-0.003483759,2.5,23.5,0.003575185,0.01964178,-0.02761285,-0.5184978,-4.710592,0.1469514,0.7416424,1.430275,0.3520095,0.0393082,-0.01338812,0.02317311,-1.052593,0.1061057,0.04176396,0.8128707,1.456808,0.1953845,0.3618067,1.110366,0.2964889,296.6277,277.8105,333.0045,True
2,2.533333,0.04185349,0.02704326,0.04768824,4.702306,-4.643302,-2.530819,0.6518054,1.215923,0.412317,-0.9401544,0.001881663,2.5,23.5,0.0003646929,0.02073454,-0.02970907,-0.518869,-4.710017,0.1465631,0.7416001,1.430236,0.3520896,0.03710767,-0.01552768,0.0146755,-1.052679,0.1057689,0.04151735,0.8128613,1.456758,0.1954501,0.3618846,1.110163,0.2963876,296.6541,277.9059,332.8993,True
2,2.544444,0.04398988,0.02591981,0.03597646,4.702147,-4.643514,-2.531395,0.6517434,1.215867,0.4122696,-0.939877,0.02536989,2.5,23.5,0.009959674,0.003584728,-0.02032718,-0.5188285,-4.710922,0.1468813,0.7415605,1.430162,0.3522203,0.03488502,-0.01340495,0.004038671,-1.053017,0.1056998,0.04134504,0.8127891,1.456557,0.1957865,0.3619303,1.109953,0.2962522,296.6983,277.9735,332.8196,True
2,2.555555,0.0450678,0.0226942,0.0295999,4.701979,-4.643599,-2.531998,0.6517379,1.215745,0.4122438,-0.9400128,-0.01265154,2.8,28.5,0.01092186,-0.005960342,-0.02679766,-0.5193963,-4.711621,0.147492,0.7415199,1.430158,0.3523216,0.03277157,-0.009145755,0.005120757,-1.052831,0.1056575,0.04105529,0.8127714,1.456509,0.1959538,0.3619184,1.109751,0.2960812,296.7562,278.0078,332.7761,True
2,2.566666,0.04828944,0.01093144,0.02007558,4.702215,-4.643453,-2.532648,0.6516452,1.215741,0.4122682,-0.9401097,-0.008709525,2.8,28.5,0.007682587,-0.0101839,-0.02999982,-0.5198703,-4.712036,0.147892,0.7414567,1.430106,0.3524113,0.03499175,-0.009138796,0.01575541,-1.052309,0.1055207,0.04065875,0.8126839,1.456521,0.1960361,0.3618968,1.109565,0.2959035,296.7883,278.0212,332.7288,True
2,2.577777,0.04512238,-0.002955033,0.01375544,4.702468,-4.643129,-2.533032,0.6515415,1.215728,0.4123945,-0.9401348,-0.002215829,2.8,28.5,0.008765562,-0.003781282,-0.03101988,-0.5201228,-4.711324,0.1471492,0.7413309,1.430094,0.3525329,0.03077692,-0.01232556,0.02112579,-1.05184,0.1051488,0.04053997,0.8125581,1.456524,0.1960952,0.3618835,1.109386,0.295757,296.7993,277.9943,332.7035,True
2,2.588888,0.04301868,-0.01680776,0.01382832,4.702701,-4.642514,-2.533434,0.6514595,1.215684,0.4124484,-0.9401693,-0.003152854,2.8,28.5,0.00669159,0.001521299,-0.02670134,-0.5202261,-4.710885,0.1467711,0.7412423,1.430094,0.3526044,0.02441193,-0.01763652,0.02544604,-1.051419,0.1046927,0.04070429,0.8124651,1.456532,0.1961498,0.3619023,1.109197,0.2956674,296.8042,277.9658,332.6872,True
2,2.599999,0.03983728,-0.02321153,0.01279512,4.702857,-4.642091,-2.53377,0.6513062,1.215744,0.4126232,-0.9398983,0.02480437,2.6,47.4,-0.004870763,0.009986869,-0.01269673,-0.5199103,-4.710146,0.146447,0.741132,1.430152,0.3525589,0.02121195,-0.01977941,0.0254809,-1.051067,0.1040613,0.04089976,0.8123437,1.456487,0.1961823,0.3619201,1.10899,0.2956415,296.8274,277.8853,332.7284,True
2,2.61111,0.04199022,-0.03491984,0.01392332,4.703159,-4.641316,-2.534306,0.6511981,1.215747,0.4127045,-0.9398913,0.0004089219,2.6,47.4,-0.004769329,0.01096395,-0.0009716492,-0.5195172,-4.709949,0.1462757,0.7410623,1.430151,0.3526077,0.01584066,-0.01339613,0.01806854,-1.051039,0.1039905,0.04084144,0.812349,1.456481,0.1962333,0.3619277,1.108773,0.2956805,296.8651,277.8022,332.7936,True
2,2.622221,0.03563193,-0.05088189,0.02038907,4.703523,-4.640217,-2.534569,0.651098,1.215694,0.412843,-0.9398407,0.004638236,2.6,47.4,-0.0004503648,0.009831873,0.006441946,-0.5191827,-4.709674,0.1458667,0.7409263,1.430139,0.3527052,0.01681698,-0.002757875,0.005265623,-1.051396,0.1043843,0.04042758,0.8122869,1.45647,0.1963222,0.3619266,1.108563,0.295752,296.9124,277.7422,332.864,True
2,2.633332,0.03352106,-0.05731548,0.01402229,4.704165,-4.639608,-2.534933,0.6510324,1.215756,0.4129248,-0.9395558,0.0253159,2.6,47.4,0.002703972,0.01414265,-0.001005482,-0.5193835,-4.708848,0.1450099,0.7408481,1.430058,0.3528254,0.01570231,0.0004265737,-0.001114969,-1.051513,0.1043972,0.04029869,0.8122442,1.456489,0.1963785,0.3619019,1.108365,0.2958419,296.9569,277.6901,332.9269,True
2,2.644443,0.02713095,-0.05735617,0.008693896,4.704632,-4.639065,-2.535059,0.6509444,1.215751,0.4130096,-0.9383366,0.1102563,2.6,47.4,0.001592003,0.0173996,-0.008429253,-0.5196781,-4.708187,0.1444461,0.7407347,1.430028,0.3529065,0.009360816,-0.001686375,0.005332521,-1.05123,0.1042813,0.04048484,0.8121622,1.456496,0.1964383,0.3619112,1.10814,0.2959132,296.9503,277.6526,332.9915,True
2,2.655554,0.02392529,-0.04988655,0.01184072,4.704663,-4.638785,-2.535323,0.6508415,1.215705,0.4130802,-0.9370077,0.1192927,2.5,59.6,0.004811188,0.02058409,-0.009500006,-0.5198336,-4.707642,0.1435484,0.7406448,1.43014,0.3528147,0.01047949,-0.00808004,0.01279128,-1.050768,0.1037762,0.04053517,0.8119459,1.456596,0.1964819,0.3619752,1.107831,0.2959288,296.9434,277.5961,333.0575,True
2,2.666665,0.02071188,-0.04135354,0.01499036,4.704555,-4.638492,-2.53547,0.6507435,1.215662,0.4131143,-0.9350284,0.1785618,2.5,59.6,0.00587897,0.008813187,-0.003206098,-0.519694,-4.708279,0.1439947,0.7405912,1.430151,0.3528481,0.01588941,-0.01448543,0.02341284,-1.050095,0.1030738,0.04044436,0.811692,1.456643,0.1964827,0.3620842,1.107398,0.2958923,296.9767,277.4835,333.144,True
2,2.677776,0.01429637,-0.02861414,0.008527616,4.704602,-4.638647,-2.535439,0.6506441,1.215607,0.4130886,-0.9329532,0.1864081,2.5,59.6,0.004820273,0.0002609603,0.0009911564,-0.5196781,-4.709009,0.1445002,0.7404794,1.430146,0.3528683,0.01801283,-0.01342496,0.02232857,-1.049888,0.1029346,0.04023584,0.8115855,1.456671,0.196512,0.3621932,1.106811,0.2958237,297.0602,277.3738,333.203,True
2,2.688887,0.01107197,-0.01371205,0.007382148,4.704365,-4.638911,-2.535452,0.6505514,1.215583,0.4131186,-0.9302752,0.2412407,2.5,59.6,0.005924849,0.006629224,0.003157606,-0.5195982,-4.708443,0.1439974,0.740486,1.430053,0.3530526,0.01804054,-0.01661863,0.02552981,-1.049479,0.1025826,0.04010987,0.8114465,1.456694,0.1965847,0.3622901,1.106055,0.2957443,297.1921,277.3132,333.221,True
2,2.699998,0.005725597,-0.004114368,0.01053013,4.703944,-4.638994,-2.535321,0.6504725,1.215583,0.4131823,-0.9270469,0.2907415,3.3,72.5,0.01230875,0.01302694,-0.001106486,-0.5196924,-4.707676,0.1430102,0.7404454,1.430016,0.3531015,0.01906143,-0.01449733,0.02019174,-1.049439,0.1024294,0.04001027,0.8114109,1.456729,0.1966484,0.3623841,1.105128,0.2956601,297.3675,277.2541,333.2615,True
2,2.711109,-0.001743464,0.001222282,0.0158275,4.7036,-4.638866,-2.535079,0.6504754,1.215557,0.4131536,-0.9236327,0.3070776,3.3,72.5,0.006885172,0.002443288,-0.007535589,-0.5200499,-4.708295,0.1436783,0.7404302,1.429967,0.353159,0.01790627,-0.01024818,0.008482212,-1.049646,0.1024268,0.03983663,0.8113894,1.456704,0.1966879,0.3624713,1.104043,0.295592,297.5898,277.1589,333.3377,True
2,2.72222,-0.01132936,0.0001460616,0.01689458,4.703439,-4.638741,-2.534642,0.6503726,1.215523,0.4131587,-0.9197062,0.3536087,3.3,72.5,0.01312675,-0.01882707,-0.01520635,-0.5206181,-4.709979,0.144799,0.7403699,1.429894,0.35322,0.01785624,-0.008124005,0.002088491,-1.049836,0.1024137,0.03963982,0.8113126,1.456707,0.1967115,0.3625873,1.102842,0.2955735,297.8621,277.0706,333.4041,True
2,2.733331,-0.01132936,0.0001460616,0.01689458,4.703439,-4.638741,-2.534642,0.6503726,1.215523,0.4131587,-0.9153684,0.3904991,3.3,72.5,0.01312675,-0.01882707,-0.01520635,-0.5206181,-4.709979,0.144799,0.7403699,1.429894,0.35322,0.01785624,-0.008124005,0.002088491,-1.049836,0.1024137,0.03963982,0.8113126,1.456707,0.1967115,0.362768,1.101568,0.2956068,298.1575,277.0097,333.4803,True
2,2.744442,-0.0155895,0.0001408189,0.01689938,4.703214,-4.638619,-2.534343,0.6502652,1.21557,0.4132185,-0.9109982,0.3928791,3.3,72.5,0.01416459,-0.0252173,-0.01526379,-0.5208222,-4.710677,0.1452192,0.740217,1.429936,0.3533034,0.01882264,-0.01026649,-0.009632593,-1.05027,0.1022443,0.03943636,0.8112371,1.456631,0.1967056,0.3630372,1.100243,0.2956558,298.4452,276.9447,333.6002,True
2,2.755553,-0.01878399,-0.0009193607,0.01903462,4.703015,-4.638418,-2.53401,0.6500815,1.215615,0.4132111,-0.9055323,0.4926966,3.3,72.5,0.002555096,-0.01778535,-0.005525471,-0.520599,-4.710684,0.1455694,0.7401244,1.429936,0.3533182,0.01884019,-0.01558977,-0.006431396,-1.05027,0.1018258,0.03943449,0.811137,1.456646,0.1966848,0.3633502,1.098853,0.2956994,298.7175,276.8481,333.7358,True
2,2.766664,-0.01877169,-0.007289401,0.02227127,4.702779,-4.637979,-2.533833,0.6498767,1.21566,0.4132302,-0.9001607,0.4829755,4.3,73.6,-0.002674781,-0.006079012,-0.001137263,-0.5204616,-4.70998,0.1449894,0.739976,1.430055,0.3531833,0.01679513,-0.01876683,0.003175804,-1.049911,0.1015268,0.03930879,0.8110152,1.456671,0.1966813,0.3636224,1.097386,0.2957218,299.023,276.7533,333.8459,True
2,2.777775,-0.01980982,-0.02114576,0.02127914,4.702989,-4.637282,-2.53357,0.6496497,1.215699,0.4132593,-0.8942117,0.535507,4.3,73.6,-0.01318856,0.004528143,0.01074711,-0.5198405,-4.709328,0.1449439,0.7398727,1.430059,0.3531857,0.01584264,-0.02088167,0.01703529,-1.049236,0.1011173,0.03937244,0.8108971,1.456689,0.1967056,0.3638583,1.095855,0.2957249,299.356,276.6558,333.9498,True
2,2.788886,-0.0240297,-0.04457697,0.02353158,4.703347,-4.635713,-2.532877,0.6493583,1.215833,0.4132278,-0.8879964,0.5591675,4.3,73.6,-0.0005089116,0.0002949963,-4.678975E-05,-0.5203401,-4.709345,0.1445788,0.7399256,1.430019,0.3532364,0.01468243,-0.01237111,0.003191992,-1.0494,0.1011389,0.03900013,0.8107299,1.456628,0.1966987,0.3640545,1.094256,0.2956955,299.6964,276.5565,334.0655,True
2,2.799997,-0.03039974,-0.05525916,0.0203903,4.703785,-4.634866,-2.53237,0.6491311,1.215898,0.4132094,-0.8807319,0.6544806,4,72.4,-0.005967347,-0.02308628,-0.004442447,-0.5206661,-4.711317,0.1465263,0.7398651,1.430011,0.3532112,0.01453538,-0.01984125,-0.01065167,-1.050036,0.1006655,0.03932317,0.8105834,1.456669,0.1965618,0.3642497,1.092576,0.2956108,300.0343,276.4445,334.2015,True
2,2.811108,-0.03677856,-0.06275258,0.01616661,4.704259,-4.634106,-2.531715,0.6490258,1.215941,0.4131587,-0.8736441,0.6372824,4.7,87.6,-0.01462224,-0.03576029,-0.01405698,-0.5212008,1.57048,0.1482182,0.7397658,1.430027,0.3532445,0.01661829,-0.02304902,-0.01599302,-1.050373,0.1002223,0.03925872,0.8105433,1.456697,0.1965842,0.364472,1.090806,0.2954161,300.3848,276.2531,334.405,True
2,2.822219,-0.04423358,-0.06280097,0.00977266,4.704752,-4.633585,-2.530989,0.6488367,1.216028,0.4131312,-0.8658442,0.7023988,4.7,87.6,-0.01141313,-0.03257767,-0.01405855,-0.521391,1.570025,0.1486393,0.7396489,1.430038,0.3532302,0.01352442,-0.01769323,-0.003189879,-1.049978,0.1003756,0.03936125,0.8103816,1.456779,0.1964064,0.364825,1.088942,0.2951428,300.7333,276.0161,334.592,True
2,2.83333,-0.04955972,-0.06282741,0.005514367,4.705085,-4.633113,-2.530278,0.6486039,1.216172,0.4131253,-0.8575624,0.7454616,4.7,87.6,-0.01557111,-0.01982246,-0.007534945,-0.5211886,1.570576,0.1484651,0.7394809,1.430055,0.3532739,0.00615838,-0.009136512,0.005382575,-1.049667,0.1007731,0.0392739,0.8102952,1.456789,0.1963911,0.3652751,1.086951,0.2948285,301.1111,275.7769,334.7471,True
2,2.844441,-0.05170828,-0.05325529,0.003332298,4.70528,-4.63292,-2.529646,0.6484395,1.216244,0.4131103,-0.8489673,0.7735394,4.7,87.6,-0.02495221,0.006761573,0.004462142,-0.5206214,-4.710836,0.1475173,0.7392572,1.430158,0.353219,-0.006590735,-0.01017501,0.009752207,-1.049433,0.1005949,0.03985447,0.8101774,1.456798,0.1963592,0.3658217,1.084821,0.2945118,301.5358,275.5324,334.9019,True
2,2.855552,-0.05707785,-0.02876613,0.00321313,4.704806,-4.633195,-2.528925,0.6482546,1.216287,0.4130337,-0.8401266,0.7955675,4.9,72.4,-0.03212353,0.02791147,0.02918979,-0.5193169,-4.709164,0.1466472,0.7391708,1.430237,0.3531401,-0.01193275,-0.006961586,0.007654132,-1.049583,0.1007747,0.0401088,0.8100235,1.456813,0.1963701,0.366378,1.082555,0.2942322,302.0314,275.2741,335.0698,True
2,2.866663,-0.05605902,-0.005311064,0.006284973,4.704228,-4.633727,-2.528351,0.6480886,1.216365,0.4130228,-0.8310565,0.8162308,4.9,72.4,-0.02985264,0.03311404,0.04412685,-0.5183012,-4.708506,0.1463479,0.7391229,1.430268,0.3531086,-0.01194694,-0.004833133,0.005521449,-1.049581,0.1008057,0.04022066,0.8099014,1.45683,0.196357,0.366924,1.080189,0.2940273,302.5705,275.0322,335.2433,True
2,2.877774,-0.05613879,0.03621441,0.002876988,4.703209,-4.635096,-2.527748,0.6479055,1.2164,0.4130335,-0.8214371,0.8659141,4.9,72.4,-0.02565647,0.01819533,0.0418429,-0.5180653,-4.709328,0.1470028,0.7390541,1.430411,0.3529828,-0.01513077,-0.005891887,0.006615172,-1.049467,0.1006575,0.04047845,0.809881,1.45672,0.1965656,0.3674776,1.077745,0.2939245,303.1119,274.8675,335.3842,True
2,2.888885,-0.05615482,0.04367079,0.002837749,4.702806,-4.635607,-2.527099,0.6477422,1.216466,0.4130387,-0.8116846,0.8774356,4.9,72.4,-0.01941413,0.004407699,0.02996709,-0.5182725,-4.710246,0.1477602,0.7389852,1.430412,0.3529754,-0.01833736,-0.006952635,0.005577887,-1.049455,0.1005142,0.04087659,0.8098109,1.456686,0.1965663,0.3680277,1.07524,0.2939263,303.6742,274.8056,335.4729,True
2,2.899997,-0.06150177,0.05429259,-0.0004081242,4.702279,-4.636322,-2.526241,0.6474805,1.216475,0.4130065,-0.8014736,0.9191481,4.9,72.4,-0.01325781,-0.01570907,0.01059096,-0.518918,-4.711657,0.148883,0.7388643,1.430335,0.3530362,-0.01945658,-0.002686378,0.0002516577,-1.049695,0.100798,0.04121801,0.8096591,1.456639,0.1963747,0.3685923,1.072693,0.2940408,304.2502,274.7809,335.5393,True
2,2.911108,-0.07110509,0.06275626,-0.007910172,4.701987,-4.637246,-2.525105,0.6472417,1.216576,0.4129229,-0.7909822,0.9442772,6.1,69.9,-0.0207788,-0.0209625,0.005287794,-0.5190107,1.570858,0.1499647,0.7386688,1.430393,0.3530095,-0.02270065,-0.003750143,-0.005045548,-1.049934,0.1007411,0.04162334,0.8095449,1.456617,0.1963642,0.369159,1.070104,0.2942844,304.8294,274.7897,335.5991,True
2,2.922219,-0.08709705,0.07117962,-0.02074366,4.701912,-4.638481,-2.523584,0.6469959,1.216658,0.4129691,-0.7801065,0.9790786,6.1,69.9,-0.02601966,-0.009253912,0.00967967,-0.5187162,-4.711729,0.1498958,0.7385045,1.430389,0.3530195,-0.0238828,0.004748434,-0.02102326,-1.050698,0.1010596,0.04173094,0.8094341,1.456507,0.1964605,0.3697597,1.067475,0.2946171,305.3915,274.7562,335.7515,True
2,2.93333,-0.096686,0.06899031,-0.02712088,4.70192,-4.639222,-2.522215,0.6468208,1.216697,0.4129703,-0.7689771,1.001912,6.1,69.9,-0.02473523,0.008715335,0.02684547,-0.5178474,-4.710754,0.1491738,0.7383311,1.430482,0.3528109,-0.02281242,0.005823044,-0.02103759,-1.050943,0.1013656,0.04173786,0.8094034,1.456513,0.1964755,0.3703401,1.064795,0.2949809,305.9727,274.7308,335.9281,True
2,2.944441,-0.1083845,0.06043169,-0.03028017,4.702083,-4.639803,-2.520551,0.6465435,1.216867,0.4130232,-0.757607,1.023657,6.1,69.9,-0.02358744,0.01611907,0.03328479,-0.517212,-4.710073,0.1488047,0.7382443,1.430516,0.3527861,-0.0227478,0.006895829,-0.01358187,-1.050813,0.1014911,0.04193706,0.8093171,1.456502,0.1964717,0.3709157,1.062102,0.2953473,306.5848,274.6785,336.1127,True
2,2.955552,-0.1179519,0.045473,-0.0333953,4.702453,-4.639907,-2.518834,0.6463899,1.217055,0.4130735,-0.7466571,0.9849811,7.8,74.6,-0.01827789,0.01076281,0.03426372,-0.5168929,-4.710365,0.1491338,0.7382622,1.430485,0.3528798,-0.01629784,-0.001636532,-0.005098292,-1.050486,0.1009679,0.04212056,0.8091608,1.456428,0.1964886,0.3714948,1.05944,0.2957341,307.1943,274.5966,336.2855,True
2,2.966663,-0.1232562,0.03375593,-0.0312042,4.7027,-4.640034,-2.517291,0.6461245,1.217242,0.4131777,-0.7352071,1.031036,7.8,74.6,-0.01304613,-0.008424612,0.03301255,-0.5166591,-4.711982,0.1505898,0.7381806,1.430554,0.3528764,-0.01091663,-0.01122499,0.003388757,-1.050147,0.1004096,0.04231443,0.8090966,1.456413,0.19645,0.3721268,1.056839,0.296128,307.7745,274.5159,336.4652,True
2,2.977774,-0.1296184,0.01455705,-0.03323664,4.703362,-4.639894,-2.515548,0.6458896,1.217446,0.4133456,-0.7238514,1.021853,7.8,74.6,-0.01639245,-0.0232464,0.02226835,-0.51696,1.569694,0.1522351,0.7381613,1.430583,0.3530254,-0.009899123,-0.01655751,-0.0008731193,-1.050316,0.09998532,0.0426476,0.8091013,1.45639,0.1964011,0.3728076,1.054323,0.2965025,308.3554,274.4143,336.6683,True
2,2.988885,-0.139162,-0.006760763,-0.03206215,4.704092,-4.639454,-2.513721,0.6455953,1.217685,0.4134772,-0.7126545,1.007437,7.8,74.6,-0.01213636,-0.02540346,0.02329099,-0.516593,1.568943,0.1529525,0.7381598,1.43066,0.3530204,-0.007855456,-0.01657448,-0.01154118,-1.050793,0.09975762,0.04273734,0.8090429,1.456387,0.1963716,0.3735714,1.051911,0.2968266,308.9113,274.2926,336.8785,True
2,2.999996,-0.1487242,-0.02280704,-0.04050337,4.705149,-4.639247,-2.511644,0.645344,1.218043,0.4136641,-0.7010207,1.047489,7.8,74.6,-0.007776311,-0.02230633,0.03393313,-0.5158692,1.568457,0.1532657,0.7381877,1.430739,0.3530173,-0.01109656,-0.01443516,-0.01684232,-1.051144,0.0998222,0.0429725,0.8091576,1.456452,0.1963694,0.374355,1.049564,0.2970862,309.44,274.1632,337.0495,True
2,3.011107,-0.1572193,-0.03346824,-0.03938656,4.70589,-4.638968,-2.509733,0.6450505,1.218304,0.4137702,-0.6893912,1.046611,8.3,70.2,-0.006511416,-0.02465411,0.06054474,-0.5143033,1.566886,0.1547483,0.7381951,1.430737,0.3530195,-0.008010857,-0.01658561,-0.02964657,-1.051845,0.09955628,0.04308169,0.8091229,1.456428,0.1963162,0.3751552,1.047252,0.2972958,309.9536,273.9968,337.216,True
2,3.022218,-0.1689373,-0.03456889,-0.04150876,4.706509,-4.638884,-2.50744,0.6447294,1.218638,0.4138687,-0.6776829,1.054026,8.3,70.2,-0.0009950418,-0.01416132,0.0786914,-0.5127783,1.566849,0.1545994,0.7382555,1.430788,0.3530133,-0.005996168,-0.02086189,-0.04243987,-1.052715,0.09917053,0.04329048,0.8090749,1.456378,0.1962912,0.3759595,1.044966,0.2974669,310.4846,273.8012,337.3918,True
2,3.033329,-0.1849486,-0.01967195,-0.03946059,4.706565,-4.639386,-2.504837,0.6444633,1.218835,0.413856,-0.6664513,1.010453,8.3,70.2,-0.001955811,-0.009975787,0.08938902,-0.5114345,1.566519,0.1549275,0.7382605,1.430892,0.3529186,-0.0006707199,-0.02726489,-0.04141416,-1.053111,0.0985311,0.04339887,0.8091022,1.456371,0.1962285,0.37677,1.042728,0.2976412,311.0369,273.5925,337.5676,True
2,3.04444,-0.1998872,-0.006911363,-0.03846836,4.706666,-4.639916,-2.502141,0.6440564,1.219183,0.413871,-0.6547824,1.050814,8.3,70.2,-0.003065167,-0.01848535,0.08826782,-0.5105664,1.565169,0.1561957,0.7384319,1.430884,0.3528926,0.01330088,-0.03366499,-0.02554527,-1.052878,0.09784614,0.04309714,0.8091258,1.456385,0.1961834,0.3775492,1.040533,0.2978281,311.5801,273.435,337.7241,True
2,3.055551,-0.212684,-0.001599418,-0.03636792,4.706837,-4.640178,-2.499349,0.6437329,1.219473,0.4139111,-0.6431971,1.042918,9.1,67.8,-0.002284832,-0.05777456,0.07090936,-0.5108817,1.56108,0.1594962,0.7386398,1.430986,0.3526747,0.02074293,-0.03898773,-0.02559762,-1.0531,0.09742682,0.04293628,0.8090724,1.456356,0.1959097,0.3782758,1.038393,0.2980287,312.1265,273.3324,337.8614,True
2,3.066662,-0.2275853,-0.00802547,-0.03740401,4.707377,-4.640209,-2.496294,0.6433512,1.219771,0.4139786,-0.6319106,1.015662,9.1,67.8,-0.007811308,-0.08858193,0.06219707,-0.5107858,1.556845,0.1635458,0.7388822,1.430952,0.3526399,0.01963099,-0.04005647,-0.03091387,-1.053648,0.09689059,0.04301538,0.8090905,1.456312,0.1958203,0.3789167,1.036323,0.2982345,312.676,273.2967,337.9636,True
2,3.077773,-0.2456706,-0.01767985,-0.04374616,4.708202,-4.640201,-2.493029,0.6428235,1.220117,0.4140229,-0.6206992,1.009084,9.1,67.8,0.00271941,-0.09920283,0.05244326,-0.510756,1.553928,0.1657024,0.7390211,1.430939,0.3527715,0.02374883,-0.04966091,-0.04585321,-1.054766,0.0960469,0.0430452,0.809016,1.456348,0.1958325,0.3794713,1.034367,0.2984446,313.2172,273.244,338.0773,True
2,3.088884,-0.2595068,-0.02090946,-0.04479954,4.708849,-4.640246,-2.489796,0.6424256,1.220434,0.4140677,-0.6093579,1.021015,9.1,67.8,0.001622483,-0.100239,0.04924884,-0.5104747,1.551577,0.1677869,0.7391803,1.430985,0.3527644,0.02899001,-0.05074897,-0.05654705,-1.055706,0.09532399,0.042797,0.8090457,1.456352,0.1958539,0.3799966,1.032551,0.2986594,313.6922,273.1636,338.2031,True
2,3.099995,-0.2659118,-0.01451754,-0.04164238,4.709196,-4.640517,-2.486608,0.6419875,1.220879,0.4139962,-0.5980901,1.01423,9.1,67.8,-0.004631147,-0.08536673,0.05900367,-0.5095447,1.55047,0.1690487,0.7394214,1.430953,0.3527241,0.03002476,-0.04221962,-0.06083227,-1.056648,0.09537099,0.04253335,0.8090575,1.456321,0.1958272,0.3804598,1.030843,0.2988766,314.1292,273.0529,338.3398,True
2,3.111106,-0.2669885,-0.009180668,-0.03847356,4.709427,-4.640711,-2.483572,0.6416188,1.22126,0.4140019,-0.5870992,0.9889823,9.1,56.6,-0.007650264,-0.08337951,0.08035709,-0.5079841,1.548234,0.1712341,0.7397372,1.43098,0.3526556,0.03220006,-0.03476699,-0.05765944,-1.057142,0.09520188,0.04212082,0.8091575,1.456261,0.1958225,0.3808312,1.029224,0.2991035,314.5472,272.9331,338.4801,True
2,3.122217,-0.2808478,-0.005938848,-0.02464594,4.709213,-4.640626,-2.479969,0.6411394,1.221784,0.4140024,-0.5761595,0.9845381,9.1,56.6,-0.01275188,-0.09961213,0.1164969,-0.505771,1.543958,0.1752581,0.7400392,1.431053,0.3525717,0.03339305,-0.03580034,-0.04063081,-1.057033,0.09502146,0.04199405,0.8092274,1.45626,0.195761,0.3811929,1.027712,0.2993474,314.9464,272.867,338.5987,True
2,3.133328,-0.2904311,-0.008076601,-0.02250076,4.709435,-4.640572,-2.476442,0.6407382,1.222242,0.4140399,-0.5654434,0.9642713,9.1,56.6,-0.03195672,-0.120888,0.1228734,-0.5047862,1.539166,0.1803272,0.7403183,1.43121,0.352386,0.03544313,-0.05073445,-0.04916367,-1.05808,0.09366804,0.04195597,0.8092831,1.456256,0.1960044,0.3815734,1.026307,0.299584,315.3443,272.8445,338.7089,True
2,3.144439,-0.3085335,-0.01133002,-0.02675066,4.709939,-4.640651,-2.472429,0.640292,1.222698,0.4140239,-0.5541463,1.017618,9.1,56.6,-0.04169038,-0.1292636,0.1090386,-0.504424,1.535592,0.1841997,0.740617,1.431247,0.3523262,0.03737117,-0.07419402,-0.06833231,-1.059569,0.09184217,0.04236051,0.8093668,1.456186,0.1959229,0.3820011,1.024986,0.2997908,315.734,272.8342,338.8009,True
2,3.15555,-0.3191877,-0.008165427,-0.02783357,4.710224,-4.640823,-2.468621,0.639951,1.223039,0.4139278,-0.5435458,0.9535555,9.1,56.6,-0.03641669,-0.1228271,0.09944551,-0.5040352,1.532857,0.1868327,0.7408905,1.431335,0.3522825,0.04047649,-0.08272605,-0.07473702,-1.06059,0.09061472,0.04272296,0.8094747,1.456141,0.1955864,0.3824346,1.023745,0.2999275,316.1567,272.8065,338.8939,True
2,3.166661,-0.3351799,0.00136422,-0.03321708,4.710441,-4.641479,-2.464432,0.6394926,1.223443,0.413852,-0.5325763,0.9879947,8.3,51.4,-0.03115582,-0.1142236,0.08668841,-0.5036208,1.530869,0.1886826,0.7410514,1.431363,0.3522511,0.03839771,-0.07846394,-0.07046153,-1.061229,0.08970352,0.04269766,0.8096125,1.456037,0.1955254,0.3828491,1.022565,0.2999972,316.5442,272.7299,338.9834,True
2,3.177772,-0.3490695,0.02261583,-0.03759238,4.710273,-4.642571,-2.460116,0.6389246,1.223805,0.4137421,-0.5223333,0.9212523,8.3,51.4,-0.03215584,-0.1164232,0.09626602,-0.5025284,1.527544,0.1920232,0.7413195,1.431362,0.3522463,0.03951495,-0.07525445,-0.06408583,-1.061796,0.08906503,0.04265585,0.8096478,1.455987,0.1954312,0.3831964,1.021423,0.3000269,316.9076,272.6438,339.0598,True
2,3.188883,-0.3597586,0.03860378,-0.03235578,4.70983,-4.643434,-2.45576,0.6384171,1.224262,0.4137101,-0.5116587,0.9613814,8.3,51.4,-0.03629676,-0.1122431,0.1091154,-0.501061,1.524551,0.1952193,0.7415259,1.431402,0.3521903,0.04278958,-0.06778638,-0.05559677,-1.062123,0.08863453,0.04236237,0.8097175,1.455897,0.1953597,0.3834926,1.020304,0.3000386,317.2422,272.6004,339.103,True
2,3.199994,-0.3693562,0.04287399,-0.02705465,4.709506,-4.643994,-2.451353,0.6378679,1.224726,0.413698,-0.5013646,0.9264188,8.3,51.4,-0.04168359,-0.1271284,0.1090463,-0.5002317,1.520417,0.1994542,0.7417439,1.431481,0.3522041,0.04493656,-0.06352789,-0.05455377,-1.062712,0.08802333,0.04209419,0.8098141,1.455814,0.1953073,0.383672,1.019192,0.300062,317.6229,272.59,339.1155,True
2,3.211105,-0.3757306,0.03542347,-0.02382297,4.709562,-4.644196,-2.447049,0.6374011,1.225148,0.4137142,-0.4913703,0.8994081,6.9,44,-0.049173,-0.130273,0.1058823,-0.4995808,1.516755,0.203355,0.7421274,1.431529,0.3522334,0.04168165,-0.06778193,-0.0598572,-1.063709,0.08714822,0.04227076,0.8099172,1.455747,0.1952913,0.3837126,1.018131,0.3001266,318.0309,272.6111,339.1163,True
2,3.222216,-0.3906016,0.007689003,-0.02474806,4.710385,-4.643741,-2.442063,0.6369574,1.225729,0.4137769,-0.4815229,0.8863367,6.9,44,-0.04926787,-0.134461,0.09626298,-0.4991829,1.513062,0.2071425,0.7423612,1.431534,0.3522139,0.03839249,-0.06991754,-0.07048073,-1.064872,0.08622863,0.04239593,0.8100524,1.455673,0.1952145,0.3837067,1.01722,0.3002439,318.415,272.6372,339.1372,True
2,3.233327,-0.4012253,-0.009403151,-0.02892695,4.711217,-4.643537,-2.437222,0.6364926,1.226249,0.4138103,-0.4719457,0.8617711,6.9,44,-0.04712685,-0.1259298,0.09417851,-0.4984527,1.510504,0.2099258,0.742627,1.431468,0.3521056,0.03727559,-0.06991822,-0.07793944,-1.066164,0.08548987,0.04220977,0.8101387,1.455698,0.1952629,0.3836778,1.016479,0.3003958,318.7229,272.6404,339.1937,True
2,3.244438,-0.4150565,-0.01796983,-0.03208116,4.711881,-4.643456,-2.432136,0.6359217,1.226764,0.4137907,-0.4618379,0.9107011,6.9,44,-0.04495569,-0.112074,0.09213584,-0.4977006,1.508602,0.2120092,0.74286,1.431478,0.3520596,0.03944946,-0.06565655,-0.07370064,-1.06687,0.08486522,0.04199805,0.8102581,1.455642,0.1952269,0.3836835,1.015892,0.3005688,318.9475,272.5999,339.2794,True
2,3.255549,-0.4246267,-0.02118702,-0.03313429,4.712367,-4.643543,-2.427291,0.6352627,1.227376,0.4138336,-0.4527033,0.8214938,6.9,44,-0.05232494,-0.1057021,0.09862804,-0.4966944,1.505978,0.215021,0.7431048,1.43162,0.35179,0.04274241,-0.06138842,-0.06521564,-1.067392,0.08433139,0.0414007,0.8103951,1.455563,0.1951604,0.3837157,1.01544,0.3007541,319.1664,272.496,339.4004,True
2,3.26666,-0.4310282,-0.01588463,-0.03529513,-1.57047,-4.643863,-2.422264,0.634635,1.227936,0.4138677,-0.4434717,0.8312343,5,44.2,-0.06087392,-0.1120593,0.09864827,-0.4959339,1.502378,0.2191648,0.7433702,1.431629,0.3516965,0.04172178,-0.05818899,-0.06094392,-1.067889,0.08368864,0.04123479,0.8105321,1.455493,0.1951132,0.3836722,1.015057,0.3009467,319.3812,272.4118,339.5031,True
2,3.277771,-0.4448907,-0.008461712,-0.03533912,-1.570229,-4.644175,-2.416891,0.6340085,1.228361,0.413933,-0.4348356,0.7767621,5,44.2,-0.08014242,-0.1193777,0.09129641,-0.4954257,1.49878,0.2238936,0.7436564,1.431648,0.3516693,0.04703262,-0.05926932,-0.06312351,-1.068786,0.08286945,0.04086354,0.8107048,1.455235,0.1952372,0.3834753,1.014711,0.3011351,319.6225,272.3655,339.5828,True
2,3.288882,-0.456608,-0.006396228,-0.0438781,-1.569643,-4.644705,-2.41151,0.6334269,1.228875,0.4139788,-0.4260754,0.7888489,5,44.2,-0.08663197,-0.1224593,0.07959481,-0.4954396,1.495661,0.2276345,0.7438782,1.43171,0.3515491,0.04486629,-0.06459558,-0.06629521,-1.069656,0.0818641,0.04091601,0.8108436,1.455148,0.1951907,0.3831358,1.014432,0.3013245,319.8599,272.3351,339.6438,True
2,3.299993,-0.4630079,-0.004296845,-0.04602109,-1.56919,-4.645023,-2.406138,0.6328839,1.229544,0.4139874,-0.4173429,0.7862887,5,44.2,-0.0931006,-0.1223601,0.07005924,-0.49534,1.492671,0.2315371,0.7441034,1.431745,0.3515074,0.04160704,-0.06137788,-0.07374251,-1.07092,0.08166131,0.04074983,0.8110838,1.455189,0.1949894,0.3826803,1.014231,0.3015226,320.0454,272.3237,339.6856,True
2,3.311104,-0.4662003,-0.004323598,-0.0502845,-1.568632,-4.645504,-2.400907,0.6322873,1.230128,0.4140129,-0.4091526,0.7368873,4.6,45,-0.08562863,-0.1213379,0.07107376,-0.494801,1.489455,0.2349803,0.7444179,1.431737,0.351522,0.0405512,-0.05817392,-0.07480948,-1.071908,0.08122481,0.04036926,0.8112326,1.455161,0.1949575,0.3821328,1.014104,0.3017354,320.1842,272.3215,339.7173,True
2,3.322215,-0.4672654,-0.004372088,-0.05881032,-1.567848,-4.646111,-2.395689,0.6316631,1.230787,0.4140115,-0.4011972,0.7159536,4.6,45,-0.08773752,-0.12028,0.07322963,-0.4942736,1.48638,0.2387135,0.7446507,1.431834,0.3514516,0.03203521,-0.04963752,-0.07581162,-1.072773,0.08097088,0.04041667,0.8113892,1.455102,0.1949291,0.3815752,1.014097,0.3019842,320.3131,272.312,339.7642,True
2,3.333326,-0.4587366,-0.00968699,-0.0598427,-1.567173,-4.646389,-2.390849,0.631198,1.231457,0.4139566,-0.3935124,0.6914282,4.6,45,-0.09087687,-0.1246069,0.08281723,-0.4933431,1.482376,0.2434174,0.7448504,1.431832,0.351372,0.02676106,-0.04961389,-0.07257773,-1.073577,0.08053958,0.04013357,0.8114714,1.45505,0.1949613,0.381047,1.014237,0.3022605,320.4389,272.3023,339.8334,True
2,3.344437,-0.4523234,-0.02033724,-0.06191511,-1.566223,-4.646484,-2.386029,0.6305703,1.232145,0.4140131,-0.3858228,0.6921701,4.6,45,-0.09929134,-0.1214653,0.09462774,-0.4922044,1.479073,0.247727,0.7450604,1.431869,0.3512657,0.02461265,-0.05387112,-0.07362168,-1.07446,0.07974197,0.04034077,0.8116703,1.454958,0.1949077,0.3804817,1.014451,0.3025531,320.5391,272.2954,339.8985,True
2,3.355548,-0.4522912,-0.03734729,-0.05543402,-1.565288,-4.646082,-2.380996,0.6300255,1.232912,0.4140215,-0.3785657,0.6526322,4.6,45,-0.1044795,-0.1141001,0.1085804,-0.4908121,1.4759,0.2519279,0.7452332,1.431924,0.3511534,0.02350876,-0.05495215,-0.07787462,-1.075543,0.07885513,0.04053145,0.8118052,1.454747,0.1949236,0.3798963,1.014719,0.3028647,320.6163,272.2888,339.9727,True
2,3.366659,-0.4522865,-0.03735311,-0.05756779,-1.564514,-4.646373,-2.376067,0.6294755,1.233489,0.4140506,-0.371054,0.6762372,4.6,45.6,-0.1055225,-0.1077098,0.1086372,-0.4899353,1.473106,0.2556166,0.7454016,1.43195,0.3510618,0.02984717,-0.06029607,-0.08324782,-1.076639,0.07794446,0.04042466,0.8119484,1.454679,0.1948977,0.3793656,1.015023,0.3031749,320.6605,272.2793,340.0586,True
2,3.37777,-0.4469689,-0.03309932,-0.05971437,-1.563849,-4.646645,-2.371302,0.6288513,1.23402,0.4140859,-0.3633351,0.6950396,4.6,45.6,-0.1087504,-0.1012375,0.0991127,-0.4896269,1.470783,0.2587117,0.7455196,1.432058,0.3509393,0.01930226,-0.06025497,-0.07250907,-1.077126,0.07740504,0.04056793,0.8122281,1.454517,0.1949155,0.3788673,1.015294,0.3034689,320.7253,272.238,340.1546,True
2,3.388881,-0.4480513,-0.02243505,-0.05764282,-1.56353,-4.647158,-2.366332,0.6281984,1.23463,0.4141269,-0.3559895,0.6608044,4.6,45.6,-0.1152264,-0.0957906,0.08642248,-0.4894043,1.468556,0.2622604,0.7456855,1.432067,0.3508694,0.01837452,-0.05917238,-0.05651496,-1.077118,0.0767033,0.04073571,0.8121648,1.454562,0.1949174,0.378426,1.015527,0.3037229,320.8177,272.1815,340.2617,True
2,3.399992,-0.440608,-0.01812775,-0.04913323,-1.563284,-4.647112,-2.361625,0.6277136,1.235194,0.4141564,-0.3487953,0.6473323,4.6,45.6,-0.1150605,-0.07242148,0.09512149,-0.4880925,1.467831,0.2641842,0.7459011,1.432149,0.3509209,0.0153373,-0.04743985,-0.04159247,-1.077197,0.07644498,0.04060548,0.8124995,1.454432,0.1949329,0.3779614,1.015653,0.3039428,320.9222,272.1526,340.3154,True
2,3.411103,-0.4395532,-0.01490535,-0.04381524,-1.563053,-4.647199,-2.35675,0.6272702,1.235636,0.4141181,-0.3412857,0.6762233,4.4,46.7,-0.0999949,-0.05765372,0.1068379,-0.4864951,1.466648,0.26589,0.746132,1.43215,0.3509476,0.02060445,-0.04426928,-0.04802939,-1.077963,0.07586694,0.04064916,0.8125529,1.45452,0.1948121,0.3774621,1.015662,0.3041473,321.0643,272.1413,340.3413,True
2,3.422215,-0.4267954,-0.002085134,-0.04174865,-1.563017,-4.647768,-2.352387,0.6267557,1.236135,0.4141593,-0.33424,0.6336206,4.7,42.3,-0.08620214,-0.05658854,0.09927749,-0.4858154,1.46493,0.2678961,0.7463423,1.432147,0.3508852,0.02694371,-0.04854702,-0.05340514,-1.078771,0.07514721,0.04048537,0.812673,1.454473,0.1947849,0.3769838,1.015634,0.3043503,321.2461,272.1387,340.3774,True
2,3.433326,-0.422542,-0.003128929,-0.04281917,-1.562608,-4.64838,-2.347645,0.6262268,1.2367,0.4142156,-0.3268556,0.6650178,4.7,42.3,-0.08528487,-0.07463166,0.09060693,-0.4855475,1.461712,0.2717498,0.7464825,1.43214,0.3508854,0.02803443,-0.05282591,-0.05234658,-1.079375,0.07403827,0.04033864,0.8127158,1.45457,0.1951125,0.3766148,1.015628,0.3045279,321.3842,272.1312,340.4503,True
2,3.444437,-0.4055032,9.448268E-05,-0.04389624,-1.562314,-4.648838,-2.343677,0.6257407,1.237187,0.4142342,-0.3201253,0.604902,4.7,42.3,-0.07597162,-0.09900968,0.06903914,-0.4859428,1.457763,0.2758302,0.7466548,1.432137,0.3508558,0.02377153,-0.05388368,-0.0523097,-1.079994,0.07332175,0.04054876,0.8127985,1.454537,0.1951098,0.3763161,1.015608,0.3046513,321.5201,272.1351,340.5011,True
2,3.455548,-0.3937949,0.007530637,-0.05352806,-1.561883,-4.649851,-2.339628,0.625246,1.237797,0.4142582,-0.3125938,0.6786985,4.7,42.3,-0.06759519,-0.1085352,0.05612148,-0.4860732,1.454451,0.2792766,0.7468308,1.432222,0.3508403,0.01747598,-0.04322773,-0.0426751,-1.080105,0.07289285,0.0408204,0.8128796,1.454509,0.1948113,0.3760472,1.01556,0.3047468,321.6878,272.1392,340.4929,True
