loc,t,aDotUA,bDotUA,gDotUA,aUA,bUA,gUA,xUA,yUA,zUA,qE,qDotE,emgA,emgB,aDotSH,bDotSH,gDotSH,aSH,bSH,gSH,xSH,ySH,zSH,aDotUB,bDotUB,gDotUB,aUB,bUB,gUB,xUB,yUB,zUB,xHand,yHand,zHand,aHand,bHand,gHand,enable
2,0,-0.2739023,-0.6824921,0.1340455,-1.459996,-4.231019,2.850299,0.6456175,1.243454,0.4932985,-1.793248,-0.02361341,94.7,15.6,-0.2473125,0.1622842,-0.003763556,-0.9477146,-3.849827,-0.4666801,0.5796052,1.477425,0.3753262,-0.1072058,0.1627504,0.009215731,-0.4255422,0.9679,-0.602064,0.6938785,1.609059,0.214644,0.428268,1.111214,0.2989892,299.7855,242.6352,349.145,False
2,0.01111111,-0.2739023,-0.6824921,0.1340455,-1.459996,-4.231019,2.850299,0.6456175,1.243454,0.4932985,-1.793383,-0.01194909,94.7,15.6,-0.2473125,0.1622842,-0.003763556,-0.9477146,-3.849827,-0.4666801,0.5796052,1.477425,0.3753262,-0.1072058,0.1627504,0.009215731,-0.4255422,0.9679,-0.602064,0.6938785,1.609059,0.214644,0.4282434,1.111995,0.2965406,299.6671,242.1228,349.257,False
2,0.02222222,-0.3123666,-0.6528461,0.1253992,-1.462819,-4.225266,2.854436,0.6446331,1.243575,0.4925344,-1.797169,-0.3458185,94.7,15.6,-0.2407325,0.1164224,0.02380031,-0.946505,-3.849436,-0.4644412,0.5798023,1.478028,0.3750374,-0.1202352,0.1212975,-0.01318748,-0.4262443,0.966507,-0.5989904,0.6944485,1.609245,0.2144518,0.4286904,1.113066,0.293498,299.4449,241.6108,348.9665,False
2,0.03333334,-0.3701067,-0.5977576,0.1081065,-1.468126,-4.21442,2.863067,0.6424814,1.243951,0.4910953,-1.788853,0.763456,94.7,15.6,-0.2477897,0.04492858,0.08228768,-0.9431436,-3.848627,-0.4593503,0.5801793,1.479558,0.374541,-0.1164038,0.05323604,-0.05178687,-0.4276989,0.9621897,-0.5924354,0.695761,1.609714,0.2139528,0.4294901,1.114303,0.29048,299.0724,241.2227,348.4435,False
2,0.04444445,-0.3914998,-0.5776604,0.09737155,-1.470526,-4.20898,2.867565,0.6413952,1.24442,0.4903734,-1.792884,-0.3751327,94.7,15.6,-0.2571041,0.008623481,0.1238234,-0.9400634,-3.848212,-0.456371,0.5804378,1.480498,0.3743055,-0.1197473,0.02025815,-0.06358971,-0.4281617,0.9590321,-0.5880912,0.6965234,1.609943,0.2137451,0.4297749,1.115618,0.2866658,298.9938,241.2943,347.7927,False
2,0.05555556,-0.4246261,-0.5597987,0.07707727,-1.472078,-4.203564,2.873051,0.6402782,1.24522,0.4897313,-1.793105,-0.01594003,94.7,15.6,-0.2684546,-0.0309108,0.1802765,-0.935463,-3.848012,-0.4530317,0.5809361,1.481858,0.3740864,-0.1295661,-0.02760203,-0.08284325,-0.42837,0.9524564,-0.5802833,0.6975067,1.610336,0.2132967,0.4300421,1.117255,0.2826018,298.8241,240.965,347.2979,False
2,0.06666667,-0.4641177,-0.5461932,0.06108797,-1.473682,-4.198094,2.878999,0.6391972,1.246192,0.4891968,-1.793682,-0.05268839,98,13.2,-0.2734817,-0.05444351,0.2260722,-0.9311716,-3.84726,-0.4503656,0.5815493,1.483289,0.373946,-0.1383476,-0.09036899,-0.1021622,-0.4281617,0.9437463,-0.5703878,0.6986557,1.61078,0.2129421,0.4303581,1.119295,0.2787353,298.6008,240.484,346.8435,False
2,0.07777778,-0.4641177,-0.5461932,0.06108797,-1.473682,-4.198094,2.878999,0.6391972,1.246192,0.4891968,-1.7931,0.05380812,98,13.2,-0.2734817,-0.05444351,0.2260722,-0.9311716,-3.84726,-0.4503656,0.5815493,1.483289,0.373946,-0.1383476,-0.09036899,-0.1021622,-0.4281617,0.9437463,-0.5703878,0.6986557,1.61078,0.2129421,0.4306132,1.121709,0.275294,298.2733,240.0623,346.4117,False
2,0.08888889,-0.5004128,-0.5293584,0.04825985,-1.475114,-4.192901,2.885218,0.6380363,1.247287,0.4887254,-1.799196,-0.5577388,98,13.2,-0.2945237,-0.1035267,0.2644547,-0.9262341,-3.848159,-0.4459035,0.5822811,1.484963,0.3737609,-0.1365971,-0.1723054,-0.1322729,-0.4276877,0.9306951,-0.5569037,0.6998712,1.611306,0.212404,0.4307623,1.124439,0.2724993,297.8011,239.5732,346.1306,False
2,0.1,-0.561231,-0.5234259,0.01213014,-1.477186,-4.181498,2.898314,0.6356319,1.249775,0.487973,-1.786892,1.129982,98,13.2,-0.2875511,-0.2230054,0.3483406,-0.9133689,-3.852422,-0.4372444,0.5842003,1.489008,0.3734465,-0.124667,-0.2775027,-0.220069,-0.4293197,0.9025837,-0.5289155,0.702668,1.612445,0.2112303,0.4308928,1.127163,0.2707194,297.1399,239.3831,345.8486,False
2,0.1111111,-0.5995981,-0.5408171,-0.01962155,-1.477374,-4.174675,2.905751,0.6342586,1.251374,0.4875841,-1.792001,-0.4769835,98,13.2,-0.2456888,-0.2731595,0.3959139,-0.9059381,-3.854617,-0.4346138,0.5854077,1.491309,0.3733311,-0.1250776,-0.3370749,-0.2521626,-0.4298497,0.8882059,-0.5146021,0.7040652,1.613021,0.2106054,0.4300989,1.130087,0.2688308,297.2288,239.6074,345.602,False
2,0.1222222,-0.6326481,-0.5690005,-0.07156006,-1.476499,-4.166699,2.913126,0.6329616,1.25316,0.4871488,-1.793554,-0.1363681,99.6,12.4,-0.2294727,-0.3136972,0.4287618,-0.8986933,-3.857001,-0.431378,0.586571,1.493484,0.3731222,-0.1263489,-0.3881103,-0.2758141,-0.4302848,0.8685724,-0.4951549,0.7056744,1.613702,0.2098713,0.4290035,1.133494,0.2670095,297.0764,239.3247,345.8528,False
2,0.1333333,-0.6625294,-0.5918641,-0.127795,-1.474763,-4.15867,2.92078,0.6314949,1.255189,0.4867647,-1.79294,0.05719448,99.6,12.4,-0.2260844,-0.3776698,0.4563097,-0.8904449,-3.861353,-0.4263223,0.5880007,1.496062,0.3730187,-0.1212424,-0.4349329,-0.2941169,-0.4307035,0.8502604,-0.4773373,0.7073704,1.614363,0.2091217,0.4279626,1.137334,0.2653127,296.5981,239.0955,346.0294,False
2,0.1444445,-0.6860101,-0.6039298,-0.1660322,-1.473082,-4.151012,2.9284,0.6302332,1.257096,0.4862862,-1.793163,-0.02076419,99.6,12.4,-0.2281246,-0.4160167,0.4669232,-0.8831026,-3.865251,-0.4212151,0.5893345,1.498582,0.3727224,-0.1065316,-0.4572613,-0.3145494,-0.431814,0.83367,-0.4614451,0.709174,1.615062,0.208395,0.4270554,1.141526,0.2635788,296.0077,238.8687,346.1684,False
2,0.1555556,-0.7170067,-0.6118897,-0.2234352,-1.469954,-4.142996,2.936723,0.6287379,1.259552,0.485888,-1.79326,-0.008368703,99.6,12.4,-0.2387622,-0.4980596,0.4668031,-0.8752276,-3.872951,-0.4131908,0.5910921,1.501744,0.3726168,-0.1066666,-0.4689308,-0.3295011,-0.4331456,0.8171849,-0.4452989,0.7109053,1.615719,0.2077036,0.4264029,1.145981,0.2616705,295.3876,238.4052,346.4499,False
2,0.1666667,-0.7309676,-0.6155313,-0.2798471,-1.466395,-4.135115,2.944465,0.6273469,1.262194,0.4855373,-1.793656,-0.03585969,97,9.3,-0.2461824,-0.5151132,0.4710823,-0.8677276,-3.877681,-0.4071933,0.5925085,1.504408,0.3724239,-0.1046589,-0.4848714,-0.3423538,-0.4345352,0.8004248,-0.42906,0.7127523,1.616404,0.206979,0.4259633,1.150611,0.2594973,294.7735,237.7051,346.8045,False
2,0.1777778,-0.7406529,-0.6201681,-0.3287999,-1.462617,-4.127075,2.952128,0.6259069,1.265018,0.48528,-1.793259,0.03681835,97,9.3,-0.2596242,-0.5653154,0.5339282,-0.8569706,-3.883322,-0.4000364,0.5944894,1.508029,0.3721113,-0.09971786,-0.523095,-0.3840751,-0.4369406,0.7791139,-0.4087572,0.7150427,1.617231,0.2060351,0.4257287,1.155327,0.2570671,294.1691,236.9209,347.1238,False
2,0.1888889,-0.7429056,-0.6087264,-0.367227,-1.458417,-4.119714,2.959615,0.624441,1.268033,0.4850245,-1.794079,-0.07515842,97,9.3,-0.2507276,-0.6027101,0.5913266,-0.8457672,-3.88874,-0.3940077,0.5961993,1.511312,0.3718336,-0.1012827,-0.5751182,-0.4375001,-0.4400032,0.7549976,-0.3857639,0.7172463,1.618029,0.2050567,0.4256177,1.160134,0.2544256,293.6799,235.8728,347.5674,False
2,0.2,-0.7548012,-0.5749386,-0.4036602,-1.453808,-4.113501,2.967567,0.6231287,1.271106,0.4847627,-1.794464,-0.03430294,97,9.3,-0.2201729,-0.6987924,0.7006817,-0.8305382,-3.896738,-0.3873773,0.5982598,1.515025,0.3713515,-0.1072145,-0.6345405,-0.5037267,-0.4441077,0.7288356,-0.360726,0.7196753,1.618715,0.204,0.4256503,1.165055,0.2517422,293.2297,234.626,348.1224,False
2,0.2111111,-0.7635893,-0.5187762,-0.4423874,-1.448272,-4.108563,2.975746,0.6219488,1.274338,0.4845951,-1.794903,-0.03982773,97,9.3,-0.208142,-0.7553401,0.7473703,-0.817354,-3.904801,-0.3799801,0.6002473,1.518462,0.370888,-0.1065926,-0.6876559,-0.5497157,-0.4481077,0.7019964,-0.3353207,0.7219524,1.619435,0.202935,0.4257544,1.170084,0.2491384,292.7909,233.3239,348.703,False
2,0.2222222,-0.7659485,-0.4710872,-0.4768086,-1.442505,-4.103779,2.98373,0.620829,1.277484,0.4845121,-1.794742,0.01524769,92.5,5,-0.2038082,-0.7841212,0.7568856,-0.8059306,-3.912663,-0.3723446,0.6022902,1.521629,0.3704033,-0.111042,-0.7099552,-0.5689372,-0.4519683,0.6780923,-0.3123544,0.7241946,1.62009,0.2019105,0.4258007,1.175203,0.2467143,292.3405,231.9866,349.3471,False
2,0.2333333,-0.7659485,-0.4710872,-0.4768086,-1.442505,-4.103779,2.98373,0.620829,1.277484,0.4845121,-1.794764,-0.002042545,92.5,5,-0.2038082,-0.7841212,0.7568856,-0.8059306,-3.912663,-0.3723446,0.6022902,1.521629,0.3704033,-0.111042,-0.7099552,-0.5689372,-0.4519683,0.6780923,-0.3123544,0.7241946,1.62009,0.2019105,0.4256855,1.180398,0.2445855,291.8845,230.6127,350.1103,False
2,0.2444444,-0.7900659,-0.3129938,-0.5567005,-1.428117,-4.09936,3.001367,0.619222,1.284135,0.4845703,-1.803412,-0.7907013,92.5,5,-0.1987976,-0.7936185,0.7067834,-0.786074,-3.929121,-0.356694,0.6066328,1.527822,0.3691328,-0.1367965,-0.7098411,-0.5942988,-0.4607727,0.6347963,-0.2696725,0.7286188,1.621274,0.1998336,0.4253821,1.185549,0.2429491,291.1384,229.2008,351.02,False
2,0.2555556,-0.8181896,-0.2100507,-0.5999739,-1.419596,-4.099833,3.011466,0.618691,1.287556,0.4848118,-1.786427,1.559614,92.5,5,-0.215054,-0.7679735,0.6643232,-0.7781495,-3.936365,-0.3485574,0.6085817,1.530673,0.3684916,-0.1485897,-0.6959308,-0.6069461,-0.4658955,0.6151961,-0.2500596,0.7308558,1.621752,0.1988397,0.4251766,1.190082,0.2421741,290.16,228.5906,351.4183,False
2,0.2666667,-0.843105,-0.1081553,-0.6411191,-1.410837,-4.10107,3.021806,0.6182411,1.290858,0.4850621,-1.793716,-0.6804877,86.8,8.4,-0.2268691,-0.7253532,0.6527603,-0.7694277,-3.941755,-0.3416018,0.6106756,1.53361,0.3678193,-0.1711565,-0.6894218,-0.6333799,-0.4718797,0.5951268,-0.2294907,0.7331324,1.622223,0.1977699,0.4241748,1.194757,0.2414116,290.6577,226.7973,353.0005,False
2,0.2777778,-0.8584171,0.00130856,-0.6674401,-1.402234,-4.103537,3.032033,0.6178855,1.294158,0.48525,-1.794192,-0.0356576,86.8,8.4,-0.2159129,-0.6796358,0.7028583,-0.7583202,-3.945122,-0.3371802,0.6127359,1.536652,0.3671691,-0.1831775,-0.7084623,-0.6696047,-0.4785962,0.5721344,-0.2066592,0.7356331,1.622729,0.1966054,0.4228292,1.199917,0.2410932,290.7949,224.5275,355.1297,False
2,0.2888889,-0.8683895,0.1098224,-0.6841622,-1.393523,-4.107794,3.04265,0.6175978,1.297298,0.4855814,-1.794261,-0.006366456,86.8,8.4,-0.1675851,-0.6754807,0.764349,-0.7458843,-3.949955,-0.3334741,0.6146904,1.539415,0.3665516,-0.1930661,-0.7360349,-0.702645,-0.4855747,0.5490814,-0.183764,0.7379236,1.623075,0.1954811,0.4212123,1.205584,0.2413535,290.4505,222.8224,356.8978,False
2,0.3,-0.8645407,0.2247497,-0.704156,-1.384403,-4.113514,3.053041,0.6173825,1.300303,0.4859631,-1.794793,-0.04846369,86.8,8.4,-0.1130559,-0.706413,0.7969782,-0.7336391,-3.957686,-0.3282005,0.6167426,1.542176,0.3659039,-0.2050002,-0.7455699,-0.7291831,-0.4927743,0.5271993,-0.1621191,0.7402959,1.623432,0.1937916,0.419345,1.211649,0.242102,289.7886,221.2923,358.7163,False
2,0.3111111,-0.8628345,0.3514695,-0.7125099,-1.375507,-4.121115,3.063929,0.617225,1.30321,0.4863558,-1.794953,-0.01419411,86.8,8.4,-0.08114386,-0.7330215,0.7882007,-0.7227766,-3.966514,-0.32188,0.6186509,1.544737,0.3653669,-0.2189472,-0.7455052,-0.7418593,-0.5001065,0.5073693,-0.1417694,0.7424806,1.623769,0.1926618,0.4172641,1.217955,0.2432097,289.0159,219.6574,0.7665746,False
2,0.3222222,-0.8588704,0.4430622,-0.715301,-1.367073,-4.128149,3.074623,0.6170825,1.306311,0.4867072,-1.795609,-0.05970701,81.9,13.3,-0.0610429,-0.7638733,0.7656493,-0.7124382,-3.976688,-0.3141036,0.6206979,1.547302,0.3648555,-0.2316247,-0.7465895,-0.7279334,-0.5065945,0.4881739,-0.1219616,0.7447115,1.62408,0.1915267,0.4149818,1.22433,0.2446076,288.2387,217.7944,3.075682,False
2,0.3333333,-0.8571413,0.5677015,-0.7161878,-1.358347,-4.138671,3.086191,0.6169194,1.308978,0.4871571,-1.796894,-0.1151877,81.9,13.3,-0.06762624,-0.776599,0.7347715,-0.7029216,-3.986753,-0.3055261,0.6223513,1.54948,0.3642964,-0.2378156,-0.7349373,-0.7044103,-0.5126489,0.4708052,-0.1039187,0.7467209,1.624247,0.190495,0.4125088,1.230663,0.2462605,287.5462,215.7491,5.585565,True
2,0.3444445,-0.8509597,0.6337416,-0.7177403,-1.349938,-4.147437,3.097225,0.6166965,1.311798,0.4875066,-1.799532,-0.237659,81.9,13.3,-0.09007818,-0.7659255,0.723221,-0.6932017,-3.995168,-0.2971579,0.6240042,1.551698,0.3637068,-0.250473,-0.7253819,-0.6904337,-0.519065,0.4536357,-0.08581557,0.7489381,1.624598,0.1893919,0.4098518,1.23697,0.2481234,287.0033,213.8113,8.065629,True
2,0.3555556,-0.834181,0.7147416,-0.7204801,-1.34146,-4.158301,3.108103,0.616323,1.314222,0.4878924,-1.803003,-0.3121129,81.9,13.3,-0.1326527,-0.7276009,0.7310221,-0.6834455,-4.001276,-0.2893293,0.6253198,1.553739,0.3631063,-0.2577063,-0.6956145,-0.6679086,-0.5250124,0.4396939,-0.07062543,0.7508484,1.62469,0.1884758,0.4071047,1.243338,0.2501047,286.57,211.874,10.60589,True
2,0.3666667,-0.8119734,0.7616583,-0.722998,-1.333137,-4.16779,3.118451,0.6160791,1.31662,0.4882109,-1.807702,-0.4231997,81.2,21.9,-0.159106,-0.6754799,0.7632496,-0.6726063,-4.005356,-0.283363,0.6267917,1.555996,0.3624732,-0.2713445,-0.6626464,-0.6463884,-0.5309784,0.4266642,-0.05588777,0.7530091,1.624858,0.187489,0.4042189,1.249842,0.2521802,286.1424,209.7249,13.36605,True
2,0.3777778,-0.7791004,0.8011461,-0.7255094,-1.324699,-4.177857,3.128517,0.6159873,1.319117,0.4883573,-1.813626,-0.534071,81.2,21.9,-0.16324,-0.6435663,0.7846404,-0.6619489,-4.010418,-0.2775214,0.6279808,1.557835,0.3618641,-0.2851714,-0.639178,-0.6483395,-0.53791,0.4138356,-0.04124704,0.7550135,1.624803,0.1867287,0.4013145,1.256561,0.2542727,285.688,207.3769,16.36744,True
2,0.3888889,-0.7791004,0.8011461,-0.7255094,-1.324699,-4.177857,3.128517,0.6159873,1.319117,0.4883573,-1.819835,-0.5586218,81.2,21.9,-0.16324,-0.6435663,0.7846404,-0.6619489,-4.010418,-0.2775214,0.6279808,1.557835,0.3618641,-0.2851714,-0.639178,-0.6483395,-0.53791,0.4138356,-0.04124704,0.7550135,1.624803,0.1867287,0.3984363,1.263473,0.256368,285.1454,204.5899,19.80044,True
2,0.4,-0.7186098,0.8651965,-0.7346171,-1.307977,-4.199544,-3.135007,0.6148547,1.323491,0.4888089,-1.834122,-1.297179,81.2,21.9,-0.1849887,-0.6221253,0.7209205,-0.6445467,-4.025214,-0.2609591,0.6300023,1.561498,0.3604081,-0.3374207,-0.5943207,-0.6669421,-0.5529149,0.3895579,-0.01157836,0.7588288,1.624976,0.1849713,0.3960141,1.270421,0.2584253,284.3271,201.7523,23.51859,True
2,0.4111111,-0.6623889,0.9399543,-0.7342042,-1.299777,-4.213215,-3.126022,0.6141032,1.325244,0.489002,-1.826972,0.6694664,81.2,21.9,-0.2064019,-0.5954677,0.7051271,-0.6360401,-4.031332,-0.2529319,0.6307304,1.563178,0.3597898,-0.3764366,-0.5240632,-0.6301916,-0.5587147,0.3831121,-0.0005102617,0.7604511,1.624962,0.1844847,0.3945242,1.276756,0.260173,283.2798,198.5166,27.46342,True
2,0.4222222,-0.6348456,0.9879929,-0.730366,-1.291967,-4.226228,-3.116248,0.6138537,1.327269,0.4891534,-1.840091,-1.200543,81.6,31.4,-0.2418052,-0.520835,0.6692748,-0.6293178,-4.033836,-0.246927,0.631075,1.564496,0.3591053,-0.4007561,-0.4793164,-0.6181359,-0.5650961,0.3759248,0.01054319,0.7621512,1.624972,0.1838386,0.3921477,1.283272,0.2613639,283.688,194.4538,31.45946,True
2,0.4333333,-0.6052794,1.072283,-0.7257012,-1.284537,-4.241867,-3.106344,0.6132038,1.328776,0.4894164,-1.850595,-0.9433236,81.6,31.4,-0.2974175,-0.4185295,0.6442581,-0.6229549,-4.03301,-0.2421213,0.6312873,1.565831,0.3584919,-0.4198842,-0.4569143,-0.6189829,-0.5720257,0.368008,0.0222832,0.7638645,1.624934,0.1833315,0.3894784,1.290203,0.2626995,283.8714,190.165,35.8022,True
2,0.4444444,-0.5736087,1.155493,-0.7178782,-1.277326,-4.258204,-3.095958,0.6131237,1.330327,0.489476,-1.857783,-0.6440105,81.6,31.4,-0.3486774,-0.3119918,0.6288126,-0.6163242,-4.030572,-0.238571,0.6315771,1.567037,0.3577116,-0.4443941,-0.4195479,-0.6282589,-0.579457,0.3623033,0.03278884,0.7655401,1.624933,0.1830018,0.3867408,1.297344,0.2644527,283.5635,185.7377,40.61617,True
2,0.4555556,-0.5524457,1.207851,-0.7055132,-1.270552,-4.274801,-3.085666,0.6125106,1.331797,0.4897568,-1.866392,-0.7763306,81.6,31.4,-0.3722026,-0.260844,0.6173407,-0.6096311,-4.030089,-0.2339763,0.6316491,1.568206,0.3570685,-0.4602355,-0.3897732,-0.6333951,-0.5867966,0.3564086,0.04331924,0.7671824,1.624903,0.182656,0.3841813,1.304502,0.2666806,283.1938,181.0111,46.00564,True
2,0.4666667,-0.5260724,1.29433,-0.6901691,-1.264551,-4.29322,-3.075241,0.6117668,1.333297,0.4906998,-1.874574,-0.7354761,80.7,37.6,-0.3895538,-0.2128398,0.5717386,-0.604479,-4.029746,-0.2292817,0.6312383,1.569074,0.3564122,-0.4710147,-0.3672582,-0.6385465,-0.5944586,0.3513073,0.05316841,0.7686645,1.624835,0.1822731,0.381626,1.311534,0.2693362,282.9618,175.8049,51.95353,True
2,0.4777778,-0.5124682,1.380767,-0.6748395,-1.258769,-4.313025,-3.063981,0.6111212,1.334396,0.4910071,-1.883325,-0.7879776,80.7,37.6,-0.3993922,-0.2074432,0.5334617,-0.5992283,-4.031983,-0.2226051,0.6309744,1.570143,0.3557198,-0.5003178,-0.2736244,-0.5911379,-0.5995638,0.351703,0.05934002,0.7699492,1.624604,0.1822917,0.3790897,1.318392,0.2723766,282.9155,171.0141,57.57923,True
2,0.4888889,-0.4689134,1.438611,-0.6519024,-1.253629,-4.332599,-3.054187,0.6101086,1.335451,0.4912152,-1.892541,-0.8297868,80.7,37.6,-0.4241034,-0.1701024,0.5017292,-0.5947334,-4.031332,-0.2175137,0.6303223,1.571126,0.3551197,-0.5167349,-0.1789825,-0.5299802,-0.6035852,0.3539365,0.06384822,0.7711746,1.624513,0.1822889,0.3763634,1.325101,0.2757154,283.043,166.6354,62.696,True
2,0.5,-0.4327005,1.451613,-0.6371624,-1.248422,-4.350267,-3.045013,0.6093804,1.33674,0.4914722,-1.901118,-0.7709322,80.7,37.6,-0.4665875,-0.1168945,0.5255387,-0.5881293,-4.027857,-0.2136862,0.6297989,1.572151,0.3544977,-0.5155067,-0.1566793,-0.5139249,-0.6087677,0.3524273,0.07069495,0.772559,1.624481,0.1822758,0.373381,1.331707,0.279467,283.2547,162.5819,67.46671,True
2,0.5111111,-0.384743,1.456125,-0.6223956,-1.243557,-4.367976,-3.036659,0.6084471,1.337893,0.4916315,-1.911394,-0.9269443,80.7,37.6,-0.4951149,-0.09780139,0.5641057,-0.5805957,-4.025706,-0.2089205,0.6291073,1.573245,0.3537645,-0.5109917,-0.1226797,-0.4882818,-0.61327,0.3528118,0.07594084,0.7735285,1.624473,0.1825311,0.3700196,1.338245,0.2835097,283.4756,158.7662,72.26329,True
2,0.5222223,-0.3634338,1.458349,-0.6192669,-1.238491,-4.385947,-3.027486,0.6075902,1.33925,0.4917834,-1.920429,-0.812192,79.4,45,-0.4971768,-0.1010281,0.5758404,-0.5734851,-4.025813,-0.2032727,0.6284355,1.574342,0.3532608,-0.5173473,-0.1045545,-0.488189,-0.6190763,0.3522293,0.08232097,0.7748369,1.624369,0.1826375,0.3664567,1.344654,0.2877502,283.6884,155.2905,76.95088,True
2,0.5333334,-0.3335595,1.445678,-0.6171115,-1.233561,-4.403267,-3.019149,0.6065542,1.340477,0.4918997,-1.930035,-0.8655782,79.4,45,-0.4822985,-0.1180565,0.5693223,-0.5670578,-4.027052,-0.197365,0.6275154,1.57532,0.3526065,-0.533223,-0.06726027,-0.4826192,-0.6242396,0.3540175,0.08735994,0.7758012,1.624328,0.1828389,0.3631038,1.350826,0.2920468,283.922,152.4382,81.1241,True
2,0.5444446,-0.3335595,1.445678,-0.6171115,-1.233561,-4.403267,-3.019149,0.6065542,1.340477,0.4918997,-1.938155,-0.7291152,79.4,45,-0.4822985,-0.1180565,0.5693223,-0.5670578,-4.027052,-0.197365,0.6275154,1.57532,0.3526065,-0.533223,-0.06726027,-0.4826192,-0.6242396,0.3540175,0.08735994,0.7758012,1.624328,0.1828389,0.3600352,1.356725,0.2961773,284.232,149.9028,84.89397,True
2,0.5555557,-0.298367,1.439417,-0.6139557,-1.224111,-4.438669,-3.001666,0.6046886,1.342741,0.4923019,-1.949914,-1.063409,79.4,45,-0.493209,-0.02425045,0.5312238,-0.5569666,-4.01991,-0.1923692,0.6256174,1.57702,0.3511214,-0.5774319,-0.01090866,-0.4256402,-0.6321955,0.3575569,0.09873404,0.7775505,1.624225,0.1832426,0.3577299,1.362239,0.2999998,284.3725,147.587,88.54918,True
2,0.5666668,-0.2897542,1.417117,-0.6095572,-1.219673,-4.455364,-2.993,0.6037173,1.34372,0.4924521,-1.953406,-0.3045708,79.4,45,-0.5240413,0.04602024,0.5443466,-0.5510411,-4.012311,-0.1919633,0.6245634,1.577822,0.3503945,-0.5730008,-0.00245893,-0.4054055,-0.6359628,0.3586221,0.1040404,0.7782997,1.624214,0.1834989,0.3564991,1.367013,0.3029194,284.537,144.7715,92.2858,True
2,0.577778,-0.2864195,1.387412,-0.5965478,-1.215902,-4.47148,-2.984445,0.602652,1.344757,0.4925735,-1.963524,-0.9169664,77.4,51.5,-0.522904,0.07046765,0.5582442,-0.5445855,-4.007721,-0.1901169,0.6234083,1.578724,0.3498819,-0.5598288,0.02934569,-0.3617261,-0.6384497,0.3614214,0.1074641,0.7789172,1.624252,0.1838653,0.3539591,1.372148,0.3052133,285.7689,143.7832,93.23759,True
2,0.5888891,-0.2862485,1.347061,-0.5781513,-1.21247,-4.486392,-2.976121,0.6015452,1.345778,0.4928079,-1.972263,-0.7850441,77.4,51.5,-0.5069135,0.0534254,0.5591762,-0.5385556,-4.005433,-0.1870873,0.6225401,1.579627,0.3493772,-0.5564559,0.04205811,-0.3414695,-0.6413782,0.3634908,0.1117481,0.779547,1.624258,0.1841686,0.3512984,1.377528,0.3077314,286.6228,142.6742,94.59958,True
2,0.6000003,-0.2849867,1.307883,-0.5469664,-1.209799,-4.501245,-2.967818,0.6004578,1.346805,0.4930818,-1.980446,-0.7362546,77.4,51.5,-0.4718006,0.0001506507,0.5514061,-0.5322226,-4.007641,-0.1811786,0.6215495,1.580504,0.3488817,-0.5488498,0.04517382,-0.3223265,-0.6441814,0.3649282,0.1164204,0.7800881,1.624281,0.1845391,0.3489451,1.382941,0.3105237,287.1077,140.9693,96.9798,True
2,0.6111114,-0.2815797,1.260137,-0.5210676,-1.207173,-4.515143,-2.959905,0.5992936,1.347811,0.4932129,-1.988331,-0.7092741,77.4,51.5,-0.4506064,-0.05306804,0.5309278,-0.5266854,-4.010459,-0.1745297,0.6207275,1.58135,0.3484645,-0.5465829,0.03338671,-0.3021407,-0.6468062,0.3653838,0.1220287,0.7805828,1.624282,0.1848631,0.3470002,1.388287,0.3134507,287.5579,139.1339,99.69035,True
2,0.6222225,-0.2729293,1.237974,-0.4985336,-1.204915,-4.529984,-2.951961,0.5982335,1.348889,0.493366,-1.996239,-0.711866,74.4,55.7,-0.4347765,-0.07752401,0.5062814,-0.5216525,-4.011986,-0.1688529,0.6201535,1.582144,0.3479669,-0.5390537,0.02481037,-0.2904905,-0.6494662,0.3658918,0.1273273,0.7811018,1.624192,0.1851285,0.3454299,1.393535,0.3163683,288.0778,137.4152,102.2422,True
2,0.6333337,-0.2652545,1.181652,-0.482172,-1.202421,-4.542413,-2.944885,0.5970974,1.349899,0.4933691,-2.00397,-0.6957951,74.4,55.7,-0.4274966,-0.08705273,0.4774534,-0.5172977,-4.013254,-0.1633559,0.6193191,1.582985,0.3475609,-0.5337158,0.01200432,-0.2863117,-0.6524425,0.3659508,0.132937,0.7815015,1.624164,0.1855109,0.3440807,1.398724,0.3191653,288.6331,135.802,104.5792,True
2,0.6444448,-0.2649953,1.12215,-0.4625659,-1.200122,-4.554442,-2.937747,0.5960796,1.350746,0.4932814,-2.011702,-0.6962378,74.4,55.7,-0.4360428,-0.07638407,0.4743409,-0.5120417,-4.012014,-0.1592211,0.6185073,1.583771,0.3471842,-0.5283692,0.0130465,-0.2831397,-0.655389,0.3669772,0.1377967,0.7820094,1.624218,0.1861062,0.3428173,1.403862,0.3217432,289.2151,134.2997,106.725,True
2,0.655556,-0.2648505,1.088174,-0.4463461,-1.198092,-4.566722,-2.930374,0.5949991,1.351717,0.4933088,-2.018941,-0.6512386,74.4,55.7,-0.4456663,-0.06678882,0.4690934,-0.50706,-4.011241,-0.1546415,0.6176062,1.584553,0.3468161,-0.5145072,0.02900779,-0.2842546,-0.658343,0.369127,0.1413574,0.7822555,1.624228,0.1867537,0.3416072,1.408919,0.3241207,289.8213,132.9384,108.6904,True
2,0.6666671,-0.2698412,1.00959,-0.4106124,-1.196668,-4.576612,-2.923609,0.5941175,1.35245,0.4934497,-2.025749,-0.6124372,74.4,55.7,-0.4437923,-0.05285713,0.4296938,-0.5036155,-4.010371,-0.1504489,0.6165769,1.5852,0.3466616,-0.4975,0.05243111,-0.29497,-0.6617715,0.3719529,0.1439564,0.7825916,1.624243,0.1873987,0.3405182,1.413774,0.326233,290.4083,131.6191,110.6388,True
2,0.6777782,-0.2760597,0.9724813,-0.3868605,-1.195516,-4.587872,-2.916283,0.5930922,1.353237,0.4936779,-2.032341,-0.5931931,72.1,60,-0.435452,-0.04214227,0.4019639,-0.5000644,-4.00952,-0.1466102,0.61569,1.58581,0.3464241,-0.470843,0.09181321,-0.3003808,-0.6649902,0.3764762,0.1446674,0.7827477,1.624287,0.1881189,0.3395956,1.418329,0.3280449,291.0001,130.4791,112.3345,True
2,0.6888894,-0.2779363,0.9248596,-0.3407126,-1.195343,-4.597485,-2.909632,0.5921158,1.353865,0.4937878,-2.038596,-0.5625833,72.1,60,-0.420808,-0.004771322,0.360398,-0.4976031,-4.006344,-0.1451473,0.6147244,1.586351,0.3462846,-0.4331948,0.1225164,-0.2600907,-0.6662638,0.380826,0.1448355,0.7827808,1.62432,0.1888108,0.3388295,1.422587,0.3296042,291.5822,129.5876,113.6486,True
2,0.7000005,-0.2779363,0.9248596,-0.3407126,-1.195343,-4.597485,-2.909632,0.5921158,1.353865,0.4937878,-2.044844,-0.5624235,72.1,60,-0.420808,-0.004771322,0.360398,-0.4976031,-4.006344,-0.1451473,0.6147244,1.586351,0.3462846,-0.4331948,0.1225164,-0.2600907,-0.6662638,0.380826,0.1448355,0.7827808,1.62432,0.1888108,0.338302,1.426518,0.3309647,292.1174,128.8072,114.7344,True
2,0.7111117,-0.2806974,0.8476813,-0.2570555,-1.195999,-4.616368,-2.896371,0.5902826,1.355087,0.4938717,-2.053972,-0.8259566,72.1,60,-0.407104,0.001673907,0.3379538,-0.4906155,-4.003605,-0.1386338,0.6130697,1.587541,0.345969,-0.3891519,0.09669203,-0.2072419,-0.669206,0.383705,0.1503075,0.7830033,1.624364,0.1899145,0.3381361,1.430092,0.3321851,292.5149,127.9945,115.9086,True
2,0.7222228,-0.280531,0.814932,-0.2195191,-1.196793,-4.625522,-2.889818,0.5895435,1.3556,0.4937129,-2.053656,0.03943631,69.4,63.5,-0.3933669,0.004904091,0.3197713,-0.4875055,-4.002648,-0.135544,0.6123959,1.588187,0.3456962,-0.351711,0.08587822,-0.1841185,-0.6704401,0.3846759,0.1524276,0.7831949,1.624372,0.1902075,0.3384454,1.433078,0.3330625,292.9077,126.9651,117.1489,True
2,0.7333339,-0.2814695,0.789504,-0.1990977,-1.197325,-4.634194,-2.883485,0.58868,1.356077,0.4937232,-2.061705,-0.733045,69.4,63.5,-0.3562868,-0.001412511,0.2865024,-0.4854884,-4.002533,-0.1330142,0.6118262,1.588692,0.345686,-0.327241,0.06666398,-0.1843693,-0.6724551,0.3853315,0.1547382,0.7832811,1.62435,0.1906629,0.3375824,1.436633,0.3337386,293.6075,126.9071,117.0852,True
2,0.7444451,-0.287622,0.7450086,-0.1625535,-1.198462,-4.641488,-2.877559,0.5878115,1.356461,0.4935963,-2.067417,-0.5119528,69.4,63.5,-0.3275934,-0.03972082,0.2724078,-0.4826441,-4.005283,-0.1279393,0.6112544,1.589095,0.3456666,-0.3028335,0.03574196,-0.1899613,-0.6746256,0.3848591,0.157702,0.7830722,1.624194,0.1911075,0.3366716,1.440326,0.3346853,294.0977,126.549,117.5994,True
2,0.7555562,-0.2841934,0.6984108,-0.1249464,-1.199936,-4.647923,-2.872239,0.5870423,1.356747,0.4935515,-2.072457,-0.4535627,69.4,63.5,-0.2849975,-0.08870116,0.2667212,-0.4794973,-4.009959,-0.1220263,0.610752,1.589472,0.3458364,-0.2804796,0.02609906,-0.1890873,-0.6765414,0.3852183,0.1599388,0.7832144,1.624121,0.1917329,0.336006,1.44396,0.3359062,294.4448,125.8951,118.6579,True
2,0.7666674,-0.2839578,0.6518372,-0.09052168,-1.201382,-4.654704,-2.866681,0.5862758,1.357044,0.4935448,-2.076688,-0.3806985,69.4,63.5,-0.2436415,-0.1259123,0.2344303,-0.4776614,-4.015217,-0.1160715,0.610293,1.589827,0.3459826,-0.2367122,0.03132339,-0.1787588,-0.6780509,0.3864518,0.160142,0.7831249,1.624025,0.1922193,0.3356038,1.447432,0.3373103,294.8276,125.0957,119.9552,True
2,0.7777785,-0.2795658,0.625368,-0.06798048,-1.202984,-4.66088,-2.861529,0.5855493,1.357277,0.4933603,-2.080681,-0.3598026,67.1,65.3,-0.2225229,-0.1354314,0.2055261,-0.4759932,-4.018268,-0.1113103,0.6098869,1.590159,0.3461242,-0.2090033,0.02701472,-0.176855,-0.6798496,0.3872168,0.1609513,0.7827896,1.623981,0.192621,0.335399,1.450684,0.3387465,295.1976,124.1853,121.3636,True
2,0.7888896,-0.271919,0.5872577,-0.03683661,-1.205096,-4.665932,-2.857013,0.5848411,1.35735,0.4932251,-2.083772,-0.2778161,67.1,65.3,-0.2130758,-0.1343201,0.1830974,-0.4745572,-4.021091,-0.1067637,0.6093918,1.590457,0.3462577,-0.1791181,0.02161452,-0.1685821,-0.6814321,0.3877025,0.1614656,0.7826231,1.623914,0.1930258,0.3353111,1.453652,0.3401049,295.56,123.2826,122.6834,True
2,0.8000008,-0.2642946,0.5480696,-0.006753027,-1.207266,-4.670666,-2.852449,0.5842528,1.357306,0.4929717,-2.086655,-0.2598143,67.1,65.3,-0.2026302,-0.1172002,0.1511124,-0.4737401,-4.022164,-0.1038319,0.6089038,1.590736,0.3463693,-0.1523177,0.01084922,-0.1432482,-0.6820648,0.3877555,0.1624768,0.782356,1.623997,0.1934042,0.3351777,1.456358,0.3413141,295.9167,122.5389,123.7699,True
2,0.8111119,-0.2577532,0.5205864,0.0211232,-1.20978,-4.675263,-2.848218,0.5835997,1.357204,0.4928014,-2.089215,-0.2305552,67.1,65.3,-0.1921035,-0.09478898,0.131914,-0.4729145,-4.022622,-0.1016284,0.608448,1.590882,0.3465805,-0.122458,-0.01053055,-0.1350258,-0.6834103,0.3867857,0.1635767,0.7821089,1.623964,0.193748,0.3349538,1.458783,0.3423295,296.2249,121.9118,124.7059,True
2,0.8222231,-0.252316,0.498364,0.04045093,-1.212249,-4.679865,-2.843984,0.5830361,1.357162,0.4927366,-2.091043,-0.1641284,67.1,65.3,-0.1772994,-0.09049479,0.1147849,-0.4720048,-4.024545,-0.09836998,0.6081463,1.590985,0.3468435,-0.1053044,-0.01703349,-0.1192107,-0.6845309,0.3858046,0.1651133,0.7821813,1.624139,0.1938956,0.3346902,1.460851,0.343143,296.46,121.3217,125.5617,True
2,0.8333342,-0.2404199,0.4591501,0.06413536,-1.214831,-4.683172,-2.840611,0.5824229,1.356919,0.492588,-2.092979,-0.1747725,68.1,71.3,-0.15821,-0.09472385,0.1008082,-0.4712453,-4.02702,-0.09505328,0.6077459,1.591092,0.3470788,-0.09562546,-0.017085,-0.1075678,-0.6853378,0.38572,0.1659131,0.7819418,1.624111,0.1942394,0.3344067,1.462548,0.3437447,296.645,120.8545,126.2405,True
2,0.8444453,-0.2317335,0.4209785,0.08783095,-1.217605,-4.685985,-2.837303,0.581979,1.356609,0.4924934,-2.09443,-0.1303558,68.1,71.3,-0.1317239,-0.1063851,0.0771854,-0.4709731,-4.030393,-0.0914122,0.6074769,1.591112,0.3474059,-0.0817131,-0.008625142,-0.1001944,-0.6862364,0.3860291,0.1662867,0.781672,1.624021,0.1947186,0.334073,1.463937,0.3441886,296.8081,120.5417,126.6595,True
2,0.8555565,-0.2317335,0.4209785,0.08783095,-1.217605,-4.685985,-2.837303,0.581979,1.356609,0.4924934,-2.096031,-0.1446444,68.1,71.3,-0.1317239,-0.1063851,0.0771854,-0.4709731,-4.030393,-0.0914122,0.6074769,1.591112,0.3474059,-0.0817131,-0.008625142,-0.1001944,-0.6862364,0.3860291,0.1662867,0.781672,1.624021,0.1947186,0.3337008,1.465095,0.3445663,296.9352,120.3378,126.9142,True
2,0.8666676,-0.1834972,0.345681,0.114887,-1.222485,-4.690726,-2.832828,0.5809698,1.356086,0.4921861,-2.09923,-0.2907381,68.1,71.3,-0.09997343,-0.120162,0.04393268,-0.4705779,-4.037111,-0.08394737,0.6067713,1.591156,0.3481061,-0.05601668,0.01258675,-0.0886104,-0.6877235,0.3873345,0.1658326,0.7811294,1.623634,0.1954706,0.3334428,1.465979,0.3448986,296.9622,120.1087,127.2639,True
2,0.8777788,-0.1674328,0.3277024,0.1256335,-1.225101,-4.693466,-2.830554,0.580534,1.355714,0.4920087,-2.096056,0.2930561,69.5,81.4,-0.09046152,-0.1190683,0.03108773,-0.470564,-4.039886,-0.08080963,0.6063932,1.591098,0.3483365,-0.05279414,0.01897059,-0.08753654,-0.6884325,0.3881561,0.1655959,0.7805332,1.623402,0.1958239,0.3333771,1.466487,0.3451434,297.055,119.9261,127.4839,True
2,0.8888899,-0.1417567,0.3012269,0.1364147,-1.227597,-4.695268,-2.82927,0.5801359,1.355374,0.4919021,-2.09952,-0.3190815,69.5,81.4,-0.07882599,-0.1094528,0.01824961,-0.4707462,-4.041823,-0.07862397,0.6058778,1.591078,0.3486178,-0.04847987,0.02640467,-0.08222067,-0.6890727,0.3891944,0.1651658,0.7801157,1.623321,0.1962013,0.3328814,1.467186,0.3453804,297.1145,119.6611,127.7057,True
2,0.900001,-0.1235534,0.2811256,0.1471726,-1.230317,-4.697269,-2.827845,0.579681,1.355049,0.491823,-2.100121,-0.05152534,69.5,81.4,-0.07247315,-0.09985225,0.01290139,-0.4706807,-4.04353,-0.07642846,0.6053447,1.591157,0.3490069,-0.04417034,0.0242508,-0.07586432,-0.6895915,0.3896924,0.1651109,0.7794995,1.623395,0.1965966,0.3324004,1.467836,0.3456889,297.1371,119.3604,128.0932,True
2,0.9111122,-0.07758293,0.2430488,0.1654473,-1.233113,-4.697919,-2.828343,0.5793514,1.354725,0.4917223,-2.101153,-0.09395402,69.5,81.4,-0.06716906,-0.06575724,0.01080322,-0.470637,-4.042666,-0.07659118,0.6046855,1.591178,0.3492403,-0.04189499,0.02633145,-0.05669565,-0.6894189,0.3904724,0.1650113,0.7788174,1.623264,0.1969516,0.3319747,1.468391,0.3460868,297.1548,119.1413,128.4355,True
2,0.9222233,-0.05300305,0.2218482,0.1687443,-1.235623,-4.69923,-2.828095,0.5789763,1.354473,0.4917316,-2.101443,-0.02558558,69.5,81.4,-0.07146221,-0.04337761,0.006611571,-0.4706871,-4.042167,-0.07610329,0.6042144,1.591064,0.3496532,-0.04293314,0.03592297,-0.05452535,-0.6898333,0.3919182,0.1644531,0.7783217,1.623292,0.197449,0.331617,1.46884,0.3465696,297.168,118.9026,128.788,True
2,0.9333345,-0.01770239,0.1750743,0.1668612,-1.237437,-4.699,-2.829185,0.5785931,1.354293,0.4916902,-2.103083,-0.1496334,65.3,99.9,-0.07148247,-0.03911159,0.003422987,-0.4707425,-4.042991,-0.0745781,0.6036707,1.591071,0.3498993,-0.03766685,0.03487255,-0.06202714,-0.6907116,0.3927461,0.1640545,0.7778121,1.623259,0.1978147,0.3312665,1.469232,0.3471183,297.144,118.618,129.1867,True
2,0.9444456,0.01340401,0.09946266,0.1556032,-1.238356,-4.697329,-2.830743,0.5782397,1.35414,0.4918036,-2.10279,0.0280542,65.3,99.9,-0.06300041,-0.0422962,-0.001961632,-0.4708948,-4.04447,-0.07271628,0.6031038,1.59112,0.3502173,-0.02923229,0.02211176,-0.07065178,-0.6917731,0.3928784,0.1639764,0.7773134,1.623179,0.1981463,0.3309527,1.469493,0.3477007,297.102,118.2632,129.6634,True
2,0.9555568,0.03912731,0.04514599,0.1452731,-1.239209,-4.695699,-2.832624,0.577842,1.353988,0.4918189,-2.103558,-0.07055194,65.3,99.9,-0.04278086,-0.02843841,-0.005247831,-0.4709182,-4.044261,-0.07313067,0.6025884,1.591156,0.3503981,-0.03450856,0.02210017,-0.06421851,-0.6922259,0.3933738,0.1641589,0.7767905,1.623171,0.1984682,0.3305734,1.469656,0.3482731,297.0476,117.9812,130.0701,True
2,0.9666679,0.08943535,-0.04110344,0.1287227,-1.239159,-4.692042,-2.836487,0.5774305,1.353904,0.4918075,-2.103602,-0.00344827,65.3,99.9,-0.03325504,0.00353948,-0.01376839,-0.4714306,-4.042055,-0.07502604,0.6018722,1.591204,0.3505764,-0.05134934,0.0263108,-0.03851061,-0.6917614,0.3940626,0.1648673,0.7762313,1.623246,0.198725,0.3301679,1.469648,0.3487476,296.9641,117.7287,130.462,True
2,0.977779,0.1129735,-0.07300411,0.126772,-1.240171,-4.689895,-2.839209,0.5771246,1.353632,0.4918771,-2.103856,-0.02327964,65.3,99.9,-0.03964795,0.03016905,-0.01260787,-0.4715489,-4.039456,-0.07662208,0.6011153,1.591147,0.3507752,-0.04911506,0.03053471,-0.02573637,-0.6916842,0.3949288,0.1646928,0.7757373,1.623327,0.1990659,0.3297782,1.469395,0.3490228,296.8479,117.5418,130.7403,True
2,0.9888902,0.1492904,-0.09948888,0.1311375,-1.241171,-4.687483,-2.842892,0.5769256,1.353374,0.4919343,-2.105068,-0.1107517,56.1,100,-0.04600005,0.05785061,-0.005057448,-0.4714759,-4.035888,-0.0790594,0.6004143,1.591155,0.3509667,-0.04264843,0.030495,-0.0161991,-0.691502,0.3954079,0.1645924,0.7751647,1.623311,0.1993854,0.3293696,1.468909,0.3490116,296.7014,117.4279,130.892,True
2,1.000001,0.1802277,-0.1078482,0.1407209,-1.24266,-4.685414,-2.846517,0.5767654,1.353169,0.4920585,-2.10436,0.06554101,56.1,100,-0.02894792,0.06637148,-0.003013305,-0.4714727,-4.033886,-0.08102481,0.5997865,1.591139,0.3512321,-0.03410916,0.03687866,-0.01517828,-0.6915233,0.3966098,0.1637722,0.7747071,1.62328,0.1996689,0.3289905,1.468103,0.3486657,296.5544,117.3718,130.8713,True
2,1.011112,0.1802277,-0.1078482,0.1407209,-1.24266,-4.685414,-2.846517,0.5767654,1.353169,0.4920585,-2.104932,-0.0530801,56.1,100,-0.02894792,0.06637148,-0.003013305,-0.4714727,-4.033886,-0.08102481,0.5997865,1.591139,0.3512321,-0.03410916,0.03687866,-0.01517828,-0.6915233,0.3966098,0.1637722,0.7747071,1.62328,0.1996689,0.3286131,1.467022,0.3480949,296.3847,117.4578,130.5545,True
2,1.022224,0.2186535,-0.1290084,0.1439856,-1.244982,-4.68092,-2.853917,0.5765466,1.352664,0.4922633,-2.101979,0.2703632,56.1,100,0.01364631,0.008860642,-0.007649978,-0.4715899,-4.037124,-0.0794666,0.5986044,1.591092,0.3517566,-0.04049127,0.02196108,-0.01091188,-0.6917396,0.3969627,0.1645727,0.7734808,1.623279,0.2002192,0.3282287,1.465747,0.3474299,296.2009,117.7201,130.0018,True
2,1.033335,0.2442721,-0.1470467,0.141928,-1.245865,-4.67829,-2.858273,0.5764617,1.352498,0.4923332,-2.106955,-0.4579245,46.8,100,0.02851348,0.007813524,-0.01520212,-0.4720027,-4.036973,-0.08037899,0.5978985,1.591044,0.3520098,-0.05954516,0.01768855,0.005204578,-0.6911446,0.3970833,0.1657032,0.772895,1.623284,0.2005701,0.3277649,1.464552,0.3467926,295.9673,118.2603,129.1683,True
2,1.044446,0.2698561,-0.1544434,0.1387271,-1.246691,-4.675846,-2.862959,0.576491,1.352164,0.4923997,-2.103703,0.3003392,46.8,100,0.02624312,0.02809617,-0.03645379,-0.4731942,-4.034844,-0.08244321,0.5970316,1.59088,0.3522477,-0.05630597,0.0283253,0.009477899,-0.6907393,0.3981133,0.1655269,0.7723323,1.62331,0.2009277,0.3273807,1.463232,0.3463508,295.7546,118.1882,128.9478,True
2,1.055557,0.2954178,-0.1532964,0.1386678,-1.247852,-4.673701,-2.867723,0.5765401,1.351817,0.4925628,-2.102184,0.1344924,46.8,100,0.01769057,0.06325105,-0.03952467,-0.47382,-4.030919,-0.08579107,0.5962958,1.59077,0.3525379,-0.04777803,0.04110643,0.007323687,-0.6905864,0.399558,0.1645876,0.7716925,1.62339,0.2013202,0.3269293,1.461764,0.3461053,295.5014,118.1293,128.8375,True
2,1.066668,0.3156596,-0.1521516,0.1407461,-1.248979,-4.67153,-2.872596,0.5766451,1.351456,0.4927049,-2.100553,0.1464135,46.8,100,0.0155146,0.08350343,-0.04586381,-0.4747015,-4.027575,-0.08882841,0.5955654,1.59062,0.352746,-0.03382567,0.06449471,0.01580978,-0.6898786,0.4017588,0.1627796,0.7710699,1.623389,0.2016914,0.3263417,1.460169,0.3460355,295.2497,118.2743,128.6177,True
2,1.077779,0.3273767,-0.1531783,0.1407301,-1.250075,-4.669321,-2.87719,0.5767006,1.351206,0.4928532,-2.098262,0.2061817,46.8,100,0.03251448,0.08884464,-0.05235361,-0.4755916,-4.025501,-0.09158238,0.5948697,1.590483,0.3531101,-0.03273359,0.06874973,0.0179489,-0.6894008,0.4030479,0.1621207,0.7704638,1.62338,0.2021883,0.3256619,1.458368,0.3461642,294.9677,118.5151,128.3348,True
2,1.08889,0.3422735,-0.1478041,0.1406604,-1.251192,-4.667436,-2.882078,0.5769081,1.35086,0.4929464,-2.09536,0.2611801,27.8,100,0.04207633,0.08459432,-0.05668312,-0.4764304,-4.023941,-0.09374833,0.5941774,1.59034,0.353344,-0.04982804,0.05813655,0.01378865,-0.689364,0.4034343,0.1629737,0.769908,1.623412,0.2025077,0.3248574,1.456353,0.346502,294.6207,118.7993,128.0247,True
2,1.100002,0.3550209,-0.1381969,0.1373754,-1.252326,-4.665859,-2.886852,0.5770959,1.350578,0.4930515,-2.09163,0.3362003,27.8,100,0.04734919,0.06756426,-0.06527095,-0.4774078,-4.023988,-0.09429721,0.5934761,1.590305,0.3536866,-0.05301789,0.05281578,0.01699956,-0.6889219,0.4041676,0.163243,0.7692465,1.623468,0.2028294,0.3238981,1.454136,0.3470116,294.1991,119.1624,127.6876,True
2,1.111113,0.3720246,-0.1242861,0.1383081,-1.253622,-4.664528,-2.891924,0.5773224,1.350215,0.4931481,-2.088056,0.3209007,27.8,100,0.04944745,0.07290389,-0.07060364,-0.4785061,-4.02202,-0.09667621,0.5927922,1.590142,0.3539524,-0.04445717,0.06664463,0.01910611,-0.6884506,0.4059815,0.1620257,0.7686275,1.623495,0.2031975,0.3227638,1.451761,0.3476281,293.7092,119.6667,127.261,True
2,1.122224,0.3773345,-0.1200139,0.1372043,-1.254799,-4.662937,-2.89672,0.5774837,1.349881,0.4932153,-2.083702,0.3921317,27.8,100,0.04945953,0.09100743,-0.06737337,-0.479295,-4.018675,-0.1001439,0.5921026,1.589994,0.354269,-0.02630427,0.09217742,0.02117594,-0.6877906,0.4089615,0.1595705,0.7680076,1.623543,0.2034643,0.321545,1.449201,0.3483199,293.1916,120.3009,126.7381,True
2,1.133335,0.382648,-0.1168095,0.1361056,-1.255931,-4.661336,-2.901585,0.5776622,1.349494,0.4934657,-2.079171,0.4072338,19,100,0.05055133,0.09099415,-0.06311851,-0.4799251,-4.016853,-0.1023461,0.5914634,1.58987,0.3545754,-0.02204442,0.09323643,0.02114535,-0.6874135,0.4104987,0.1585452,0.7673776,1.623607,0.2038381,0.3202467,1.446486,0.3490576,292.6638,121.0387,126.1074,True
2,1.144446,0.3901441,-0.1274236,0.1382927,-1.257057,-4.659167,-2.906798,0.5778605,1.349162,0.4937148,-2.073499,0.5112116,19,100,0.05699258,0.08032852,-0.05572238,-0.4803448,-4.015757,-0.1041573,0.5908515,1.589742,0.3549504,-0.02525423,0.08365857,0.02220036,-0.6871238,0.4114525,0.1583164,0.7669235,1.623764,0.2043033,0.3188967,1.443607,0.3498324,292.1359,121.7967,125.4521,True
2,1.155557,0.3933879,-0.1423337,0.1373302,-1.258145,-4.656687,-2.912052,0.5779387,1.348976,0.4940913,-2.067675,0.5239052,19,100,0.07084221,0.05796402,-0.05691541,-0.4809999,-4.016092,-0.1051126,0.5901628,1.589527,0.3553476,-0.02208383,0.07620754,0.02003111,-0.6867456,0.4124415,0.1576634,0.7662212,1.623849,0.20473,0.3174829,1.440575,0.3506106,291.5996,122.6052,124.7317,True
2,1.166668,0.3933879,-0.1423337,0.1373302,-1.258145,-4.656687,-2.912052,0.5779387,1.348976,0.4940913,-2.061561,0.5500112,19,100,0.07084221,0.05796402,-0.05691541,-0.4809999,-4.016092,-0.1051126,0.5901628,1.589527,0.3553476,-0.02208383,0.07620754,0.02003111,-0.6867456,0.4124415,0.1576634,0.7662212,1.623849,0.20473,0.3160551,1.437365,0.3514045,291.054,123.5033,123.8849,True
2,1.17778,0.3977336,-0.1689535,0.1375028,-1.260109,-4.65143,-2.922553,0.5781848,1.348382,0.4946346,-2.050369,1.013852,19,100,0.09317745,0.08248248,-0.06126743,-0.4827384,-4.011467,-0.111788,0.5888594,1.589201,0.356003,-0.01247799,0.07618906,0.02315089,-0.6859413,0.4151823,0.1556186,0.7650657,1.624047,0.2054548,0.3145455,1.434025,0.35218,290.5059,124.544,122.8959,True
2,1.188891,0.399887,-0.1774834,0.1354263,-1.260998,-4.648761,-2.927875,0.578351,1.34809,0.4948502,-2.051605,-0.1268167,18,100,0.08464406,0.09952691,-0.06224607,-0.483638,-4.008106,-0.1154313,0.5882126,1.589023,0.3563199,-0.01242106,0.07510053,0.03060441,-0.6852511,0.4162737,0.1549134,0.7644848,1.624113,0.2058029,0.3128603,1.430836,0.3528761,289.8821,126.0755,121.424,True
2,1.200002,0.3945071,-0.1626061,0.1321376,-1.262027,-4.647172,-2.932646,0.5785311,1.347644,0.4950223,-2.040467,1.014399,18,100,0.0749857,0.1112595,-0.07282081,-0.485058,-4.00518,-0.1185144,0.5875901,1.58876,0.3567429,-0.003837138,0.07186908,0.0401222,-0.6842785,0.4172842,0.1540181,0.7638255,1.624019,0.2061138,0.3115786,1.42731,0.3536336,289.3313,126.881,120.5987,True
2,1.211113,0.3859162,-0.1424132,0.1288233,-1.263189,-4.645948,-2.937133,0.5787982,1.347193,0.495255,-2.031685,0.7877313,18,100,0.07384063,0.1091534,-0.08560152,-0.4865862,-4.003076,-0.1211672,0.5870032,1.588509,0.3571277,0.00151936,0.07504667,0.043286,-0.6835333,0.4186127,0.1527741,0.7632611,1.624089,0.2064908,0.3102701,1.423492,0.3543542,288.7735,127.7824,119.7006,True
2,1.222224,0.3687978,-0.1200922,0.1297702,-1.26445,-4.644952,-2.940999,0.5790575,1.34674,0.4955614,-2.022911,0.7897574,18,100,0.06835106,0.09109373,-0.1122354,-0.4888035,-4.002937,-0.1218886,0.5865011,1.588268,0.3576078,0.003602631,0.06867532,0.0389858,-0.683201,0.4196332,0.1519389,0.762764,1.624177,0.2068431,0.3088401,1.419437,0.3550239,288.2378,129.1255,118.3656,True
2,1.233335,0.3527927,-0.1116198,0.1297477,-1.2657,-4.643638,-2.944885,0.5792369,1.346369,0.495846,-2.013751,0.8244936,18,100,0.07255803,0.0793966,-0.1218761,-0.4905639,-4.002305,-0.1234586,0.5859716,1.588067,0.3580682,0.01106454,0.07185952,0.03893706,-0.6826417,0.4209532,0.1505456,0.7622023,1.624236,0.2072499,0.3072861,1.415169,0.3557173,287.6938,130.852,116.6198,True
2,1.244446,0.3314733,-0.1074216,0.130834,-1.266973,-4.64219,-2.948284,0.5794284,1.346064,0.496079,-2.003832,0.8934376,21.6,100,0.07575379,0.06554601,-0.1219221,-0.4918795,-4.002172,-0.1245054,0.5854855,1.587985,0.3585272,0.01854483,0.0707726,0.04207085,-0.681944,0.422005,0.1492531,0.7616666,1.624281,0.2076395,0.3056614,1.410727,0.3565299,287.1162,132.8921,114.5477,True
2,1.255558,0.3165903,-0.1149166,0.1319786,-1.268104,-4.640264,-2.952027,0.5794569,1.345852,0.4962342,-1.994019,0.8828927,21.6,100,0.07578559,0.05807943,-0.1176786,-0.4931349,-4.001719,-0.1257798,0.5850945,1.587828,0.3589668,0.03771199,0.06649806,0.0419079,-0.6813463,0.4232049,0.1471759,0.7612039,1.62435,0.2081184,0.3039739,1.406201,0.3575127,286.5062,135.1961,112.2483,True
2,1.266669,0.2836134,-0.128864,0.1332118,-1.269216,-4.637945,-2.954757,0.5794806,1.34564,0.4964716,-1.983409,0.9555862,21.6,100,0.08324244,0.04956522,-0.117741,-0.4944819,-4.001298,-0.1273265,0.5846953,1.587654,0.3592832,0.04720028,0.05159894,0.03219874,-0.6813341,0.423245,0.1462584,0.7607987,1.624431,0.2084291,0.3022358,1.401673,0.3586483,285.8815,137.6868,109.8421,True
2,1.27778,0.2708324,-0.1321181,0.1300638,-1.27021,-4.636164,-2.957934,0.5795066,1.345309,0.4965403,-1.973099,0.9272458,21.6,100,0.08540799,0.05274948,-0.1124221,-0.4956223,-4.000145,-0.1294051,0.584212,1.587531,0.359637,0.04175149,0.03673877,0.01834668,-0.6816292,0.4231963,0.1459141,0.7602495,1.624395,0.2086592,0.3004721,1.397211,0.3598694,285.2587,140.3465,107.3522,True
2,1.288891,0.2484245,-0.1215448,0.1289747,-1.271399,-4.634859,-2.96033,0.5795668,1.345046,0.4967096,-1.961231,1.069856,22.6,100,0.0801145,0.05486828,-0.1070582,-0.4967126,-3.999007,-0.1311226,0.5838467,1.587396,0.3600326,0.03966596,0.02819647,0.02579371,-0.6810981,0.4230838,0.1456477,0.759851,1.624428,0.2089565,0.298707,1.392834,0.3610802,284.6845,143.0421,104.8632,True
2,1.300002,0.2355958,-0.1088016,0.127847,-1.272621,-4.633966,-2.962822,0.5797621,1.344655,0.4968934,-1.950681,0.947812,22.6,100,0.07266007,0.05486809,-0.1070103,-0.4979733,-3.997978,-0.1325991,0.5834526,1.5872,0.360455,0.04927994,0.03243219,0.02893185,-0.6805037,0.4238185,0.1443444,0.7593715,1.624241,0.2092268,0.2970104,1.388532,0.362204,284.1619,145.7864,102.3121,True
2,1.311113,0.2110149,-0.08437938,0.1277327,-1.274003,-4.633657,-2.964362,0.5798393,1.344332,0.4970574,-1.938835,1.067483,22.6,100,0.05775071,0.03781924,-0.1069498,-0.4991547,-3.998709,-0.1320259,0.5832268,1.587055,0.3609035,0.06836592,0.02923948,0.01811862,-0.6806629,0.4241756,0.1425867,0.7589787,1.624285,0.2095613,0.2954365,1.384258,0.363214,283.734,148.4654,99.77542,True
2,1.322224,0.2110149,-0.08437938,0.1277327,-1.274003,-4.633657,-2.964362,0.5798393,1.344332,0.4970574,-1.927479,1.021288,22.6,100,0.05775071,0.03781924,-0.1069498,-0.4991547,-3.998709,-0.1320259,0.5832268,1.587055,0.3609035,0.06836592,0.02923948,0.01811862,-0.6806629,0.4241756,0.1425867,0.7589787,1.624285,0.2095613,0.2940044,1.37999,0.3641568,283.367,151.2361,97.06336,True
2,1.333336,0.1405093,-0.02818015,0.1211056,-1.276685,-4.634404,-2.96529,0.5800415,1.34368,0.4974053,-1.91364,1.248747,22.6,100,0.07585415,-0.009030581,-0.1103485,-0.5014876,-4.002454,-0.1309894,0.5829898,1.586653,0.3617418,0.09509488,0.04088972,0.02859882,-0.6795061,0.4263254,0.137883,0.7581763,1.624483,0.2100379,0.2926791,1.37571,0.3650855,283.0612,154.1025,94.23042,True
2,1.344447,0.10849,-0.0112491,0.1189233,-1.277902,-4.63468,-2.965343,0.5801035,1.34332,0.4974649,-1.903927,0.8694804,27.5,100,0.0694823,-0.007973261,-0.1071105,-0.5025406,-4.002894,-0.1311657,0.5828699,1.586509,0.3621483,0.09934825,0.02063102,0.0327562,-0.6792089,0.4255251,0.1374567,0.7580109,1.624689,0.210294,0.2912739,1.37156,0.36602,282.8282,157.4074,90.93475,True
2,1.355558,0.08396273,-0.006030653,0.1146795,-1.27902,-4.634567,-2.965496,0.5801336,1.343024,0.4976506,-1.890274,1.233086,27.5,100,0.06628886,-0.01116412,-0.1071002,-0.5037433,-4.003497,-0.131251,0.5826869,1.586417,0.3625529,0.1078784,0.004624963,0.03690049,-0.6787231,0.4246284,0.1366769,0.7577223,1.624763,0.2105086,0.290003,1.367419,0.3671388,282.5568,160.1804,88.15832,True
2,1.366669,0.03385345,0.003376141,0.1104539,-1.280045,-4.634874,-2.964067,0.5800124,1.342804,0.4978752,-1.877863,1.115945,27.5,100,0.06955326,-0.02077197,-0.09648467,-0.5043159,-4.004824,-0.1309394,0.5826354,1.58624,0.3630126,0.1163579,-0.001768097,0.03362009,-0.6784562,0.4242258,0.1355826,0.7573349,1.624826,0.2106843,0.2886643,1.363329,0.3684083,282.2933,163.1999,85.2527,True
2,1.37778,0.01679968,0.008695386,0.1147062,-1.281404,-4.635156,-2.963685,0.5798521,1.342662,0.4980116,-1.865757,1.089343,27.5,100,0.07172383,-0.03995534,-0.09121098,-0.5049993,-4.007298,-0.1296749,0.5826244,1.586159,0.3634729,0.112102,0.00143446,0.03366354,-0.6780701,0.4243457,0.1343852,0.7570506,1.624879,0.2109287,0.2872708,1.359302,0.3697787,282.0904,166.4963,82.16496,True
2,1.388891,-0.01735294,0.0288327,0.1157076,-1.282866,-4.635955,-2.962087,0.5797549,1.342424,0.4981675,-1.852165,1.225368,26.9,100,0.06748164,-0.06020493,-0.08802801,-0.5056853,-4.010358,-0.1275289,0.5825949,1.586093,0.363976,0.1152985,0.003565215,0.03258056,-0.6777212,0.4245706,0.1327634,0.7569088,1.624808,0.2111523,0.285863,1.355332,0.3712106,281.9391,169.9256,78.94759,True
2,1.400002,-0.03763642,0.04262522,0.1145827,-1.284168,-4.63695,-2.960795,0.5796106,1.342259,0.4984136,-1.840853,1.015697,26.9,100,0.06219131,-0.06981225,-0.0816236,-0.5062589,-4.012885,-0.1257238,0.5826262,1.586039,0.3644507,0.1173587,-0.003871873,0.02509187,-0.6776408,0.4241619,0.1317034,0.756669,1.624873,0.2114177,0.2843506,1.351511,0.372652,281.8246,173.6122,75.45937,True
2,1.411114,-0.06966773,0.06274007,0.1113184,-1.285558,-4.638232,-2.958447,0.5794008,1.342106,0.4985728,-1.827635,1.19173,26.9,100,0.05582315,-0.08047357,-0.07840888,-0.5068597,-4.015714,-0.1236346,0.5826752,1.586046,0.3648915,0.121573,-0.0006528944,0.01867989,-0.6775758,0.4245745,0.1299034,0.7563759,1.624789,0.2117345,0.2828352,1.347838,0.3740912,281.74,177.1048,72.16866,True
2,1.422225,-0.09633248,0.06687794,0.1038771,-1.286459,-4.639131,-2.956189,0.5791401,1.341884,0.4986119,-1.815531,1.088151,26.9,100,0.049494,-0.08902058,-0.06879358,-0.5070574,-4.018543,-0.1215089,0.5828159,1.585943,0.3652415,0.1193332,-0.007000834,0.005895801,-0.677954,0.4242264,0.1288877,0.7563047,1.62481,0.2119603,0.2813817,1.344293,0.3755371,281.6864,180.4081,69.05524,True
2,1.433336,-0.1272261,0.0624819,0.09651452,-1.287387,-4.639729,-2.953585,0.5788511,1.3417,0.4987481,-1.802207,1.200763,26.9,100,0.04949592,-0.09221157,-0.06880213,-0.5077471,-4.020927,-0.1199924,0.5829334,1.585919,0.3656237,0.1138041,-0.02396426,-0.01649048,-0.6791577,0.4230981,0.1286618,0.7562269,1.624786,0.2122061,0.2799861,1.340864,0.377005,281.6749,183.4275,66.2043,True
2,1.444447,-0.157043,0.05165927,0.08600143,-1.288002,-4.639818,-2.950768,0.5784525,1.341638,0.498888,-1.78966,1.12854,32.5,100,0.04735607,-0.09221547,-0.06985111,-0.5083985,-4.023331,-0.1183285,0.5830903,1.58586,0.3659534,0.1041679,-0.02605894,-0.02280647,-0.6796158,0.4226064,0.1281545,0.7560281,1.624821,0.2124274,0.2785757,1.33756,0.378472,281.6765,186.3431,63.4949,True
2,1.455558,-0.1879319,0.04082986,0.07229052,-1.288378,-4.640131,-2.947629,0.5780595,1.341559,0.4990923,-1.776786,1.159199,32.5,100,0.03142164,-0.09648713,-0.06336802,-0.5087756,-4.025716,-0.1161439,0.5833709,1.585925,0.3662663,0.1022066,-0.01546563,-0.003577324,-0.6789319,0.4227307,0.1269734,0.7558876,1.624834,0.2126219,0.277174,1.334336,0.3798833,281.7051,189.0477,61.03409,True
2,1.466669,-0.2177397,0.02573141,0.05967642,-1.288592,-4.639853,-2.944308,0.5775034,1.34165,0.4991906,-1.764037,1.147716,32.5,100,0.01015492,-0.09117891,-0.05683212,-0.5091122,-4.027536,-0.1139876,0.5835094,1.586017,0.3665214,0.1066228,-0.00700938,0.01452599,-0.6781111,0.4229285,0.1254621,0.7557704,1.624853,0.2128294,0.2757978,1.331169,0.3811945,281.7669,191.7485,58.55229,True
2,1.47778,-0.2177397,0.02573141,0.05967642,-1.288592,-4.639853,-2.944308,0.5775034,1.34165,0.4991906,-1.751493,1.12907,32.5,100,0.01015492,-0.09117891,-0.05683212,-0.5091122,-4.027536,-0.1139876,0.5835094,1.586017,0.3665214,0.1066228,-0.00700938,0.01452599,-0.6781111,0.4229285,0.1254621,0.7557704,1.624853,0.2128294,0.2744316,1.328068,0.3823587,281.885,194.4233,56.04548,True
2,1.488891,-0.2614348,0.0115719,0.03322094,-1.288401,-4.639947,-2.937291,0.5764083,1.341854,0.4992831,-1.742247,0.8276023,34.1,100,0.003925633,-0.06779404,-0.03117807,-0.5089663,-4.029443,-0.112347,0.583885,1.586207,0.3670232,0.1033338,-0.01122677,0.003894584,-0.6780121,0.4224952,0.123544,0.7559092,1.624761,0.2129772,0.2731838,1.32503,0.3833893,282.055,197.0411,53.56017,True
2,1.500003,-0.297653,0.005016886,0.02374968,-1.288286,-4.640143,-2.932817,0.5756306,1.342036,0.4993992,-1.72394,1.658809,34.1,100,0.009272492,-0.02306479,-0.02686033,-0.5092502,-4.027096,-0.114799,0.5840594,1.586313,0.3672478,0.08400358,-0.01539341,-0.01407522,-0.6787657,0.4223332,0.1235166,0.75596,1.624768,0.2131815,0.2721543,1.321924,0.3843177,282.2289,199.0334,51.6638,True
2,1.511114,-0.3434793,-0.001628764,0.006840998,-1.287682,-4.64023,-2.927528,0.5747788,1.342303,0.4995236,-1.713726,0.9114574,34.1,100,-0.001310866,-0.01988933,-0.01613893,-0.5091794,-4.027187,-0.1144083,0.5843878,1.586513,0.3674459,0.0903713,-0.01858431,-0.0162659,-0.6791481,0.4220371,0.1226149,0.7558299,1.624813,0.2132623,0.2706163,1.318997,0.3850358,282.4774,201.6705,49.07116,True
2,1.522225,-0.3903224,-0.01782781,-0.002532927,-1.287189,-4.639526,-2.921876,0.5737635,1.34256,0.4997418,-1.701679,1.086406,34.1,100,-0.02144118,-0.03378098,0.001010474,-0.5084182,-4.029049,-0.1118323,0.5846905,1.586673,0.3677547,0.09685157,-0.02076169,-0.004604977,-0.6788712,0.4214715,0.1217635,0.7558138,1.624835,0.2133615,0.2689285,1.316316,0.3856197,282.7875,203.9423,46.80485,True
2,1.533336,-0.4243827,-0.02968579,-0.006637273,-1.286839,-4.638828,-2.916303,0.5726626,1.342889,0.499912,-1.688913,1.149891,34.1,100,-0.03406085,-0.08283473,0.02442787,-0.5070968,-4.03426,-0.1065075,0.5852004,1.586953,0.3680029,0.1000976,-0.02078675,0.001761446,-0.6786645,0.421074,0.1208537,0.7558335,1.624861,0.2134631,0.2672268,1.313882,0.3861632,283.0818,205.7832,44.94394,True
2,1.544447,-0.4701548,-0.04262366,-0.008587047,-1.286393,-4.638095,-2.909859,0.5714277,1.343365,0.499953,-1.676422,1.124475,30.6,100,-0.03280249,-0.1414829,0.0520072,-0.5052357,-4.041294,-0.1001415,0.5855549,1.587295,0.3681693,0.1150389,-0.03147583,0.006937515,-0.6784461,0.4200199,0.1198422,0.7559472,1.624781,0.2135401,0.2655323,1.311716,0.3867105,283.348,207.2509,43.46237,True
2,1.555558,-0.509587,-0.03848034,-0.009603499,-1.286149,-4.63813,-2.903027,0.5701382,1.343755,0.4999499,-1.664676,1.056562,30.6,100,-0.03484356,-0.1660082,0.06475426,-0.5039462,-4.046205,-0.0954184,0.5858892,1.587734,0.3683574,0.1138148,-0.05592881,-0.009113846,-0.6792722,0.4177992,0.1201914,0.7561105,1.624604,0.2135243,0.2638224,1.309827,0.3872544,283.5634,208.4897,42.23086,True
2,1.566669,-0.5586482,-0.02375467,-0.01385867,-1.285924,-4.638415,-2.895142,0.5686932,1.344219,0.4999921,-1.652071,1.13574,30.6,100,-0.04326701,-0.1596498,0.08079936,-0.5023766,-4.049222,-0.09204604,0.5861608,1.588101,0.3684607,0.1030992,-0.0665424,-0.016511,-0.6796867,0.4160984,0.1205488,0.7565448,1.624552,0.2135429,0.2620658,1.3082,0.387771,283.7339,209.589,41.17564,True
2,1.577781,-0.5896242,-0.004711583,-0.02138741,-1.285536,-4.639406,-2.887318,0.5673584,1.344585,0.5000594,-1.640095,1.077459,30.6,100,-0.06023481,-0.1532857,0.09370527,-0.5007957,-4.051775,-0.08854771,0.5864277,1.588412,0.3685858,0.09661673,-0.07930979,-0.02609307,-0.6806177,0.4135499,0.1216354,0.7568361,1.62465,0.2135646,0.2601819,1.306835,0.3882189,283.8991,210.5907,40.24236,True
2,1.588892,-0.63869,0.009999618,-0.02777347,-1.2852,-4.640193,-2.878232,0.5657345,1.345187,0.5000622,-1.627432,1.140989,30.6,100,-0.1153945,-0.1288736,0.1324511,-0.4980511,-4.052756,-0.08458306,0.5866077,1.588956,0.36854,0.09232618,-0.08355322,-0.02926392,-0.6811492,0.4119351,0.1219888,0.756695,1.624852,0.2136462,0.2581551,1.305708,0.3886213,284.0426,211.3275,39.54665,True
2,1.600003,-0.6792305,0.02152702,-0.03842206,-1.284568,-4.6412,-2.869137,0.564027,1.345834,0.5000365,-1.61607,1.021554,28.6,100,-0.1280306,-0.1214696,0.1570473,-0.4954566,-4.054754,-0.08095876,0.586852,1.589431,0.3687246,0.07736101,-0.07711425,-0.03658405,-0.6819232,0.4110846,0.1223896,0.7564691,1.624504,0.2139018,0.255981,1.304818,0.3890217,284.175,211.9251,38.95739,True
2,1.611114,-0.7133542,0.02775247,-0.04691208,-1.283962,-4.641975,-2.859889,0.5622749,1.346563,0.5000119,-1.603413,1.141138,28.6,100,-0.1460217,-0.1353557,0.1752421,-0.4928249,-4.058355,-0.07568651,0.5869868,1.589971,0.3687024,0.05803768,-0.08448365,-0.05457166,-0.6833022,0.4096062,0.1234335,0.7565591,1.624353,0.2139058,0.2537512,1.304127,0.3894941,284.2839,212.3375,38.55143,True
2,1.622225,-0.7336187,0.03300586,-0.05011371,-1.28335,-4.642918,-2.850798,0.5605807,1.347324,0.499929,-1.592088,1.01833,28.6,100,-0.1693511,-0.1588307,0.1913229,-0.4900472,-4.063425,-0.06858385,0.5870777,1.590511,0.3685899,0.05039713,-0.09079485,-0.07583565,-0.6849613,0.4080569,0.1244069,0.7566542,1.624355,0.2140019,0.2513209,1.303685,0.3900183,284.4039,212.9053,38.04236,True
2,1.633336,-0.7336187,0.03300586,-0.05011371,-1.28335,-4.642918,-2.850798,0.5605807,1.347324,0.499929,-1.580742,1.021432,28.6,100,-0.1693511,-0.1588307,0.1913229,-0.4900472,-4.063425,-0.06858385,0.5870777,1.590511,0.3685899,0.05039713,-0.09079485,-0.07583565,-0.6849613,0.4080569,0.1244069,0.7566542,1.624355,0.2140019,0.2487462,1.303504,0.3905817,284.5212,213.3705,37.6863,True
2,1.644447,-0.7751908,0.0327823,-0.06493247,-1.281874,-4.644308,-2.832011,0.556748,1.349186,0.4998302,-1.578376,0.2000325,30.5,100,-0.2213816,-0.162093,0.2172168,-0.4842404,-4.070889,-0.05567125,0.587217,1.591677,0.3684568,-0.0008094162,-0.08430211,-0.08500049,-0.6875398,0.405551,0.1279143,0.7569113,1.624491,0.214421,0.2465337,1.303495,0.3911949,284.5687,213.6946,37.54614,True
2,1.655559,-0.777315,0.02742885,-0.07022138,-1.281018,-4.644914,-2.823273,0.5549698,1.35009,0.4998407,-1.550254,2.562098,30.5,100,-0.2426687,-0.1429278,0.2216388,-0.4818085,-4.072384,-0.05102111,0.5871731,1.59225,0.3683841,-0.02096095,-0.07684122,-0.07523173,-0.6880468,0.4047869,0.1293119,0.757045,1.624534,0.2145538,0.2451408,1.303112,0.3919471,284.3865,212.9223,38.43372,True
2,1.66667,-0.7848079,0.03267214,-0.0787643,-1.280088,-4.645826,-2.81411,0.5530598,1.351059,0.4997256,-1.545807,0.3766941,30.5,100,-0.2617964,-0.1184478,0.2303295,-0.4789818,-4.073181,-0.04680745,0.5869099,1.592881,0.368129,-0.04425395,-0.06087185,-0.06008449,-0.6882151,0.40458,0.1306981,0.7570958,1.624482,0.2146833,0.2418747,1.303079,0.3924561,284.6835,214.4686,36.95707,True
2,1.677781,-0.7805942,0.0443904,-0.08419165,-1.279307,-4.6473,-2.805348,0.551214,1.351873,0.4996052,-1.536936,0.8022953,30.5,100,-0.2660107,-0.1099479,0.2388964,-0.4760411,-4.075133,-0.04202548,0.5868697,1.593574,0.3680165,-0.0569234,-0.0459712,-0.04822652,-0.6884229,0.4046841,0.1316664,0.7571163,1.624418,0.2147853,0.2383977,1.303474,0.3928398,284.9941,215.2484,36.3074,True
2,1.688892,-0.7763641,0.05183887,-0.08744857,-1.278565,-4.64847,-2.796643,0.5493047,1.352854,0.4994457,-1.525727,1.010192,30.5,100,-0.2936462,-0.0631053,0.2508804,-0.4728932,-4.072592,-0.04007338,0.5864257,1.59426,0.3676069,-0.07813573,-0.0257334,-0.04054219,-0.6886317,0.4050508,0.132872,0.7574273,1.624553,0.2149389,0.2353917,1.304106,0.3931966,285.0883,215.2939,36.37592,True
2,1.700003,-0.7721012,0.0550731,-0.08855306,-1.277853,-4.649839,-2.788083,0.5472736,1.353807,0.499404,-1.515039,0.9609375,28.1,100,-0.3074773,-0.03967917,0.2552689,-0.4700724,-4.071629,-0.03706934,0.5861152,1.594969,0.3674269,-0.09197959,-0.01612819,-0.04359205,-0.689168,0.4049934,0.1341176,0.7575759,1.624623,0.2150993,0.2327742,1.304837,0.393534,285.0284,214.9029,36.84753,True
2,1.711114,-0.7657018,0.04973744,-0.09279132,-1.276875,-4.650618,-2.779713,0.545183,1.354844,0.4992135,-1.503715,1.019544,28.1,100,-0.3170469,-0.01305662,0.2585717,-0.4672394,-4.069612,-0.03515133,0.5857084,1.59565,0.367089,-0.1069939,-0.01606468,-0.05625769,-0.6902546,0.404942,0.1358684,0.7575876,1.624636,0.21526,0.2303917,1.305511,0.3938922,284.9115,214.3297,37.46673,True
2,1.722225,-0.7613957,0.04341009,-0.08850351,-1.276173,-4.651358,-2.771443,0.5430047,1.35601,0.4989698,-1.492438,1.014639,28.1,100,-0.3415893,-0.01837747,0.2523217,-0.4647509,-4.070426,-0.02977734,0.5852608,1.596421,0.3667219,-0.1251418,-0.01282535,-0.0635503,-0.691093,0.4048127,0.1377411,0.7574489,1.624601,0.2154438,0.2279908,1.306031,0.3942781,284.8475,213.9789,37.84999,True
2,1.733337,-0.7560141,0.02423072,-0.09157763,-1.274987,-4.651382,-2.763282,0.5407106,1.357174,0.4987047,-1.48091,1.037577,28.1,100,-0.3594418,-0.0259203,0.2929017,-0.460109,-4.071529,-0.02420733,0.5848251,1.597187,0.3663428,-0.1336097,-0.009634629,-0.05707859,-0.6914237,0.4049119,0.1394237,0.7573404,1.624686,0.2155964,0.2253975,1.30633,0.3947175,284.8596,213.9212,37.95164,True
2,1.744448,-0.7431521,-0.001322046,-0.09462383,-1.273567,-4.65095,-2.755594,0.538363,1.35834,0.498328,-1.469354,1.039926,37.3,100,-0.3625444,-0.02168681,0.3078499,-0.4560477,-4.071454,-0.02014495,0.5844136,1.597896,0.3659303,-0.1377823,0.002077863,-0.04849191,-0.691632,0.4059793,0.1402186,0.7572686,1.624614,0.2158501,0.2225858,1.306382,0.395178,284.962,214.2997,37.68116,True
2,1.755559,-0.7335267,-0.01408583,-0.09668644,-1.272317,-4.650883,-2.747763,0.5360894,1.359415,0.4980597,-1.457565,1.061273,37.3,100,-0.3796054,-0.02168858,0.3058372,-0.4526777,-4.071896,-0.0149177,0.5840905,1.598628,0.3654964,-0.1483376,0.009508938,-0.03773385,-0.6916565,0.406351,0.1419193,0.7572443,1.624701,0.2159553,0.2195908,1.306217,0.3956178,285.1402,215.0342,37.09775,True
2,1.76667,-0.7185345,-0.0364074,-0.09550261,-1.270872,-4.650085,-2.740602,0.5336573,1.360639,0.4975741,-1.446139,1.027809,37.3,100,-0.3966753,-0.02701139,0.301673,-0.4494825,-4.07297,-0.008922921,0.583607,1.599307,0.3650701,-0.1623302,0.008522123,-0.05573755,-0.6928336,0.4067397,0.143877,0.7571952,1.624759,0.2161503,0.2164973,1.305861,0.3959653,285.3742,215.8724,36.43474,True
2,1.777781,-0.7046609,-0.04596861,-0.09760086,-1.269475,-4.649783,-2.733314,0.5314864,1.361773,0.4972489,-1.434336,1.062546,37.3,100,-0.4105481,-0.0504474,0.2974575,-0.4462648,-4.076149,-0.001060471,0.5831013,1.600067,0.3646071,-0.17521,0.002190202,-0.06843145,-0.6939574,0.406659,0.1461253,0.7572105,1.62475,0.2163332,0.2134301,1.305339,0.3961667,285.6384,216.6318,35.80809,True
2,1.788892,-0.7046609,-0.04596861,-0.09760086,-1.269475,-4.649783,-2.733314,0.5314864,1.361773,0.4972489,-1.422924,1.026342,37.3,100,-0.4105481,-0.0504474,0.2974575,-0.4462648,-4.076149,-0.001060471,0.5831013,1.600067,0.3646071,-0.17521,0.002190202,-0.06843145,-0.6939574,0.406659,0.1461253,0.7572105,1.62475,0.2163332,0.2104425,1.304697,0.3962298,285.9135,217.4047,35.09829,True
2,1.800003,-0.6641151,-0.07792471,-0.1155819,-1.265638,-4.648517,-2.720143,0.526768,1.364269,0.4964063,-1.418229,0.4124928,38.1,99.9,-0.4307989,-0.06749296,0.2954258,-0.4397784,-4.081511,0.01388412,0.5818244,1.601485,0.3634942,-0.1996969,0.02031974,-0.07137166,-0.6954158,0.4076616,0.1501189,0.7571146,1.624934,0.2167416,0.208023,1.303912,0.396198,286.1454,217.9755,34.55247,True
2,1.811115,-0.6448823,-0.1002787,-0.1218604,-1.263468,-4.64738,-2.714128,0.524487,1.365457,0.4959753,-1.392536,2.337715,38.1,99.9,-0.440421,-0.01102868,0.2924008,-0.4366764,-4.077112,0.01504526,0.5809479,1.602161,0.3628032,-0.2261842,0.04802456,-0.05934938,-0.6953258,0.4099634,0.1515877,0.7568866,1.625054,0.2169139,0.2065522,1.30258,0.3962789,286.1707,217.9223,34.53416,True
2,1.822226,-0.616078,-0.1151485,-0.1282163,-1.261244,-4.646372,-2.708681,0.5222124,1.366686,0.495507,-1.387354,0.4455682,38.1,99.9,-0.456429,0.05075628,0.2915578,-0.4334279,-4.070762,0.01497549,0.5800207,1.602823,0.3621466,-0.2346203,0.04801351,-0.04863863,-0.695542,0.4109929,0.1536106,0.7565351,1.624908,0.2171226,0.202998,1.301445,0.3960116,286.8382,219.7821,32.64933,True
2,1.833337,-0.5872744,-0.1289193,-0.1303106,-1.259133,-4.645237,-2.70351,0.5200235,1.367866,0.4950528,-1.376946,0.9414887,38.1,99.9,-0.4692437,0.1029531,0.2885432,-0.4302987,-4.064241,0.01465671,0.5791505,1.603443,0.3614395,-0.2440901,0.05544123,-0.03575674,-0.6954147,0.4121355,0.1556144,0.7563108,1.62504,0.2173452,0.1993501,1.300631,0.3956535,287.4752,220.6806,31.70771,True
2,1.844448,-0.5542058,-0.1383644,-0.1249935,-1.257235,-4.644019,-2.698842,0.5178803,1.368932,0.4945664,-1.36596,0.9881976,38.1,99.9,-0.4735006,0.1104035,0.2907142,-0.4269681,-4.060956,0.01715422,0.5783211,1.604172,0.3608439,-0.2567936,0.06608689,-0.02709999,-0.695224,0.4138741,0.1576634,0.7560747,1.625117,0.2174976,0.1961774,1.300042,0.3953139,287.8307,221.0506,31.30581,True
2,1.855559,-0.5339467,-0.1403985,-0.1207617,-1.255475,-4.643066,-2.693878,0.5157809,1.370074,0.4940951,-1.354616,1.021118,39,98.6,-0.4756292,0.09442186,0.2906993,-0.4237111,-4.060257,0.02188479,0.5774849,1.604931,0.3603065,-0.2769634,0.06715086,-0.01949102,-0.6952438,0.4148271,0.1605388,0.7558082,1.625195,0.2176046,0.193514,1.299562,0.3950297,287.9981,221.0955,31.23118,True
2,1.86667,-0.4806454,-0.143354,-0.1102077,-1.253926,-4.641851,-2.690744,0.5138961,1.371016,0.4935749,-1.343497,1.000186,39,98.6,-0.4617985,0.0592792,0.286282,-0.420658,-4.061773,0.02796133,0.5766171,1.605541,0.359648,-0.2855708,0.07146192,-0.03112858,-0.6958046,0.416422,0.1627799,0.7555041,1.625258,0.2177942,0.1912118,1.299054,0.3948137,288.1021,221.0489,31.25688,True
2,1.877781,-0.456126,-0.1442983,-0.1038595,-1.252367,-4.640723,-2.686714,0.511866,1.37212,0.4931793,-1.331757,1.057183,39,98.6,-0.4575301,0.05927062,0.2873216,-0.4173823,-4.0604,0.03165673,0.5757812,1.606212,0.3590908,-0.2951598,0.07894367,-0.03208274,-0.6958078,0.4183826,0.164933,0.754966,1.625169,0.2181139,0.1890552,1.298392,0.3946618,288.2232,221.1051,31.19248,True
2,1.888893,-0.4198827,-0.1419562,-0.09010562,-1.251243,-4.639542,-2.683691,0.5101389,1.37306,0.4926274,-1.321918,0.8829831,39,98.6,-0.4352183,0.08273,0.2787034,-0.4145562,-4.056304,0.03197258,0.5749158,1.606795,0.3584616,-0.3057618,0.08960009,-0.02770479,-0.6957487,0.420542,0.1670558,0.7545385,1.625224,0.2183166,0.1869033,1.297522,0.3945754,288.4239,221.4252,30.88651,True
2,1.900004,-0.3900283,-0.1396325,-0.07527752,-1.250192,-4.638302,-2.680679,0.5085382,1.374075,0.492126,-1.309678,1.103953,41.9,86.3,-0.4256861,0.1040488,0.2701651,-0.4117844,-4.052016,0.03237099,0.5741729,1.607489,0.3577433,-0.3003297,0.0874117,-0.01284011,-0.6952651,0.4217025,0.1693605,0.7542491,1.625472,0.2184539,0.1848291,1.296333,0.3945721,288.6533,221.8121,30.52586,True
2,1.911115,-0.3633533,-0.1447646,-0.0603765,-1.249328,-4.636761,-2.677852,0.5070074,1.374838,0.4916403,-1.299028,0.9565558,41.9,86.3,-0.4108844,0.1221958,0.2530621,-0.4095228,-4.047272,0.03202558,0.5734814,1.608024,0.3572285,-0.2959463,0.08522469,0.003098592,-0.6945407,0.4228634,0.1715765,0.753839,1.62552,0.218621,0.1827227,1.294824,0.3946485,288.9831,222.5298,29.84154,True
2,1.922226,-0.3494561,-0.1499621,-0.04759368,-1.248335,-4.63507,-2.675032,0.5053077,1.375594,0.4911425,-1.287747,1.015942,41.9,86.3,-0.3822224,0.1169012,0.2368895,-0.4074546,-4.044972,0.03314144,0.572773,1.60851,0.356847,-0.2936519,0.08303091,0.02544234,-0.6934025,0.4241008,0.1739113,0.7536345,1.625485,0.2186568,0.1807812,1.293011,0.3947906,289.3682,223.4515,28.9998,True
2,1.933337,-0.3355718,-0.1508494,-0.02844277,-1.247842,-4.63334,-2.672179,0.5037314,1.376236,0.4906664,-1.276602,1.002925,41.9,86.3,-0.3546014,0.1137301,0.2228628,-0.4053976,-4.042477,0.0337316,0.5721432,1.608938,0.3565316,-0.2904307,0.07235774,0.03071539,-0.6927713,0.4246277,0.17662,0.7533637,1.625495,0.2187943,0.1790515,1.290945,0.394967,289.8098,224.4869,28.05958,True
2,1.944448,-0.3355718,-0.1508494,-0.02844277,-1.247842,-4.63334,-2.672179,0.5037314,1.376236,0.4906664,-1.2655,0.9992948,41.9,86.3,-0.3546014,0.1137301,0.2228628,-0.4053976,-4.042477,0.0337316,0.5721432,1.608938,0.3565316,-0.2904307,0.07235774,0.03071539,-0.6927713,0.4246277,0.17662,0.7533637,1.625495,0.2187943,0.1774501,1.288674,0.3951185,290.267,225.5046,27.13619,True
2,1.955559,-0.3216183,-0.1644563,0.001446228,-1.246707,-4.629048,-2.666639,0.5003431,1.37742,0.4896154,-1.257823,0.6862144,44.2,87.5,-0.3176737,0.08189532,0.1618508,-0.403275,-4.040163,0.03757827,0.570853,1.609532,0.355921,-0.2585482,0.0680638,0.02193199,-0.6922557,0.4265672,0.1799812,0.7526515,1.625532,0.2191279,0.1761593,1.286251,0.3952592,290.7144,226.3402,26.31421,True
2,1.966671,-0.3183512,-0.17498,0.01855769,-1.246356,-4.626506,-2.664033,0.4987144,1.377709,0.4892194,-1.240566,1.56488,44.2,87.5,-0.3007096,0.07979473,0.1489555,-0.40201,-4.038206,0.03856577,0.5702153,1.609752,0.3555882,-0.24791,0.06805301,0.02077229,-0.6920969,0.4277186,0.1816273,0.7522845,1.625553,0.219286,0.1753642,1.283575,0.395525,291.0353,227.1093,25.53248,True
2,1.977782,-0.3204209,-0.1845007,0.03034484,-1.245819,-4.623883,-2.661213,0.4970965,1.378092,0.4888158,-1.232531,0.7142512,44.2,87.5,-0.2710885,0.1064854,0.116874,-0.4014092,-4.03326,0.03611246,0.5695402,1.609828,0.3552926,-0.2371265,0.08932054,0.03353857,-0.6909742,0.4304949,0.1819205,0.7518446,1.625709,0.2194192,0.1732505,1.280933,0.3954281,291.7246,228.6827,24.14293,True
2,1.988893,-0.3225342,-0.1876811,0.03356751,-1.245215,-4.621563,-2.658225,0.4954286,1.378485,0.4884038,-1.222854,0.8726412,44.2,87.5,-0.2679736,0.1246176,0.1051737,-0.4004478,-4.028315,0.0345633,0.5688883,1.609944,0.3550191,-0.2295151,0.0967094,0.05161236,-0.6895739,0.4322254,0.1829419,0.7514406,1.625746,0.2195828,0.1710115,1.278507,0.3950384,292.3653,229.5894,23.31154,True
2,2.000004,-0.3299598,-0.1897741,0.04318729,-1.244891,-4.619084,-2.655148,0.4938547,1.378895,0.4880562,-1.212534,0.9293112,44,79.3,-0.2638083,0.1555386,0.08711021,-0.3998369,-4.021652,0.03089693,0.5683939,1.609962,0.3548796,-0.2047957,0.1061771,0.07808234,-0.6875808,0.4340408,0.1831011,0.7509412,1.625714,0.2198746,0.1691213,1.276306,0.3944577,292.7802,230.0877,22.72947,True
2,2.011115,-0.333128,-0.1940009,0.04961569,-1.244495,-4.616545,-2.652147,0.492252,1.379226,0.4876778,-1.202475,0.9052618,44,79.3,-0.2554007,0.1619639,0.0700299,-0.3994779,-4.016631,0.02890515,0.5678516,1.609973,0.3547063,-0.1834323,0.1178449,0.08327624,-0.6862519,0.4363452,0.1827291,0.7506276,1.625659,0.2200871,0.1675782,1.274319,0.3937498,293.0805,230.4188,22.21725,True
2,2.022226,-0.3575675,-0.2068183,0.05720835,-1.243859,-4.613539,-2.64841,0.490711,1.379453,0.4873366,-1.192644,0.8848903,44,79.3,-0.2256602,0.1396253,0.0538365,-0.3991482,-4.014798,0.02868198,0.5675363,1.610026,0.3546858,-0.1664024,0.1188761,0.08208306,-0.6851376,0.4379326,0.18292,0.7502297,1.625645,0.2203543,0.1662214,1.272529,0.3929893,293.3561,230.6644,21.74854,True
2,2.033337,-0.3671256,-0.214303,0.05834853,-1.243218,-4.610706,-2.644974,0.4891158,1.379663,0.4870121,-1.18325,0.8453484,44,79.3,-0.2022578,0.1129914,0.04192265,-0.3989618,-4.014788,0.0297563,0.5671642,1.609886,0.354805,-0.1610843,0.1231363,0.07992731,-0.6840057,0.4400361,0.182936,0.7498275,1.625668,0.2205954,0.1649417,1.270918,0.3922367,293.6149,230.8999,21.31123,True
2,2.044448,-0.3851963,-0.2185406,0.0701358,-1.243008,-4.607719,-2.640999,0.4874275,1.379825,0.486676,-1.17317,0.9084054,44,79.3,-0.1724885,0.07999747,0.03101379,-0.3989932,-4.015335,0.03118855,0.5667232,1.609831,0.3547742,-0.1536535,0.1305935,0.07562725,-0.6830412,0.4424815,0.1825909,0.7493867,1.625657,0.2207172,0.1636363,1.269429,0.3915176,293.8293,231.0633,21.00315,True
2,2.055559,-0.3969375,-0.208962,0.07435615,-1.242858,-4.605388,-2.637017,0.4858897,1.380114,0.4863634,-1.164444,0.7843354,46.8,87.4,-0.1746284,0.07253711,0.02569489,-0.3987189,-4.014123,0.03184821,0.5662156,1.609838,0.3545265,-0.1504734,0.1242123,0.07557829,-0.6820292,0.4443679,0.1828074,0.7490991,1.625694,0.2209852,0.1622608,1.268017,0.3908207,294.0372,231.198,20.76746,True
2,2.06667,-0.4012338,-0.1886393,0.08807336,-1.243415,-4.603305,-2.633038,0.4842883,1.380382,0.4859521,-1.155212,0.8319032,46.8,87.4,-0.1767578,0.09170966,0.02681183,-0.3983285,-4.009839,0.02996562,0.5656792,1.609833,0.3543949,-0.1344426,0.114573,0.08394469,-0.6806678,0.4455142,0.1829187,0.7487167,1.625701,0.2212417,0.1607859,1.266654,0.3901431,294.2369,231.3185,20.55396,True
2,2.077781,-0.4044507,-0.175835,0.09332117,-1.243727,-4.601178,-2.629207,0.4826751,1.380504,0.4854045,-1.146929,0.7448252,46.8,87.4,-0.2002869,0.1268824,0.01530675,-0.3985165,-4.002813,0.02663481,0.5650098,1.609827,0.3540759,-0.1290759,0.1113589,0.09029198,-0.6791385,0.4471935,0.1829653,0.7482969,1.625748,0.2214651,0.1592134,1.265348,0.3894657,294.4568,231.5613,20.22815,True
2,2.088892,-0.4130312,-0.1534473,0.09957601,-1.244425,-4.599645,-2.624786,0.4811179,1.380853,0.4849441,-1.138825,0.7293391,46.8,87.4,-0.2216202,0.1428623,0.0122813,-0.3983807,-3.99747,0.02490695,0.564515,1.609816,0.3539195,-0.1184397,0.1220082,0.08598,-0.678019,0.4496495,0.1820161,0.7479099,1.625776,0.2217717,0.1576469,1.264153,0.3888076,294.6978,231.8682,19.83529,True
2,2.100003,-0.4130312,-0.1534473,0.09957601,-1.244425,-4.599645,-2.624786,0.4811179,1.380853,0.4849441,-1.130916,0.711626,46.8,87.4,-0.2216202,0.1428623,0.0122813,-0.3983807,-3.99747,0.02490695,0.564515,1.609816,0.3539195,-0.1184397,0.1220082,0.08598,-0.678019,0.4496495,0.1820161,0.7479099,1.625776,0.2217717,0.1560611,1.263085,0.3881502,294.8938,232.2118,19.45669,True
2,2.111114,-0.4429181,-0.131199,0.09842396,-1.245012,-4.59619,-2.615529,0.4778415,1.381549,0.4840338,-1.127388,0.311216,53.2,86,-0.2194224,0.1524199,0.02507273,-0.3974746,-3.98808,0.02117213,0.5637938,1.610026,0.3538611,-0.09086177,0.1380017,0.06877668,-0.6761862,0.4551563,0.1791908,0.7472481,1.625766,0.2224679,0.1547971,1.262124,0.3875299,295.0183,232.3551,19.25301,True
2,2.122225,-0.4631863,-0.1248948,0.09522828,-1.245241,-4.59463,-2.610229,0.4761308,1.382054,0.4835894,-1.11001,1.581118,53.2,86,-0.2129842,0.1012726,0.03026042,-0.3969207,-3.989567,0.02474343,0.5635598,1.610194,0.3538892,-0.08244958,0.1113825,0.0601048,-0.6757393,0.4556262,0.1794529,0.7469472,1.625809,0.2227538,0.1540695,1.261062,0.387162,294.9948,232.3022,19.17332,True
2,2.133336,-0.4834398,-0.1207022,0.09631085,-1.245558,-4.592762,-2.604825,0.474443,1.382501,0.483187,-1.1061,0.3387514,53.2,86,-0.195879,0.04692103,0.03856973,-0.3962326,-3.99281,0.02952593,0.5633705,1.610265,0.3539951,-0.08145608,0.09968613,0.05366778,-0.6752008,0.4567929,0.1794949,0.746581,1.625794,0.2230206,0.1519136,1.260038,0.386555,295.4116,233.2133,18.37148,True
2,2.144447,-0.5004832,-0.1196771,0.09847151,-1.245914,-4.590956,-2.599271,0.4726913,1.383042,0.4827416,-1.098842,0.6568081,53.2,86,-0.1927046,0.02882048,0.03425227,-0.3960019,-3.993544,0.03224901,0.5631115,1.610425,0.3540018,-0.08146633,0.09329437,0.05364795,-0.6744844,0.4578667,0.1795735,0.74629,1.625824,0.2233243,0.1496229,1.259336,0.3857779,295.7872,233.6113,18.01566,True
2,2.155558,-0.5292781,-0.1080326,0.1016615,-1.246639,-4.589468,-2.592905,0.4708562,1.383639,0.4822562,-1.091393,0.6705589,52.5,100,-0.2129028,0.003225893,0.04179348,-0.3952962,-3.995463,0.0372981,0.5629086,1.610632,0.354176,-0.06976452,0.08581232,0.05354127,-0.6736456,0.4586793,0.1793815,0.7459118,1.625919,0.2236319,0.1474981,1.259018,0.3848982,296.0013,233.737,17.81996,True
2,2.166669,-0.5506312,-0.09641314,0.09736607,-1.247067,-4.588336,-2.586373,0.4689523,1.384371,0.4818161,-1.084212,0.6462725,52.5,100,-0.2266239,0.003180489,0.06212457,-0.3939177,-3.995455,0.04030801,0.5626851,1.610869,0.3542106,-0.05378046,0.08898299,0.0534251,-0.6728391,0.4602386,0.1782334,0.7456064,1.625948,0.2240331,0.1455898,1.259067,0.3839457,296.0494,233.7315,17.70366,True
2,2.17778,-0.5804965,-0.0923292,0.0867473,-1.247036,-4.58709,-2.579392,0.4671393,1.385069,0.4813867,-1.076648,0.6816118,52.5,100,-0.2319045,-0.006429315,0.06959955,-0.3928892,-3.996579,0.04417359,0.5624066,1.611042,0.3543067,-0.0496229,0.1039369,0.03746467,-0.6725579,0.4628278,0.1766629,0.7454941,1.626004,0.2244151,0.1437613,1.25943,0.3829199,296.0148,233.6903,17.61855,True
2,2.188891,-0.6071531,-0.08711132,0.08357328,-1.247305,-4.585938,-2.572183,0.4652353,1.385826,0.4809606,-1.069854,0.6110804,52.5,100,-0.2382741,-0.01069897,0.07282757,-0.3920258,-3.997362,0.0477076,0.5621327,1.611264,0.3543539,-0.05403127,0.105069,0.01833003,-0.6726932,0.4648205,0.1758264,0.7452381,1.626019,0.2248638,0.1418206,1.260074,0.3818185,295.9744,233.6721,17.51062,True
2,2.200002,-0.6380798,-0.08625683,0.06871308,-1.246925,-4.584916,-2.564559,0.463264,1.386698,0.4805403,-1.062848,0.6311316,52.5,100,-0.2478696,-0.009644702,0.07289162,-0.3912471,-3.997869,0.05133509,0.5618517,1.611348,0.3545146,-0.05729426,0.1051007,0.009827921,-0.6727113,0.4666716,0.1751303,0.7449917,1.625985,0.2253926,0.1397259,1.260978,0.3806878,295.9234,233.536,17.50157,True
2,2.211113,-0.6764629,-0.08756578,0.05175733,-1.246374,-4.583999,-2.55617,0.4612194,1.387684,0.4801266,-1.056079,0.6091909,56,100,-0.2853522,-0.008530289,0.04223938,-0.3918985,-3.997852,0.05582758,0.5615965,1.611529,0.3545926,-0.04457057,0.09658305,0.004368637,-0.6727411,0.468107,0.1741548,0.7448316,1.626191,0.2258658,0.1375341,1.262102,0.3795779,295.8376,233.2869,17.60702,True
2,2.222224,-0.7020442,-0.09199817,0.03905947,-1.245712,-4.582966,-2.547808,0.459122,1.388712,0.4796658,-1.049151,0.6239526,56,100,-0.3087651,-0.01387602,0.04664542,-0.3912327,-3.999008,0.06123753,0.561386,1.611803,0.3548431,-0.02760527,0.09018518,-0.003239363,-0.6728508,0.4693477,0.1730554,0.7445703,1.626306,0.2261927,0.13523,1.263401,0.3785143,295.7204,233.034,17.73699,True
2,2.233335,-0.7457048,-0.1104172,0.01691297,-1.244162,-4.581511,-2.538566,0.4569223,1.389833,0.4791687,-1.04184,0.6587583,56,100,-0.3022028,-0.03736243,0.07212894,-0.3894815,-4.002414,0.06746266,0.5612134,1.612115,0.3549364,-0.02125713,0.08273383,-0.005442623,-0.6728029,0.4706369,0.1722999,0.744326,1.626352,0.2265933,0.132807,1.264837,0.3775208,295.6177,232.7466,17.91732,True
2,2.244446,-0.781956,-0.1095583,0.004202276,-1.243125,-4.580693,-2.528817,0.4546196,1.391053,0.4787595,-1.035215,0.5957453,56,100,-0.2870532,-0.0896249,0.1060177,-0.3873504,-4.010211,0.07735418,0.5610064,1.612528,0.3549614,-0.02986888,0.05826548,-0.01184284,-0.673172,0.4704055,0.1730996,0.7441332,1.62643,0.2269647,0.1302484,1.266416,0.3766007,295.5522,232.4822,18.10664,True
2,2.255557,-0.781956,-0.1095583,0.004202276,-1.243125,-4.580693,-2.528817,0.4546196,1.391053,0.4787595,-1.027671,0.6803925,56,100,-0.2870532,-0.0896249,0.1060177,-0.3873504,-4.010211,0.07735418,0.5610064,1.612528,0.3549614,-0.02986888,0.05826548,-0.01184284,-0.673172,0.4704055,0.1730996,0.7441332,1.62643,0.2269647,0.1275869,1.26813,0.3757264,295.481,232.1873,18.38081,True
2,2.266668,-0.8257349,-0.08956958,-0.01181379,-1.24181,-4.579965,-2.509343,0.450186,1.393688,0.4780042,-1.030442,-0.2637627,58.4,100,-0.2994545,-0.131289,0.1645997,-0.3825194,-4.022688,0.09599577,0.5603811,1.613455,0.3548477,-0.05341795,0.05088529,-0.02552104,-0.6737846,0.4719807,0.1736085,0.7438272,1.626461,0.2278748,0.125285,1.269979,0.3749168,295.3307,231.6844,18.87661,True
2,2.277779,-0.8332684,-0.07371648,-0.02467751,-1.241159,-4.58002,-2.499956,0.4480214,1.395089,0.4776583,-1.004641,2.356828,58.4,100,-0.3238434,-0.09405443,0.1850739,-0.3798195,-4.022458,0.1003426,0.5599267,1.61396,0.3547795,-0.06736162,0.05202484,-0.03819776,-0.6745744,0.4735134,0.1735593,0.7437768,1.626505,0.2284272,0.1238203,1.271459,0.3744273,294.8222,230.848,19.5783,True
2,2.28889,-0.8461069,-0.06101704,-0.03113027,-1.240557,-4.580205,-2.490075,0.445816,1.396551,0.4772604,-1.006536,-0.1984537,58.4,100,-0.3568722,-0.02589047,0.188621,-0.3774365,-4.017424,0.100823,0.5595044,1.614459,0.3545823,-0.08451518,0.05209473,-0.05191144,-0.6755332,0.4747078,0.174187,0.7436341,1.626546,0.2288928,0.1201621,1.273063,0.3736415,295.3855,231.7476,18.69366,True
2,2.300001,-0.8589165,-0.05900785,-0.04176602,-1.239551,-4.580162,-2.480139,0.4435566,1.398046,0.4768646,-1.001743,0.4374327,58.4,100,-0.3706538,0.008167416,0.2015585,-0.3747126,-4.014886,0.1031051,0.5591147,1.614974,0.3545966,-0.08564397,0.05424622,-0.06040848,-0.6762059,0.4758787,0.1741998,0.7433153,1.62658,0.229485,0.116345,1.275286,0.3727411,295.7321,231.7215,18.74887,True
2,2.311112,-0.862111,-0.06332086,-0.04812111,-1.238427,-4.579963,-2.4705,0.4413128,1.399516,0.476444,-0.9946928,0.6356998,65.5,99.9,-0.374796,-0.003586501,0.2196724,-0.3716718,-4.017172,0.1095672,0.5588294,1.615485,0.3544714,-0.08350001,0.05210567,-0.05830139,-0.6766719,0.4768361,0.1743084,0.7431528,1.626612,0.2299805,0.1129677,1.278066,0.3718663,295.607,231.2716,19.17787,True
2,2.322223,-0.8653291,-0.072019,-0.07041963,-1.236548,-4.579969,-2.460693,0.4391174,1.40124,0.4760816,-0.9877505,0.6246477,65.5,99.9,-0.3703217,-0.08141407,0.24932,-0.3682923,-4.028461,0.1240852,0.5586299,1.616122,0.3544247,-0.09856653,0.03406972,-0.07316447,-0.6781383,0.4768787,0.1759596,0.7432129,1.626691,0.2303092,0.1099914,1.281227,0.3710404,295.207,230.6526,19.75999,True
2,2.333334,-0.8631837,-0.08272618,-0.07887113,-1.234874,-4.579623,-2.451254,0.4369391,1.402759,0.4757209,-0.9811996,0.5891318,65.5,99.9,-0.3702505,-0.1070085,0.2588525,-0.365513,-4.035171,0.1344721,0.5582651,1.616648,0.3543735,-0.1060614,0.02983495,-0.07737522,-0.6790134,0.4774802,0.1768997,0.7429951,1.626819,0.2307627,0.1072202,1.284559,0.3702437,294.7502,229.9019,20.4842,True
2,2.344445,-0.8524857,-0.1051509,-0.09152286,-1.232509,-4.579,-2.442515,0.4348128,1.404362,0.4753358,-0.9743079,0.6205969,65.5,99.9,-0.3691033,-0.1059685,0.271631,-0.3622836,-4.039638,0.1426685,0.5578904,1.617199,0.3541536,-0.1209512,0.03944176,-0.07510415,-0.6796637,0.4790009,0.1776757,0.7428434,1.62687,0.2311659,0.104515,1.287873,0.3694614,294.3553,229.1039,21.25657,True
2,2.355556,-0.840735,-0.1189958,-0.09677804,-1.23049,-4.578436,-2.433899,0.4328208,1.405901,0.4749522,-0.9676947,0.5947546,73.7,100,-0.3690796,-0.08680175,0.2759364,-0.3591965,-4.041361,0.1483221,0.5574896,1.617793,0.3540466,-0.1304338,0.04262055,-0.06329352,-0.6797143,0.4800487,0.1784432,0.7427714,1.626909,0.231616,0.1017999,1.291057,0.368717,294.0819,228.3087,22.00363,True
2,2.366668,-0.8119211,-0.1391862,-0.103095,-1.22804,-4.577584,-2.426257,0.4308874,1.407484,0.474618,-0.9614214,0.5638614,73.7,100,-0.3808136,-0.05804047,0.2750048,-0.3561967,-4.041458,0.1530023,0.5570564,1.618376,0.3537843,-0.1378587,0.04155375,-0.05897688,-0.6801314,0.4808348,0.1795977,0.7426323,1.626939,0.2320583,0.09907619,1.294001,0.3680156,293.8586,227.5684,22.71907,True
2,2.377779,-0.7927099,-0.1487028,-0.1020108,-1.22593,-4.576814,-2.418456,0.4289036,1.409085,0.474227,-0.9546548,0.6092408,73.7,100,-0.3924757,-0.05060907,0.283624,-0.3528411,-4.044025,0.1601186,0.5565876,1.618896,0.3535569,-0.1539574,0.04269172,-0.07481979,-0.6813458,0.4819646,0.1808894,0.7425152,1.627051,0.2326448,0.09643967,1.296617,0.3673602,293.6992,226.8765,23.40234,True
2,2.38889,-0.759647,-0.1624611,-0.1041186,-1.223524,-4.575827,-2.411543,0.4270868,1.410616,0.4738452,-0.9484976,0.5529984,73.7,100,-0.3903588,-0.04847325,0.2814825,-0.3499692,-4.046903,0.1670159,0.5561876,1.619436,0.3532836,-0.1625804,0.04807459,-0.08858427,-0.6826593,0.4835286,0.1817549,0.7423806,1.627082,0.233103,0.09396663,1.298864,0.3667524,293.6186,226.3426,23.92887,True
2,2.400001,-0.7276806,-0.1623436,-0.1009961,-1.221552,-4.575096,-2.404813,0.4253651,1.412115,0.4734385,-0.9414775,0.6326074,77.4,100,-0.3786502,-0.04207246,0.280362,-0.3469098,-4.04905,0.172783,0.5558003,1.619955,0.3530147,-0.171083,0.05874361,-0.08635332,-0.6833075,0.4855309,0.1825317,0.7422189,1.627212,0.2334695,0.09166562,1.300725,0.3661911,293.6305,225.9233,24.3223,True
2,2.411112,-0.7276806,-0.1623436,-0.1009961,-1.221552,-4.575096,-2.404813,0.4253651,1.412115,0.4734385,-0.9353656,0.5488552,77.4,100,-0.3786502,-0.04207246,0.280362,-0.3469098,-4.04905,0.172783,0.5558003,1.619955,0.3530147,-0.171083,0.05874361,-0.08635332,-0.6833075,0.4855309,0.1825317,0.7422189,1.627212,0.2334695,0.08944485,1.302252,0.3656501,293.7432,225.7102,24.51264,True
2,2.422223,-0.678714,-0.137554,-0.08103718,-1.218986,-4.574119,-2.391532,0.4220138,1.41479,0.4725869,-0.9356399,-0.03433883,77.4,100,-0.3489484,0.008037999,0.2642988,-0.3412756,-4.04718,0.177933,0.555087,1.620853,0.3526068,-0.1848155,0.069381,-0.07449057,-0.6841634,0.4887567,0.1844545,0.7419776,1.627258,0.2343094,0.08774128,1.303461,0.3651962,293.7752,225.3458,24.85612,True
2,2.433334,-0.6499853,-0.112859,-0.06422614,-1.21849,-4.573767,-2.385415,0.4203456,1.415944,0.4720759,-0.9156784,1.820808,77.4,100,-0.3341169,0.004871294,0.2524757,-0.3389091,-4.048792,0.182838,0.5547743,1.621274,0.3524647,-0.1740535,0.0757333,-0.06283787,-0.6842049,0.4908145,0.1843105,0.7418476,1.627129,0.2346513,0.08682849,1.303963,0.3650123,293.5542,224.8798,25.24283,True
2,2.444445,-0.6191166,-0.09238493,-0.04525983,-1.218373,-4.573429,-2.379763,0.4188593,1.41695,0.471591,-0.9145625,0.08154278,77.4,100,-0.3172326,-0.01105088,0.2267669,-0.3374523,-4.051701,0.1885188,0.5545034,1.621647,0.3524134,-0.1644658,0.05970518,-0.05759422,-0.6844692,0.4914764,0.1852119,0.7416642,1.627124,0.2350459,0.08438449,1.30432,0.3645757,294.2827,225.9704,24.17176,True
2,2.455556,-0.6010223,-0.08056191,-0.03365579,-1.217887,-4.572671,-2.373776,0.4173181,1.41809,0.4710441,-0.9096996,0.4411328,81,100,-0.2970118,-0.02489439,0.2234259,-0.3350118,-4.055562,0.1948875,0.5542598,1.622052,0.3522911,-0.1655837,0.05015743,-0.06512418,-0.6857033,0.4916539,0.1869414,0.7414088,1.62723,0.2352526,0.08177538,1.304957,0.364014,294.8744,226.4384,23.75202,True
2,2.466667,-0.5658668,-0.06860274,-0.01570534,-1.218013,-4.572079,-2.368921,0.4159459,1.419,0.47048,-0.9039445,0.5179482,81,100,-0.2811269,-0.08237955,0.206165,-0.3338864,-4.065506,0.2069292,0.5540181,1.622404,0.3521779,-0.1720485,0.04805955,-0.07253578,-0.6866737,0.4927589,0.1884091,0.7412739,1.62728,0.2356899,0.07944693,1.30591,0.3633866,295.0334,226.5709,23.66473,True
2,2.477778,-0.5296167,-0.07055138,-0.005110098,-1.217594,-4.571056,-2.364579,0.4147575,1.419917,0.4698658,-0.8972989,0.599091,81,100,-0.2769004,-0.1047369,0.1997029,-0.3322602,-4.072392,0.216392,0.5537517,1.622813,0.3519266,-0.1668148,0.02889502,-0.0811484,-0.6878018,0.4923694,0.1902602,0.7412874,1.627253,0.2361684,0.07754682,1.307086,0.3627087,294.914,226.4749,23.78066,True
2,2.488889,-0.4880482,-0.07463588,0.0001570196,-1.217058,-4.570185,-2.360766,0.4136512,1.420757,0.4694016,-0.8923464,0.4437327,81,100,-0.2684142,-0.08128984,0.1954354,-0.3302767,-4.07415,0.2207662,0.5533715,1.6231,0.3516576,-0.1710961,0.03210759,-0.08430056,-0.688751,0.4933853,0.191506,0.7411348,1.627287,0.2364814,0.07592125,1.308391,0.3619362,294.766,226.2824,23.97096,True
2,2.5,-0.4656584,-0.07665564,0.005448374,-1.216594,-4.569308,-2.356785,0.4124091,1.421557,0.4688532,-0.8868401,0.4958233,81,100,-0.258898,-0.03439748,0.1869515,-0.3282128,-4.07151,0.2208056,0.5529953,1.623352,0.3514752,-0.1879788,0.04593474,-0.06707625,-0.6886391,0.495099,0.1927535,0.7408934,1.62707,0.2367923,0.07454348,1.309684,0.3610799,294.5843,225.9846,24.24508,True
2,2.511111,-0.4262481,-0.06364159,0.02124699,-1.216873,-4.568459,-2.35372,0.4113597,1.422079,0.4683697,-0.8816283,0.4685357,80,100,-0.2527556,0.04449622,0.1551214,-0.3268349,-4.062538,0.2151235,0.5526537,1.623575,0.3512628,-0.1878067,0.05865856,-0.04786198,-0.6882951,0.4967273,0.1935569,0.7406839,1.627072,0.2370784,0.07338548,1.310817,0.3601607,294.4339,225.6219,24.54522,True
2,2.522222,-0.4113307,-0.05604695,0.03394542,-1.217187,-4.567591,-2.350016,0.4101576,1.422658,0.4678719,-0.8758839,0.5176276,80,100,-0.2475578,0.07862388,0.1370459,-0.3255544,-4.05667,0.2121402,0.5522574,1.623691,0.3511875,-0.1737536,0.07241365,-0.02343426,-0.6875339,0.4986158,0.1936187,0.7404532,1.627254,0.2372777,0.0723187,1.311669,0.35924,294.3389,225.2609,24.77578,True
2,2.533333,-0.393208,-0.04844135,0.04769953,-1.217595,-4.566604,-2.346685,0.4089767,1.42307,0.4673269,-0.8713315,0.408289,80,100,-0.2157571,0.06377107,0.1123083,-0.3250431,-4.056816,0.2136505,0.5520211,1.623786,0.3512065,-0.1512873,0.08620365,-0.01503812,-0.6871105,0.5007619,0.1927966,0.7402169,1.627165,0.2374852,0.07118239,1.312188,0.3583507,294.3161,225.0862,24.82001,True
2,2.544444,-0.3729558,-0.04833739,0.05298102,-1.217761,-4.565642,-2.343571,0.4078295,1.423454,0.4668295,-0.8654991,0.5264552,80,100,-0.1924678,0.005239114,0.08647197,-0.3253541,-4.062521,0.2204123,0.5516731,1.623825,0.3511441,-0.140726,0.07129939,-0.02369077,-0.6875834,0.5013905,0.1935024,0.7399898,1.627149,0.2377062,0.07005073,1.312335,0.357546,294.3134,225.0896,24.71566,True
2,2.555555,-0.3494754,-0.06316866,0.0519607,-1.217252,-4.564519,-2.3408,0.4067591,1.42375,0.4663303,-0.8606389,0.4365053,80.1,100,-0.1840468,-0.02881138,0.06931048,-0.3252971,-4.066933,0.2264385,0.5512404,1.623859,0.3510082,-0.1525259,0.04790951,-0.02900299,-0.6881933,0.5013867,0.1956473,0.7397974,1.627158,0.2379704,0.06882551,1.312154,0.3568081,294.4148,225.3463,24.4077,True
2,2.566666,-0.3494754,-0.06316866,0.0519607,-1.217252,-4.564519,-2.3408,0.4067591,1.42375,0.4663303,-0.8559331,0.4234274,80.1,100,-0.1840468,-0.02881138,0.06931048,-0.3252971,-4.066933,0.2264385,0.5512404,1.623859,0.3510082,-0.1525259,0.04790951,-0.02900299,-0.6881933,0.5013867,0.1956473,0.7397974,1.627158,0.2379704,0.06757015,1.311721,0.3561177,294.5877,225.6747,24.06273,True
2,2.577777,-0.3047262,-0.06724437,0.05294187,-1.216951,-4.562806,-2.335709,0.4045744,1.424434,0.465373,-0.8544417,0.1295532,80.1,100,-0.1779325,0.005362272,0.02886222,-0.3254979,-4.064005,0.2274617,0.5499424,1.623849,0.3505147,-0.1491792,0.05318843,-0.01091483,-0.6878684,0.5035641,0.1972619,0.7393187,1.627177,0.2383735,0.06660442,1.311131,0.3555387,294.7761,225.8787,23.78983,True
2,2.588888,-0.2813242,-0.06187811,0.0475252,-1.21681,-4.562184,-2.333463,0.4035486,1.424584,0.4648831,-0.8437331,0.9748499,80.1,100,-0.1994688,0.06720793,-0.002830531,-0.3258857,-4.054702,0.221669,0.5491496,1.623807,0.3500872,-0.1511214,0.08509772,0.006246904,-0.6868032,0.5065264,0.1966992,0.7389095,1.627188,0.2386303,0.06608867,1.310288,0.3552207,294.8524,225.9053,23.67135,True
2,2.599999,-0.2664328,-0.05752949,0.04743624,-1.216778,-4.561972,-2.330952,0.402467,1.42495,0.4644589,-0.8421368,0.1344894,80.1,100,-0.2112163,0.1194079,-0.004776496,-0.3252748,-4.045386,0.2155946,0.5484657,1.623898,0.3497124,-0.1563425,0.1149008,0.01489862,-0.6859952,0.5098224,0.1962446,0.7385514,1.62728,0.238868,0.06468723,1.309381,0.3547369,295.2724,226.6308,23.04989,True
2,2.61111,-0.2440993,-0.04573201,0.04837101,-1.217069,-4.56143,-2.329188,0.4014286,1.425001,0.4640484,-0.8384313,0.3354973,76.3,100,-0.1994755,0.1790486,0.002736032,-0.32399,-4.033881,0.2065223,0.5477624,1.623703,0.3494844,-0.1671421,0.1320327,-0.007331529,-0.6863877,0.5133266,0.1957106,0.7381542,1.627331,0.2391117,0.06325798,1.308642,0.3542026,295.6216,227.0191,22.69719,True
2,2.622221,-0.2345239,-0.04037827,0.04832223,-1.217292,-4.560711,-2.327207,0.4002787,1.425082,0.463506,-0.8341244,0.3880544,76.3,100,-0.1611913,0.1897334,-0.007079072,-0.3238835,-4.0259,0.1995179,0.5470202,1.623561,0.3492644,-0.1714645,0.1235442,-0.01371999,-0.6865975,0.5151506,0.1963013,0.737835,1.627308,0.2393,0.06199824,1.308102,0.3536804,295.8019,227.2154,22.46792,True
2,2.633332,-0.2249502,-0.03716389,0.04720693,-1.217258,-4.560063,-2.325171,0.3991209,1.425127,0.4629395,-0.8306554,0.3111971,76.3,100,-0.1526885,0.1822874,-0.01034532,-0.3237738,-4.020385,0.1957517,0.5463433,1.623463,0.349,-0.17681,0.1171633,-0.01371104,-0.6866886,0.5169971,0.1971352,0.7374632,1.627338,0.2394617,0.06087041,1.307782,0.3532103,295.8815,227.3267,22.29091,True
2,2.644443,-0.217492,-0.03821224,0.04613274,-1.217277,-4.559345,-2.323213,0.3979238,1.425268,0.462461,-0.8264843,0.3762323,76.3,100,-0.1421367,0.1461007,-0.02753016,-0.3246154,-4.019039,0.1957304,0.545565,1.6233,0.3488405,-0.1724088,0.1256291,0.00226058,-0.6858225,0.5194286,0.1970558,0.7369553,1.6274,0.2396262,0.05982389,1.307585,0.3527879,295.8335,227.3433,22.26661,True
2,2.655554,-0.2132215,-0.03924599,0.04826095,-1.217367,-4.558543,-2.321243,0.3967694,1.425443,0.4619803,-0.8225844,0.350876,76.3,100,-0.1453216,0.1290554,-0.02540507,-0.3244934,-4.015922,0.1946949,0.544719,1.623167,0.3485978,-0.1604947,0.1329943,0.02562115,-0.684491,0.5218586,0.1965658,0.7364828,1.627439,0.239871,0.05871979,1.307414,0.352343,295.7719,227.3792,22.29374,True
2,2.666665,-0.2057279,-0.05417447,0.04302546,-1.216714,-4.5574,-2.319556,0.3955778,1.425651,0.4614389,-0.8189231,0.3294037,76.7,100,-0.1452315,0.1077238,-0.0126647,-0.3241259,-4.014785,0.195243,0.5439636,1.623126,0.3482935,-0.146434,0.1392844,0.05109766,-0.6826566,0.5241583,0.1959152,0.7359231,1.627497,0.2400811,0.05753467,1.307212,0.35184,295.7612,227.4013,22.32399,True
2,2.677776,-0.1939521,-0.07225142,0.04205754,-1.215986,-4.556047,-2.318272,0.394238,1.425912,0.4609802,-0.8152767,0.3282293,76.7,100,-0.1494156,0.1215439,0.0001769848,-0.3232731,-4.009342,0.191921,0.5431157,1.623112,0.3481092,-0.15387,0.1456928,0.05223191,-0.6819029,0.526958,0.1957136,0.7352037,1.627626,0.2403421,0.05631031,1.306972,0.3512846,295.807,227.4537,22.26995,True
2,2.688887,-0.1960839,-0.07011098,0.04417763,-1.215871,-4.555117,-2.316347,0.393019,1.426064,0.460494,-0.8117853,0.3139679,76.7,100,-0.150479,0.1694661,0.003469508,-0.3225946,-3.99905,0.1838905,0.5421881,1.622982,0.3478594,-0.1635164,0.1553259,0.04275156,-0.6813213,0.5300855,0.1954188,0.7346167,1.627708,0.2405937,0.05510443,1.306698,0.3506829,295.8803,227.524,22.17961,True
2,2.699998,-0.2014444,-0.05733555,0.04622745,-1.216046,-4.55452,-2.31421,0.3917207,1.42614,0.4599812,-0.8084164,0.3028888,76.7,100,-0.1527232,0.1982604,-0.01243775,-0.3226926,-3.988889,0.1760049,0.5413427,1.622841,0.3477201,-0.1592462,0.1574507,0.04484747,-0.6805005,0.5328992,0.1950161,0.7339991,1.627801,0.2407439,0.05391121,1.30637,0.3500323,295.9785,227.5045,22.16007,True
2,2.711109,-0.2111087,-0.03285643,0.0471442,-1.216765,-4.554425,-2.311643,0.3904088,1.426197,0.4595208,-0.8041868,0.3815622,75.7,100,-0.1527819,0.1929531,-0.02203758,-0.3229498,-3.982688,0.1717853,0.5405556,1.622667,0.3475857,-0.1400369,0.1584701,0.05002836,-0.6794363,0.5354324,0.194097,0.7335465,1.627969,0.2409337,0.05270913,1.305964,0.3493583,296.0728,227.4472,22.14075,True
2,2.72222,-0.2111087,-0.03285643,0.0471442,-1.216765,-4.554425,-2.311643,0.3904088,1.426197,0.4595208,-0.800249,0.3541963,75.7,100,-0.1527819,0.1929531,-0.02203758,-0.3229498,-3.982688,0.1717853,0.5405556,1.622667,0.3475857,-0.1400369,0.1584701,0.05002836,-0.6794363,0.5354324,0.194097,0.7335465,1.627969,0.2409337,0.05149686,1.305487,0.3486875,296.1559,227.5236,21.99065,True
2,2.733331,-0.2367878,0.003312033,0.0512191,-1.218529,-4.55418,-2.305797,0.3876417,1.426436,0.4585826,-0.7987193,0.1343339,75.7,100,-0.1452525,0.1066494,-0.01480296,-0.3231347,-3.983346,0.1754581,0.538858,1.622257,0.347528,-0.1294374,0.1595342,0.04355367,-0.6780035,0.5406289,0.1927045,0.7322652,1.627966,0.2414751,0.05050496,1.304979,0.3480999,296.2316,227.6105,21.80467,True
2,2.744442,-0.2538749,0.01175096,0.04693301,-1.219032,-4.554181,-2.30236,0.3862108,1.426666,0.4581437,-0.789656,0.8249142,75.7,100,-0.1366179,0.08211844,0.001071192,-0.3225845,-3.983412,0.176738,0.5380085,1.62211,0.347403,-0.1284716,0.1553078,0.0318142,-0.6777692,0.5430817,0.1921878,0.7315803,1.628033,0.2417483,0.04981577,1.304362,0.3477371,296.2374,227.6666,21.62734,True
2,2.755553,-0.265598,0.01062871,0.0437685,-1.219324,-4.55397,-2.299095,0.3847949,1.426885,0.4576991,-0.7877471,0.1648593,75.7,100,-0.1376731,0.08317637,0.004280433,-0.322235,-3.980198,0.175399,0.5370919,1.621991,0.3472881,-0.1326828,0.1595602,0.03718986,-0.6767795,0.5458726,0.1916115,0.7308564,1.62811,0.2420204,0.04789075,1.303735,0.3472308,296.4824,228.4503,20.9214,True
2,2.766664,-0.2837096,0.009481676,0.04061375,-1.219492,-4.553752,-2.295486,0.3832443,1.427185,0.4572589,-0.7839872,0.3403709,73.1,100,-0.149363,0.1023367,0.009721838,-0.3216385,-3.974863,0.1723912,0.5361368,1.621872,0.3471394,-0.1228902,0.1935753,0.05638729,-0.6749489,0.550684,0.1889318,0.7299644,1.628205,0.2422464,0.04584943,1.303341,0.3466906,296.7226,228.8539,20.59272,True
2,2.777775,-0.2975721,0.01261069,0.04062441,-1.219888,-4.553331,-2.291872,0.3817768,1.427486,0.4569409,-0.7803041,0.3311915,73.1,100,-0.1632401,0.1247025,0.007727683,-0.3212678,-3.968322,0.1685267,0.5350824,1.621737,0.346961,-0.1121729,0.2041917,0.06272978,-0.6735917,0.5544748,0.1868958,0.7291259,1.62833,0.2425466,0.04396031,1.303257,0.3461626,296.8641,229.0063,20.45641,True
2,2.788886,-0.3189136,0.02319372,0.04059707,-1.220645,-4.553409,-2.287649,0.3802715,1.427861,0.4564276,-0.7761948,0.370353,73.1,100,-0.1664444,0.1342881,0.007773925,-0.3208331,-3.962775,0.1652739,0.5342023,1.621665,0.346833,-0.08655736,0.2051955,0.06892066,-0.6722618,0.5577933,0.1845248,0.7283078,1.628386,0.2428277,0.04226214,1.303472,0.3456559,296.8767,229.0126,20.44046,True
2,2.799997,-0.3317234,0.03058399,0.03950862,-1.221211,-4.553302,-2.283686,0.3788061,1.428291,0.4560213,-0.7722949,0.3508461,73.1,100,-0.1653271,0.1140204,0.01518393,-0.3203165,-3.961799,0.1661647,0.5332994,1.621608,0.346736,-0.08559096,0.1999066,0.05718226,-0.6716215,0.5609432,0.182968,0.7275756,1.628542,0.2431567,0.04063347,1.303937,0.3451538,296.819,228.9634,20.47298,True
2,2.811108,-0.3488057,0.03579904,0.03098436,-1.221654,-4.553677,-2.279152,0.3773247,1.428665,0.4555643,-0.76807,0.3808105,73.1,100,-0.1683764,0.07241948,0.03642719,-0.3193008,-3.964886,0.1711355,0.5324703,1.621522,0.3466036,-0.09536645,0.1765456,0.03801347,-0.6716365,0.5627882,0.1828553,0.7268108,1.628624,0.2434025,0.03903016,1.304592,0.3446421,296.7166,228.9285,20.5102,True
2,2.822219,-0.3605219,0.03257356,0.02999387,-1.222408,-4.553523,-2.274761,0.3758141,1.429087,0.4552059,-0.7644348,0.3266182,70.1,100,-0.1661753,0.06920289,0.04705958,-0.318317,-3.963415,0.1714721,0.531521,1.621485,0.3463643,-0.1006971,0.1744302,0.03908923,-0.6711139,0.5658878,0.1818902,0.7260144,1.628761,0.2436469,0.03735133,1.305399,0.3440794,296.6169,228.9602,20.51169,True
2,2.83333,-0.3797102,0.03031869,0.02152899,-1.222549,-4.553696,-2.269846,0.3741536,1.429624,0.4547844,-0.7602606,0.3763657,70.1,100,-0.1703607,0.09047306,0.0609882,-0.3168411,-3.958586,0.1689845,0.5304771,1.621382,0.3461061,-0.103826,0.1754784,0.04658005,-0.6699229,0.5688583,0.180721,0.7251168,1.628857,0.2438781,0.03563144,1.306304,0.3434744,296.5042,228.8947,20.58812,True
2,2.844441,-0.3903497,0.02280265,0.01629441,-1.22279,-4.553682,-2.265161,0.3723965,1.430165,0.4541647,-0.7563788,0.3491336,70.1,100,-0.1724856,0.1128391,0.06317789,-0.315755,-3.952752,0.1654332,0.5294517,1.621345,0.345849,-0.09732662,0.1935438,0.05723316,-0.668512,0.572969,0.1784132,0.7242441,1.62902,0.2441978,0.03384906,1.30726,0.3428474,296.385,228.7877,20.67626,True
2,2.855552,-0.4084592,0.02165698,0.01314677,-1.222961,-4.553788,-2.260025,0.370639,1.430695,0.4534032,-0.7521704,0.3792847,70.1,100,-0.1767228,0.1245492,0.06749763,-0.3145193,-3.947632,0.1626888,0.5284629,1.621347,0.3457448,-0.09092979,0.2116536,0.05403695,-0.6675873,0.5775957,0.1755793,0.7233952,1.629128,0.2445126,0.03201245,1.308233,0.342205,296.2716,228.7057,20.72894,True
2,2.866663,-0.422281,0.007710859,0.005816102,-1.222579,-4.553695,-2.254848,0.3689272,1.431227,0.4528925,-0.7484969,0.3301303,66.9,95.5,-0.1916029,0.09897117,0.07180542,-0.3134956,-3.946967,0.1647517,0.5274727,1.621319,0.3455591,-0.09420182,0.1978305,0.04762825,-0.6669306,0.5803476,0.1746589,0.7225433,1.629221,0.2448094,0.0300284,1.309217,0.3415348,296.2123,228.6541,20.77038,True
2,2.877774,-0.422281,0.007710859,0.005816102,-1.222579,-4.553695,-2.254848,0.3689272,1.431227,0.4528925,-0.7443051,0.377945,66.9,95.5,-0.1916029,0.09897117,0.07180542,-0.3134956,-3.946967,0.1647517,0.5274727,1.621319,0.3455591,-0.09420182,0.1978305,0.04762825,-0.6669306,0.5803476,0.1746589,0.7225433,1.629221,0.2448094,0.02791038,1.310212,0.3408024,296.1641,228.6287,20.84392,True
2,2.888885,-0.4392539,-0.01797533,-0.003557073,-1.221526,-4.553262,-2.244883,0.365307,1.432483,0.4517331,-0.7453948,-0.1055175,66.9,95.5,-0.1893016,0.0477816,0.09405323,-0.3110215,-3.949754,0.1715486,0.5253239,1.621337,0.3454454,-0.09871159,0.1702129,0.02201307,-0.6665658,0.5849719,0.1733382,0.7207378,1.629426,0.2453115,0.02613353,1.311233,0.3400587,296.0616,228.4539,21.04955,True
2,2.899997,-0.4466878,-0.02547176,-0.005613441,-1.221122,-4.55296,-2.239844,0.3634385,1.433089,0.4511924,-0.7317866,1.242491,66.9,95.5,-0.1881944,0.04776758,0.100442,-0.3095989,-3.948746,0.1726376,0.5242621,1.621226,0.3451655,-0.115762,0.1766289,0.02110144,-0.6659655,0.5883014,0.1726927,0.7197393,1.629482,0.2454948,0.02502143,1.311977,0.3394917,295.7581,227.9448,21.47533,True
2,2.911108,-0.453108,-0.01697609,-0.006723955,-1.221147,-4.55314,-2.234548,0.3615765,1.433699,0.4506514,-0.7320449,-0.03714901,66.9,95.5,-0.1945696,0.0541532,0.1036913,-0.3082401,-3.946541,0.1729622,0.5230937,1.621246,0.3449316,-0.1135233,0.1861768,0.03283156,-0.6648097,0.5919361,0.1710391,0.7187226,1.629609,0.24577,0.02243704,1.312634,0.3386192,296.0594,228.4361,21.01071,True
2,2.922219,-0.4563068,-0.01807327,-0.009899372,-1.220903,-4.553122,-2.229341,0.3596024,1.434311,0.4501085,-0.7288161,0.2937914,63.5,96.4,-0.209407,0.07436211,0.1166111,-0.3063477,-3.942788,0.1722125,0.5218828,1.621204,0.3445847,-0.1059579,0.1871964,0.04661305,-0.6636214,0.5953,0.1693296,0.7176827,1.629672,0.2459979,0.01969337,1.313519,0.3376441,296.3109,228.4363,20.97522,True
2,2.93333,-0.457374,-0.01808289,-0.0109629,-1.220644,-4.553138,-2.224234,0.3577242,1.434908,0.4495595,-0.7246509,0.3751609,63.5,96.4,-0.209346,0.09143558,0.1305073,-0.3039466,-3.936439,0.1688013,0.5207404,1.621016,0.3439298,-0.1059508,0.1871932,0.04767921,-0.6627297,0.5984693,0.1680148,0.7167164,1.629742,0.2462466,0.01717123,1.314635,0.3366709,296.3131,228.2413,21.10095,True
2,2.944441,-0.4637614,-0.02238163,-0.01305053,-1.2202,-4.55302,-2.218843,0.355785,1.435615,0.4490759,-0.7204202,0.3806126,63.5,96.4,-0.2105005,0.08826733,0.1166592,-0.3029458,-3.933929,0.1688106,0.5195416,1.620904,0.3436151,-0.117586,0.1850517,0.0594779,-0.661429,0.6015474,0.1674151,0.7156832,1.629903,0.2464919,0.01488541,1.315921,0.335751,296.1519,228.0041,21.25923,True
2,2.955552,-0.4627044,-0.0245561,-0.02046762,-1.219965,-4.552997,-2.213753,0.35379,1.436252,0.4488173,-0.7161804,0.3814766,63.5,96.4,-0.2126827,0.07125816,0.1091836,-0.302011,-3.933151,0.170662,0.5183653,1.620751,0.3434954,-0.1186323,0.1807896,0.06160261,-0.6604075,0.6044389,0.1663408,0.7145938,1.629993,0.2468684,0.01272049,1.317272,0.3348983,295.9517,227.7091,21.49388,True
2,2.966663,-0.4573937,-0.02673276,-0.03005406,-1.219308,-4.553355,-2.208749,0.351754,1.436858,0.4482946,-0.7114198,0.4289787,61.9,93.1,-0.2042322,0.03719756,0.09627575,-0.3015375,-3.936124,0.1754451,0.5170483,1.620549,0.3430991,-0.1229116,0.1914647,0.05634454,-0.6595638,0.6082658,0.1646995,0.7135074,1.630069,0.2471366,0.010619,1.318597,0.3341253,295.7823,227.4089,21.75295,True
2,2.977774,-0.4574055,-0.03107499,-0.0417425,-1.218404,-4.553779,-2.203561,0.3497316,1.437469,0.4477806,-0.7071998,0.3790835,61.9,93.1,-0.2064142,0.02976272,0.08775145,-0.3009106,-3.936039,0.1777138,0.5156758,1.620427,0.3429399,-0.1399497,0.2074764,0.05439122,-0.6586605,0.6126174,0.1634164,0.7124473,1.630226,0.2472613,0.008469921,1.319851,0.3334371,295.6858,227.1524,21.95401,True
2,2.988885,-0.4563541,-0.03972189,-0.05978974,-1.217141,-4.554325,-2.198397,0.3477359,1.438097,0.4472263,-0.7028572,0.3907821,61.9,93.1,-0.2128063,0.05212948,0.08890387,-0.2996871,-3.932116,0.1765148,0.5142862,1.620241,0.3424444,-0.16328,0.2415875,0.06001033,-0.6571621,0.6185204,0.1612193,0.7112614,1.63031,0.247514,0.006214947,1.320992,0.3328672,295.6058,226.9314,22.12208,True
2,2.999996,-0.4531633,-0.05048959,-0.07783265,-1.215509,-4.554996,-2.193251,0.3457136,1.438675,0.4467084,-0.6980422,0.4337386,61.9,93.1,-0.2287182,0.1128192,0.102977,-0.2975465,-3.921412,0.1694396,0.5127283,1.620205,0.3419881,-0.1802287,0.2735456,0.06663603,-0.6555904,0.6245866,0.1589926,0.7100998,1.630373,0.2477567,0.003831411,1.32198,0.332416,295.5493,226.7543,22.31237,True
2,3.011107,-0.461754,-0.03781928,-0.09068684,-1.214751,-4.556292,-2.187439,0.343732,1.439298,0.446197,-0.693363,0.4209451,61.9,93.1,-0.2456468,0.1660361,0.1234428,-0.2948668,-3.910596,0.1623625,0.5112618,1.620053,0.3415196,-0.18766,0.2916718,0.06568854,-0.6542705,0.6306035,0.1564658,0.7089312,1.630457,0.2480283,0.001386601,1.322816,0.3320842,295.5489,226.6322,22.49387,True
2,3.022218,-0.4724803,-0.01978879,-0.09718007,-1.214339,-4.557695,-2.181322,0.3417175,1.439831,0.445672,-0.6886631,0.4229339,77.4,100,-0.2638313,0.1809656,0.1129393,-0.2935997,-3.902437,0.1581225,0.509766,1.619885,0.3410127,-0.1973291,0.301313,0.05300618,-0.6536308,0.6364544,0.1542982,0.7078396,1.630591,0.2482765,-0.001060908,1.323519,0.3318596,295.601,226.5272,22.68007,True
2,3.033329,-0.4724803,-0.01978879,-0.09718007,-1.214339,-4.557695,-2.181322,0.3417175,1.439831,0.445672,-0.68343,0.4716445,77.4,100,-0.2638313,0.1809656,0.1129393,-0.2935997,-3.902437,0.1581225,0.509766,1.619885,0.3410127,-0.1973291,0.301313,0.05300618,-0.6536308,0.6364544,0.1542982,0.7078396,1.630591,0.2482765,-0.003500533,1.324123,0.3317372,295.6879,226.4664,22.81458,True
2,3.04444,-0.4137997,-0.049442,-0.09816721,-1.21145,-4.558401,-2.173425,0.3374636,1.441034,0.4443529,-0.6837762,-0.03898955,77.4,100,-0.2435464,0.1223775,0.116951,-0.2909365,-3.899495,0.1602395,0.506886,1.619553,0.3401313,-0.1795634,0.2769092,0.01443439,-0.6536633,0.6454915,0.1506662,0.70547,1.630825,0.2486281,-0.005482621,1.324723,0.3317691,295.7263,226.4982,22.8837,True
2,3.055551,-0.3934874,-0.06851975,-0.09381893,-1.209831,-4.558327,-2.169786,0.3354054,1.441574,0.4438083,-0.6695469,1.298074,77.4,100,-0.2296572,0.09360778,0.1221223,-0.2894499,-3.89996,0.1627948,0.5054204,1.619407,0.3395967,-0.1784906,0.2801052,0.0144398,-0.6529917,0.6506774,0.1484337,0.7042004,1.630975,0.2488234,-0.006812942,1.325034,0.3320026,295.5445,226.3146,23.15903,True
2,3.066662,-0.382795,-0.08342829,-0.09800057,-1.207961,-4.558545,-2.165817,0.3333465,1.442106,0.4432387,-0.6700417,-0.06002415,65.6,100,-0.2253947,0.08934805,0.1220857,-0.2880081,-3.898003,0.1632614,0.5039225,1.619224,0.3390634,-0.1846916,0.2981606,0.03584255,-0.6512931,0.6569857,0.1458256,0.7028756,1.6311,0.2490048,-0.009967172,1.325274,0.3319362,295.9546,227.0439,22.62163,True
2,3.077773,-0.3667845,-0.09510578,-0.1000864,-1.206152,-4.558801,-2.16204,0.331399,1.442619,0.4426594,-0.6657035,0.3947552,65.6,100,-0.2244293,0.1213342,0.1093598,-0.2868576,-3.889465,0.1576748,0.5023662,1.618887,0.3385758,-0.1770747,0.3034135,0.05497446,-0.649536,0.6623904,0.1432168,0.7015382,1.631202,0.2491338,-0.01318928,1.325673,0.3317164,296.2299,227.0732,22.80832,True
2,3.088884,-0.3518622,-0.09610763,-0.09798198,-1.204663,-4.559037,-2.158581,0.3293504,1.443076,0.4421306,-0.6610366,0.4204004,65.6,100,-0.2191984,0.1352128,0.09550433,-0.2859905,-3.882839,0.1535853,0.5008072,1.618643,0.3380682,-0.1708231,0.2864062,0.03996212,-0.6491849,0.6667148,0.1413963,0.7002035,1.631319,0.2493083,-0.01596968,1.326175,0.3314017,296.2801,226.8566,23.14466,False
2,3.099995,-0.3283944,-0.09704317,-0.08845731,-1.203156,-4.559062,-2.155791,0.3273255,1.443317,0.4412289,-0.6573715,0.3293716,65.6,100,-0.2075311,0.1394977,0.08904433,-0.28497,-3.877147,0.1501269,0.4991455,1.618472,0.3376491,-0.1550427,0.2843303,0.01532506,-0.6494438,0.672067,0.1384229,0.6988067,1.631382,0.2494712,-0.01831174,1.326747,0.3309994,296.2587,226.606,23.42186,False
2,3.111106,-0.3134436,-0.1012016,-0.07993567,-1.20175,-4.558778,-2.152885,0.3252834,1.443591,0.4406893,-0.6543887,0.2681659,65.6,100,-0.1905188,0.1299278,0.08358568,-0.2840549,-3.873713,0.1484017,0.4975012,1.61819,0.3371491,-0.1423758,0.2715676,0.002405867,-0.649447,0.6764923,0.136013,0.6973556,1.631477,0.2495575,-0.02036366,1.327372,0.3305197,296.2532,226.3569,23.63703,False
2,3.122217,-0.2995663,-0.1042951,-0.07142854,-1.200316,-4.558572,-2.149994,0.3232562,1.443739,0.4400413,-0.6521224,0.2033688,59,100,-0.1597011,0.1278434,0.07166205,-0.2834189,-3.868522,0.144126,0.4957629,1.617885,0.3363981,-0.1380551,0.2630096,0.01192638,-0.6486747,0.6807945,0.1340441,0.6958667,1.63152,0.2496138,-0.02238785,1.328016,0.329948,296.2412,226.1402,23.84344,False
2,3.133328,-0.2931697,-0.1042568,-0.06931568,-1.19895,-4.5586,-2.146867,0.3212141,1.443933,0.4394813,-0.6494315,0.2429012,59,100,-0.1320805,0.1331943,0.05977416,-0.2828123,-3.863016,0.1393781,0.4939491,1.617344,0.3353827,-0.1313833,0.2682195,0.04598039,-0.6465883,0.685667,0.1313788,0.6942957,1.631591,0.2495611,-0.02447741,1.328607,0.3292437,296.1972,225.8695,24.14433,False
2,3.144439,-0.2814455,-0.100971,-0.06190724,-1.197866,-4.558396,-2.144226,0.3192442,1.443966,0.4389439,-0.6472563,0.195543,59,100,-0.1290206,0.1438892,0.03953464,-0.2827483,-3.855998,0.1339509,0.4921475,1.616893,0.3347065,-0.1149786,0.2872148,0.09597906,-0.6433877,0.6914899,0.1275034,0.6926631,1.63161,0.2493455,-0.02662092,1.329117,0.3284375,296.167,225.5687,24.41077,False
2,3.15555,-0.2718633,-0.09988616,-0.06299844,-1.196543,-4.55837,-2.141481,0.3172027,1.443977,0.438369,-0.6452349,0.1821412,59,100,-0.1333207,0.1545507,0.0331879,-0.2823632,-3.848888,0.1287622,0.4903977,1.616441,0.334172,-0.09879705,0.282851,0.1224697,-0.6409041,0.6961765,0.1243829,0.6909842,1.631706,0.2491753,-0.02880947,1.329548,0.3275595,296.162,225.2807,24.62053,False
2,3.166661,-0.263362,-0.09561943,-0.06624293,-1.195313,-4.55859,-2.13876,0.3152359,1.443989,0.4378097,-0.6440067,0.1099123,59,100,-0.129058,0.1694643,0.03425547,-0.2816586,-3.840503,0.1220053,0.4885762,1.615957,0.3334661,-0.08385703,0.2646948,0.1297551,-0.6389413,0.6998101,0.1219653,0.6893023,1.631767,0.2490602,-0.0310076,1.329951,0.3266735,296.1879,225.0316,24.75702,False
2,3.177772,-0.2505814,-0.09455393,-0.06948101,-1.193712,-4.558696,-2.136447,0.3132734,1.443767,0.4367821,-0.6426101,0.1259738,55.1,83.1,-0.1131659,0.1875919,0.02246774,-0.281494,-3.831648,0.1142712,0.4867615,1.615535,0.332932,-0.08390392,0.2540448,0.1265209,-0.6374782,0.703505,0.1200321,0.6876874,1.631865,0.2488012,-0.03316292,1.330338,0.3258227,296.184,224.7735,24.92282,False
2,3.188883,-0.2505814,-0.09455393,-0.06948101,-1.193712,-4.558696,-2.136447,0.3132734,1.443767,0.4367821,-0.6414985,0.09990265,55.1,83.1,-0.1131659,0.1875919,0.02246774,-0.281494,-3.831648,0.1142712,0.4867615,1.615535,0.332932,-0.08390392,0.2540448,0.1265209,-0.6374782,0.703505,0.1200321,0.6876874,1.631865,0.2488012,-0.03531939,1.330718,0.3250268,296.1799,224.518,25.11205,False
2,3.199994,-0.2420692,-0.09347548,-0.0716379,-1.192418,-4.558892,-2.133942,0.3113967,1.443563,0.4362123,-0.6430117,-0.1398075,55.1,83.1,-0.1090563,0.1791184,-0.001011983,-0.2820964,-3.825203,0.1091686,0.4848972,1.615023,0.3321922,-0.08711655,0.246596,0.1254584,-0.6358526,0.7073555,0.1179868,0.6860428,1.631867,0.2486229,-0.03700648,1.331156,0.3243903,296.165,224.2778,25.28582,False
2,3.211105,-0.2239968,-0.07851558,-0.07286121,-1.190263,-4.559748,-2.129358,0.30733,1.443328,0.4350181,-0.6375922,0.4961285,55.1,83.1,-0.1015894,0.1716537,0.001055196,-0.2815526,-3.813201,0.09978039,0.4809146,1.61399,0.3307242,-0.07951306,0.2646502,0.1403716,-0.6316352,0.7173755,0.1114413,0.6824106,1.631956,0.248106,-0.03813835,1.331505,0.3239616,295.9887,223.9271,25.66349,False
2,3.222216,-0.2080222,-0.07847802,-0.07502747,-1.189048,-4.560097,-2.127546,0.3053125,1.443156,0.434401,-0.6388913,-0.1236601,55.1,83.1,-0.104891,0.1855285,-0.01380879,-0.2819915,-3.803942,0.09222527,0.4789197,1.613408,0.3301566,-0.08468215,0.2763268,0.1585536,-0.6289087,0.7229294,0.108143,0.6805993,1.631999,0.247896,-0.04087918,1.331642,0.3232545,296.0493,223.832,25.93404,False
2,3.233327,-0.1931703,-0.05924647,-0.07412877,-1.188591,-4.560813,-2.125632,0.303373,1.442936,0.4336896,-0.6385009,0.03682547,51.2,43.7,-0.1070822,0.2132422,-0.021195,-0.2822439,-3.791532,0.08159952,0.4768589,1.612876,0.3293076,-0.08978671,0.280516,0.1852451,-0.6254168,0.7279446,0.1052068,0.6786658,1.632083,0.247669,-0.04373119,1.331814,0.3225215,296.1452,223.6671,26.12402,False
2,3.244438,-0.1793706,-0.04213464,-0.07108203,-1.188308,-4.561511,-2.123828,0.301306,1.442704,0.4329677,-0.6383448,0.0134149,51.2,43.7,-0.1134505,0.2260069,-0.01581424,-0.2821204,-3.781213,0.07327048,0.4747736,1.612551,0.3286197,-0.09289315,0.2783586,0.1969835,-0.6225128,0.7326237,0.1025586,0.676738,1.632164,0.2474046,-0.04637724,1.332072,0.3218265,296.1721,223.5279,26.23891,False
2,3.255549,-0.1687165,-0.04317241,-0.07216378,-1.18744,-4.561987,-2.122149,0.2992153,1.442527,0.4322696,-0.6378404,0.04567356,51.2,43.7,-0.1219832,0.2430475,-0.016789,-0.2820879,-3.769349,0.06351107,0.4727229,1.611929,0.3278058,-0.08649105,0.2932709,0.1948537,-0.6200441,0.7387578,0.09827118,0.6747081,1.632175,0.2472327,-0.04868741,1.332396,0.321199,296.12,223.3136,26.44969,False
2,3.26666,-0.145262,-0.04626392,-0.0679337,-1.186534,-4.562152,-2.121279,0.2970853,1.442317,0.4314923,-0.6374068,0.03890928,51.2,43.7,-0.1221103,0.2335048,-0.03492075,-0.2831025,-3.760792,0.05683399,0.4705222,1.611237,0.3273494,-0.07696557,0.2975409,0.1862764,-0.6179008,0.744422,0.09418642,0.6726296,1.632159,0.2470458,-0.05077663,1.33275,0.3206163,296.0219,223.1557,26.64656,False
2,3.277771,-0.1367362,-0.04516117,-0.06582556,-1.18576,-4.562365,-2.119989,0.2948296,1.441977,0.4307184,-0.6369829,0.03819175,45,24.5,-0.1113859,0.1951487,-0.02549005,-0.2830743,-3.757715,0.05477164,0.4683173,1.610911,0.3266137,-0.06646636,0.2965213,0.1659526,-0.6164829,0.7498391,0.09003375,0.6706134,1.632194,0.2468984,-0.05285947,1.333089,0.3200328,295.9276,223.0143,26.84143,False
2,3.288882,-0.1367384,-0.04086318,-0.06052873,-1.185265,-4.562646,-2.118378,0.2925123,1.441599,0.4298894,-0.637239,-0.02398183,45,24.5,-0.1049816,0.1557381,-0.02561302,-0.283372,-3.75646,0.05453115,0.4661255,1.610246,0.3257883,-0.06561068,0.3051373,0.1382731,-0.615668,0.7562974,0.08557695,0.6684725,1.632171,0.2466493,-0.05502093,1.33338,0.3194203,295.8741,222.8197,27.08823,False
2,3.299993,-0.1325197,-0.03451894,-0.06910083,-1.184591,-4.563522,-2.116635,0.2902352,1.441067,0.42908,-0.6364998,0.06753854,45,24.5,-0.115677,0.1429615,-0.03302649,-0.2839606,-3.7522,0.05211939,0.4638462,1.609493,0.3246684,-0.06556439,0.3168468,0.1415083,-0.613604,0.7630048,0.08081841,0.6663623,1.632216,0.2464466,-0.0572809,1.333565,0.3187579,295.8102,222.5528,27.40508,False
2,3.311104,-0.1336161,-0.02923446,-0.07446103,-1.183923,-4.56435,-2.114757,0.2878755,1.44071,0.4281986,-0.6358057,0.06260943,45,24.5,-0.1433175,0.1802142,-0.02211728,-0.2836815,-3.74041,0.04339221,0.461398,1.608769,0.3236187,-0.06107196,0.3124957,0.1712958,-0.6101286,0.7685166,0.07674964,0.6640173,1.632142,0.2462072,-0.05969093,1.333603,0.3180277,295.7482,222.3563,27.64127,False
2,3.322215,-0.1336372,-0.02284287,-0.07450528,-1.183481,-4.565115,-2.112982,0.2855183,1.440336,0.4273591,-0.6355873,0.01933642,45,24.5,-0.1592943,0.2110917,-0.01982564,-0.2837055,-3.728228,0.0340099,0.4590366,1.608008,0.322638,-0.06417498,0.3156601,0.1841136,-0.6073706,0.7745815,0.07276901,0.6618388,1.632257,0.2459328,-0.0622169,1.333511,0.3172235,295.7153,222.2451,27.77507,False
2,3.333326,-0.1421995,-0.01115513,-0.0745715,-1.183266,-4.566079,-2.110682,0.2831222,1.439928,0.4264326,-0.6352257,0.0328133,36.7,12,-0.1613995,0.2643421,-0.01331422,-0.283534,-3.710775,0.01907702,0.4566339,1.607165,0.3216648,-0.05009082,0.357123,0.2043794,-0.6038521,0.7839899,0.06506129,0.6593992,1.632208,0.2457101,-0.06478374,1.333328,0.316393,295.7207,222.1467,27.85525,False
2,3.344437,-0.1550275,0.003731336,-0.07251551,-1.183398,-4.567098,-2.10807,0.2804894,1.439447,0.4255018,-0.6351042,0.01069011,36.7,12,-0.169921,0.278175,-0.01217063,-0.2836368,-3.698615,0.009563678,0.4541252,1.606434,0.3208802,-0.02028844,0.3698801,0.19886,-0.6015159,0.791983,0.05778181,0.6570508,1.632185,0.2454104,-0.06737193,1.333141,0.3155607,295.7791,222.1283,27.84568,False
2,3.355548,-0.1582442,0.01119362,-0.07043213,-1.183318,-4.568001,-2.105849,0.2779215,1.439044,0.4246104,-0.6345242,0.05290236,36.7,12,-0.169953,0.2685989,-0.01751644,-0.2840346,-3.689143,0.002402171,0.4516766,1.605635,0.3200231,-0.004341871,0.3762722,0.1913086,-0.5993066,0.799682,0.05074494,0.6546537,1.63215,0.2452068,-0.06995659,1.333014,0.3147407,295.8264,222.1336,27.83249,False
2,3.366659,-0.1699893,0.0207573,-0.06834167,-1.183496,-4.56896,-2.103163,0.2753217,1.438597,0.423671,-0.634097,0.03856252,36.7,12,-0.1615258,0.2356072,-0.0336246,-0.2851393,-3.684578,-0.0004740427,0.4490699,1.604786,0.3193133,0.005115449,0.379505,0.1742078,-0.597656,0.8072929,0.04414056,0.6522545,1.632084,0.2448866,-0.07263162,1.333003,0.3139055,295.8392,222.1657,27.82969,False
2,3.37777,-0.1689413,0.02608891,-0.06838226,-1.183508,-4.569949,-2.100959,0.2726327,1.438227,0.4227605,-0.6343671,-0.02502437,23.7,7.2,-0.1507861,0.181258,-0.0242164,-0.2850254,-3.68461,0.0007499462,0.446537,1.603971,0.3186145,0.01366678,0.3667044,0.1773178,-0.5951526,0.813823,0.03802302,0.6498011,1.632052,0.2446434,-0.07548227,1.333151,0.3130247,295.8109,222.1706,27.86635,False
2,3.388881,-0.1785641,0.0345574,-0.07161561,-1.183675,-4.571195,-2.098117,0.2700149,1.4378,0.4218163,-0.6339357,0.03968025,23.7,7.2,-0.145393,0.1492838,-0.01579264,-0.2848698,-3.683042,0.0006974819,0.4440243,1.603187,0.3177311,0.01049304,0.3592356,0.1826539,-0.5926614,0.820241,0.03278618,0.6473148,1.631893,0.2443683,-0.07838137,1.333469,0.3121118,295.7319,222.0484,28.02349,False
2,3.399992,-0.190316,0.03441802,-0.08650741,-1.183261,-4.572869,-2.094962,0.2673382,1.437435,0.4209311,-0.6343575,-0.03893561,23.7,7.2,-0.1421846,0.170579,-0.01257531,-0.2849556,-3.673307,-0.007132478,0.441467,1.602484,0.3168638,0.004225165,0.3773286,0.1944805,-0.5898896,0.8290948,0.02561588,0.6445186,1.631927,0.2440717,-0.08131707,1.333951,0.3111577,295.6165,221.8866,28.21918,False
2,3.411103,-0.1977726,0.03010755,-0.09072623,-1.182845,-4.574121,-2.091974,0.264766,1.437026,0.4201572,-0.6338552,0.0462704,23.7,7.2,-0.1559843,0.1780185,-0.005019605,-0.2848576,-3.665197,-0.0127134,0.4389108,1.601685,0.3158984,0.008618861,0.3772639,0.2125584,-0.586746,0.8365071,0.01926717,0.6417345,1.631684,0.2438891,-0.08426534,1.334559,0.310183,295.461,221.6129,28.50673,False
2,3.422215,-0.2019917,0.01731038,-0.09062818,-1.182097,-4.574916,-2.089251,0.2620322,1.436682,0.4192781,-0.6336496,0.01838628,23.7,7.2,-0.1655357,0.18226,0.0003711022,-0.2847814,-3.657785,-0.01763412,0.4362799,1.600885,0.3150663,0.01616287,0.3761579,0.2252648,-0.5838288,0.844169,0.01251579,0.6390086,1.631488,0.2437522,-0.0872165,1.335256,0.3092138,295.2955,221.3086,28.81076,False
2,3.433326,-0.2041157,0.01302169,-0.09271755,-1.181568,-4.57581,-2.086526,0.2592907,1.436216,0.4182703,-0.6336768,-0.002576094,5.8,3.3,-0.1718969,0.1918357,0.005757932,-0.2845822,-3.648732,-0.02415807,0.4336579,1.600154,0.3141665,0.01718575,0.3665725,0.2230881,-0.5814874,0.8507396,0.00687282,0.6362799,1.631401,0.2435782,-0.09018084,1.336029,0.308305,295.1504,220.9182,29.17099,False
2,3.444437,-0.2061948,-0.001891613,-0.09154421,-1.180549,-4.576403,-2.083897,0.256466,1.435884,0.4174435,-0.6338111,-0.01220986,5.8,3.3,-0.1717792,0.2003137,0.02494561,-0.2836714,-3.639773,-0.03082556,0.4309098,1.599299,0.3134007,0.01713198,0.3634026,0.2188164,-0.5792471,0.8581353,0.0006796387,0.6336492,1.631253,0.2434859,-0.09310958,1.336842,0.3074833,294.9967,220.5074,29.58397,False
2,3.455548,-0.2082776,-0.01894175,-0.09248841,-1.179397,-4.577044,-2.081172,0.2535676,1.435581,0.4166358,-0.6338877,-0.006870608,5.8,3.3,-0.1717695,0.1928545,0.02599585,-0.2833944,-3.63324,-0.03518462,0.4282786,1.598494,0.3125067,0.01818457,0.350614,0.2198336,-0.5767683,0.8643079,-0.004730839,0.6309801,1.631006,0.2432859,-0.09608986,1.337637,0.3066879,294.8363,220.1246,30.05513,False
2,3.466659,-0.2113906,-0.04775133,-0.09760835,-1.177379,-4.577398,-2.078535,0.2506882,1.435301,0.4157507,-0.6338931,-0.0004361156,5.8,3.3,-0.1759094,0.1480801,0.04190744,-0.2824879,-3.633739,-0.03262878,0.4255481,1.597713,0.3117073,0.01703274,0.3314504,0.2144458,-0.5747411,0.8695042,-0.00906034,0.6285575,1.630848,0.2431099,-0.09912603,1.338352,0.3058623,294.6815,219.7629,30.53355,False
2,3.47777,-0.2145192,-0.0733809,-0.104884,-1.175146,-4.577923,-2.075789,0.2478146,1.435031,0.4147239,-0.6338307,0.005715972,5.8,3.3,-0.2045979,0.1203536,0.05162489,-0.2815579,-3.63256,-0.03037868,0.4228496,1.596771,0.3106308,0.009642333,0.34636,0.219877,-0.5720773,0.877799,-0.01586152,0.6258951,1.630591,0.2428503,-0.1022078,1.338964,0.304997,294.5854,219.3839,30.96144,False
2,3.488881,-0.2144866,-0.08834633,-0.1122375,-1.173045,-4.578556,-2.073172,0.2449664,1.434725,0.4138277,-0.6338233,0.0006452679,5.5,3.1,-0.213084,0.1363169,0.05810449,-0.2807355,-3.624777,-0.03516118,0.420181,1.595876,0.3095944,0.008688688,0.3676395,0.2284714,-0.5693465,0.887044,-0.02379428,0.6233206,1.630325,0.2425933,-0.1053338,1.339483,0.3040979,294.5435,219.0061,31.34332,False
2,3.499992,-0.2101734,-0.1086112,-0.1174357,-1.170596,-4.578962,-2.070778,0.2421459,1.434363,0.4129689,-0.633802,0.001950638,5.5,3.1,-0.2162903,0.2183439,0.06148195,-0.2803254,-3.603572,-0.05295749,0.4174576,1.594909,0.3085124,0.01410741,0.3878548,0.2370188,-0.5663776,0.8971924,-0.03261733,0.6207397,1.630237,0.2422168,-0.1084573,1.339921,0.303162,294.5516,218.6008,31.7621,False
