loc,t,aDotUA,bDotUA,gDotUA,aUA,bUA,gUA,xUA,yUA,zUA,qE,qDotE,emgA,emgB,aDotSH,bDotSH,gDotSH,aSH,bSH,gSH,xSH,ySH,zSH,aDotUB,bDotUB,gDotUB,aUB,bUB,gUB,xUB,yUB,zUB,xHand,yHand,zHand,aHand,bHand,gHand,enable
2,0,0.2096101,-0.7678429,0.1711071,-1.424517,-4.130711,-3.08451,0.6310284,1.299643,0.5195088,-1.36141,0.01916716,78.4,11.9,-0.1141362,0.3764412,-0.08157571,-0.6568308,-4.027633,-0.2713836,0.6629516,1.558524,0.4222248,-0.09430514,0.1420152,0.1570296,-0.6049685,0.4553559,-0.06535397,0.7906297,1.631238,0.2444797,0.419082,1.130923,0.3053753,303.0866,235.1269,351.5832,False
2,0.01111111,0.2096101,-0.7678429,0.1711071,-1.424517,-4.130711,-3.08451,0.6310284,1.299643,0.5195088,-1.361106,0.02773861,78.4,11.9,-0.1141362,0.3764412,-0.08157571,-0.6568308,-4.027633,-0.2713836,0.6629516,1.558524,0.4222248,-0.09430514,0.1420152,0.1570296,-0.6049685,0.4553559,-0.06535397,0.7906297,1.631238,0.2444797,0.4205188,1.130238,0.3036537,303.2127,233.987,352.2681,False
2,0.02222222,0.1422552,-0.7030194,0.183692,-1.428185,-4.116682,-3.087855,0.6297804,1.299269,0.5184789,-1.359753,0.1237248,78,10.7,-0.1435586,0.3283626,-0.03140028,-0.6577486,-4.017581,-0.2751924,0.6622741,1.558311,0.4217658,-0.08905712,0.1473638,0.1474124,-0.6022621,0.4616475,-0.06864697,0.7904774,1.631317,0.2446363,0.4222474,1.129362,0.3015066,303.4206,233.2127,352.2827,False
2,0.03333334,0.1283898,-0.6988122,0.1837035,-1.429811,-4.108899,-3.08992,0.629171,1.299036,0.5179424,-1.36275,-0.2748749,78,10.7,-0.1339625,0.2836407,-0.03582662,-0.6586913,-4.015279,-0.2758651,0.661994,1.558139,0.4215796,-0.09231746,0.1505834,0.1389198,-0.6011729,0.464998,-0.07025632,0.7904143,1.63135,0.244709,0.4238821,1.128503,0.2993224,303.7301,232.9186,351.7854,False
2,0.04444445,0.08470072,-0.6968539,0.1859506,-1.43151,-4.100741,-3.090547,0.6283762,1.298627,0.517123,-1.360374,0.2199073,78,10.7,-0.1244134,0.2442613,-0.04663993,-0.6600479,-4.013568,-0.2762095,0.6615874,1.557921,0.4213805,-0.09565616,0.1463652,0.1218893,-0.6005913,0.467699,-0.07122092,0.790282,1.631347,0.2447894,0.4256599,1.127561,0.2967353,303.8786,232.7264,351.5605,False
2,0.05555556,0.08470072,-0.6968539,0.1859506,-1.43151,-4.100741,-3.090547,0.6283762,1.298627,0.517123,-1.361303,-0.08704188,78,10.7,-0.1244134,0.2442613,-0.04663993,-0.6600479,-4.013568,-0.2762095,0.6615874,1.557921,0.4213805,-0.09565616,0.1463652,0.1218893,-0.6005913,0.467699,-0.07122092,0.790282,1.631347,0.2447894,0.4275239,1.126631,0.2938992,304.11,232.3866,351.2444,False
2,0.06666667,0.01654561,-0.7078605,0.1744845,-1.434244,-4.083936,-3.091388,0.6266385,1.298142,0.5156105,-1.360736,0.05301736,77.4,9.4,-0.1045239,0.1804945,-0.1044436,-0.6645647,-4.012052,-0.2757258,0.6609889,1.557443,0.4208345,-0.1086534,0.1389802,0.09640814,-0.5994829,0.4729448,-0.07268406,0.7901223,1.631474,0.2448792,0.4294592,1.125853,0.2911803,304.2986,231.8492,350.8356,False
2,0.07777778,-0.01865821,-0.7091714,0.1596875,-1.435174,-4.0754,-3.091042,0.6255363,1.297937,0.5148525,-1.359609,0.1027328,77.4,9.4,-0.1257973,0.1868617,-0.1000185,-0.6661759,-4.008756,-0.2762252,0.6603914,1.557257,0.4205399,-0.1149245,0.1464151,0.1113883,-0.5977864,0.4767011,-0.07419513,0.7900509,1.631381,0.2449834,0.4310262,1.125271,0.2888693,304.4372,231.4953,350.4022,False
2,0.08888889,-0.06996934,-0.6807646,0.1340747,-1.435376,-4.068552,-3.089464,0.6243346,1.297868,0.5140448,-1.360557,-0.08727846,77.4,9.4,-0.1512991,0.2581758,-0.08049802,-0.6678707,-4.00009,-0.2803486,0.659923,1.55715,0.4202051,-0.1169955,0.1623844,0.1167652,-0.5964602,0.4811706,-0.07652088,0.7899759,1.63141,0.2451806,0.4321867,1.124706,0.2861344,304.524,231.2484,350.451,False
2,0.1,-0.09672612,-0.6553767,0.1233435,-1.436143,-4.061694,-3.088554,0.6232226,1.297718,0.5132425,-1.360156,0.03781509,77.4,9.4,-0.1777318,0.2943008,-0.04827514,-0.6687213,-3.992759,-0.2832139,0.6592988,1.557013,0.4198515,-0.1212393,0.1666472,0.1189437,-0.5951409,0.4849879,-0.07812463,0.7898855,1.631412,0.2452667,0.433323,1.124323,0.2832083,304.5706,230.7949,350.4886,False
2,0.1111111,-0.1470431,-0.6056278,0.1029296,-1.436257,-4.056538,-3.085814,0.6220622,1.297639,0.5124772,-1.359462,0.06327594,77.4,9.4,-0.1945825,0.2963573,-0.02044987,-0.6689035,-3.987179,-0.2847654,0.6588666,1.556931,0.4194901,-0.1203272,0.1538965,0.1018617,-0.5947185,0.4871974,-0.07853609,0.789866,1.631453,0.2453008,0.4343522,1.12418,0.2802472,304.6139,230.2607,350.3372,False
2,0.1222222,-0.1942266,-0.5474182,0.07287185,-1.435824,-4.052005,-3.082765,0.6209387,1.297538,0.5117011,-1.360444,-0.09000989,77,8.9,-0.2124932,0.2866963,0.005229103,-0.6687261,-3.982306,-0.2856232,0.6585973,1.556942,0.4191597,-0.1227713,0.1316155,0.06561172,-0.5954034,0.48841,-0.07800958,0.7898812,1.631439,0.2453406,0.4350712,1.124345,0.277385,304.6427,229.727,350.1053,False
2,0.1333333,-0.2264279,-0.4975858,0.05454026,-1.435516,-4.048184,-3.07957,0.6197945,1.297446,0.5109296,-1.359349,0.1012017,77,8.9,-0.2070227,0.2653603,0.02325338,-0.6685067,-3.978447,-0.2864744,0.6582438,1.556819,0.4188783,-0.1230008,0.1156865,0.03893982,-0.5960687,0.4893777,-0.07736057,0.7898878,1.631451,0.2453699,0.4354912,1.124833,0.2747701,304.5333,229.2778,349.916,False
2,0.1444445,-0.2898657,-0.372362,0.01665078,-1.434402,-4.048142,-3.074266,0.6185999,1.29736,0.5101907,-1.359403,-0.005596846,77,8.9,-0.1974725,0.2462081,0.01568667,-0.6692258,-3.975323,-0.2870752,0.6578585,1.55661,0.4187114,-0.1271733,0.1220545,0.04963631,-0.5952378,0.4923062,-0.07820372,0.7898577,1.631424,0.2454724,0.435463,1.125605,0.2724203,304.3615,228.897,349.8082,False
2,0.1555556,-0.3253621,-0.3001961,-0.005003981,-1.433568,-4.047091,-3.069648,0.617539,1.297263,0.5094674,-1.359808,-0.03658933,77,8.9,-0.1996479,0.2142731,0.00497546,-0.6699027,-3.973729,-0.2860259,0.6574782,1.556536,0.418478,-0.131271,0.1369341,0.06887037,-0.5939898,0.496289,-0.07988311,0.7898185,1.631411,0.2457461,0.434961,1.126639,0.2703635,304.1138,228.5382,349.8428,False
2,0.1666667,-0.3716836,-0.1897936,-0.03859232,-1.431979,-4.048878,-3.063768,0.6163024,1.297333,0.5088193,-1.358697,0.1022091,76.3,9,-0.2017498,0.1865725,0.005993811,-0.6700865,-3.972003,-0.2850072,0.6570403,1.556577,0.418303,-0.1332382,0.1475389,0.08914386,-0.5924979,0.500001,-0.08133214,0.7897823,1.631408,0.2458465,0.4339652,1.12788,0.2686055,303.8031,228.2338,349.921,False
2,0.1777778,-0.4071592,-0.1218691,-0.0570232,-1.430811,-4.049699,-3.057818,0.6150315,1.297414,0.5081248,-1.359585,-0.08175696,76.3,9,-0.204852,0.156723,0.01446782,-0.6698766,-3.970804,-0.2836331,0.6565776,1.556631,0.4180188,-0.1450311,0.1422439,0.08069935,-0.5921198,0.5024846,-0.08130125,0.7898718,1.631351,0.2459495,0.4323089,1.129309,0.26716,303.4958,228.0428,349.9903,False
2,0.1888889,-0.4620031,-0.01041726,-0.0884597,-1.428914,-4.053883,-3.050092,0.6136842,1.29758,0.5074332,-1.359289,0.02819123,76.3,9,-0.2217685,0.1428225,0.03053547,-0.6693525,-3.968679,-0.2822067,0.6560981,1.556746,0.41767,-0.1462839,0.1348355,0.05724523,-0.5926242,0.5045142,-0.0813601,0.7899591,1.631283,0.2460592,0.4301885,1.130951,0.2660923,303.1318,227.9169,350.1752,False
2,0.2,-0.4996267,0.06068207,-0.1101042,-1.427185,-4.057245,-3.04259,0.6123371,1.297693,0.5067692,-1.359489,-0.01826769,76.3,9,-0.2429871,0.1470305,0.04348063,-0.6689498,-3.965493,-0.2811731,0.6557192,1.556734,0.4173388,-0.1509622,0.1211062,0.006118995,-0.5945912,0.5057922,-0.08052254,0.7900739,1.631241,0.2461286,0.4275633,1.132791,0.2653606,302.7742,227.8506,350.4172,False
2,0.2111111,-0.4996267,0.06068207,-0.1101042,-1.427185,-4.057245,-3.04259,0.6123371,1.297693,0.5067692,-1.358681,0.07436013,76.3,9,-0.2429871,0.1470305,0.04348063,-0.6689498,-3.965493,-0.2811731,0.6557192,1.556734,0.4173388,-0.1509622,0.1211062,0.006118995,-0.5945912,0.5057922,-0.08052254,0.7900739,1.631241,0.2461286,0.4245427,1.134825,0.2648737,302.3938,227.8421,350.7319,False
2,0.2222222,-0.5985436,0.2516289,-0.1781223,-1.422384,-4.069464,-3.024393,0.6091416,1.298344,0.505609,-1.366,-0.6696167,73.4,11.3,-0.2808716,0.1404543,0.108724,-0.6654717,-3.958797,-0.2788697,0.6549107,1.557016,0.4166083,-0.1503,0.1084351,-0.04399146,-0.5974445,0.5090982,-0.07998565,0.7902493,1.631231,0.2463787,0.4213703,1.137149,0.2647111,301.972,227.9456,351.0867,False
2,0.2333333,-0.6437024,0.338625,-0.2083667,-1.419751,-4.077046,-3.014321,0.6074811,1.298692,0.5050261,-1.351247,1.354891,73.4,11.3,-0.287169,0.08929983,0.1150476,-0.6637354,-3.95951,-0.2748513,0.6545182,1.557163,0.416271,-0.1492221,0.1041673,-0.04188209,-0.5979462,0.5107734,-0.07974862,0.7902771,1.631201,0.2465439,0.418622,1.139495,0.2650166,301.2368,227.9447,351.4874,False
2,0.2444444,-0.6716791,0.3980525,-0.2267693,-1.417409,-4.08393,-3.004733,0.6059213,1.299063,0.5044153,-1.35865,-0.6886179,73.4,11.3,-0.2871051,0.04880592,0.1181527,-0.6621156,-3.960602,-0.2708493,0.6541523,1.557319,0.4159024,-0.1523687,0.1052259,-0.03545962,-0.5981039,0.5130232,-0.07975288,0.7902825,1.631123,0.2465763,0.4140116,1.14171,0.2645819,301.2454,227.9491,351.5767,False
2,0.2555556,-0.7233763,0.5104748,-0.2741956,-1.413947,-4.094214,-2.993087,0.6041188,1.299676,0.5039058,-1.359015,-0.02561678,73.4,11.3,-0.2859777,0.00618577,0.1212394,-0.6603702,-3.962273,-0.2663531,0.653479,1.557697,0.4155803,-0.1577213,0.1031074,-0.0386235,-0.5987596,0.5149507,-0.07938164,0.7903342,1.631142,0.2465148,0.4088663,1.144479,0.2642907,301.0006,227.8352,352.0395,False
2,0.2666667,-0.7535991,0.5900517,-0.307629,-1.410719,-4.104264,-2.982136,0.6023059,1.300207,0.50331,-1.35983,-0.07455305,69.8,10.6,-0.3050418,-0.008777708,0.1351952,-0.6582748,-3.962324,-0.2622297,0.6528686,1.557954,0.4151812,-0.159941,0.09461346,-0.04927037,-0.5996778,0.5162069,-0.07860879,0.790346,1.631118,0.2465045,0.4036023,1.147845,0.2643404,300.459,227.8857,352.5614,False
2,0.2777778,-0.776311,0.6547206,-0.3409922,-1.40749,-4.114225,-2.971194,0.6005673,1.300833,0.5027027,-1.358865,0.08919749,69.8,10.6,-0.3144732,-0.01202786,0.1554935,-0.6558955,-3.961688,-0.2590214,0.6523719,1.558281,0.4147241,-0.1687259,0.07870966,-0.08013632,-0.6018169,0.5164034,-0.07653925,0.7905101,1.631025,0.2464488,0.3984418,1.151717,0.2647157,299.6926,227.9614,353.1225,False
2,0.2888889,-0.7871718,0.693974,-0.3614359,-1.404422,-4.124107,-2.96047,0.5987246,1.301433,0.5022156,-1.359887,-0.09397127,69.8,10.6,-0.3292434,-0.007824332,0.1769134,-0.6533251,-3.960335,-0.2558571,0.6516695,1.558601,0.4142118,-0.17434,0.05534589,-0.1131715,-0.604242,0.5155535,-0.07362469,0.7905637,1.630917,0.2463331,0.3930933,1.155967,0.265309,298.9077,227.9417,353.6692,False
2,0.3,-0.796013,0.7577046,-0.3863088,-1.401259,-4.13575,-2.949358,0.596805,1.302127,0.5016453,-1.360444,-0.04977067,69.8,10.6,-0.3398014,-0.01211891,0.1897635,-0.6507977,-3.959639,-0.2522216,0.6509216,1.558948,0.4136946,-0.1851508,0.03941603,-0.1312316,-0.6063693,0.5149686,-0.07066672,0.7905966,1.630878,0.2462716,0.3875408,1.160482,0.2661064,298.0556,227.9102,354.2854,False
2,0.3111111,-0.8026577,0.8119099,-0.4026026,-1.398339,-4.147627,-2.938249,0.5947635,1.30275,0.501092,-1.361047,-0.05453873,69.8,10.6,-0.3503357,-0.01110113,0.2068895,-0.6478874,-3.958574,-0.2487984,0.6500007,1.559293,0.4131153,-0.2033267,0.037321,-0.1396101,-0.6081595,0.5153661,-0.06810475,0.7905515,1.630791,0.2461462,0.3819107,1.165126,0.267085,297.1665,227.8969,354.985,False
2,0.3222222,-0.803966,0.8629264,-0.4199528,-1.395482,-4.159544,-2.927544,0.5928334,1.303301,0.500587,-1.361301,-0.02261169,67.2,14,-0.3556232,-0.007920027,0.2112038,-0.6454549,-3.957493,-0.2457935,0.6492313,1.559671,0.4124784,-0.2245727,0.04584801,-0.1330356,-0.6093984,0.5166644,-0.06592202,0.7904736,1.630842,0.2461591,0.3762575,1.169744,0.2681851,296.2856,227.8651,355.7123,False
2,0.3333333,-0.8062712,0.9012093,-0.4297686,-1.392969,-4.171795,-2.916528,0.5908192,1.303952,0.5000613,-1.36161,-0.02797934,67.2,14,-0.3641148,-0.00793764,0.2155261,-0.6430128,-3.956653,-0.2421865,0.6481458,1.560046,0.4118173,-0.2330395,0.05116543,-0.1265642,-0.6105275,0.5178523,-0.06405142,0.7903761,1.630792,0.2460592,0.3704891,1.17423,0.2693668,295.4803,227.8221,356.4038,False
2,0.3444445,-0.8022359,0.9490526,-0.4460492,-1.390324,-4.184745,-2.905704,0.5887358,1.304635,0.4995432,-1.36225,-0.05814085,67.2,14,-0.3747088,0.001616091,0.225212,-0.6403342,-3.954979,-0.2390312,0.6469913,1.560322,0.4111497,-0.2469329,0.05332246,-0.1328462,-0.6123076,0.518779,-0.06162954,0.7902439,1.630744,0.2459662,0.3646332,1.178526,0.2706661,294.7348,227.7879,357.0856,False
2,0.3555556,-0.7991633,0.9756516,-0.4536768,-1.387983,-4.197594,-2.894738,0.5866242,1.305334,0.4990292,-1.362214,0.003884897,67.2,14,-0.3970267,0.03352919,0.2371657,-0.6377003,-3.95105,-0.2369481,0.6456717,1.560714,0.4103875,-0.2703597,0.05867898,-0.1326481,-0.6137846,0.5202734,-0.05905879,0.7900314,1.630728,0.2458599,0.3588316,1.182599,0.2721441,294.0486,227.78,357.7746,False
2,0.3666667,-0.783437,1.033162,-0.4668411,-1.385733,-4.212271,-2.88404,0.5844009,1.306171,0.498652,-1.362634,-0.03840891,67.2,14,-0.4171478,0.06541115,0.2576314,-0.6345141,-3.946756,-0.2351065,0.6443,1.561209,0.4096537,-0.2907035,0.05552346,-0.1442153,-0.6158741,0.5208154,-0.05536925,0.7898496,1.630677,0.2457929,0.3530613,1.186468,0.2737609,293.4828,227.8311,358.4155,False
2,0.3777778,-0.7782048,1.054456,-0.4701811,-1.38379,-4.225603,-2.873246,0.5823241,1.306834,0.4982042,-1.363724,-0.09769053,65.3,13.9,-0.4362474,0.08026958,0.2705876,-0.6314318,-3.943203,-0.2324522,0.6427803,1.561698,0.4088249,-0.3024947,0.05129629,-0.1526546,-0.6178693,0.5214484,-0.05214603,0.7896495,1.63068,0.2456853,0.3472843,1.190234,0.2754974,293.0407,227.8961,359.0387,True
2,0.3888889,-0.7634515,1.095,-0.4715234,-1.382153,-4.240517,-2.862534,0.5802214,1.307741,0.4978795,-1.366583,-0.2582788,65.3,13.9,-0.4564534,0.08449781,0.276069,-0.6285225,-3.940267,-0.2290263,0.641356,1.562254,0.4080129,-0.3216517,0.04491097,-0.149325,-0.6194609,0.5216262,-0.04806446,0.7894242,1.63062,0.2455935,0.3414641,1.194087,0.2773285,292.6975,227.9782,359.6205,True
2,0.4,-0.7422596,1.121693,-0.4738745,-1.380707,-4.254787,-2.852444,0.5779214,1.308565,0.4974685,-1.369509,-0.2624542,65.3,13.9,-0.4723368,0.08763859,0.2900424,-0.6250599,-3.937217,-0.2257221,0.6398529,1.562724,0.407129,-0.3365358,0.05131489,-0.1470535,-0.6208707,0.5229626,-0.04504737,0.7891588,1.630657,0.2455308,0.3355607,1.198231,0.2793188,292.3272,228.0417,0.2162402,True
2,0.4111111,-0.7273895,1.131358,-0.4739558,-1.379588,-4.268784,-2.842391,0.5757535,1.309254,0.4972112,-1.373847,-0.391155,65.3,13.9,-0.4851366,0.09402528,0.2890795,-0.6223946,-3.933852,-0.2227084,0.6381623,1.563199,0.406307,-0.3514131,0.0811545,-0.1458113,-0.6225576,0.5262914,-0.04336132,0.7889081,1.630504,0.2455232,0.3296832,1.202812,0.2814575,291.8548,228.1366,0.8656688,True
2,0.4222222,-0.7029126,1.134639,-0.4751076,-1.378269,-4.282613,-2.832794,0.5734301,1.310033,0.4967954,-1.379069,-0.4703363,63,15.5,-0.4926149,0.09933427,0.2870088,-0.6196606,-3.930912,-0.2194242,0.6364613,1.563675,0.4053075,-0.3588209,0.09607133,-0.1414665,-0.6241171,0.5291113,-0.04144997,0.7886762,1.630521,0.2455118,0.3237928,1.207953,0.2837286,291.2647,228.1807,1.577151,True
2,0.4333333,-0.6837747,1.140051,-0.478372,-1.377359,-4.297031,-2.823058,0.5710402,1.310916,0.4963813,-1.384226,-0.4637291,63,15.5,-0.5001402,0.09082845,0.2763908,-0.6172174,-3.92878,-0.2153698,0.6347071,1.56414,0.4044461,-0.3779907,0.0939531,-0.1402572,-0.6256527,0.5306066,-0.03778147,0.7882911,1.630519,0.2454445,0.3179051,1.213632,0.2860866,290.4602,228.0858,2.466532,True
2,0.4444444,-0.6614095,1.137978,-0.4816216,-1.376165,-4.310794,-2.813775,0.568619,1.311668,0.4958496,-1.390132,-0.532073,63,15.5,-0.5012542,0.05995041,0.2656745,-0.6146315,-3.929003,-0.2095966,0.6326609,1.564695,0.4035122,-0.401623,0.08657935,-0.1635247,-0.6283707,0.5317163,-0.03325596,0.7877836,1.63054,0.2455912,0.3121448,1.219741,0.2885117,289.4712,227.8617,3.511462,True
2,0.4555556,-0.6315354,1.122079,-0.487992,-1.374773,-4.324223,-2.805166,0.5661515,1.312574,0.4954009,-1.395959,-0.5241365,63,15.5,-0.4980813,0.07166126,0.2646165,-0.6119002,-3.925967,-0.2066293,0.6304295,1.565303,0.4025049,-0.4273967,0.09944177,-0.1909901,-0.631591,0.533985,-0.02934138,0.7873796,1.630468,0.2455838,0.3064665,1.226138,0.2909023,288.4076,227.4453,4.730313,True
2,0.4666667,-0.5920432,1.103081,-0.4858443,-1.373749,-4.33735,-2.797276,0.5636382,1.313423,0.4948733,-1.402374,-0.5777251,63,15.5,-0.510929,0.1036204,0.2605211,-0.6096711,-3.92097,-0.2045036,0.6281401,1.565835,0.4013298,-0.4540602,0.1389104,-0.2002796,-0.6342819,0.5390039,-0.02741857,0.7869685,1.63053,0.2456803,0.3008507,1.232696,0.2932333,287.334,226.8628,6.077962,True
2,0.4777778,-0.5674983,1.094681,-0.4815971,-1.372906,-4.350653,-2.789145,0.5612316,1.314302,0.4943881,-1.409335,-0.6271689,60.3,17.2,-0.5449924,0.1621578,0.2715527,-0.6071043,-3.91305,-0.2037198,0.6258631,1.566427,0.4000957,-0.4795552,0.1730155,-0.1946776,-0.6363384,0.5443793,-0.02543532,0.7865971,1.630375,0.2457521,0.2953717,1.23926,0.2954887,286.264,226.0186,7.669439,True
2,0.4888889,-0.5290841,1.08313,-0.4795067,-1.371893,-4.363619,-2.782154,0.5588428,1.315137,0.493876,-1.416543,-0.6491235,60.3,17.2,-0.5821997,0.2377065,0.2932959,-0.6042334,-3.902659,-0.2044754,0.6234739,1.567007,0.3988914,-0.502908,0.1804719,-0.1848889,-0.6379768,0.5480796,-0.02210424,0.7860731,1.63036,0.2459583,0.2901113,1.2457,0.2976857,285.2537,224.9158,9.463102,True
2,0.5,-0.4949963,1.086506,-0.4732193,-1.371504,-4.377378,-2.775001,0.5565669,1.316069,0.4933643,-1.423032,-0.5832258,60.3,17.2,-0.6087558,0.2983477,0.3127948,-0.6012251,-3.892087,-0.2053915,0.6210871,1.567728,0.3976841,-0.5178105,0.1847466,-0.1836911,-0.6399879,0.5516679,-0.01866397,0.7855138,1.630414,0.2461109,0.2850957,1.251891,0.2998307,284.308,223.6921,11.33046,True
2,0.5111111,-0.4662356,1.093046,-0.4680087,-1.371271,-4.391047,-2.768125,0.554359,1.316816,0.4929371,-1.43084,-0.7041895,60.3,17.2,-0.6141132,0.3132539,0.3107364,-0.5987175,-3.884202,-0.2049132,0.6188514,1.568345,0.3966203,-0.5209252,0.1964466,-0.174047,-0.6415513,0.555921,-0.01614808,0.7850249,1.63031,0.2461951,0.2803253,1.257783,0.3019483,283.4802,222.4312,13.19663,True
2,0.5222223,-0.4662356,1.093046,-0.4680087,-1.371271,-4.391047,-2.768125,0.554359,1.316816,0.4929371,-1.437815,-0.6269946,60.3,17.2,-0.6141132,0.3132539,0.3107364,-0.5987175,-3.884202,-0.2049132,0.6188514,1.568345,0.3966203,-0.5209252,0.1964466,-0.174047,-0.6415513,0.555921,-0.01614808,0.7850249,1.63031,0.2461951,0.275792,1.263346,0.3040725,282.7573,221.0323,15.16102,True
2,0.5333334,-0.4395804,1.095359,-0.4574227,-1.371496,-4.404685,-2.761357,0.5521923,1.317646,0.4925704,-1.449073,-1.01942,55,22.1,-0.6076849,0.3079212,0.3149418,-0.5957806,-3.877358,-0.2040477,0.6167972,1.568928,0.3955219,-0.5145309,0.2028374,-0.1740835,-0.6435763,0.5602016,-0.01399784,0.7844756,1.630395,0.2463419,0.2721391,1.268527,0.3063495,282.0305,220.0149,16.98189,True
2,0.5444446,-0.4106757,1.072046,-0.4415966,-1.371647,-4.43037,-2.747823,0.5476023,1.319192,0.4916804,-1.448281,0.08580582,55,22.1,-0.5832157,0.2536473,0.3029185,-0.5904372,-3.868185,-0.1995078,0.6127645,1.56995,0.3937333,-0.503922,0.162333,-0.1742411,-0.6473122,0.5639079,-0.006166549,0.7834188,1.630267,0.2466681,0.269751,1.27299,0.308392,281.2837,218.4333,19.17052,True
2,0.5555557,-0.3934644,1.041388,-0.4295187,-1.371603,-4.441743,-2.74213,0.5454164,1.319849,0.4912388,-1.459023,-0.9783209,55,22.1,-0.5363733,0.21323,0.2929034,-0.5877218,-3.865573,-0.1974436,0.6109365,1.570506,0.3928623,-0.4922265,0.1484757,-0.1754258,-0.6493863,0.5656076,-0.002464756,0.7827812,1.630157,0.2468235,0.2648574,1.277617,0.3100055,281.1923,217.0391,20.39021,True
2,0.5666668,-0.3804921,1.004234,-0.4186715,-1.371588,-4.45289,-2.736166,0.5432718,1.320487,0.490694,-1.466226,-0.644357,55,22.1,-0.5023803,0.174966,0.2733931,-0.5856345,-3.863621,-0.1947479,0.6089829,1.571014,0.3919268,-0.4729469,0.1399057,-0.1606807,-0.6505448,0.5677,0.0004530037,0.7818788,1.63027,0.2468493,0.2596158,1.282475,0.3121089,280.9413,215.8023,21.93218,True
2,0.577778,-0.3655049,0.9883386,-0.4143534,-1.371614,-4.464411,-2.730399,0.5411657,1.321094,0.490232,-1.474736,-0.7678766,55,22.1,-0.4587604,0.1143226,0.256965,-0.5832238,-3.86501,-0.1903209,0.6073107,1.571429,0.3912771,-0.4555495,0.1365928,-0.1150101,-0.6499274,0.5700653,0.002984072,0.7810807,1.630321,0.2467866,0.2546926,1.287525,0.3147188,280.4666,214.577,23.94017,True
2,0.5888891,-0.3558402,0.9820734,-0.4015552,-1.372326,-4.476181,-2.724584,0.5392326,1.321566,0.4897766,-1.481871,-0.6408835,50.9,26.9,-0.4322149,0.05048606,0.2353305,-0.5810336,-3.867432,-0.1844633,0.6056083,1.571692,0.3905723,-0.4404354,0.1375972,-0.08848585,-0.649765,0.5731341,0.005045092,0.7802798,1.630346,0.24681,0.250497,1.29265,0.3176352,279.8107,212.8266,26.7175,True
2,0.6000003,-0.3515167,0.9789948,-0.3855692,-1.373378,-4.487652,-2.718661,0.5374438,1.321934,0.4893677,-1.489343,-0.6729996,50.9,26.9,-0.4216305,0.01004833,0.2202501,-0.5789627,-3.86967,-0.1784025,0.6039351,1.572056,0.389941,-0.4320269,0.1205725,-0.1003057,-0.651308,0.5743159,0.00859695,0.7795174,1.630258,0.2468994,0.2469069,1.297782,0.3205541,279.1242,210.4291,30.09493,True
2,0.6111114,-0.3386465,0.9663444,-0.3727418,-1.374269,-4.49864,-2.713312,0.535656,1.322353,0.4889328,-1.496559,-0.649168,50.9,26.9,-0.3886524,-0.02291775,0.2092842,-0.5768854,-3.871657,-0.1737824,0.6022415,1.57246,0.389317,-0.4246688,0.114199,-0.1120963,-0.6530087,0.575983,0.01164441,0.7787353,1.630224,0.2470171,0.2436982,1.302878,0.3233055,278.4811,207.2186,34.08058,True
2,0.6222225,-0.3257138,0.9441493,-0.3523948,-1.375437,-4.508809,-2.708312,0.5338532,1.322704,0.4886041,-1.50354,-0.6279848,50.9,26.9,-0.3387434,-0.01855686,0.1876295,-0.5756844,-3.871199,-0.1723505,0.6006724,1.572743,0.3887873,-0.4044779,0.1152597,-0.1175708,-0.6545736,0.5782131,0.01365483,0.7780157,1.630241,0.2471099,0.2407375,1.30789,0.3258423,277.8785,203.4192,38.49105,True
2,0.6333337,-0.3117579,0.9251091,-0.3395218,-1.376527,-4.518912,-2.703507,0.5320773,1.323204,0.4882424,-1.510993,-0.6715219,46.6,29.3,-0.3238886,-0.02065104,0.1789993,-0.5739543,-3.871111,-0.1693259,0.5990054,1.573126,0.3880982,-0.3725019,0.1216132,-0.1156776,-0.6557342,0.5808477,0.0144607,0.7771413,1.630204,0.2471819,0.2379524,1.312774,0.3281518,277.3376,199.1371,43.30622,True
2,0.6444448,-0.2955897,0.8965462,-0.3191414,-1.377881,-4.528356,-2.699229,0.5303643,1.323684,0.4879706,-1.518059,-0.6358927,46.6,29.3,-0.3100217,-0.02383809,0.1810233,-0.5718206,-3.871191,-0.1663538,0.59738,1.57346,0.3875568,-0.3468719,0.1247656,-0.1073437,-0.6564831,0.5833848,0.01536058,0.7762181,1.63022,0.2472563,0.2353009,1.317481,0.3302328,276.8915,194.2307,48.69448,True
2,0.655556,-0.2793863,0.8541214,-0.2986883,-1.378951,-4.536656,-2.695227,0.5287366,1.324133,0.4877026,-1.524933,-0.6187354,46.6,29.3,-0.2961931,-0.01423231,0.1788197,-0.5699527,-3.87015,-0.1645216,0.5958737,1.573832,0.3869362,-0.3361848,0.1140836,-0.1010535,-0.6572234,0.5847169,0.01766501,0.7753453,1.630198,0.2473016,0.2327728,1.321962,0.332112,276.541,189.0403,54.30393,True
2,0.6666671,-0.2631614,0.8020806,-0.2834917,-1.379696,-4.544211,-2.691526,0.5272363,1.32459,0.4875398,-1.531886,-0.6261256,46.6,29.3,-0.2867093,-0.007807732,0.1627962,-0.5687553,-3.869687,-0.1623468,0.5943568,1.574054,0.3864877,-0.2997788,0.1076012,-0.07685047,-0.657061,0.586269,0.01836676,0.7743865,1.630169,0.2473509,0.2303469,1.326221,0.3338403,276.3005,184.0049,59.70121,True
2,0.6777782,-0.2402729,0.6894283,-0.2540973,-1.380762,-4.557261,-2.68452,0.5242518,1.325434,0.4871008,-1.538285,-0.5756542,42.4,48,-0.2879245,0.005013704,0.140475,-0.5664117,-3.868303,-0.1573244,0.5914806,1.57453,0.3856032,-0.2552057,0.0862906,-0.09427901,-0.6594855,0.5882176,0.02130129,0.7725664,1.630085,0.247457,0.2280878,1.330239,0.3354895,276.1256,179.0478,64.99866,True
2,0.6888894,-0.2402729,0.6894283,-0.2540973,-1.380762,-4.557261,-2.68452,0.5242518,1.325434,0.4871008,-1.542192,-0.3484043,42.4,48,-0.2879245,0.005013704,0.140475,-0.5664117,-3.868303,-0.1573244,0.5914806,1.57453,0.3856032,-0.2552057,0.0862906,-0.09427901,-0.6594855,0.5882176,0.02130129,0.7725664,1.630085,0.247457,0.2255812,1.334118,0.337052,276.0829,174.0573,70.20152,True
2,0.7000005,-0.2359336,0.6735041,-0.2476206,-1.38156,-4.564619,-2.680691,0.5226655,1.325859,0.4868524,-1.552623,-0.9469107,42.4,48,-0.2527761,0.03487051,0.1434852,-0.5649635,-3.864884,-0.1587361,0.5901222,1.574716,0.3852015,-0.2401916,0.09584701,-0.08265604,-0.6599318,0.5907593,0.02140675,0.7716067,1.630021,0.2474372,0.2226153,1.338086,0.3387998,276.0769,170.1681,74.38629,True
2,0.7111117,-0.2098141,0.5544963,-0.2139402,-1.382015,-4.5737,-2.675351,0.5200044,1.326605,0.4863763,-1.556641,-0.3555245,42.4,48,-0.2164832,0.01357736,0.1474482,-0.5613331,-3.864522,-0.1556652,0.5876687,1.575303,0.3845506,-0.195222,0.04885367,-0.04688806,-0.6595681,0.5901788,0.0248678,0.7697011,1.629928,0.2471983,0.2214548,1.341393,0.3406451,275.9081,164.9549,80.31843,True
2,0.7222228,-0.2098141,0.5544963,-0.2139402,-1.382015,-4.5737,-2.675351,0.5200044,1.326605,0.4863763,-1.5599,-0.2919783,42.4,48,-0.2164832,0.01357736,0.1474482,-0.5613331,-3.864522,-0.1556652,0.5876687,1.575303,0.3845506,-0.195222,0.04885367,-0.04688806,-0.6595681,0.5901788,0.0248678,0.7697011,1.629928,0.2471983,0.2202483,1.344452,0.3420286,275.9295,159.9815,85.73306,True
2,0.7333339,-0.1946856,0.5088467,-0.1977145,-1.382463,-4.578044,-2.67295,0.5188038,1.326956,0.4862449,-1.568787,-0.8067767,42.4,48,-0.1920195,-0.03644468,0.1333297,-0.5597879,-3.868776,-0.1510026,0.5864345,1.575625,0.3842118,-0.1908835,0.03710398,-0.03523155,-0.6595654,0.5900333,0.02705559,0.7686762,1.629937,0.2471633,0.2183307,1.347599,0.3430959,276.0573,156.5108,89.41422,True
2,0.7444451,-0.1881546,0.4876542,-0.1837485,-1.383267,-4.58286,-2.670434,0.5176387,1.327193,0.4860191,-1.571509,-0.2393599,38.1,52.1,-0.1633506,-0.06515189,0.1149701,-0.5586353,-3.872021,-0.1476574,0.585366,1.575822,0.3840203,-0.1888232,0.04884127,-0.04480822,-0.6604267,0.5917981,0.02782684,0.7677639,1.629898,0.2472875,0.2175501,1.350204,0.3439879,276.1128,152.3427,93.87485,True
2,0.7555562,-0.1731312,0.4815132,-0.1517869,-1.385321,-4.587805,-2.668231,0.5167437,1.327274,0.4857473,-1.575463,-0.3578806,38.1,52.1,-0.1495919,-0.0672378,0.09993904,-0.5581427,-3.873438,-0.1454568,0.5841786,1.575995,0.3838093,-0.1792549,0.05736817,-0.04806301,-0.6611223,0.5936276,0.02806173,0.7668774,1.629844,0.247324,0.2167216,1.352556,0.3445191,276.2463,148.9682,97.34654,True
2,0.7666674,-0.1570855,0.4881595,-0.1209563,-1.387877,-4.593187,-2.666211,0.5158145,1.327362,0.4854839,-1.578688,-0.2899008,38.1,52.1,-0.1506359,-0.0491408,0.1053138,-0.5567807,-3.872783,-0.1442554,0.5829742,1.576219,0.3835475,-0.1655585,0.06272551,-0.06733439,-0.6626158,0.5952599,0.02813656,0.7661577,1.629706,0.247298,0.2157526,1.354687,0.3448339,276.4357,146.2421,100.0385,True
2,0.7777785,-0.1463681,0.4829754,-0.1039082,-1.389826,-4.598112,-2.664116,0.5148202,1.327462,0.485234,-1.581746,-0.2756723,38.1,52.1,-0.1358095,-0.03099708,0.09352682,-0.5562353,-3.872066,-0.1440786,0.5819612,1.576207,0.3832176,-0.1561885,0.04252684,-0.09195711,-0.6646691,0.5947822,0.02997095,0.7653189,1.629589,0.2473247,0.2146331,1.3566,0.3451112,276.5956,143.9966,102.217,True
2,0.7888896,-0.1345393,0.4735771,-0.08043914,-1.39212,-4.602583,-2.662408,0.5140024,1.327438,0.484946,-1.58435,-0.2344023,35.7,74.6,-0.1251642,-0.02353328,0.09135927,-0.5549623,-3.871887,-0.143408,0.5808195,1.576573,0.3830564,-0.1509219,0.01696405,-0.09631541,-0.6659288,0.5935035,0.03250548,0.7643181,1.629489,0.247225,0.213483,1.358275,0.3455291,276.6627,142.0175,104.1772,True
2,0.8000008,-0.1216071,0.4492481,-0.06008562,-1.394139,-4.606184,-2.660976,0.5129824,1.327517,0.4847484,-1.586164,-0.1628455,35.7,74.6,-0.1039343,-0.01923385,0.08269326,-0.5543418,-3.871834,-0.1429683,0.5798752,1.576511,0.382988,-0.1348408,0.0009369329,-0.0815459,-0.6660033,0.5926149,0.03411296,0.763445,1.629443,0.2472262,0.2122507,1.359744,0.3461885,276.6808,140.2808,105.9905,True
2,0.8111119,-0.1139497,0.4089051,-0.04174824,-1.395752,-4.608787,-2.659534,0.5120552,1.327505,0.4845064,-1.588104,-0.1751777,35.7,74.6,-0.09225493,-0.02879655,0.07194378,-0.5537234,-3.873268,-0.1415638,0.5789521,1.576517,0.3829508,-0.1123815,0.000891,-0.07000522,-0.6662947,0.5927818,0.03441789,0.7624317,1.629382,0.2472167,0.2109489,1.361023,0.3471053,276.6835,138.8817,107.5893,True
2,0.8222231,-0.1095425,0.377008,-0.03517681,-1.396982,-4.611525,-2.65811,0.5111532,1.327568,0.4842613,-1.589662,-0.1402299,35.7,74.6,-0.06997643,-0.04897884,0.05788684,-0.5534747,-3.875712,-0.1394511,0.5780911,1.576461,0.3829498,-0.07804745,0.008250244,-0.04042543,-0.6654867,0.5933114,0.03350097,0.7614403,1.62934,0.2471018,0.2096637,1.362115,0.3482356,276.6429,137.5682,109.2044,True
2,0.8333342,-0.09970585,0.3206702,-0.02100919,-1.39794,-4.612543,-2.65723,0.5101953,1.327559,0.4841585,-1.590682,-0.09133884,35.7,74.6,-0.04341827,-0.06383346,0.04273588,-0.5535476,-3.87821,-0.1381667,0.5773132,1.5764,0.3828588,-0.06205047,0.008233704,-0.0384273,-0.6659564,0.5935627,0.03343625,0.760551,1.629255,0.2470379,0.2083515,1.363055,0.3494466,276.5681,136.2819,110.8612,True
2,0.8444453,-0.09202615,0.2696217,-0.01220429,-1.398565,-4.613367,-2.65644,0.509312,1.327443,0.4839628,-1.591727,-0.09432126,27.6,100,-0.02639126,-0.07233173,0.03939871,-0.5530373,-3.880213,-0.1368077,0.5765118,1.57644,0.3828156,-0.04932258,-0.006684512,-0.04388792,-0.6667187,0.5924115,0.03442881,0.7596233,1.629204,0.2469997,0.2070929,1.363842,0.3505779,276.4838,135.1705,112.3707,True
2,0.8555565,-0.08650643,0.2303311,0.005063429,-1.399732,-4.614042,-2.655584,0.5084194,1.327402,0.4837697,-1.592858,-0.1020825,27.6,100,-0.01788791,-0.08510509,0.03400358,-0.5523487,-3.882967,-0.1346657,0.5756016,1.576646,0.3827682,-0.03973687,-0.01734873,-0.04292214,-0.6671708,0.5914456,0.03524188,0.758745,1.629136,0.2469053,0.2059091,1.364512,0.3515115,276.4238,134.398,113.4828,True
2,0.8666676,-0.07252073,0.2038267,0.0169078,-1.400956,-4.615046,-2.655222,0.5075732,1.32741,0.4837208,-1.593679,-0.07382619,27.6,100,-0.002949193,-0.1010759,0.03387857,-0.5514336,-3.886179,-0.1326015,0.5747606,1.576802,0.382874,-0.02485233,-0.03014113,-0.04519612,-0.6677008,0.5901827,0.03591752,0.7578042,1.62898,0.2467878,0.2048743,1.365044,0.3521366,276.3898,133.4945,114.6394,True
2,0.8777788,-0.05645268,0.1879527,0.02441832,-1.402139,-4.616107,-2.655152,0.5067264,1.327367,0.4835701,-1.593721,-0.003582449,27.6,100,-0.0007990301,-0.1000178,0.0370662,-0.5506842,-3.888048,-0.131031,0.5739316,1.576876,0.3828051,-0.01957708,-0.03865856,-0.05058865,-0.6685967,0.5889373,0.0369186,0.7569462,1.628907,0.2466712,0.2039807,1.365411,0.3523856,276.3893,132.5249,115.7444,True
2,0.8888899,-0.03819274,0.1561364,0.03628053,-1.40317,-4.616203,-2.655411,0.5058945,1.327364,0.483429,-1.593795,-0.007498254,23.6,100,0.003483981,-0.1000171,0.03702781,-0.5502064,-3.890182,-0.1296989,0.5730676,1.576823,0.3827586,-0.01639039,-0.04824919,-0.05063488,-0.6692076,0.587407,0.03815697,0.7560545,1.628828,0.2465563,0.2031359,1.365637,0.3522856,276.3822,131.8841,116.3571,True
2,0.900001,-0.01352949,0.1168402,0.04071093,-1.403623,-4.615764,-2.656312,0.5051017,1.327306,0.4832683,-1.593027,0.06901167,23.6,100,0.004477352,-0.09360548,0.0295809,-0.5500019,-3.891618,-0.1284155,0.5721616,1.576886,0.3826106,-0.02392179,-0.05247943,-0.05910761,-0.6702425,0.5863894,0.03960733,0.7551968,1.62872,0.2464995,0.2022951,1.365698,0.3519762,276.3974,131.5089,116.5716,True
2,0.9111122,-0.0006707823,0.0977277,0.04292849,-1.404379,-4.615871,-2.656754,0.5042884,1.327219,0.4829559,-1.591376,0.1486722,23.6,100,0.004439346,-0.08081691,0.02215424,-0.5499305,-3.892675,-0.1279502,0.5711866,1.577046,0.3827066,-0.02503275,-0.04713664,-0.06547805,-0.6712258,0.5859724,0.04023371,0.754262,1.628639,0.2463105,0.2014086,1.365537,0.3515903,276.4125,131.1884,116.7129,True
2,0.9222233,0.02608082,0.06692545,0.04091193,-1.404479,-4.615306,-2.658338,0.5036213,1.32712,0.4827616,-1.589462,0.1714986,23.6,100,-0.008458186,-0.04139404,0.01275025,-0.5502725,-3.890712,-0.1289583,0.5701123,1.576941,0.382549,-0.02284023,-0.03116949,-0.0601331,-0.6716732,0.5865448,0.03987098,0.7532496,1.628519,0.2462161,0.200487,1.365072,0.3511943,276.3859,131.0313,116.7458,True
2,0.9333345,0.03892548,0.05099435,0.04097445,-1.404901,-4.615113,-2.659279,0.5029333,1.326958,0.4826241,-1.586014,0.311294,23.6,100,-0.0137539,-0.0211763,0.01604138,-0.549848,-3.889859,-0.1297127,0.5691559,1.576872,0.3824272,-0.02065518,-0.01839768,-0.05479918,-0.6720913,0.5871083,0.03959268,0.7523502,1.628378,0.2461443,0.1995265,1.364208,0.350811,276.3344,131.2253,116.4802,True
2,0.9444456,0.04747633,0.0446431,0.04205629,-1.405523,-4.615207,-2.660113,0.5022217,1.326827,0.4824407,-1.583153,0.255799,21,100,-0.01175565,-0.009421997,0.001141793,-0.550412,-3.889347,-0.1299439,0.5683292,1.576917,0.3822775,-0.01857226,-0.01625441,-0.06014017,-0.6730261,0.5870727,0.03984542,0.7514786,1.628301,0.2460177,0.1984513,1.362933,0.3504673,276.2097,132.1938,115.4694,True
2,0.9555568,0.05605618,0.03298852,0.04743002,-1.406125,-4.614752,-2.661144,0.5015722,1.32659,0.4822571,-1.578092,0.4569178,21,100,-0.001149664,-0.01366369,-0.007466898,-0.5507369,-3.890462,-0.1295362,0.567475,1.576828,0.3822801,-0.01117768,-0.02050998,-0.06660727,-0.6741558,0.5864099,0.04030694,0.7506024,1.628145,0.2458503,0.1973576,1.361166,0.3502098,276.0567,133.9536,113.663,True
2,0.9666679,0.06462447,0.02774217,0.05490014,-1.407027,-4.614476,-2.662294,0.5009325,1.326344,0.4820569,-1.572744,0.4811315,21,100,0.01482684,-0.01364283,-0.01077288,-0.5507976,-3.890786,-0.1303498,0.5666061,1.576813,0.3822448,-0.006870858,-0.02585438,-0.06026119,-0.6745995,0.5856157,0.04082812,0.7496736,1.628053,0.245703,0.19613,1.35896,0.3500754,275.8257,136.7816,110.7752,True
2,0.977779,0.07314955,0.02778015,0.05594312,-1.40777,-4.614443,-2.663464,0.5002711,1.326112,0.4818501,-1.566976,0.518879,21,100,0.02123308,-0.02322856,-0.008710467,-0.5507534,-3.89197,-0.1296392,0.5657263,1.576683,0.3822119,-0.007774845,-0.01842291,-0.04106699,-0.6743438,0.5861602,0.04055035,0.7487161,1.628012,0.2454536,0.1947227,1.356404,0.3500874,275.5283,140.7354,106.8124,True
2,0.9888902,0.0913022,0.02579161,0.06763323,-1.409042,-4.614122,-2.665263,0.4997241,1.325888,0.4817452,-1.560686,0.5659256,16.3,100,0.02338514,-0.02961987,-0.009800135,-0.5507231,-3.893148,-0.1292933,0.5648817,1.576608,0.382062,0.004999064,-0.02375931,-0.04117934,-0.6748551,0.5855108,0.0405943,0.7477832,1.627883,0.2453094,0.1932281,1.353542,0.3502273,275.2036,145.6862,101.9288,True
2,1.000001,0.09453838,0.0194499,0.0740545,-1.409983,-4.613602,-2.666539,0.4991007,1.325658,0.4815674,-1.553666,0.6318488,16.3,100,0.03182042,-0.04556027,-0.02268237,-0.5513324,-3.895442,-0.1279132,0.5639822,1.576562,0.3820305,0.01244543,-0.02695373,-0.04231174,-0.6753989,0.5849952,0.04056287,0.74676,1.627891,0.2451503,0.1916712,1.350438,0.3504601,274.8924,151.6667,96.05615,True
2,1.011112,0.1063217,0.003534338,0.07732458,-1.410724,-4.612593,-2.668306,0.4985431,1.325333,0.4814842,-1.54658,0.6369101,16.3,100,0.03928024,-0.0583303,-0.0259675,-0.5516403,-3.897764,-0.1268341,0.5631496,1.576465,0.3819096,0.02195873,-0.04398711,-0.04988427,-0.6762964,0.5833281,0.04124464,0.7458259,1.627774,0.2449718,0.190089,1.34715,0.3507665,274.6344,158.8057,89.02493,True
2,1.022224,0.1202282,-0.007032584,0.08267769,-1.411507,-4.611701,-2.670411,0.4980204,1.325107,0.4813364,-1.537794,0.7919767,16.3,100,0.04997689,-0.0636602,-0.02071875,-0.551333,-3.899396,-0.1263507,0.562324,1.576508,0.3818626,0.01977707,-0.05675126,-0.05521805,-0.6770821,0.5817947,0.04228381,0.744832,1.627689,0.2448347,0.1885728,1.343693,0.351136,274.4298,166.599,81.34013,True
2,1.033335,0.1415459,-0.01336677,0.07946296,-1.411982,-4.610995,-2.672761,0.4975321,1.324916,0.4811544,-1.529321,0.7616481,16.3,100,0.05531054,-0.07431132,-0.01971788,-0.5513819,-3.901778,-0.1249774,0.5613873,1.576493,0.3817227,0.01666021,-0.05889497,-0.04560354,-0.6771524,0.5807464,0.04295146,0.7438287,1.627655,0.2446368,0.1870867,1.340093,0.3514987,274.31,174.9458,73.12355,True
2,1.044446,0.151118,-0.01228888,0.07517248,-1.412578,-4.610638,-2.674794,0.4970048,1.324641,0.4809408,-1.520431,0.7998339,21.6,100,0.05628351,-0.05298097,-0.03139546,-0.5521537,-3.901703,-0.1259217,0.5604493,1.576407,0.3816917,0.01679039,-0.0418796,-0.03065265,-0.6769297,0.580992,0.04257755,0.7428401,1.627602,0.2444346,0.1856997,1.336332,0.3518074,274.2976,183.414,64.77132,True
2,1.055557,0.1617379,-0.005885776,0.06978078,-1.413209,-4.610558,-2.677051,0.4964343,1.324381,0.4807265,-1.510899,0.8577085,21.6,100,0.0433553,-0.007159639,-0.04290784,-0.553138,-3.898972,-0.1280909,0.5593952,1.576303,0.3815386,0.01370941,-0.02699748,-0.01781014,-0.6766826,0.58119,0.04244732,0.7418709,1.627438,0.2442844,0.1843918,1.332404,0.3520296,274.396,191.9488,56.32246,True
2,1.066668,0.169152,0.002641881,0.06545155,-1.413929,-4.610642,-2.679162,0.4959478,1.324076,0.4805603,-1.500346,0.9503311,21.6,100,0.03582576,0.03332121,-0.04915016,-0.5540254,-3.896109,-0.1309016,0.558465,1.576148,0.3814511,0.02013829,-0.02275035,-0.01359549,-0.6768157,0.5809903,0.04217835,0.7408695,1.627342,0.2441421,0.1831245,1.328287,0.352171,274.6182,199.8822,48.43175,True
2,1.077779,0.1669744,0.01542068,0.0653812,-1.414861,-4.610931,-2.680887,0.4955006,1.323822,0.4803603,-1.489874,0.9420305,21.6,100,0.03682177,0.04505511,-0.05552108,-0.5549293,-3.894719,-0.1323937,0.5575606,1.575985,0.3813672,0.02760437,-0.01104167,-0.01469454,-0.6770203,0.5812877,0.04128353,0.7398139,1.627324,0.2440026,0.1818094,1.32398,0.3522676,274.9436,207.1793,41.13351,True
2,1.08889,0.1648361,0.01647398,0.06432192,-1.415671,-4.610797,-2.682633,0.4950125,1.323521,0.4802172,-1.478743,1.00208,24.6,88.1,0.04422085,0.03442683,-0.06625477,-0.556043,-3.895323,-0.1327953,0.5567353,1.575852,0.3814597,0.03290009,-0.01210218,-0.01793803,-0.6773921,0.5810971,0.04097353,0.7388287,1.62722,0.2438111,0.1804399,1.319481,0.352387,275.3643,213.7887,34.50041,True
2,1.100002,0.159521,0.01648564,0.06859288,-1.41655,-4.61066,-2.684204,0.4945515,1.323194,0.4800799,-1.467066,1.051348,24.6,88.1,0.05379337,0.004620597,-0.07064341,-0.5566598,-3.897314,-0.1318105,0.5559251,1.575756,0.3814583,0.04139851,-0.01956616,-0.02015083,-0.6776978,0.5802034,0.04092639,0.7377975,1.627198,0.2436364,0.1790839,1.31479,0.352604,275.8805,219.879,28.39834,True
2,1.111113,0.1584942,0.0101208,0.0739588,-1.417358,-4.610107,-2.686022,0.4939847,1.323005,0.4798734,-1.455459,1.044406,24.6,88.1,0.06454423,-0.02521762,-0.06120564,-0.5568686,-3.899704,-0.1308004,0.5550178,1.575543,0.3814955,0.05109201,-0.01640244,-0.007432668,-0.6772733,0.5801563,0.04006033,0.7367724,1.627177,0.2435012,0.1777534,1.309965,0.3529498,276.494,225.4452,22.87265,True
2,1.122224,0.1574471,0.004782559,0.07293037,-1.418015,-4.609636,-2.687795,0.4934641,1.322704,0.4797966,-1.443574,1.069909,24.6,88.1,0.07413116,-0.04011726,-0.06450909,-0.557601,-3.90173,-0.1303119,0.5542277,1.575403,0.3816197,0.05220766,-0.0132189,-0.00104484,-0.6771098,0.5801494,0.03954208,0.7358071,1.627147,0.2433851,0.1764761,1.305054,0.3534112,277.1666,230.146,18.26853,True
2,1.133335,0.1489376,0.0004853588,0.07191188,-1.418639,-4.609213,-2.689196,0.492903,1.322448,0.4796731,-1.431862,1.053719,20.1,100,0.07620081,-0.04755514,-0.0719956,-0.5584841,-3.903425,-0.1295825,0.5534861,1.575216,0.3815897,0.05640306,-0.01320725,-0.009597925,-0.6774997,0.5798454,0.03899054,0.7348216,1.627149,0.2432406,0.1752497,1.300115,0.3539447,277.8824,234.1868,14.37212,True
2,1.144446,0.1489376,0.0004853588,0.07191188,-1.418639,-4.609213,-2.689196,0.492903,1.322448,0.4796731,-1.419813,1.08459,20.1,100,0.07620081,-0.04755514,-0.0719956,-0.5584841,-3.903425,-0.1295825,0.5534861,1.575216,0.3815897,0.05640306,-0.01320725,-0.009597925,-0.6774997,0.5798454,0.03899054,0.7348216,1.627149,0.2432406,0.1740618,1.295195,0.3544795,278.6196,237.4931,11.22931,True
2,1.155557,0.1350732,-0.0006486494,0.06875974,-1.419966,-4.608549,-2.691731,0.4918185,1.32188,0.4794207,-1.405982,1.247113,20.1,100,0.05572765,0.0025557,-0.09622896,-0.5614955,-3.901316,-0.1320499,0.5518008,1.574951,0.3814244,0.06599855,-0.01108718,-0.008605525,-0.6777207,0.5795292,0.0375519,0.7330073,1.627012,0.2429755,0.1730686,1.290287,0.3550194,279.3755,240.0733,8.766304,True
2,1.166668,0.1244452,-0.01137882,0.06245427,-1.420118,-4.607921,-2.692885,0.4911889,1.321653,0.4791882,-1.396416,0.8557956,20.1,100,0.04512867,0.03022091,-0.08649937,-0.5622599,-3.899144,-0.1341695,0.5510997,1.574781,0.3812878,0.07882843,-0.005784184,-0.003367445,-0.6775428,0.5797347,0.03609968,0.7321628,1.626914,0.2427392,0.1721942,1.285514,0.3555529,280.1849,242.2008,6.730914,True
2,1.17778,0.1191231,-0.01568242,0.0582293,-1.420397,-4.607483,-2.694056,0.490633,1.321464,0.4790628,-1.382422,1.264061,20.1,100,0.04410598,0.02913802,-0.0790346,-0.5628532,-3.898848,-0.1346848,0.5504166,1.574675,0.3812351,0.08528411,-0.007935479,0.004038248,-0.677195,0.5794886,0.03503175,0.731391,1.626856,0.2425828,0.1710907,1.280802,0.3559914,280.7761,243.9911,5.054173,True
2,1.188891,0.1010389,-0.0210645,0.06043895,-1.420907,-4.60675,-2.694654,0.4900191,1.321257,0.4788845,-1.369879,1.127398,23.5,100,0.0420731,0.003546245,-0.07055745,-0.5632543,-3.900767,-0.1335993,0.5498578,1.574503,0.3813317,0.08212715,-0.01114237,0.009387178,-0.6768621,0.5790625,0.03462669,0.7306047,1.626778,0.2423987,0.170023,1.276069,0.356357,281.4171,245.6154,3.535834,True
2,1.200002,0.08401771,-0.02858808,0.05946075,-1.421204,-4.606003,-2.69508,0.4895515,1.321093,0.4787071,-1.357453,1.118338,23.5,100,0.05274741,-0.02946714,-0.07070774,-0.5637811,-3.903633,-0.1319437,0.5494,1.574403,0.3813539,0.08643712,-0.005829073,0.01469297,-0.676502,0.5793224,0.03333186,0.7299221,1.626705,0.2423723,0.1690406,1.271323,0.3566404,282.1402,246.8506,2.376108,True
2,1.211113,0.05732181,-0.008407132,0.06580204,-1.422334,-4.606165,-2.694813,0.4889039,1.320967,0.4785974,-1.344309,1.183891,23.5,100,0.04951648,-0.05075461,-0.0792625,-0.5649012,-3.906159,-0.1303359,0.5488555,1.574316,0.3815305,0.09490276,-0.006885834,0.007168679,-0.6766128,0.5791531,0.03203969,0.7291864,1.626646,0.2422991,0.1682115,1.266574,0.356884,282.901,247.922,1.330533,True
2,1.222224,0.03918934,0.001139763,0.0700485,-1.423229,-4.606077,-2.694766,0.4882567,1.320821,0.4784076,-1.33151,1.15174,23.5,100,0.05483203,-0.05607414,-0.08037157,-0.5656096,-3.907735,-0.1296728,0.5482706,1.574215,0.3815966,0.09691224,-0.007924408,-0.007767417,-0.6772349,0.578883,0.0311225,0.728485,1.626607,0.2422764,0.1674966,1.261857,0.3570838,283.6779,249.0051,0.2787469,True
2,1.233335,0.01041332,0.006382474,0.07328455,-1.424168,-4.605956,-2.693912,0.4874913,1.320795,0.4782772,-1.318373,1.182938,23.5,100,0.06448138,-0.06353595,-0.07193945,-0.5660416,-3.90949,-0.1291204,0.5477611,1.574027,0.3816757,0.0968664,-0.005778335,-0.01415295,-0.6775615,0.5789579,0.02994219,0.7276915,1.62665,0.2421727,0.1668794,1.257215,0.357253,284.4648,249.9454,359.344,True
2,1.244446,-0.01942194,0.01054032,0.07546005,-1.424965,-4.605775,-2.692881,0.4867901,1.320712,0.4780605,-1.30604,1.109353,31.1,99.9,0.06143194,-0.0625223,-0.05274491,-0.5659771,-3.91091,-0.1286179,0.5473481,1.574037,0.3817248,0.09481264,-0.01645177,-0.003512092,-0.6773415,0.5781493,0.0295238,0.7270386,1.626523,0.2419989,0.1661747,1.252732,0.3574409,285.2544,250.8918,358.3778,True
2,1.255558,-0.03644433,0.005151744,0.07553571,-1.425683,-4.605291,-2.692035,0.486119,1.320681,0.4779332,-1.292902,1.183718,31.1,99.9,0.04441795,-0.06255175,-0.04729104,-0.5662461,-3.912222,-0.1273071,0.5468505,1.573982,0.3817973,0.09058025,-0.02071415,0.0007749461,-0.6771758,0.5776486,0.02904443,0.7263779,1.626519,0.24189,0.1653967,1.248438,0.3576722,285.995,251.7381,357.5474,True
2,1.266669,-0.06520966,0.0007420201,0.06817759,-1.426052,-4.604958,-2.690422,0.4853671,1.320727,0.4778326,-1.280383,1.126412,31.1,99.9,0.03263501,-0.05827936,-0.05571847,-0.5671457,-3.913321,-0.1264163,0.5465131,1.5739,0.3819463,0.0959454,-0.01647115,0.005002989,-0.677,0.5775163,0.02789368,0.7257967,1.626473,0.2418871,0.1645352,1.244377,0.3579477,286.7107,252.5046,356.8362,True
2,1.27778,-0.09931678,-0.002641877,0.05763007,-1.426209,-4.604693,-2.688201,0.4846005,1.32076,0.477715,-1.26834,1.083505,31.1,99.9,0.02836951,-0.04337664,-0.05352211,-0.5676762,-3.913433,-0.1264522,0.5461538,1.573773,0.3819804,0.09907245,-0.004729941,-0.005645445,-0.6773335,0.5781404,0.02611735,0.7251254,1.626443,0.2418299,0.163704,1.240564,0.3582521,287.3615,253.1614,356.2758,True
2,1.288891,-0.1387447,-0.003906759,0.04922405,-1.426535,-4.604397,-2.685627,0.4837215,1.320916,0.4776592,-1.255503,1.156433,25.9,98.1,0.02527291,-0.01678978,-0.0364,-0.5676347,-3.912127,-0.1277364,0.5459251,1.573765,0.382164,0.09689364,-0.004713155,-0.01202484,-0.6777654,0.5780779,0.02514743,0.7245948,1.626378,0.2418015,0.1629782,1.236971,0.3585694,287.9414,253.6963,355.8304,True
2,1.300002,-0.1387447,-0.003906759,0.04922405,-1.426535,-4.604397,-2.685627,0.4837215,1.320916,0.4776592,-1.242795,1.14413,25.9,98.1,0.02527291,-0.01678978,-0.0364,-0.5676347,-3.912127,-0.1277364,0.5459251,1.573765,0.382164,0.09689364,-0.004713155,-0.01202484,-0.6777654,0.5780779,0.02514743,0.7245948,1.626378,0.2418015,0.1622676,1.23358,0.3588827,288.4931,254.1156,355.4744,True
2,1.311113,-0.2069752,0.006459041,0.04508312,-1.427575,-4.604206,-2.679274,0.4818895,1.321128,0.4774122,-1.232965,0.8810827,25.9,98.1,0.02658625,-0.07649945,-0.00884771,-0.5665577,-3.917729,-0.1232727,0.5456296,1.573584,0.3824084,0.1181094,-0.0345525,-0.01864937,-0.6783753,0.5754131,0.0241104,0.7238098,1.626183,0.2416475,0.1616871,1.230384,0.3592131,289.0196,254.4381,355.1989,True
2,1.322224,-0.2475142,0.02120774,0.04509337,-1.428294,-4.604593,-2.675766,0.4809352,1.321292,0.4771855,-1.216118,1.524986,25.9,98.1,0.03287256,-0.1094594,-0.02922857,-0.5671601,-3.921377,-0.1207834,0.5454724,1.573552,0.3825274,0.1139314,-0.03567301,-0.006888976,-0.6783817,0.5744153,0.02377457,0.7233447,1.6262,0.2415624,0.1613296,1.227256,0.359608,289.437,254.7132,354.9516,True
2,1.333336,-0.2859511,0.04130734,0.04081305,-1.429104,-4.605718,-2.670645,0.479932,1.321708,0.4769907,-1.205031,0.9925911,25.9,98.1,0.03501504,-0.1094685,-0.02496657,-0.5673172,-3.923919,-0.1189538,0.5453159,1.573691,0.382545,0.1119201,-0.02608229,0.005918961,-0.6776333,0.5746394,0.02250558,0.7229456,1.626205,0.2414279,0.1601361,1.224279,0.3598849,290.0659,255.2947,354.4437,True
2,1.344447,-0.3232647,0.0496977,0.04192891,-1.429993,-4.606195,-2.665866,0.478754,1.322127,0.4768243,-1.193903,1.001701,27.6,100,0.020311,-0.08505279,0.007154552,-0.5661982,-3.923704,-0.1188185,0.5452961,1.573836,0.3826218,0.1183939,-0.02504809,0.01546921,-0.6769766,0.574158,0.02126161,0.722394,1.626208,0.2413001,0.1587269,1.221582,0.3600985,290.657,255.6844,354.1474,True
2,1.355558,-0.3509746,0.05278028,0.03985029,-1.430614,-4.606639,-2.661107,0.4775391,1.322653,0.4766591,-1.18073,1.188061,27.6,100,-0.01567382,-0.08622613,0.03937928,-0.5645646,-3.925143,-0.1161112,0.5451905,1.573903,0.3827038,0.130205,-0.02614966,0.02708708,-0.676387,0.5736448,0.01977424,0.7220947,1.626107,0.2411649,0.1573883,1.219182,0.3603022,291.1442,256.0151,353.8872,True
2,1.366669,-0.3935964,0.05044817,0.03251737,-1.430938,-4.606985,-2.655348,0.4762352,1.32318,0.4765458,-1.169118,1.043704,27.6,100,-0.03892045,-0.1214542,0.06076973,-0.5631057,-3.929614,-0.1111012,0.5452659,1.574114,0.3829172,0.1332782,-0.04530606,0.01317592,-0.6766837,0.5716495,0.01968369,0.7217558,1.626126,0.2412124,0.1560681,1.217134,0.3605358,291.6166,256.3846,353.5591,True
2,1.37778,-0.4191665,0.04603218,0.02302719,-1.431082,-4.60725,-2.649884,0.4748062,1.323725,0.4764116,-1.157477,1.047804,27.6,100,-0.04313485,-0.1502309,0.06393364,-0.5620969,-3.93436,-0.106544,0.5453063,1.574285,0.3829908,0.1256712,-0.0623088,-0.004911305,-0.6774144,0.5695339,0.02006612,0.721498,1.626124,0.2411361,0.1547168,1.215431,0.3607872,291.9981,256.7158,353.2898,True
2,1.388891,-0.4895335,0.05102246,0.01039311,-1.431174,-4.608057,-2.641956,0.4732798,1.324378,0.4762261,-1.14477,1.144983,27.6,100,-0.04515068,-0.1939318,0.07343449,-0.5606178,-3.940882,-0.1004294,0.5453377,1.574523,0.3831592,0.1094076,-0.06861022,-0.03994881,-0.6790369,0.5680117,0.02060754,0.7213024,1.626057,0.241137,0.1533273,1.214006,0.3610446,292.2781,256.9588,353.119,True
2,1.400002,-0.5204433,0.05087009,0.004081942,-1.431296,-4.608644,-2.634968,0.4717456,1.325064,0.4761014,-1.133259,1.034949,32.8,99.9,-0.05148725,-0.2035401,0.08091865,-0.5592303,-3.945279,-0.09576701,0.5452884,1.574799,0.3831923,0.0987247,-0.07286,-0.04307119,-0.6796675,0.5664188,0.02110981,0.7211255,1.625941,0.2410746,0.1518061,1.212792,0.3612924,292.5153,257.1388,353.0047,True
2,1.411114,-0.5652515,0.05917249,-0.006510988,-1.431391,-4.60979,-2.626934,0.4703137,1.325848,0.4759758,-1.11928,1.26162,32.8,99.9,-0.06089409,-0.1833732,0.1087334,-0.5569714,-3.947533,-0.09276482,0.5451676,1.575174,0.3831334,0.09552686,-0.06965899,-0.0441033,-0.6801473,0.565333,0.0208941,0.7209033,1.6259,0.2409568,0.15012,1.211711,0.361528,292.7141,257.2722,352.9276,True
2,1.422225,-0.5993888,0.06644943,-0.01498859,-1.431486,-4.610854,-2.618966,0.4685213,1.326898,0.4757671,-1.108371,0.978932,32.8,99.9,-0.09156889,-0.1525825,0.1431221,-0.5542656,-3.948285,-0.0900444,0.5450862,1.575542,0.3830109,0.09034504,-0.05690683,-0.02698979,-0.6799189,0.5650305,0.02029728,0.7207451,1.625883,0.2408416,0.1481788,1.210805,0.3617526,293.0099,257.4533,352.8019,True
2,1.433336,-0.6377515,0.05660908,-0.03293888,-1.430816,-4.611533,-2.610436,0.466679,1.327982,0.475656,-1.095976,1.117525,32.8,99.9,-0.1106186,-0.1398592,0.1624712,-0.5516946,-3.950011,-0.08663236,0.5451388,1.575956,0.3828712,0.08398978,-0.05904427,-0.02267804,-0.6799935,0.5637354,0.02049942,0.7205401,1.62586,0.2407629,0.1461676,1.210108,0.3619974,293.2719,257.5793,352.7294,True
2,1.444447,-0.6686636,0.05000018,-0.04986747,-1.430008,-4.612363,-2.602007,0.4648254,1.329221,0.4755661,-1.08437,1.043769,34.4,93.6,-0.1371178,-0.1420561,0.1807697,-0.5490634,-3.952753,-0.08183362,0.5451328,1.576387,0.3828785,0.08179874,-0.06861459,-0.02907271,-0.6805298,0.5620274,0.02097026,0.7204291,1.625851,0.2407265,0.1441071,1.209652,0.362286,293.5437,257.7473,352.6237,True
2,1.455558,-0.6686636,0.05000018,-0.04986747,-1.430008,-4.612363,-2.602007,0.4648254,1.329221,0.4755661,-1.0722,1.09618,34.4,93.6,-0.1371178,-0.1420561,0.1807697,-0.5490634,-3.952753,-0.08183362,0.5451328,1.576387,0.3828785,0.08179874,-0.06861459,-0.02907271,-0.6805298,0.5620274,0.02097026,0.7204291,1.625851,0.2407265,0.141862,1.209455,0.3625974,293.7969,257.8765,352.5804,True
2,1.466669,-0.7293972,0.03256574,-0.07837576,-1.427992,-4.613949,-2.583987,0.4609002,1.331713,0.4754357,-1.068729,0.3001677,34.4,93.6,-0.1453142,-0.1687928,0.2223094,-0.5428311,-3.960234,-0.07195728,0.5450647,1.577443,0.3827496,0.05602599,-0.07492273,-0.05339291,-0.6824813,0.5594924,0.02244299,0.7202635,1.625873,0.2405953,0.139884,1.209498,0.3629608,293.8551,257.8432,352.731,True
2,1.47778,-0.7624086,0.01745214,-0.09098895,-1.426604,-4.614431,-2.574352,0.4590156,1.333132,0.4753513,-1.040941,2.530249,34.4,93.6,-0.1590504,-0.1890743,0.235148,-0.5396773,-3.965101,-0.06552468,0.5450634,1.577957,0.3826234,0.04417384,-0.09086042,-0.06931099,-0.6837575,0.5570144,0.02412025,0.7200599,1.62594,0.2405255,0.1386766,1.209256,0.3634377,293.5288,257.8089,352.8263,True
2,1.488891,-0.7890319,0.003402796,-0.1078818,-1.424975,-4.615016,-2.564772,0.456977,1.334549,0.4752762,-1.035284,0.4872787,34.4,93.6,-0.1716315,-0.2221638,0.2585973,-0.5359069,-3.97162,-0.05754292,0.5449073,1.578644,0.3824518,0.03669233,-0.09510694,-0.07138726,-0.6845474,0.5552354,0.02537487,0.7199494,1.625982,0.2404745,0.1356264,1.209059,0.3637816,294.3387,258.0731,352.5646,True
2,1.500003,-0.8071021,-0.01376339,-0.1173235,-1.423251,-4.615308,-2.555297,0.4550053,1.335925,0.4752641,-1.024665,0.9608653,37,86,-0.1800407,-0.2381853,0.2724742,-0.5322348,-3.977528,-0.05011909,0.5447098,1.579315,0.3822045,0.006962776,-0.09404329,-0.05942988,-0.6848143,0.5535761,0.02752776,0.7197837,1.626088,0.2403903,0.132313,1.209385,0.3641613,294.8978,257.8141,352.8935,True
2,1.511114,-0.8124507,-0.01062645,-0.1237143,-1.422096,-4.616252,-2.546139,0.4528499,1.337585,0.4751995,-1.01341,1.012885,37,86,-0.2171681,-0.2073828,0.2983851,-0.528189,-3.979372,-0.0448724,0.5442039,1.580163,0.3817048,-0.01957718,-0.08764443,-0.04854906,-0.684956,0.5525206,0.02943938,0.719694,1.626145,0.2403598,0.1292741,1.210259,0.364594,295.0633,257.6267,353.2201,True
2,1.522225,-0.8135184,-0.02462087,-0.1460028,-1.419657,-4.616835,-2.53712,0.4506911,1.339283,0.4750905,-1.00217,1.011505,37,86,-0.2511654,-0.1275729,0.3222565,-0.5240079,-3.976773,-0.04322177,0.5437341,1.580937,0.3813126,-0.02922001,-0.07909662,-0.05697569,-0.6858987,0.551602,0.03071424,0.7195212,1.626167,0.2403092,0.1265121,1.211543,0.3650428,294.9389,257.4844,353.4977,True
2,1.533336,-0.816705,-0.02998767,-0.1512908,-1.417887,-4.617504,-2.527969,0.4485292,1.340996,0.4750214,-0.9913031,0.977477,37,86,-0.2713485,-0.07968676,0.3374331,-0.5198384,-3.9751,-0.04093065,0.5432365,1.581678,0.3808942,-0.03896988,-0.06092358,-0.07923473,-0.6876117,0.5517122,0.03133875,0.7193629,1.626124,0.2403066,0.1239363,1.213057,0.3654759,294.7303,257.3676,353.7088,True
2,1.544447,-0.8188102,-0.04175957,-0.1586646,-1.415866,-4.617914,-2.51875,0.4463617,1.342743,0.4749165,-0.9801562,1.003419,42.6,83.1,-0.2978701,-0.02862746,0.3590592,-0.5151853,-3.972096,-0.03936365,0.5427979,1.58253,0.3805568,-0.04860624,-0.05770358,-0.08554116,-0.6887201,0.5508701,0.03284423,0.7192179,1.626204,0.2402802,0.1213269,1.21465,0.3658824,294.5757,257.2682,353.8796,True
2,1.555558,-0.8145514,-0.04603846,-0.163979,-1.413823,-4.618537,-2.509619,0.4443288,1.344447,0.4748297,-0.9689054,1.012762,42.6,83.1,-0.3041784,-0.04356824,0.3686593,-0.510748,-3.973833,-0.03423946,0.5424399,1.58339,0.3801496,-0.05282951,-0.06303786,-0.08019695,-0.689535,0.5495095,0.03459793,0.7191429,1.626323,0.240171,0.1186408,1.216185,0.366271,294.4811,257.0096,354.1934,True
2,1.566669,-0.8113461,-0.05568175,-0.1745772,-1.411455,-4.619106,-2.500575,0.4421545,1.346282,0.4745975,-0.9578075,0.9988851,42.6,83.1,-0.3071469,-0.09795782,0.3898584,-0.5056847,-3.979625,-0.02588113,0.5421003,1.584264,0.3798106,-0.06556027,-0.0896786,-0.07056743,-0.690074,0.5466062,0.03793859,0.7189924,1.626384,0.2399414,0.1158858,1.217602,0.3666553,294.4601,256.7915,354.4702,True
2,1.577781,-0.7974849,-0.06418655,-0.1809621,-1.409034,-4.619686,-2.492076,0.4401775,1.348032,0.4744563,-0.9470829,0.9649583,42.6,83.1,-0.2900267,-0.150149,0.3938703,-0.5011212,-3.98623,-0.01736275,0.5418193,1.585056,0.3793173,-0.08789089,-0.1024583,-0.06402703,-0.6906743,0.5440773,0.04154052,0.7188808,1.626405,0.2398067,0.113132,1.218883,0.3670261,294.501,256.6036,354.7375,True
2,1.588892,-0.7814889,-0.07055146,-0.186286,-1.406734,-4.620282,-2.48375,0.4380077,1.349847,0.4742601,-0.936458,0.9562081,42.6,83.1,-0.2868247,-0.1618663,0.3916869,-0.4968564,-3.990557,-0.01054239,0.5413105,1.585922,0.3787935,-0.1048513,-0.09393808,-0.05428752,-0.6910291,0.5430385,0.04408277,0.7187241,1.626442,0.2397695,0.1104482,1.220034,0.3673877,294.5973,256.4225,355.0056,True
2,1.600003,-0.7687113,-0.07266615,-0.1916332,-1.404335,-4.621031,-2.475403,0.43592,1.351596,0.4741154,-0.9264945,0.8960021,46,84.3,-0.2900153,-0.1267271,0.3971185,-0.4922049,-3.991035,-0.00674126,0.5407477,1.586744,0.3782036,-0.1239483,-0.06517156,-0.04768255,-0.6913571,0.5435327,0.0457358,0.7184978,1.626439,0.2397037,0.1078065,1.22109,0.3677262,294.7556,256.209,355.3065,True
2,1.611114,-0.7687113,-0.07266615,-0.1916332,-1.404335,-4.621031,-2.475403,0.43592,1.351596,0.4741154,-0.9163783,0.9105973,46,84.3,-0.2900153,-0.1267271,0.3971185,-0.4922049,-3.991035,-0.00674126,0.5407477,1.586744,0.3782036,-0.1239483,-0.06517156,-0.04768255,-0.6913571,0.5435327,0.0457358,0.7184978,1.626439,0.2397037,0.1052756,1.222078,0.3680637,294.9192,255.972,355.6048,True
2,1.622225,-0.724956,-0.09812167,-0.2001259,-1.398813,-4.621736,-2.460394,0.4320382,1.355072,0.4738572,-0.9141689,0.1873689,46,84.3,-0.2965425,-0.006349772,0.3931891,-0.4835171,-3.983855,-0.006482667,0.5396348,1.588194,0.3769736,-0.1418993,-0.01938158,-0.03253777,-0.6918701,0.5449138,0.04832838,0.7180036,1.626582,0.2396107,0.1031751,1.222986,0.3684296,294.8928,255.7379,355.9296,True
2,1.633336,-0.7132197,-0.1023495,-0.2011906,-1.396301,-4.622133,-2.452893,0.4300382,1.356631,0.4737153,-0.8890702,2.286685,46,84.3,-0.3020429,0.04800916,0.3752412,-0.4801168,-3.979067,-0.007359912,0.5391175,1.588906,0.3764119,-0.1461043,-0.02365321,-0.0250525,-0.6918722,0.5442747,0.05055958,0.7178183,1.626603,0.239542,0.1019835,1.2233,0.3688805,294.5507,255.6561,356.0637,True
2,1.644447,-0.6854951,-0.1032602,-0.1927359,-1.394129,-4.622416,-2.446188,0.4280935,1.358099,0.473563,-0.8863394,0.2233159,52.9,84.3,-0.3000292,0.0533722,0.3571181,-0.4769146,-3.977627,-0.005669604,0.5386612,1.58944,0.3759296,-0.1449673,-0.02047984,-0.01653473,-0.6918152,0.5440249,0.05230768,0.7175448,1.626709,0.2394879,0.09908888,1.223475,0.3692191,295.5793,255.6497,356.0326,True
2,1.655559,-0.6737629,-0.105327,-0.1895606,-1.391808,-4.622821,-2.438985,0.4261613,1.359657,0.4733825,-0.8779649,0.7591751,52.9,84.3,-0.2788237,0.01614319,0.3398296,-0.4736587,-3.980215,-0.0008863,0.5382184,1.589915,0.3754697,-0.1437281,-0.01306756,0.004778445,-0.6910333,0.5441968,0.05375377,0.7172806,1.626846,0.2394054,0.09603024,1.224028,0.3695959,296.2469,255.1428,356.583,True
2,1.66667,-0.6588145,-0.109498,-0.1831806,-1.389551,-4.622956,-2.432165,0.4241761,1.361102,0.4732361,-0.8694566,0.7648816,52.9,84.3,-0.2650321,-0.01044874,0.3258177,-0.4704639,-3.982436,0.003357714,0.5377814,1.590442,0.3749676,-0.1468107,-0.0003100932,0.01761207,-0.6904426,0.5447368,0.05508722,0.7170178,1.626845,0.2393425,0.0932093,1.22496,0.3700281,296.4127,254.885,356.9648,True
2,1.677781,-0.6428214,-0.1104939,-0.181084,-1.387277,-4.623249,-2.4256,0.4221891,1.362513,0.4730458,-0.8599896,0.8531874,52.9,84.3,-0.2629785,-0.02746095,0.314046,-0.4673454,-3.984245,0.007933557,0.5372341,1.590885,0.3745036,-0.1477745,0.01138234,0.0293599,-0.6897619,0.5454641,0.0562417,0.716706,1.626888,0.2392845,0.09073748,1.22613,0.3704708,296.2826,254.7739,357.2311,True
2,1.688892,-0.6268246,-0.1136167,-0.1789659,-1.385009,-4.623445,-2.419156,0.4201885,1.36391,0.472857,-0.8514669,0.76627,52.9,84.3,-0.2639966,-0.02853963,0.3204415,-0.4635605,-3.985037,0.01165399,0.5367192,1.591419,0.3739607,-0.1488274,0.01564521,0.0304403,-0.6894226,0.5459518,0.05757621,0.7164541,1.626897,0.239305,0.08847206,1.227396,0.3708745,296.1476,254.6356,357.4983,True
2,1.700003,-0.6097444,-0.1188189,-0.1693978,-1.382814,-4.623387,-2.412903,0.4183951,1.365309,0.4726021,-0.8432196,0.7420295,51.8,100,-0.2565823,-0.01042467,0.3193636,-0.4599971,-3.984134,0.01363192,0.5362291,1.591839,0.37343,-0.144585,0.02736817,0.02617304,-0.6892495,0.5469841,0.05814666,0.7161555,1.627005,0.2392614,0.08624314,1.228632,0.3712076,296.0663,254.4134,357.8088,True
2,1.711114,-0.5873198,-0.1282843,-0.161944,-1.380461,-4.623076,-2.407216,0.416624,1.366668,0.472265,-0.8349766,0.7419033,51.8,100,-0.2609072,0.00236696,0.3130331,-0.4567769,-3.983217,0.01587111,0.5357105,1.592319,0.3729105,-0.1467375,0.03270151,0.0230041,-0.6891111,0.5477775,0.05924362,0.7159367,1.626951,0.239188,0.08396642,1.229753,0.3714681,296.045,254.1666,358.1131,True
2,1.722225,-0.5659826,-0.1292115,-0.1513351,-1.378503,-4.622842,-2.401587,0.4148055,1.367996,0.4719596,-0.8269206,0.7249734,51.8,100,-0.2567767,0.03329115,0.3013563,-0.4537515,-3.980156,0.01600187,0.5352066,1.592712,0.3724079,-0.147817,0.03590326,0.02088782,-0.6889433,0.548574,0.06033471,0.7156653,1.627023,0.2391605,0.08168034,1.230723,0.3716651,296.0802,253.9408,358.3905,True
2,1.733337,-0.5499724,-0.1290884,-0.1396547,-1.376685,-4.622497,-2.396082,0.4129869,1.369242,0.4716361,-0.8193812,0.6778828,51.8,100,-0.2600866,0.02906796,0.2853896,-0.4511927,-3.979769,0.0186597,0.5347229,1.593121,0.3719671,-0.1467503,0.02524115,0.02298841,-0.6885939,0.5482345,0.06226471,0.7152921,1.62697,0.239054,0.07953037,1.231547,0.3717869,296.1589,253.7454,358.6623,True
2,1.744448,-0.5371587,-0.1322032,-0.1332806,-1.374647,-4.62219,-2.390661,0.4112313,1.370533,0.4713061,-0.8115429,0.7056781,51.8,100,-0.262293,0.0003345609,0.2714878,-0.4487235,-3.982217,0.02381878,0.5342659,1.593556,0.3715932,-0.1264906,0.01988791,0.02601108,-0.6882135,0.5482513,0.06296565,0.7149707,1.626962,0.2390275,0.07752616,1.2322,0.3718088,296.2643,253.5401,358.9365,True
2,1.755559,-0.5169215,-0.1299783,-0.129081,-1.372765,-4.621994,-2.385579,0.4096095,1.37172,0.4709327,-0.8037905,0.697655,48.8,100,-0.2506137,-0.04012352,0.2627843,-0.4460869,-3.986802,0.03051077,0.5337638,1.593946,0.3711238,-0.1285764,0.02200522,0.03136187,-0.6876431,0.5486105,0.06418564,0.714443,1.627022,0.2390125,0.07559071,1.232675,0.37173,296.4123,253.3803,359.1232,True
2,1.76667,-0.5169215,-0.1299783,-0.129081,-1.372765,-4.621994,-2.385579,0.4096095,1.37172,0.4709327,-0.7961313,0.689261,48.8,100,-0.2506137,-0.04012352,0.2627843,-0.4460869,-3.986802,0.03051077,0.5337638,1.593946,0.3711238,-0.1285764,0.02200522,0.03136187,-0.6876431,0.5486105,0.06418564,0.714443,1.627022,0.2390125,0.07369192,1.232992,0.371562,296.6022,253.2437,359.2523,True
2,1.777781,-0.5020239,-0.1213944,-0.1259825,-1.370964,-4.622042,-2.380574,0.4080295,1.372905,0.4706101,-0.7937855,0.2035088,48.8,100,-0.2368057,-0.04754715,0.2562737,-0.4434611,-3.988556,0.03425038,0.5332274,1.59437,0.3707428,-0.1455531,0.03373036,0.03898283,-0.6868623,0.5499108,0.06542348,0.7140769,1.62707,0.2390161,0.07219493,1.233201,0.3713805,296.6859,253.016,359.4329,True
2,1.788892,-0.4712251,-0.08388738,-0.107117,-1.368994,-4.622787,-2.370826,0.4051164,1.374972,0.4697306,-0.7765197,1.571792,48.8,100,-0.2507895,0.01423942,0.2490631,-0.4380213,-3.984149,0.0364419,0.5320156,1.595055,0.36971,-0.1528791,0.05395278,0.05292629,-0.6852777,0.5527205,0.06678063,0.7135547,1.62725,0.238976,0.0713991,1.232988,0.3713034,296.5537,252.926,359.4593,True
2,1.800003,-0.4616865,-0.06354218,-0.09661452,-1.368489,-4.623397,-2.365913,0.4035867,1.376035,0.4693251,-0.7732936,0.276179,48.8,100,-0.2689872,0.0589743,0.2439784,-0.4353981,-3.978961,0.03546132,0.5314037,1.595346,0.3692386,-0.1422209,0.05180849,0.0538989,-0.6846555,0.5533751,0.06745068,0.7132666,1.627266,0.2389877,0.06940295,1.232603,0.3711328,297.3492,253.0781,359.2966,True
2,1.811115,-0.4500195,-0.04214352,-0.08718739,-1.368159,-4.624014,-2.361281,0.4021443,1.376953,0.4689035,-0.7665547,0.6098877,51.7,85.9,-0.2775924,0.0760282,0.2355548,-0.4331008,-3.975945,0.03614043,0.5308263,1.595716,0.3688872,-0.136956,0.05608878,0.04534244,-0.684426,0.5546984,0.06770608,0.7128839,1.627234,0.2390032,0.06735908,1.232461,0.370998,297.9052,252.9918,359.4055,True
2,1.822226,-0.4468217,-0.03247055,-0.07447723,-1.367757,-4.62427,-2.356435,0.4006702,1.37779,0.4685159,-0.7591894,0.6629966,51.7,85.9,-0.277675,0.07285047,0.225963,-0.4308595,-3.974767,0.03834739,0.5304037,1.595973,0.3685486,-0.1263275,0.05928546,0.04100643,-0.6840388,0.5559282,0.06767705,0.712568,1.627247,0.239022,0.06542961,1.232589,0.3709153,298.1458,253.0073,359.4494,True
2,1.833337,-0.4468305,-0.02603637,-0.06813198,-1.367373,-4.624626,-2.351532,0.3991969,1.37869,0.4681156,-0.7520778,0.6396704,51.7,85.9,-0.2521555,0.04305989,0.2171776,-0.4287663,-3.976914,0.04226197,0.5299729,1.596182,0.3682632,-0.114585,0.06248869,0.04302759,-0.68339,0.557012,0.0679423,0.7121854,1.627368,0.2389998,0.06366148,1.232946,0.3708871,298.1957,253.0988,359.427,True
2,1.844448,-0.4457685,-0.02388442,-0.06494757,-1.366777,-4.625014,-2.346321,0.3978232,1.379458,0.4677134,-0.7444654,0.6856846,51.7,85.9,-0.2235557,-0.0005235076,0.1891649,-0.4277751,-3.981091,0.04749082,0.5295099,1.59634,0.3680127,-0.1124654,0.06033666,0.04303229,-0.6828467,0.5580823,0.0681692,0.7117527,1.627406,0.2390862,0.0620344,1.233414,0.3708981,298.1407,253.1748,359.436,True
2,1.855559,-0.44259,-0.01318137,-0.05756506,-1.366602,-4.62546,-2.341418,0.3963355,1.380306,0.4672191,-0.7370964,0.66306,50.1,80.9,-0.1938796,-0.02282178,0.1675901,-0.4266363,-3.983847,0.05134255,0.5290588,1.596536,0.3677742,-0.1273205,0.06459162,0.05061478,-0.6819871,0.5592526,0.06931463,0.711346,1.627471,0.2391112,0.06044372,1.233877,0.3709095,298.1034,253.2306,359.4742,True
2,1.86667,-0.4425709,-0.01313727,-0.0501082,-1.366312,-4.62557,-2.33648,0.394813,1.381214,0.4668145,-0.7295538,0.6792492,50.1,80.9,-0.1897057,-0.006815664,0.1580085,-0.4252307,-3.982757,0.05230368,0.5285344,1.596722,0.3674588,-0.1346307,0.09226505,0.06564572,-0.680599,0.5623385,0.06865949,0.7109179,1.627501,0.2391813,0.05884426,1.234277,0.3708975,298.1228,253.2608,359.5304,True
2,1.877781,-0.4404057,-0.01842895,-0.04476006,-1.365743,-4.625482,-2.331698,0.3932645,1.382182,0.4665079,-0.7226525,0.6204642,50.1,80.9,-0.1907845,0.005969793,0.1580464,-0.4234016,-3.981279,0.05318812,0.5280412,1.596915,0.3671315,-0.1228225,0.1177971,0.07306823,-0.6793292,0.5656813,0.06685972,0.7104547,1.627634,0.2392607,0.05722237,1.234587,0.370851,298.1991,253.2999,359.571,True
2,1.888893,-0.4424524,-0.03650601,-0.03825038,-1.364911,-4.624867,-2.326779,0.391664,1.383284,0.466229,-0.7154215,0.6511435,50.1,80.9,-0.2185267,0.03683127,0.1593886,-0.4214602,-3.977216,0.0534587,0.5275762,1.59714,0.3668249,-0.09830792,0.1145801,0.07499776,-0.6783305,0.567584,0.06551056,0.7100359,1.627722,0.2394466,0.05554786,1.234812,0.3707481,298.3269,253.3918,359.556,True
2,1.900004,-0.4444908,-0.05671637,-0.03173385,-1.363842,-4.624004,-2.321883,0.3900401,1.384349,0.4658601,-0.7083763,0.6338261,50.1,80.9,-0.2270015,0.03148131,0.1668967,-0.4192769,-3.977392,0.0565754,0.5272593,1.597316,0.3665686,-0.08990657,0.1007434,0.06318084,-0.6780573,0.5682837,0.06590871,0.709757,1.627735,0.2395418,0.0538584,1.234981,0.3705826,298.4973,253.4574,359.5308,True
2,1.911115,-0.4476308,-0.07164204,-0.03163746,-1.362608,-4.623316,-2.316874,0.3884272,1.385409,0.4654725,-0.701018,0.6626807,52.7,95.8,-0.2236774,0.02823782,0.1860404,-0.4164651,-3.977447,0.05922604,0.5268583,1.597493,0.3663065,-0.08999342,0.08905354,0.05356702,-0.6777942,0.5692783,0.0661681,0.7094134,1.627776,0.2395773,0.05219074,1.235129,0.3703703,298.6945,253.45,359.5301,True
2,1.922226,-0.4486433,-0.08228208,-0.0273141,-1.361473,-4.622486,-2.312039,0.3868172,1.386471,0.4650564,-0.6938664,0.6435338,52.7,95.8,-0.2182758,0.007985234,0.1934104,-0.4140725,-3.979392,0.06324315,0.5265259,1.597737,0.3661442,-0.09532613,0.08160311,0.05465919,-0.6770757,0.5703586,0.06673615,0.7090359,1.62777,0.2396264,0.05053971,1.235307,0.3701062,298.9149,253.4018,359.5664,True
2,1.933337,-0.4582126,-0.08548966,-0.02408237,-1.360562,-4.622018,-2.306665,0.3852282,1.387496,0.4646761,-0.6867152,0.6436453,52.7,95.8,-0.2065912,-0.01329319,0.1868793,-0.4123543,-3.981796,0.06742218,0.5260717,1.598027,0.36602,-0.09428879,0.06882417,0.05249044,-0.6765867,0.5708045,0.06738383,0.7086648,1.627792,0.2397449,0.04888366,1.235535,0.3697712,299.1137,253.314,359.6549,True
2,1.944448,-0.4677665,-0.09082028,-0.01869995,-1.359655,-4.621171,-2.301312,0.3836005,1.388563,0.4643245,-0.679799,0.6222259,52.7,95.8,-0.1873904,-0.05588339,0.1845044,-0.4105828,-3.987434,0.07400898,0.525658,1.59836,0.3659294,-0.07307365,0.08268746,0.0385102,-0.67651,0.5732609,0.06539632,0.7081743,1.627832,0.2399843,0.04721624,1.235834,0.369373,299.2833,253.2074,359.7486,True
2,1.955559,-0.4752161,-0.09082569,-0.0154949,-1.358858,-4.620682,-2.295894,0.3820128,1.389656,0.4639826,-0.6723129,0.6744883,54.1,88.3,-0.181991,-0.06442294,0.1940367,-0.4080985,-3.990395,0.07865593,0.525142,1.598569,0.365756,-0.06674523,0.08482663,0.02994617,-0.6763343,0.5748144,0.06466635,0.707805,1.627821,0.2401993,0.04554735,1.236204,0.3689252,299.4128,253.1028,359.8199,True
2,1.966671,-0.4890517,-0.089761,-0.008013494,-1.35827,-4.620014,-2.290087,0.3804131,1.390697,0.4636159,-0.6653205,0.6290812,54.1,88.3,-0.1990328,-0.05272618,0.1963187,-0.4058684,-3.991175,0.08224454,0.5246316,1.59887,0.3655546,-0.06681815,0.07951874,0.0214125,-0.6763896,0.5758834,0.06458405,0.7074386,1.627851,0.24036,0.04384777,1.236656,0.3684555,299.5392,253.0343,359.8349,True
2,1.977782,-0.4943832,-0.08869174,-0.006955218,-1.357507,-4.619651,-2.284501,0.3794025,1.391767,0.4631677,-0.6585885,0.6058531,54.1,88.3,-0.209654,-0.02399419,0.2060609,-0.40307,-3.989526,0.08363391,0.52411,1.599192,0.3653541,-0.080697,0.07528542,0.01725418,-0.6762704,0.5769974,0.06510017,0.7070327,1.627933,0.2404559,0.04211496,1.237216,0.367974,299.6656,252.9615,359.854,True
2,1.988893,-0.5082286,-0.08762833,-0.001618657,-1.356857,-4.619161,-2.278425,0.3778054,1.392801,0.4627683,-0.6515535,0.6337177,54.1,88.3,-0.2170178,0.01643205,0.2243186,-0.3997778,-3.985841,0.08290287,0.5235677,1.599432,0.3650861,-0.0870441,0.07527916,0.02262851,-0.6757505,0.5782597,0.0653063,0.7066782,1.627952,0.2406304,0.04035851,1.237902,0.3675036,299.7665,252.886,359.8823,True
2,2.000004,-0.5156426,-0.0939652,0.005880033,-1.356231,-4.618478,-2.272716,0.3763536,1.393764,0.4624903,-0.6452861,0.5633991,54.1,88.3,-0.2255298,0.0377139,0.2308245,-0.3968866,-3.983435,0.08366267,0.5231555,1.599576,0.3649087,-0.08174004,0.07314391,0.02151784,-0.6754874,0.5793622,0.06526582,0.7062603,1.627947,0.2407856,0.0386738,1.238741,0.3670419,299.828,252.8346,359.9285,True
2,2.011115,-0.5294778,-0.1003591,0.006984398,-1.355225,-4.618071,-2.266258,0.3747489,1.394877,0.4621644,-0.6383874,0.6217904,52.1,91.9,-0.2394981,0.0462565,0.2160308,-0.3950794,-3.981673,0.08529706,0.5227315,1.599778,0.3647687,-0.0636041,0.07099029,0.02456059,-0.6751624,0.5804505,0.0643417,0.7058672,1.627971,0.2409797,0.0372039,1.239732,0.3665917,299.8323,252.7538,0.01907445,True
2,2.022226,-0.5390473,-0.1024919,0.009129993,-1.354337,-4.617457,-2.260129,0.3732375,1.396004,0.4617567,-0.6323133,0.5458372,52.1,91.9,-0.2363549,-0.0005876124,0.2041865,-0.3933675,-3.987115,0.09298853,0.5223964,1.600025,0.3646913,-0.05506406,0.06670798,0.02768037,-0.674673,0.5812153,0.0640935,0.7055154,1.628043,0.2411444,0.03557229,1.240782,0.366127,299.8348,252.663,0.09471984,True
2,2.033337,-0.5539567,-0.1036168,0.009171106,-1.353399,-4.616587,-2.253528,0.3716792,1.397042,0.4612999,-0.6253896,0.624308,52.1,91.9,-0.2170836,-0.06450026,0.2092207,-0.3910921,-3.996124,0.1030161,0.5220568,1.60033,0.3645408,-0.06159946,0.05929831,0.01067198,-0.6751752,0.5819645,0.06443997,0.7051468,1.628064,0.2412775,0.03382133,1.241862,0.365662,299.8124,252.5389,0.1770808,True
2,2.044448,-0.5614125,-0.1047184,0.00706196,-1.352433,-4.615888,-2.247191,0.3701375,1.398119,0.4608314,-0.6193916,0.5389749,52.1,91.9,-0.2096605,-0.1017555,0.1994908,-0.3895001,-4.003365,0.111771,0.5215555,1.600647,0.3643458,-0.07563239,0.05722729,-0.01158847,-0.6761106,0.5828796,0.06522082,0.7049067,1.628062,0.2414794,0.03191465,1.242991,0.3652057,299.843,252.4245,0.2580764,True
2,2.055559,-0.5561007,-0.1025919,0.003837427,-1.351498,-4.615277,-2.241375,0.3686213,1.399191,0.4604623,-0.6127476,0.5988851,54.5,99.4,-0.2010946,-0.08685334,0.209057,-0.3867895,-4.004838,0.115285,0.5209693,1.600988,0.3640933,-0.08099566,0.05936968,-0.01580458,-0.676379,0.5840954,0.06543946,0.7046337,1.628083,0.2417138,0.0299769,1.244197,0.364744,299.852,252.3033,0.3949035,True
2,2.06667,-0.5497041,-0.1015024,0.005956825,-1.350798,-4.614266,-2.235792,0.3671464,1.400447,0.4602833,-0.6068806,0.5272788,54.5,99.4,-0.2159834,-0.01765913,0.2221084,-0.3836358,-3.999745,0.1135258,0.5203212,1.601351,0.3638189,-0.08620051,0.0710627,-0.001888269,-0.6757643,0.5860661,0.06507301,0.7042643,1.628139,0.2419086,0.02802352,1.24547,0.3642268,299.8416,252.1912,0.5557047,True
2,2.077781,-0.5497131,-0.09725311,0.008053156,-1.349943,-4.613401,-2.229831,0.365652,1.401546,0.459862,-0.6013471,0.4974583,54.5,99.4,-0.238369,0.03130654,0.2277155,-0.3806845,-3.995003,0.1127308,0.5196618,1.601637,0.3636215,-0.09463843,0.07850389,0.007783712,-0.6751843,0.5878105,0.06507567,0.7038046,1.628252,0.2422106,0.02610921,1.246806,0.3636417,299.8039,252.0393,0.7168034,True
2,2.088892,-0.5496888,-0.0993856,0.01231708,-1.348952,-4.61226,-2.22402,0.3640376,1.402679,0.4594741,-0.5954136,0.5341532,54.5,99.4,-0.2618481,0.07389244,0.2279854,-0.377942,-3.989238,0.1112323,0.5190456,1.601933,0.3634448,-0.08818103,0.08167597,0.01519172,-0.6747518,0.5893712,0.06456142,0.703384,1.628302,0.2424297,0.02430414,1.248168,0.3630323,299.7401,251.8505,0.8294597,True
2,2.100003,-0.547543,-0.1057894,0.01021782,-1.347805,-4.611311,-2.218139,0.3624991,1.403802,0.4590394,-0.5889362,0.583566,54.5,99.4,-0.2671401,0.05896217,0.2311881,-0.3752272,-3.990294,0.1154033,0.5184675,1.602102,0.3633697,-0.07436792,0.07314815,0.01187324,-0.6746187,0.5901235,0.06428498,0.7029544,1.628425,0.2426324,0.02262032,1.249518,0.3624327,299.6798,251.6891,0.8977119,True
2,2.111114,-0.5485848,-0.1111207,0.01131259,-1.346678,-4.610281,-2.212268,0.3608938,1.40485,0.4585783,-0.5827412,0.5572298,54.2,93,-0.2639746,0.02596062,0.2225643,-0.3732196,-3.993782,0.121438,0.5179722,1.602361,0.3632388,-0.06914738,0.0710514,-0.002022607,-0.6751635,0.5915056,0.06370814,0.7025973,1.628586,0.2429681,0.02092011,1.250779,0.3618204,299.6392,251.5506,0.9989644,True
2,2.122225,-0.5453447,-0.1271237,0.006067632,-1.344909,-4.609184,-2.20658,0.3592498,1.405971,0.4581597,-0.5763842,0.5722001,54.2,93,-0.2404975,-0.03686149,0.220114,-0.3712926,-4.002611,0.13144,0.5175302,1.602579,0.3631794,-0.09387301,0.06687373,-0.02953354,-0.676542,0.5925527,0.06485676,0.7022754,1.628637,0.2432642,0.01915495,1.251922,0.3611814,299.6357,251.3884,1.137904,True
2,2.133336,-0.541083,-0.1292616,0.002867348,-1.343578,-4.608357,-2.200948,0.3576186,1.407026,0.4577546,-0.5699404,0.5799323,54.2,93,-0.2116686,-0.0698713,0.2251465,-0.3688563,-4.008903,0.1386338,0.5168838,1.602779,0.363014,-0.1045453,0.07008503,-0.03263874,-0.6769244,0.5940057,0.06523466,0.7017475,1.628587,0.2435966,0.01736361,1.252944,0.3605218,299.661,251.2142,1.280769,True
2,2.144447,-0.5325517,-0.134565,0.0007537119,-1.342302,-4.607366,-2.195528,0.3560185,1.408071,0.4574673,-0.5635915,0.5711542,54.2,93,-0.2053504,-0.05919188,0.2166024,-0.3668563,-4.01036,0.1420149,0.5162313,1.602986,0.3628128,-0.1183919,0.08075334,-0.03357062,-0.67726,0.5961087,0.06546237,0.7013144,1.62862,0.2438667,0.01554058,1.253845,0.3598486,299.7126,251.0317,1.413954,True
2,2.155558,-0.5261691,-0.1302741,0.002855403,-1.341374,-4.606372,-2.190182,0.3543313,1.409112,0.4570589,-0.5571274,0.5817319,56.3,92.7,-0.213929,0.00364913,0.2189487,-0.3639886,-4.00441,0.1393387,0.5153128,1.603141,0.3625238,-0.123686,0.09353848,-0.03136543,-0.6773585,0.5985533,0.06502827,0.7007821,1.628585,0.2441211,0.01371647,1.254642,0.359197,299.7947,250.7988,1.562595,True
2,2.166669,-0.5208682,-0.1206392,0.007044658,-1.340731,-4.605636,-2.184786,0.352625,1.410094,0.4567449,-0.5506373,0.5839248,56.3,92.7,-0.2321409,0.04945485,0.2117309,-0.3616221,-3.999044,0.1375901,0.5145027,1.603197,0.3622959,-0.1193477,0.09457885,-0.02180969,-0.6771593,0.6002672,0.06484558,0.7002848,1.628625,0.2444069,0.01192391,1.255356,0.3586107,299.8847,250.6093,1.65627,True
2,2.17778,-0.5198713,-0.1089386,0.00166204,-1.340124,-4.605275,-2.178884,0.3509554,1.410905,0.4564707,-0.5439869,0.5985719,56.3,92.7,-0.2407791,0.05161439,0.1968921,-0.3598245,-3.99819,0.1398791,0.5137187,1.603199,0.3622358,-0.1011557,0.08815588,-0.01131645,-0.6768211,0.6015711,0.06417979,0.6997809,1.628668,0.24474,0.01017933,1.255999,0.3581122,299.98,250.4886,1.711406,True
2,2.188891,-0.5145747,-0.1014474,0.001614131,-1.339622,-4.604802,-2.173433,0.3491609,1.411859,0.4562502,-0.5372091,0.6100404,56.3,92.7,-0.2290307,0.05799843,0.2021397,-0.3574196,-3.996936,0.1408242,0.5128462,1.603331,0.3622439,-0.09695707,0.09136948,-0.01881159,-0.6774325,0.6036026,0.06363384,0.6993158,1.628674,0.2451141,0.008416813,1.256571,0.3576727,300.0914,250.4441,1.746729,True
2,2.200002,-0.5135386,-0.09825524,-0.002648875,-1.338973,-4.60437,-2.167782,0.3474475,1.412673,0.4560943,-0.5299723,0.6519302,56.3,92.7,-0.2098278,0.03564148,0.2030138,-0.3550883,-3.999326,0.144661,0.5120615,1.603265,0.3621285,-0.1086563,0.1020311,-0.01762991,-0.6774986,0.6060527,0.06334914,0.6987711,1.628715,0.2454288,0.00661245,1.257074,0.3572905,300.1952,250.4151,1.767158,True
2,2.211113,-0.5114521,-0.09297766,-0.01227687,-1.337931,-4.604334,-2.162164,0.3456106,1.413504,0.4557164,-0.523521,0.5797086,57.6,89.5,-0.2058117,0.00590685,0.1666928,-0.354749,-4.00237,0.1498137,0.5110801,1.603301,0.3619571,-0.1267608,0.09565838,-0.0164308,-0.6775252,0.607451,0.06430788,0.6980956,1.628768,0.2457948,0.00473883,1.257532,0.3569786,300.3162,250.4096,1.749041,True
2,2.222224,-0.5092968,-0.1058298,-0.02391536,-1.336173,-4.60383,-2.156753,0.3436064,1.414549,0.4552097,-0.5165228,0.6303887,57.6,89.5,-0.2122592,0.02934515,0.1625324,-0.3529349,-3.99977,0.1500191,0.5099746,1.603271,0.3617132,-0.1362626,0.1052341,-0.006746334,-0.6771343,0.6097801,0.06436887,0.6974081,1.62881,0.246165,0.002810288,1.257984,0.3567479,300.4382,250.3875,1.743532,True
2,2.233335,-0.5060746,-0.1164942,-0.02706855,-1.334413,-4.603266,-2.151303,0.3418525,1.415578,0.4547439,-0.5097413,0.6100578,57.6,89.5,-0.2111894,0.06021258,0.1763749,-0.3502707,-3.99684,0.1494579,0.5089512,1.603369,0.3614662,-0.1340586,0.1414444,-0.001363525,-0.6768653,0.6144185,0.06215498,0.6967543,1.628914,0.2465289,0.0008455236,1.258435,0.3565996,300.5398,250.3568,1.782088,True
2,2.244446,-0.4932229,-0.1399252,-0.03441272,-1.332121,-4.602408,-2.14657,0.3398844,1.416535,0.4544857,-0.502947,0.6113906,57.6,89.5,-0.2197566,0.08152659,0.1648448,-0.3485023,-3.991856,0.1476161,0.5076805,1.603345,0.3610871,-0.1318015,0.1584569,0.01250494,-0.6760701,0.6181628,0.0605973,0.6960274,1.628973,0.246891,-0.001235282,1.258888,0.3564996,300.6614,250.3231,1.8886,True
2,2.255557,-0.4750825,-0.1558979,-0.0450229,-1.329761,-4.601955,-2.142127,0.3380239,1.417439,0.4541674,-0.4961,0.6163664,56.5,77.6,-0.2261977,0.08899048,0.1595828,-0.346832,-3.98917,0.1477969,0.5065843,1.603391,0.3608119,-0.137059,0.1786867,0.02005245,-0.6753755,0.6222056,0.05927264,0.6951624,1.629004,0.2472184,-0.00337675,1.259384,0.3563966,300.8181,250.2247,2.097553,True
2,2.266668,-0.4590967,-0.1611975,-0.05036253,-1.327691,-4.601532,-2.13771,0.3361095,1.418355,0.4538717,-0.4900254,0.5457824,56.5,77.6,-0.237903,0.1145314,0.1650537,-0.3445358,-3.983763,0.1457625,0.5053146,1.603446,0.3604565,-0.1423654,0.1893433,0.02118072,-0.675032,0.6260689,0.05798394,0.6943214,1.629131,0.2476552,-0.005438547,1.259961,0.3562647,300.9479,250.0516,2.346622,True
2,2.277779,-0.4410122,-0.1568945,-0.05362718,-1.325985,-4.601215,-2.133457,0.3342353,1.419212,0.4535873,-0.4838143,0.5588809,56.5,77.6,-0.2421237,0.1400695,0.1747325,-0.3419387,-3.9778,0.1430251,0.5040981,1.60347,0.3603251,-0.1550349,0.2106347,0.0330507,-0.6740295,0.6308518,0.05640149,0.6932843,1.629234,0.2480302,-0.00748011,1.260551,0.3561194,300.9988,249.7738,2.620026,True
2,2.28889,-0.4314379,-0.1536626,-0.05471349,-1.324564,-4.60078,-2.129124,0.3323245,1.42019,0.453469,-0.4772598,0.5901395,56.5,77.6,-0.2496219,0.1507234,0.1705495,-0.3398944,-3.972682,0.141155,0.5027976,1.603472,0.3599815,-0.1549526,0.2063572,0.04369197,-0.6730655,0.6343177,0.05539801,0.692282,1.629314,0.2484312,-0.009476036,1.261086,0.3560057,301.007,249.5083,2.850171,True
2,2.300001,-0.4219074,-0.1397828,-0.05480454,-1.323419,-4.600588,-2.124716,0.3303185,1.420881,0.4531715,-0.4708788,0.5740539,56.5,77.6,-0.2550466,0.1294394,0.1545653,-0.3386353,-3.971611,0.1431556,0.5015227,1.603497,0.3597143,-0.1486171,0.2106304,0.03620148,-0.6727166,0.6382587,0.05374605,0.6912893,1.629376,0.2489188,-0.01145601,1.261515,0.3559494,301.0435,249.3356,3.004626,True
2,2.311112,-0.4209105,-0.1227535,-0.05806153,-1.322697,-4.600505,-2.120105,0.3283076,1.421686,0.4529505,-0.4642811,0.5940623,57,73.1,-0.2584945,0.101836,0.119368,-0.3385309,-3.970723,0.145582,0.4999741,1.603521,0.3591914,-0.155037,0.2117148,0.03198971,-0.6724487,0.6420997,0.05262406,0.6901166,1.629513,0.2493594,-0.0134024,1.26182,0.3559602,301.1355,249.2451,3.098143,True
2,2.322223,-0.4102942,-0.1099057,-0.05390325,-1.321799,-4.600496,-2.115938,0.3262703,1.422348,0.4526126,-0.4579364,0.5709869,57,73.1,-0.2625556,0.1028554,0.1471018,-0.3357879,-3.967313,0.1454366,0.4984446,1.603456,0.3588789,-0.1678464,0.2373078,0.02575542,-0.6722207,0.6477502,0.05053588,0.6889161,1.629603,0.2498212,-0.01535982,1.262018,0.3560295,301.2908,249.2195,3.155188,True
2,2.333334,-0.4060419,-0.1045386,-0.04968448,-1.320747,-4.600345,-2.111624,0.324232,1.423023,0.4522638,-0.451638,0.5670407,57,73.1,-0.2667862,0.1124284,0.1535539,-0.3335503,-3.963302,0.1448576,0.4969645,1.603294,0.3586807,-0.1719044,0.2575006,0.04927257,-0.6706223,0.6533644,0.04818404,0.6877455,1.629793,0.2503943,-0.01741844,1.262112,0.3561121,301.4646,249.254,3.199291,True
2,2.344445,-0.4050983,-0.06935218,-0.04670576,-1.320809,-4.601027,-2.107017,0.3222398,1.423453,0.4519057,-0.4461162,0.4962536,57,73.1,-0.2646307,0.1347872,0.1599815,-0.3312877,-3.957273,0.1420381,0.4954472,1.603152,0.3584914,-0.1632122,0.2681053,0.06947013,-0.6689568,0.658644,0.04557121,0.6864347,1.629859,0.2508636,-0.01954847,1.262184,0.3561763,301.6663,249.3371,3.206441,True
2,2.355556,-0.4094225,-0.04908468,-0.03935901,-1.320758,-4.601273,-2.102141,0.3202046,1.423981,0.4515073,-0.4401417,0.5382284,56.1,87.8,-0.2582794,0.1518439,0.1578434,-0.3293473,-3.951124,0.1389715,0.4940844,1.602879,0.3583095,-0.1598559,0.2851073,0.08759876,-0.6671543,0.6645331,0.04260924,0.6852525,1.629886,0.2513707,-0.02172002,1.262259,0.3561921,301.8261,249.3668,3.267524,True
2,2.366668,-0.4212278,-0.01711125,-0.02673587,-1.321274,-4.601542,-2.096952,0.3181256,1.424241,0.4505107,-0.4344292,0.5141367,56.1,87.8,-0.2521035,0.164699,0.1301296,-0.328568,-3.944335,0.1351251,0.4925947,1.602571,0.3581865,-0.1532346,0.3212727,0.1121287,-0.6648645,0.6723825,0.03792608,0.683866,1.629936,0.2518387,-0.0239033,1.262368,0.3561415,301.9553,249.3807,3.323527,True
2,2.377779,-0.4276901,0.01171469,-0.01197523,-1.322372,-4.601802,-2.091806,0.3160483,1.424678,0.4500265,-0.4286837,0.5175565,56.1,87.8,-0.2479993,0.1359949,0.1055336,-0.3281073,-3.943072,0.1366812,0.4911175,1.602311,0.3581359,-0.112664,0.3243977,0.1235397,-0.6628736,0.6783617,0.03323119,0.6825057,1.629937,0.252259,-0.02611421,1.262537,0.3560236,302.0446,249.4964,3.263953,True
2,2.38889,-0.4276901,0.01171469,-0.01197523,-1.322372,-4.601802,-2.091806,0.3160483,1.424678,0.4500265,-0.4232067,0.4931096,56.1,87.8,-0.2479993,0.1359949,0.1055336,-0.3281073,-3.943072,0.1366812,0.4911175,1.602311,0.3581359,-0.112664,0.3243977,0.1235397,-0.6628736,0.6783617,0.03323119,0.6825057,1.629937,0.252259,-0.02838959,1.262801,0.3557746,302.1273,249.6886,3.210555,True
2,2.400001,-0.4191727,0.02354405,0.002836693,-1.323192,-4.601885,-2.082643,0.3118427,1.4256,0.449039,-0.4232077,-0.007475474,56.1,87.8,-0.2287993,0.0614641,0.09882703,-0.3261376,-3.946521,0.1445519,0.4881117,1.601903,0.3579171,-0.0978713,0.2817929,0.1126802,-0.6605385,0.6863452,0.02856853,0.6797801,1.630135,0.2530289,-0.0303231,1.263232,0.355313,302.0845,249.7589,3.29788,True
2,2.411112,-0.4159139,0.008658085,0.006113322,-1.32288,-4.601508,-2.078198,0.3098117,1.426218,0.4484515,-0.4090887,1.28782,52.8,95.4,-0.2011169,0.0370045,0.09323618,-0.3253909,-3.947739,0.1469972,0.486503,1.601742,0.3578544,-0.09996144,0.2785875,0.1180216,-0.6588756,0.6912716,0.02592188,0.678353,1.630141,0.2533689,-0.0315985,1.263568,0.3547904,301.8152,249.6811,3.314637,True
2,2.422223,-0.4104849,-0.01901931,0.006262654,-1.321932,-4.600858,-2.073947,0.3077044,1.426776,0.4479465,-0.4091808,-0.02210381,52.8,95.4,-0.1925583,0.04019482,0.09850757,-0.3240716,-3.946632,0.1478238,0.4849656,1.601566,0.3576496,-0.09136593,0.2753626,0.1275339,-0.6570359,0.6960377,0.02286297,0.6768695,1.630237,0.2536442,-0.03447393,1.263783,0.3539149,302.3068,250.2318,2.773474,False
2,2.433334,-0.3997425,-0.04240971,0.007438534,-1.320897,-4.600142,-2.070013,0.3055921,1.427328,0.4474249,-0.4062642,0.2658492,52.8,95.4,-0.1967666,0.06360446,0.109248,-0.3222553,-3.942547,0.1463735,0.4834208,1.601412,0.35743,-0.09222114,0.2912952,0.1520847,-0.6543898,0.7022367,0.01898914,0.6751726,1.630317,0.2539442,-0.03746098,1.26441,0.3528439,302.5824,250.1656,2.750314,False
2,2.444445,-0.3943819,-0.05090599,0.008540307,-1.32021,-4.599595,-2.065955,0.3035037,1.427869,0.4469047,-0.4032761,0.2688847,52.8,95.4,-0.2170277,0.1136437,0.1137698,-0.3205093,-3.933863,0.1412908,0.4818586,1.601335,0.3573461,-0.08359578,0.3178993,0.1616594,-0.6522651,0.7093943,0.01395523,0.6736614,1.630424,0.2543259,-0.04017712,1.265521,0.3516848,302.5503,249.8692,2.890246,False
2,2.455556,-0.3911131,-0.06147853,0.0203131,-1.319685,-4.598574,-2.061914,0.3014484,1.428492,0.4463508,-0.4008558,0.2174463,52.8,95.4,-0.2266568,0.1189679,0.1095893,-0.3192624,-3.929654,0.1402205,0.4803243,1.601151,0.3571773,-0.051581,0.325315,0.1688703,-0.6501793,0.7159651,0.008366587,0.6720223,1.630499,0.2547448,-0.04265039,1.267004,0.3505187,302.2997,249.4957,3.073988,False
2,2.466667,-0.3931889,-0.07104974,0.02464211,-1.318984,-4.597622,-2.05778,0.299267,1.428909,0.4458566,-0.3984355,0.2181729,50.8,100,-0.2277392,0.09447351,0.1042042,-0.3184118,-3.929683,0.1428482,0.4787681,1.601082,0.3572364,-0.03677857,0.315746,0.1559458,-0.6489154,0.7212812,0.004027765,0.6704682,1.630664,0.2552388,-0.04499599,1.268698,0.3494012,301.9626,249.1431,3.259039,False
2,2.477778,-0.3931395,-0.07845639,0.03320825,-1.318324,-4.596491,-2.053669,0.2970974,1.429462,0.4453552,-0.3962816,0.1939684,50.8,100,-0.214907,0.06147066,0.1072287,-0.3171921,-3.931437,0.1465657,0.4771548,1.600756,0.3572307,-0.03588051,0.3062034,0.1367474,-0.6479993,0.7263294,0.0004697816,0.6687394,1.630636,0.2556674,-0.04732186,1.270473,0.3483554,301.6497,248.8879,3.409738,False
2,2.488889,-0.3887693,-0.09537428,0.05140317,-1.317417,-4.594739,-2.049902,0.295027,1.430043,0.444804,-0.3944483,0.1650196,50.8,100,-0.2126716,0.07847302,0.1242951,-0.3149731,-3.927496,0.145133,0.4757041,1.600501,0.3568211,-0.04117212,0.3072579,0.1399833,-0.6463811,0.7319393,-0.003392601,0.6671457,1.630654,0.2559028,-0.04969843,1.272235,0.3473469,301.3874,248.6656,3.594586,False
2,2.5,-0.3854998,-0.1048619,0.06636521,-1.316671,-4.592924,-2.046191,0.2928747,1.430594,0.4442647,-0.3929334,0.1363046,50.8,100,-0.2126986,0.08700004,0.12113,-0.3133992,-3.924116,0.1442211,0.4742817,1.600074,0.3563895,-0.02621859,0.2955118,0.1462305,-0.6445771,0.7367537,-0.007460047,0.6655761,1.630688,0.2561755,-0.05221033,1.273902,0.34635,301.1613,248.42,3.811999,False
2,2.511111,-0.3844145,-0.1058827,0.07275674,-1.316073,-4.591542,-2.042314,0.2908458,1.431198,0.4437099,-0.3918421,0.09792601,46.8,89.1,-0.2107031,0.08810064,0.1030038,-0.3127915,-3.9216,0.1440853,0.4728405,1.599994,0.3560886,-0.02820918,0.2848254,0.1654036,-0.6420828,0.74158,-0.01090884,0.6640384,1.630737,0.2564085,-0.05474594,1.275496,0.345337,300.9945,248.1911,4.022442,False
2,2.522222,-0.3875867,-0.1026171,0.08659472,-1.315819,-4.589735,-2.038364,0.2888179,1.431758,0.4431014,-0.390797,0.09410886,46.8,89.1,-0.2138153,0.08488032,0.1136772,-0.3110141,-3.91948,0.1445127,0.471463,1.599841,0.3560007,-0.02270836,0.2986251,0.1856312,-0.6393722,0.7479586,-0.01596059,0.6624328,1.630785,0.2566762,-0.05718695,1.277033,0.3442523,300.8557,247.9433,4.263833,False
2,2.533333,-0.3918942,-0.08661822,0.09290501,-1.315987,-4.588426,-2.034119,0.2869473,1.432283,0.4424667,-0.389784,0.09128375,46.8,89.1,-0.2159651,0.07209376,0.1104721,-0.3097203,-3.919217,0.1468478,0.4701393,1.599669,0.3559823,0.001913369,0.3113639,0.1993106,-0.6368076,0.7549127,-0.02238999,0.6608038,1.630846,0.2570386,-0.05954439,1.278516,0.3430527,300.7397,247.7067,4.461012,False
2,2.544444,-0.3918942,-0.08661822,0.09290501,-1.315987,-4.588426,-2.034119,0.2869473,1.432283,0.4424667,-0.3887816,0.09044257,46.8,89.1,-0.2159651,0.07209376,0.1104721,-0.3097203,-3.919217,0.1468478,0.4701393,1.599669,0.3559823,0.001913369,0.3113639,0.1993106,-0.6368076,0.7549127,-0.02238999,0.6608038,1.630846,0.2570386,-0.06179534,1.27999,0.3417386,300.6463,247.5049,4.575716,False
2,2.555555,-0.3983887,-0.06107621,0.09276782,-1.316255,-4.586284,-2.025594,0.2832282,1.433343,0.4412787,-0.3923422,-0.3267523,46.8,89.1,-0.2073903,0.01884057,0.1102821,-0.30765,-3.924205,0.1560029,0.467539,1.599403,0.3561599,0.01966831,0.2624331,0.1607094,-0.6344464,0.7623277,-0.02939917,0.657804,1.630849,0.257797,-0.0635826,1.281536,0.3403616,300.4583,247.2061,4.707564,False
2,2.566666,-0.399469,-0.05575174,0.09380767,-1.316268,-4.585029,-2.021487,0.2812795,1.433894,0.4406447,-0.3830377,0.8531461,45.8,59.9,-0.1849534,0.007122532,0.1175504,-0.3060787,-3.926036,0.1590051,0.4661488,1.59938,0.3562944,-0.006052852,0.253978,0.1427882,-0.6334824,0.7668289,-0.03205514,0.6563628,1.630879,0.2581625,-0.06475504,1.282913,0.3391269,300.0617,246.9074,4.768355,False
2,2.577777,-0.4026476,-0.0589468,0.09596522,-1.316092,-4.583638,-2.017241,0.2792869,1.434469,0.4401045,-0.3862095,-0.2978732,45.8,59.9,-0.1902253,-0.0003549606,0.1239636,-0.3045442,-3.927792,0.1629431,0.4647838,1.599274,0.3562024,-0.01035535,0.2454657,0.1396066,-0.6320592,0.7710817,-0.03512603,0.6547581,1.630822,0.2584984,-0.06732716,1.284154,0.337603,300.379,247.2136,4.475528,False
2,2.588888,-0.4025988,-0.06959723,0.09710556,-1.315575,-4.581937,-2.013314,0.2772283,1.435037,0.4395502,-0.3866186,-0.03417907,45.8,59.9,-0.1954649,0.01025552,0.137874,-0.3025372,-3.927331,0.1649434,0.4633383,1.599195,0.3561628,-0.01145303,0.233762,0.1363871,-0.6308299,0.7749971,-0.03820091,0.6532946,1.630843,0.2588289,-0.07002079,1.285717,0.3359135,300.5143,247.0488,4.561468,False
2,2.599999,-0.3961606,-0.07913591,0.1014064,-1.315059,-4.580239,-2.009577,0.2752736,1.435642,0.4389873,-0.3861461,0.04301675,45.8,59.9,-0.2050802,0.03794195,0.1380091,-0.3008291,-3.923843,0.1641863,0.4619751,1.599067,0.3560286,-0.009299204,0.2294881,0.1406259,-0.6291665,0.7790861,-0.04143426,0.651769,1.630883,0.2590234,-0.07259078,1.287631,0.334155,300.3508,246.7026,4.710168,False
2,2.61111,-0.3940321,-0.0791273,0.1024704,-1.314765,-4.5787,-2.005593,0.2733506,1.436302,0.4383941,-0.3860518,0.00801538,42.3,35.7,-0.2158514,0.04969047,0.1242607,-0.2998645,-3.920839,0.1641333,0.4604764,1.599006,0.3558755,-0.00288856,0.2433293,0.1416738,-0.627616,0.7847013,-0.04609852,0.6502916,1.630839,0.259212,-0.07500201,1.289828,0.3324066,300.0052,246.291,4.869319,False
2,2.622221,-0.3908183,-0.08766906,0.09718591,-1.313987,-4.577318,-2.001758,0.2715048,1.436918,0.4378178,-0.3859826,0.00612685,42.3,35.7,-0.223257,0.03687869,0.1296082,-0.298331,-3.922267,0.1682034,0.4591506,1.598924,0.3557162,-0.001865208,0.2348152,0.1373859,-0.6263435,0.7887154,-0.04937474,0.6488701,1.63083,0.2594781,-0.07729879,1.292177,0.3307095,299.5883,245.8335,5.101452,False
2,2.633332,-0.390791,-0.1080048,0.08132237,-1.312402,-4.57623,-1.997641,0.2697288,1.437569,0.4372215,-0.385533,0.0408799,42.3,35.7,-0.2251325,-0.007926241,0.1582839,-0.2958857,-3.928879,0.1771159,0.4578892,1.598919,0.3555593,-0.0009850115,0.1975681,0.1191868,-0.6257023,0.7901992,-0.05051111,0.6475673,1.630789,0.2597253,-0.07948728,1.294563,0.329088,299.1841,245.4014,5.360729,False
2,2.644443,-0.3800987,-0.1282871,0.06756524,-1.310579,-4.575063,-1.994111,0.2678269,1.43822,0.4366744,-0.3854675,0.005468618,42.3,35.7,-0.2142803,-0.01968803,0.1837386,-0.2933089,-3.932049,0.1821693,0.456558,1.598812,0.3553653,-0.01710267,0.173108,0.1054147,-0.6249928,0.7921826,-0.05132284,0.6462103,1.630793,0.2599421,-0.08162244,1.2969,0.3275445,298.8417,245.0248,5.605092,False
2,2.655554,-0.364009,-0.168803,0.05178085,-1.307716,-4.573652,-1.990985,0.2659025,1.438932,0.4361579,-0.3850851,0.03486067,42.3,35.7,-0.1929714,-0.01540755,0.1846576,-0.2912635,-3.933541,0.1850388,0.4551165,1.598758,0.3550451,-0.05127589,0.1731623,0.09503368,-0.6244021,0.7954767,-0.05229623,0.6448303,1.630823,0.2600851,-0.08371495,1.299119,0.3261029,298.544,244.5844,5.915021,False
2,2.666665,-0.3554524,-0.1858739,0.0422695,-1.305484,-4.57242,-1.987554,0.2639608,1.439633,0.4356682,-0.3854473,-0.03355788,38.6,31.3,-0.1865802,-0.009020343,0.1856885,-0.2892901,-3.934624,0.1879675,0.4536223,1.598751,0.3546824,-0.08214861,0.1763818,0.09741728,-0.6233624,0.7990859,-0.0532539,0.6434582,1.630864,0.2602561,-0.08580685,1.301191,0.3247989,298.3194,244.0777,6.281228,False
2,2.677776,-0.3447189,-0.2157311,0.03069928,-1.302319,-4.571009,-1.9844,0.2619092,1.440305,0.4351852,-0.3856556,-0.01883577,38.6,31.3,-0.1931023,0.02722304,0.1730374,-0.2875207,-3.930284,0.1861994,0.4519776,1.598677,0.3541982,-0.09046012,0.1795349,0.1230654,-0.621031,0.8031605,-0.05537058,0.6417962,1.630846,0.2603366,-0.08795176,1.303088,0.3236596,298.1339,243.526,6.702253,False
2,2.688887,-0.3319149,-0.2306565,0.02009553,-1.299525,-4.569924,-1.981259,0.2599179,1.440976,0.4347181,-0.3852294,0.03897231,38.6,31.3,-0.2208809,0.08258295,0.1701739,-0.285257,-3.922565,0.1822241,0.4503695,1.598549,0.353693,-0.09151824,0.1848606,0.124154,-0.6197512,0.8071651,-0.05757488,0.6402959,1.630871,0.2604971,-0.09012341,1.304791,0.3226994,297.9928,242.9543,7.179015,False
2,2.699998,-0.3319149,-0.2306565,0.02009553,-1.299525,-4.569924,-1.981259,0.2599179,1.440976,0.4347181,-0.3852358,-0.001092119,38.6,31.3,-0.2208809,0.08258295,0.1701739,-0.285257,-3.922565,0.1822241,0.4503695,1.598549,0.353693,-0.09151824,0.1848606,0.124154,-0.6197512,0.8071651,-0.05757488,0.6402959,1.630871,0.2604971,-0.09233811,1.306327,0.3218911,297.9126,242.5039,7.593571,False
2,2.711109,-0.2999622,-0.2412888,0.003026843,-1.294137,-4.567977,-1.975784,0.2558216,1.442009,0.4336202,-0.3885105,-0.2995192,38.6,31.3,-0.2336456,0.1081032,0.1777693,-0.280825,-3.914915,0.1806497,0.4470053,1.598353,0.3528323,-0.1108639,0.1838576,0.104062,-0.6181272,0.814331,-0.06033178,0.6372896,1.630713,0.260869,-0.09419148,1.307763,0.3212604,297.7821,242.0186,8.063833,False
2,2.72222,-0.2893267,-0.2380663,0.000849992,-1.291765,-4.566996,-1.973173,0.2537881,1.442525,0.4331055,-0.3820629,0.5918926,31.9,19,-0.2144007,0.1208512,0.1893711,-0.2781799,-3.911523,0.1791341,0.4452606,1.598267,0.3524768,-0.1237605,0.1913618,0.08926859,-0.6177522,0.8185344,-0.06195871,0.6356692,1.630655,0.2609785,-0.0955099,1.308913,0.3208657,297.4968,241.6793,8.40165,False
2,2.733331,-0.2722996,-0.2380324,-0.004520625,-1.289283,-4.566139,-1.970883,0.2517196,1.443063,0.4326892,-0.3849429,-0.2687278,31.9,19,-0.206897,0.1208439,0.1957081,-0.2756036,-3.908159,0.1779428,0.4435929,1.598129,0.3519979,-0.1266486,0.1848904,0.1286962,-0.6151737,0.8220803,-0.06338297,0.6339543,1.630576,0.2610219,-0.09831537,1.309771,0.3202737,297.8449,241.4639,8.725451,False
2,2.744442,-0.2573868,-0.2465749,-0.01729237,-1.286254,-4.565494,-1.968664,0.249629,1.443482,0.4321473,-0.385296,-0.02946655,31.9,19,-0.2046049,0.07712851,0.211569,-0.2728457,-3.912406,0.1842449,0.4418708,1.597807,0.3513069,-0.1221964,0.180572,0.153154,-0.6127934,0.8256028,-0.06504717,0.632247,1.63051,0.2610641,-0.1012074,1.310723,0.319608,298.0484,241.0419,9.224312,False
2,2.755553,-0.2499522,-0.2498185,-0.03008008,-1.283249,-4.565109,-1.96617,0.2475409,1.444054,0.4316578,-0.3854904,-0.01788889,31.9,19,-0.2131249,0.04198048,0.2062204,-0.2709255,-3.916423,0.1907071,0.4399515,1.597508,0.3506436,-0.1114966,0.1869491,0.1584131,-0.6109824,0.8299069,-0.067713,0.6304041,1.630486,0.2610905,-0.103823,1.311838,0.3188987,298.0334,240.695,9.582119,False
2,2.766664,-0.2446215,-0.2701962,-0.05554292,-1.279174,-4.564985,-1.963546,0.2454014,1.444435,0.4309096,-0.3854601,0.002769511,23.6,17.1,-0.2259801,0.04199108,0.1967319,-0.2688935,-3.915531,0.1928248,0.4381149,1.597133,0.3498888,-0.1146364,0.2103871,0.1627486,-0.6093185,0.8358733,-0.0712092,0.6285852,1.630475,0.2611985,-0.1061426,1.313068,0.318167,297.8891,240.2549,9.969086,False
2,2.777775,-0.2350385,-0.2852127,-0.07891598,-1.275125,-4.56515,-1.961222,0.2431099,1.44477,0.4303417,-0.385083,0.03434734,23.6,17.1,-0.2314453,0.09314717,0.1851739,-0.26678,-3.906235,0.1866658,0.4359532,1.596779,0.3490479,-0.1272907,0.2529835,0.1746595,-0.6073222,0.8437849,-0.07575974,0.6269364,1.630348,0.2612741,-0.1083124,1.314318,0.3174334,297.7271,239.6945,10.4435,False
2,2.788886,-0.2255061,-0.2799447,-0.09388771,-1.27178,-4.565397,-1.958947,0.2407193,1.445034,0.4295352,-0.3848444,0.02143216,23.6,17.1,-0.2305943,0.1560544,0.1650848,-0.2647012,-3.892142,0.1755441,0.4336623,1.596278,0.3480363,-0.1390189,0.2764382,0.1705395,-0.6058819,0.8507559,-0.07954542,0.625014,1.630214,0.2613251,-0.1104948,1.315549,0.3167292,297.6193,239.1141,10.94303,False
2,2.799997,-0.2203084,-0.2533622,-0.1057761,-1.269364,-4.566146,-1.956442,0.2382821,1.445206,0.4289091,-0.385084,-0.02217975,23.6,17.1,-0.248906,0.1859167,0.1418516,-0.2634425,-3.881387,0.168564,0.4313126,1.59577,0.3471675,-0.1464782,0.2817605,0.1706001,-0.6043916,0.8564203,-0.08222669,0.6230149,1.63013,0.261405,-0.1128598,1.316702,0.3160714,297.5406,238.4345,11.56596,False
2,2.811108,-0.2225342,-0.2331737,-0.1133434,-1.26709,-4.566778,-1.953684,0.2358122,1.445481,0.4283347,-0.3850617,0.002185668,23.6,17.1,-0.2702299,0.1816427,0.1398723,-0.2615725,-3.875559,0.1667496,0.429106,1.595259,0.3463902,-0.1506948,0.2870804,0.174914,-0.6025072,0.8624949,-0.08553754,0.6210257,1.629996,0.2613945,-0.1154658,1.317746,0.3155156,297.4612,237.7862,12.17278,False
2,2.822219,-0.2269364,-0.2077295,-0.1315924,-1.265037,-4.568261,-1.950603,0.233226,1.445643,0.4276948,-0.3848481,0.01937739,14,13.2,-0.3083776,0.1240302,0.1591917,-0.2592587,-3.879841,0.1755726,0.4267659,1.594743,0.3455896,-0.1400222,0.3083805,0.1748743,-0.6009828,0.8701512,-0.09062284,0.6187695,1.62978,0.2614844,-0.1182791,1.318669,0.3150529,297.378,237.3415,12.65288,False
2,2.83333,-0.2355269,-0.2047052,-0.155024,-1.262005,-4.569767,-1.947284,0.2306109,1.445922,0.4270835,-0.3844401,0.03707345,14,13.2,-0.343622,0.06013224,0.1379977,-0.2586574,-3.886375,0.186952,0.4244486,1.594124,0.344691,-0.1272604,0.325422,0.1705552,-0.599534,0.8778321,-0.09594118,0.6165625,1.629634,0.2615447,-0.1211914,1.319498,0.3146979,297.3169,237.0735,12.9738,False
2,2.844441,-0.2397608,-0.2261456,-0.175128,-1.257989,-4.571103,-1.944045,0.2279222,1.446228,0.42642,-0.3842675,0.0154454,14,13.2,-0.3254257,0.08036336,0.1528273,-0.2561407,-3.880672,0.1843965,0.4219528,1.593503,0.3437812,-0.1294442,0.347823,0.1610301,-0.598604,0.8864453,-0.1015612,0.6142545,1.629307,0.2615294,-0.1241497,1.320296,0.3144341,297.3122,236.8842,13.23389,False
2,2.855552,-0.2397608,-0.2261456,-0.175128,-1.257989,-4.571103,-1.944045,0.2279222,1.446228,0.42642,-0.3839948,0.02477822,14,13.2,-0.3254257,0.08036336,0.1528273,-0.2561407,-3.880672,0.1843965,0.4219528,1.593503,0.3437812,-0.1294442,0.347823,0.1610301,-0.598604,0.8864453,-0.1015612,0.6142545,1.629307,0.2615294,-0.1272075,1.321121,0.3142599,297.3317,236.663,13.52568,False
2,2.866663,-0.2396781,-0.2839656,-0.2227227,-1.248048,-4.574008,-1.937693,0.2222876,1.446742,0.4244802,-0.386732,-0.2505155,7.6,19.2,-0.3084565,0.07296264,0.1420258,-0.2531958,-3.877268,0.187335,0.4166408,1.591923,0.3418484,-0.1600085,0.3904064,0.1912638,-0.5938168,0.9051453,-0.1133127,0.6096166,1.628711,0.261668,-0.1297276,1.322112,0.3142567,297.3022,236.3495,13.92499,False
2,2.877774,-0.2397124,-0.2851187,-0.2376303,-1.243858,-4.575951,-1.934386,0.2193634,1.446848,0.4237158,-0.3813854,0.4909356,7.6,19.2,-0.3234695,0.1091855,0.1336989,-0.2515287,-3.868791,0.1832617,0.4138755,1.591026,0.3407378,-0.160995,0.4106317,0.1987737,-0.5920053,0.9150559,-0.1196737,0.6071587,1.628417,0.2617564,-0.1316139,1.323085,0.3143743,297.0906,235.9484,14.474,False
2,2.888885,-0.2386743,-0.2798169,-0.2429944,-1.240188,-4.57773,-1.931264,0.2165418,1.446912,0.4230087,-0.3837115,-0.2170236,7.6,19.2,-0.3373939,0.117727,0.1252861,-0.2502402,-3.862735,0.1816691,0.4111369,1.590179,0.3396544,-0.1545312,0.4105788,0.2114508,-0.5903765,0.9229451,-0.1244479,0.6044284,1.628262,0.2618501,-0.1357988,1.32387,0.3142576,297.3979,235.29,15.27542,False
2,2.899997,-0.244099,-0.2585751,-0.2505628,-1.237093,-4.579961,-1.927642,0.2134839,1.446696,0.4222426,-0.3841455,-0.03731474,7.6,19.2,-0.3384594,0.1411557,0.1285444,-0.2483201,-3.854658,0.1776667,0.4082543,1.589298,0.3386049,-0.1576203,0.3977657,0.2263621,-0.5878268,0.9307765,-0.1291138,0.6018324,1.627892,0.2620087,-0.1401899,1.324873,0.3141599,297.5379,234.5684,16.15279,False
2,2.911108,-0.2451766,-0.2521527,-0.2442016,-1.233735,-4.58142,-1.92432,0.2105706,1.446542,0.4213912,-0.3842931,-0.01337152,7.6,19.2,-0.3374228,0.1592771,0.1275186,-0.2464734,-3.845799,0.1728352,0.4054229,1.588371,0.3376102,-0.1617751,0.4169269,0.2392111,-0.5856164,0.9412811,-0.1357091,0.5994651,1.62726,0.2623219,-0.1442711,1.326097,0.3141393,297.4097,234.0393,16.833,False
2,2.922219,-0.2409392,-0.2360764,-0.230458,-1.231091,-4.582744,-1.921353,0.2076274,1.44625,0.4205606,-0.3839383,0.03254711,3.3,17.8,-0.3418331,0.1721008,0.1094587,-0.245749,-3.836815,0.1681528,0.4025313,1.587484,0.3368013,-0.1763729,0.4701797,0.2735512,-0.5822208,0.9563427,-0.1457623,0.5964566,1.62685,0.2627258,-0.1479224,1.327431,0.3141758,297.1369,233.53,17.51638,False
2,2.93333,-0.2303707,-0.2039997,-0.2168276,-1.229182,-4.584258,-1.918632,0.2047464,1.445763,0.4194226,-0.3839469,-0.001064966,3.3,17.8,-0.3536801,0.1881214,0.09466471,-0.2448228,-3.82563,0.1617521,0.3996346,1.586437,0.3357465,-0.1784602,0.48935,0.2768055,-0.5799502,0.9683117,-0.1536974,0.5938275,1.626392,0.2629986,-0.1513934,1.328728,0.314202,296.8541,233.022,18.2286,False
2,2.944441,-0.2219463,-0.1708883,-0.2074564,-1.227815,-4.585981,-1.91587,0.2019,1.4453,0.4185309,-0.3842616,-0.02880558,3.3,17.8,-0.3527589,0.1934713,0.07654873,-0.2442987,-3.81697,0.1572783,0.396842,1.585206,0.3346381,-0.1785858,0.4915139,0.2608326,-0.5785153,0.9789689,-0.1606192,0.5911297,1.625899,0.2632494,-0.1547238,1.329897,0.3141299,296.6382,232.5092,18.97213,False
2,2.955552,-0.2167537,-0.1174653,-0.1832793,-1.227852,-4.587351,-1.913187,0.1990739,1.444537,0.4173198,-0.384577,-0.02861257,3.3,17.8,-0.3465104,0.1775666,0.05408722,-0.2442774,-3.810105,0.1541592,0.3940427,1.583957,0.3337193,-0.1554887,0.4884059,0.2191019,-0.5782847,0.9892942,-0.1680969,0.5883791,1.625602,0.2635162,-0.1580155,1.330848,0.3138709,296.4441,232.08,19.6376,False
2,2.966663,-0.2093203,-0.1035417,-0.1737875,-1.226444,-4.58858,-1.910713,0.1962259,1.443928,0.4160175,-0.3845791,6.189719E-06,1.7,22.6,-0.3401167,0.1434996,0.04863389,-0.2437501,-3.808326,0.1558839,0.391293,1.58268,0.3326905,-0.1277831,0.5011756,0.2189036,-0.576936,1.001125,-0.1773292,0.585971,1.62528,0.2636504,-0.161282,1.331512,0.3133625,296.2661,231.7644,20.14015,False
2,2.977774,-0.1965493,-0.09492828,-0.1664139,-1.225209,-4.589909,-1.908519,0.1934731,1.443202,0.414916,-0.3844694,0.009974109,1.7,22.6,-0.3360734,0.09032688,0.01119314,-0.2450364,-3.811427,0.1624861,0.3886293,1.581412,0.3317807,-0.09667253,0.5255959,0.2432114,-0.5747123,1.014268,-0.1883382,0.5833256,1.624865,0.2638211,-0.1644952,1.331886,0.3126324,296.1262,231.5685,20.41964,False
2,2.988885,-0.1816273,-0.09164509,-0.1600763,-1.223733,-4.591066,-1.906606,0.1907096,1.442672,0.4139397,-0.3845546,-0.007926311,1.7,22.6,-0.3267237,0.07657558,-0.02300821,-0.2464686,-3.808056,0.162554,0.3858452,1.580141,0.3307443,-0.08701664,0.533028,0.2516703,-0.5728992,1.026459,-0.1977267,0.580919,1.62442,0.2639835,-0.1676646,1.331974,0.3116387,296.0165,231.5286,20.5443,False
2,2.999996,-0.1613387,-0.09038569,-0.1398949,-1.222521,-4.591633,-1.905291,0.1880629,1.441895,0.4128368,-0.3848071,-0.02305746,1.7,22.6,-0.3139642,0.09789637,-0.02305321,-0.2464303,-3.800396,0.1581894,0.3831158,1.578974,0.3297555,-0.09021276,0.5234409,0.2527403,-0.5712182,1.037365,-0.2058083,0.5783766,1.623964,0.2641516,-0.1707548,1.331823,0.3104126,296.0114,231.3259,20.73573,False
2,3.011107,-0.1613387,-0.09038569,-0.1398949,-1.222521,-4.591633,-1.905291,0.1880629,1.441895,0.4128368,-0.384961,-0.0139771,1.7,22.6,-0.3139642,0.09789637,-0.02305321,-0.2464303,-3.800396,0.1581894,0.3831158,1.578974,0.3297555,-0.09021276,0.5234409,0.2527403,-0.5712182,1.037365,-0.2058083,0.5783766,1.623964,0.2641516,-0.1737086,1.331502,0.3090892,296.0607,231.0124,20.88235,False
2,3.022218,-0.1485437,-0.08707316,-0.1292972,-1.221397,-4.59251,-1.90367,0.1853591,1.441152,0.4119248,-0.3863373,-0.1258235,0.6,21.3,-0.3267092,0.1468677,-0.01113728,-0.2457666,-3.786929,0.1491354,0.3803909,1.577629,0.328707,-0.1051145,0.5405059,0.2528905,-0.5699037,1.050371,-0.2149845,0.5758427,1.623386,0.2642658,-0.1759103,1.331191,0.3079029,296.1636,230.7536,20.84209,False
2,3.033329,-0.1186668,-0.06967215,-0.08685918,-1.220107,-4.592715,-1.901878,0.1801562,1.439433,0.4094896,-0.3838819,0.2254513,0.6,21.3,-0.3471184,0.2012172,-0.02577201,-0.2457831,-3.761061,0.132475,0.3751776,1.574988,0.3266761,-0.1149631,0.522476,0.2220346,-0.5684981,1.072177,-0.230458,0.5707453,1.622421,0.2646651,-0.1773353,1.330881,0.3069805,296.1229,230.5126,20.89733,False
2,3.04444,-0.09320541,-0.03006842,-0.07117794,-1.221115,-4.593324,-1.901608,0.177747,1.438473,0.4082165,-0.3851613,-0.1191057,0.6,21.3,-0.3409222,0.1725335,-0.0567791,-0.2475951,-3.756855,0.1319572,0.3728023,1.573843,0.3257501,-0.0821425,0.4873372,0.2003904,-0.5680912,1.080097,-0.2375122,0.5681964,1.621897,0.2647636,-0.1808911,1.330214,0.305898,296.091,230.3457,21.19398,False
2,3.055551,-0.07410701,0.0009803865,-0.05649593,-1.222118,-4.593877,-1.901258,0.1752156,1.437547,0.4067662,-0.385042,0.01206932,0.6,21.3,-0.3216116,0.1362811,-0.03681007,-0.2475909,-3.757505,0.1361709,0.3704967,1.572851,0.3246863,-0.08338165,0.4564891,0.183284,-0.5676709,1.087991,-0.2431016,0.5654916,1.621421,0.2648079,-0.1844661,1.329452,0.3048191,296.0817,230.2658,21.43489,False
2,3.066662,-0.04755223,0.0449494,-0.02379809,-1.224609,-4.593584,-1.901879,0.1728614,1.436652,0.4055231,-0.3857525,-0.06529386,0.6,21.3,-0.2864046,0.1235257,-0.03176546,-0.2474753,-3.753784,0.1342529,0.3682596,1.571686,0.3235962,-0.07263887,0.4713728,0.1928185,-0.5666807,1.099598,-0.2525148,0.5629738,1.620921,0.2648051,-0.1876424,1.328666,0.303708,296.0952,230.4022,21.44057,False
2,3.077773,-0.03061755,0.0845326,-0.007032037,-1.227029,-4.593952,-1.901883,0.1704842,1.435861,0.404645,-0.385548,0.01914554,0.9,20.3,-0.2840914,0.1629331,0.0002363287,-0.2464798,-3.737658,0.1219645,0.3659501,1.570241,0.3225684,-0.04241744,0.481894,0.2426751,-0.5635771,1.112611,-0.2640559,0.56045,1.620394,0.2645752,-0.1902872,1.327868,0.3025503,296.0539,230.6359,21.30264,False
2,3.088884,-0.02320108,0.1081027,0.01092066,-1.229337,-4.593856,-1.901966,0.1679361,1.434955,0.4034021,-0.3859842,-0.04030473,0.9,20.3,-0.2722253,0.2108483,0.03217991,-0.2449384,-3.719464,0.1075685,0.3635319,1.568988,0.3215153,-0.03482422,0.4829257,0.2596473,-0.5617847,1.124213,-0.2736947,0.5578548,1.619835,0.264401,-0.1926117,1.32704,0.3012907,296.0127,230.9248,21.07561,False
2,3.099995,-0.02439221,0.1658291,0.04573528,-1.233585,-4.5935,-1.901686,0.1653701,1.433912,0.4020202,-0.3854302,0.05089804,0.9,20.3,-0.2657841,0.2459823,0.04393362,-0.2435578,-3.702809,0.09406231,0.3613353,1.567742,0.3207104,-0.04121614,0.4456372,0.26388,-0.5597517,1.132244,-0.2797739,0.5556084,1.619218,0.2642093,-0.1946899,1.326162,0.2999128,295.9502,231.2186,20.74336,False
2,3.111106,-0.02447045,0.193583,0.0562273,-1.236751,-4.593547,-1.901338,0.1627956,1.433009,0.4006722,-0.3850979,0.02976941,0.9,20.3,-0.2784809,0.189499,0.04815533,-0.2428478,-3.703385,0.09818675,0.3591019,1.566607,0.3199291,-0.04254085,0.3657967,0.2413436,-0.5584345,1.134897,-0.2813925,0.5533676,1.618531,0.2642231,-0.1967935,1.325235,0.2984733,295.9156,231.5077,20.31679,False
2,3.122217,-0.02339272,0.1946899,0.0626099,-1.239178,-4.593362,-1.90118,0.1603729,1.432207,0.3993561,-0.3844917,0.05511592,0.6,21.1,-0.2869043,0.02758554,0.03931822,-0.2433975,-3.728926,0.1265076,0.3568555,1.565655,0.3191171,-0.04140285,0.2435223,0.130279,-0.5605081,1.129391,-0.2763871,0.5511192,1.617885,0.2640274,-0.199134,1.324269,0.2969371,295.8804,231.8848,19.88984,False
2,3.133328,-0.0167395,0.1082944,0.04072681,-1.237088,-4.593139,-1.901303,0.1581071,1.431403,0.3980129,-0.3844145,0.006594159,0.6,21.1,-0.2730752,-0.0501284,0.02940559,-0.244688,-3.743272,0.1433428,0.3542334,1.564716,0.3180234,-0.06638062,0.2532599,0.07190327,-0.5627222,1.135086,-0.2793051,0.5485446,1.617383,0.263906,-0.2016801,1.323313,0.2952292,295.8316,232.4719,19.33508,False
2,3.144439,-0.02725025,0.05593763,0.02082067,-1.235549,-4.593283,-1.900548,0.1557483,1.430599,0.3968515,-0.3844689,-0.005034518,0.6,21.1,-0.2582338,0.05321345,0.03380226,-0.2435354,-3.723931,0.1268868,0.3517385,1.563669,0.3166025,-0.09605905,0.3352931,0.08190155,-0.5634988,1.148112,-0.2880414,0.5460482,1.616689,0.2634006,-0.2042754,1.322433,0.2933713,295.8188,232.8874,18.88206,False
2,3.15555,-0.03463276,0.03244202,0.01564699,-1.235199,-4.593198,-1.899894,0.1534018,1.429761,0.3953335,-0.3846814,-0.01944765,0.6,21.1,-0.2518839,0.1107567,0.03494356,-0.2428132,-3.708396,0.114244,0.3492907,1.562492,0.3153212,-0.08171263,0.3596557,0.1425617,-0.5608788,1.159473,-0.2973707,0.543514,1.616069,0.2629347,-0.2067091,1.321657,0.2914574,295.8127,232.8571,18.76893,False
2,3.166661,-0.02369355,-0.04528959,0.01501059,-1.231889,-4.591958,-1.900486,0.1511417,1.428949,0.3941958,-0.3838947,0.07206833,0.6,21.1,-0.2540824,0.1629584,0.03294922,-0.2421293,-3.692925,0.102133,0.3468388,1.561275,0.3137262,-0.03311968,0.3072271,0.230487,-0.5553554,1.165333,-0.3040438,0.5408435,1.615342,0.2622724,-0.2089501,1.320917,0.2896589,295.8225,232.1831,19.18001,False
2,3.177772,-0.01507081,-0.08584915,-0.003949674,-1.229359,-4.591935,-1.900711,0.1490892,1.428025,0.3931739,-0.383819,0.006287478,0,17.2,-0.256237,0.1778651,0.03299261,-0.2415945,-3.683783,0.09631961,0.3445798,1.560066,0.3122206,-0.02540877,0.2560039,0.2686632,-0.5514661,1.168586,-0.3067794,0.5383874,1.614525,0.26162,-0.211193,1.320223,0.2880942,295.8354,231.7107,19.43213,False
2,3.188883,-0.004052247,-0.2042239,-0.03204572,-1.222006,-4.591087,-1.901348,0.146916,1.427212,0.3920207,-0.3846755,-0.07831796,0,17.2,-0.2442473,0.2257117,0.07776108,-0.2384728,-3.666112,0.08135318,0.3421454,1.558856,0.3104842,-0.02766016,0.2826776,0.2516844,-0.5509947,1.177578,-0.3138397,0.5359552,1.613667,0.2610927,-0.213476,1.319575,0.2867242,295.8133,231.5197,19.59665,False
2,3.199994,-0.00717325,-0.2534862,-0.07329209,-1.216904,-4.591922,-1.900818,0.1446887,1.426223,0.3907745,-0.384749,-0.006098911,0,17.2,-0.213533,0.3131354,0.06495496,-0.2379705,-3.636943,0.05428667,0.3398343,1.557474,0.3086972,-0.02457908,0.2986887,0.2357119,-0.5504158,1.185945,-0.3208022,0.5335402,1.61291,0.2605603,-0.215644,1.318855,0.2855637,295.7848,230.9659,20.15176,False
2,3.211105,-0.01570371,-0.278235,-0.1104115,-1.212523,-4.593252,-1.899783,0.142589,1.425397,0.3900664,-0.3847906,-0.003822294,0,17.2,-0.2113258,0.353578,0.08100784,-0.236314,-3.614978,0.03521498,0.3374923,1.556376,0.3071868,-0.04411241,0.2806874,0.193211,-0.550697,1.190564,-0.3234444,0.5312218,1.612044,0.2599266,-0.2177016,1.317973,0.2846673,295.7737,230.2531,20.84384,False
2,3.222216,-0.01999071,-0.2772356,-0.1189289,-1.209098,-4.593851,-1.899162,0.1405382,1.424288,0.3890293,-0.3841242,0.06085754,0,17.2,-0.2210219,0.3248497,0.06183492,-0.2360312,-3.603557,0.02693947,0.3351657,1.554945,0.3056915,-0.04955971,0.2583477,0.180423,-0.5499161,1.195138,-0.3265912,0.5288407,1.611243,0.2592952,-0.2198149,1.316825,0.2840588,295.8979,229.2893,21.80496,False
2,3.233327,-0.01048295,-0.2558921,-0.1180184,-1.206765,-4.594397,-1.899186,0.1386155,1.42309,0.3877852,-0.3836987,0.03844569,0,15.4,-0.2189763,0.3110353,0.04687538,-0.2360967,-3.591861,0.01783173,0.3328533,1.553551,0.3043413,-0.05039518,0.2295189,0.2123274,-0.5469121,1.200066,-0.3302711,0.5264155,1.610336,0.2585104,-0.2221034,1.315481,0.2837745,296.1219,228.7608,22.3387,False
2,3.244438,0.0001549441,-0.2451436,-0.108521,-1.204293,-4.594462,-1.899547,0.1367053,1.421889,0.3868494,-0.3838377,-0.01299593,0,15.4,-0.1934621,0.3100128,0.0392334,-0.2359902,-3.577224,0.004791293,0.3306634,1.552355,0.3030245,-0.04779303,0.2464401,0.2698705,-0.543076,1.209591,-0.3379685,0.5240045,1.609393,0.2577181,-0.2244526,1.314103,0.2838592,296.3782,228.677,22.49781,False
2,3.255549,0.005483626,-0.2418884,-0.1021686,-1.201515,-4.594554,-1.899728,0.1347928,1.420867,0.3859975,-0.3844891,-0.05941425,0,15.4,-0.1794537,0.2716383,0.05501861,-0.2347087,-3.570194,-0.0007347661,0.3284562,1.551144,0.3016796,-0.02209991,0.2293421,0.2877354,-0.5401876,1.215771,-0.3439989,0.5216855,1.608598,0.2569172,-0.2267751,1.312753,0.284127,296.5577,228.8495,22.68072,False
2,3.26666,0.01512015,-0.2438895,-0.08620185,-1.198771,-4.593896,-1.900495,0.1328766,1.419701,0.3850832,-0.3846803,-0.01704313,0,15.4,-0.1391114,0.249359,0.0323072,-0.2352013,-3.562587,-0.008145545,0.3263747,1.549785,0.3003366,0.020321,0.1792823,0.2691845,-0.5380981,1.217366,-0.3473327,0.5193744,1.607704,0.2561986,-0.2289434,1.311416,0.2843452,296.645,229.0177,22.99406,False
2,3.277771,0.02053643,-0.2587027,-0.07227714,-1.195363,-4.59291,-1.901263,0.1308702,1.418612,0.3838112,-0.384455,0.02068592,2.4,14.5,-0.1039595,0.3175467,0.04073378,-0.2345334,-3.536113,-0.03418753,0.3242423,1.548523,0.2990458,0.02426662,0.1676433,0.2318397,-0.5376608,1.220639,-0.3504044,0.5171845,1.606814,0.2554109,-0.2309259,1.310045,0.2843744,296.7166,229.001,23.35654,False
2,3.288882,0.02813371,-0.2830636,-0.0529777,-1.19148,-4.591241,-1.902504,0.1289049,1.417595,0.3827808,-0.3846707,-0.01997301,2.4,14.5,-0.1111686,0.3153338,0.07380279,-0.232658,-3.520454,-0.04790494,0.3222356,1.547344,0.2978046,0.0319756,0.171842,0.2637452,-0.5344847,1.22782,-0.3571126,0.5150201,1.605859,0.2545023,-0.2327922,1.308641,0.2841503,296.8291,228.8594,23.66831,False
2,3.299993,0.04855303,-0.3126571,-0.02623032,-1.18735,-4.589052,-1.904618,0.1270365,1.416757,0.381345,-0.3845067,0.01514143,2.4,14.5,-0.1281617,0.3174303,0.08138632,-0.2317062,-3.50461,-0.06120157,0.3203723,1.54627,0.2966516,0.04518154,0.1429499,0.3200427,-0.5292575,1.232723,-0.3623422,0.5129346,1.604946,0.2536726,-0.2346195,1.307166,0.2836091,296.9325,228.6477,23.99342,False
2,3.311104,0.05932836,-0.3424163,-0.02075667,-1.18268,-4.58739,-1.906232,0.1251417,1.415924,0.3802738,-0.3846313,-0.01159544,2.4,14.5,-0.1216349,0.2971641,0.09619463,-0.2304401,-3.492887,-0.0716891,0.3183704,1.545203,0.2953708,0.07403395,0.1216024,0.3336163,-0.5256259,1.236852,-0.3678561,0.5107305,1.60403,0.2529068,-0.2364617,1.3056,0.2826866,297.0811,228.3561,24.35257,False
2,3.322215,0.08302255,-0.4051244,-0.01086117,-1.176211,-4.584646,-1.909117,0.1233043,1.415375,0.3791561,-0.3852262,-0.05435703,2.4,14.5,-0.148781,0.1766185,0.1568342,-0.2262536,-3.503515,-0.05875466,0.3166921,1.54451,0.2942245,0.07792141,0.1195657,0.2867066,-0.5247871,1.240065,-0.3717158,0.508724,1.603147,0.2521725,-0.2382072,1.303949,0.281407,297.2773,227.9763,24.70283,False
2,3.333326,0.1195941,-0.4836564,0.01720609,-1.168856,-4.580407,-1.913271,0.121569,1.414913,0.378336,-0.3848603,0.03382899,3.3,18.5,-0.1709774,0.1499169,0.1771609,-0.2237231,-3.49938,-0.06012033,0.3149278,1.54343,0.2929373,0.05732094,0.1505843,0.2379232,-0.5253852,1.24613,-0.3766871,0.5066448,1.602373,0.2514122,-0.2397891,1.302207,0.2798032,297.5026,227.4986,25.04781,False
2,3.344437,0.1539326,-0.5484932,0.02069488,-1.160972,-4.576911,-1.917636,0.1198363,1.414514,0.3772485,-0.3855224,-0.0609735,3.3,18.5,-0.1924658,0.1819036,0.1560811,-0.2231037,-3.485031,-0.0711341,0.3131596,1.542589,0.2915182,0.05201009,0.1473886,0.2400897,-0.5232717,1.250851,-0.3811892,0.504501,1.601495,0.2506037,-0.2412457,1.300392,0.2780569,297.7879,226.8774,25.34523,False
2,3.355548,0.1700277,-0.586846,0.0102271,-1.153682,-4.574405,-1.921022,0.1182911,1.414167,0.3764567,-0.3860891,-0.05137173,3.3,18.5,-0.2083449,0.2383007,0.1765675,-0.2208948,-3.461044,-0.09184683,0.3113139,1.541851,0.2901056,0.0748758,0.1962567,0.2975343,-0.519742,1.262414,-0.3928623,0.5024235,1.600667,0.2497821,-0.2425034,1.298511,0.2763499,298.1328,226.0248,25.79579,False
2,3.366659,0.177632,-0.6197855,0.01998889,-1.146238,-4.570729,-1.924779,0.1166133,1.413689,0.3753924,-0.3863645,-0.02504352,3.3,18.5,-0.2019235,0.2936755,0.1883678,-0.2188026,-3.434474,-0.1157282,0.3096176,1.540977,0.2888091,0.08796135,0.2238713,0.3326315,-0.5166277,1.272722,-0.4032764,0.500429,1.599838,0.2489183,-0.2435395,1.2965,0.2748225,298.4924,225.0871,26.36842,False
2,3.37777,0.1840592,-0.6282511,0.02427205,-1.13981,-4.567746,-1.928184,0.1150554,1.413203,0.3746231,-0.3855298,0.0763618,4.3,15.8,-0.154779,0.3120884,0.07834528,-0.2226323,-3.418077,-0.1319684,0.3081026,1.539841,0.2876616,0.08025339,0.1482897,0.3091004,-0.5137104,1.272775,-0.4039661,0.4986969,1.599202,0.248148,-0.2444943,1.294317,0.2735847,298.8917,224.2825,26.86726,False
2,3.388881,0.1691275,-0.6272722,0.01897797,-1.133374,-4.565076,-1.930628,0.1135539,1.412662,0.3737409,-0.385107,0.03786065,4.3,15.8,-0.1388911,0.3195927,0.06545982,-0.2228544,-3.401179,-0.1474624,0.3065061,1.538988,0.286478,0.06396122,0.1121658,0.273998,-0.5122409,1.274045,-0.4050775,0.4969054,1.598457,0.2473018,-0.2454548,1.292021,0.272756,299.3468,223.7863,27.14048,False
2,3.399992,0.141436,-0.6327389,0.01268367,-1.126579,-4.562476,-1.932325,0.111992,1.412217,0.372849,-0.3848348,0.024479,4.3,15.8,-0.09945276,0.311104,0.06728992,-0.222489,-3.3864,-0.1622741,0.3049529,1.537977,0.2854207,0.05758941,0.1057729,0.2772314,-0.5097051,1.278196,-0.409069,0.4952568,1.597848,0.2465196,-0.246414,1.289981,0.2722524,299.7266,223.5406,27.34524,False
2,3.411103,0.1265993,-0.6530425,0.01284775,-1.119075,-4.559046,-1.934681,0.1102795,1.411781,0.3714731,-0.3838808,0.08698577,4.3,15.8,-0.1111742,0.2727573,0.06089659,-0.2222695,-3.378619,-0.1682007,0.3036806,1.537052,0.2843556,0.06325799,0.1174073,0.3187551,-0.5057237,1.286254,-0.4170891,0.4936115,1.597221,0.2456369,-0.246829,1.289258,0.2720531,299.9481,223.8757,26.96041,False
2,3.422215,0.1342068,-0.6913459,0.01624927,-1.110684,-4.555057,-1.938241,0.1088565,1.411578,0.3705437,-0.3830536,0.07490011,4.3,15.8,-0.1354793,0.218357,0.08118603,-0.2206456,-3.375621,-0.1687019,0.3022034,1.536206,0.2832484,0.07067677,0.07585834,0.3186147,-0.5021795,1.288001,-0.4196812,0.4920304,1.596542,0.2448375,-0.2471218,1.288882,0.271836,300.0051,223.9098,26.8688,False
2,3.433326,0.1513297,-0.7179414,0.01209852,-1.102344,-4.551515,-1.942114,0.1073921,1.411252,0.3695061,-0.3833349,-0.02621282,2.7,13.2,-0.1569809,0.2013576,0.05146764,-0.2215409,-3.369346,-0.1722253,0.3007589,1.535312,0.2821577,0.06190598,0.07487148,0.2877914,-0.5006828,1.291444,-0.4230202,0.4903973,1.595892,0.244149,-0.2478652,1.288653,0.2713168,299.9153,223.5133,27.34878,False
2,3.444437,0.1620192,-0.7285611,0.01106825,-1.094355,-4.547895,-1.946009,0.1061412,1.410924,0.3686364,-0.3843676,-0.09408313,2.7,13.2,-0.1666361,0.2642031,0.05061536,-0.2220336,-3.345118,-0.1935543,0.2993699,1.534658,0.2810383,0.04236084,0.07179095,0.2421324,-0.5001145,1.29395,-0.4248836,0.4889001,1.595307,0.2434585,-0.2490147,1.288413,0.2704794,299.9775,222.64,28.3334,False
2,3.455548,0.1513054,-0.7126051,0.01420596,-1.087756,-4.544563,-1.948639,0.1049983,1.410535,0.3681235,-0.3849328,-0.05090781,2.7,13.2,-0.1314178,0.3408903,0.06971125,-0.2219777,-3.314161,-0.2236725,0.2980703,1.534396,0.2800782,0.04323813,0.02069218,0.2239124,-0.4978913,1.292258,-0.423877,0.4876745,1.594906,0.2426834,-0.250243,1.288119,0.2695739,299.9539,221.3598,29.85618,False
2,3.466659,0.1502159,-0.6911784,0.03538918,-1.081861,-4.540459,-1.952142,0.1038121,1.409976,0.3674281,-0.3848513,0.007754096,2.7,13.2,-0.1080977,0.3345611,0.05246878,-0.2229529,-3.300106,-0.2369337,0.2968612,1.533762,0.279098,0.04764527,0.004676536,0.2440827,-0.4945959,1.294544,-0.4266163,0.4862038,1.594485,0.2418745,-0.2512328,1.287745,0.2688063,299.9973,220.2509,31.00856,False
2,3.47777,0.1511175,-0.6195608,0.07651445,-1.078771,-4.536189,-1.955789,0.1029001,1.409017,0.3667161,-0.3836118,0.1131634,2.7,14.8,-0.08570635,0.3367063,0.05551052,-0.2232054,-3.282889,-0.2536048,0.295711,1.533361,0.2781978,0.04892113,-0.01562,0.2727937,-0.4905766,1.296373,-0.4288049,0.4849787,1.594199,0.2409937,-0.2516826,1.287347,0.2682322,300.0257,219.6918,31.49364,False
2,3.488881,0.139234,-0.5609146,0.0953812,-1.075373,-4.53249,-1.958671,0.1017873,1.408185,0.3653989,-0.3839634,-0.03315517,2.7,14.8,-0.05820635,0.3761997,0.03196861,-0.2249487,-3.259669,-0.2765323,0.294807,1.532882,0.2777252,0.05545575,-0.02524601,0.2918935,-0.4869201,1.298759,-0.4317362,0.4837986,1.593987,0.2401171,-0.251954,1.287011,0.2677509,299.9567,219.3114,31.77761,False
