loc,t,aDotUA,bDotUA,gDotUA,aUA,bUA,gUA,xUA,yUA,zUA,qE,qDotE,emgA,emgB,aDotSH,bDotSH,gDotSH,aSH,bSH,gSH,xSH,ySH,zSH,aDotUB,bDotUB,gDotUB,aUB,bUB,gUB,xUB,yUB,zUB,xHand,yHand,zHand,aHand,bHand,gHand,enable
1,0,0.03285721,-0.4552888,0.1597463,-1.422487,-4.25202,2.880506,0.6513661,1.266987,0.48593,-1.697447,-0.01031247,34.4,18.7,-0.09899808,0.2084048,-0.1107156,-0.8244444,-3.92474,-0.4059246,0.6044939,1.507986,0.3646731,-0.05191271,0.1643297,0.09312174,-0.4894155,0.6651692,-0.2781384,0.7297978,1.615831,0.1945245,0.4308339,1.113849,0.3003673,302.4246,240.1316,352.1983,False
1,0.01111111,0.03285721,-0.4552888,0.1597463,-1.422487,-4.25202,2.880506,0.6513661,1.266987,0.48593,-1.697429,0.001743926,34.4,18.7,-0.09899808,0.2084048,-0.1107156,-0.8244444,-3.92474,-0.4059246,0.6044939,1.507986,0.3646731,-0.05191271,0.1643297,0.09312174,-0.4894155,0.6651692,-0.2781384,0.7297978,1.615831,0.1945245,0.4310339,1.11357,0.29906,302.4567,239.6826,352.4468,False
1,0.02222222,0.000754185,-0.3860559,0.1667114,-1.427981,-4.246351,2.880574,0.6502991,1.266066,0.4848053,-1.697168,0.02394024,34.4,18.7,-0.09880167,0.1795578,-0.08310378,-0.8266329,-3.921471,-0.4059246,0.6036586,1.507543,0.3642724,-0.07658315,0.1506134,0.07835512,-0.4889074,0.6721064,-0.2817419,0.7293545,1.615702,0.1946778,0.4314999,1.113199,0.2975765,302.519,239.4366,352.359,False
1,0.03333334,-0.01207602,-0.362631,0.1686781,-1.430695,-4.243654,2.880742,0.6497908,1.265646,0.4841893,-1.697048,0.0107864,34.4,18.7,-0.1050887,0.1848386,-0.06706951,-0.8277637,-3.91866,-0.4064562,0.6032833,1.507449,0.364042,-0.08295232,0.1399514,0.08475201,-0.4881042,0.6753688,-0.283502,0.7292788,1.615726,0.1947,0.4320295,1.112802,0.2961433,302.6129,239.3538,352.0677,False
1,0.04444445,-0.02596062,-0.3434741,0.1706749,-1.433352,-4.240932,2.88108,0.6492689,1.265414,0.483573,-1.696548,0.0458059,34.4,18.7,-0.1145694,0.1805268,-0.05104768,-0.8286468,-3.91635,-0.4063686,0.602913,1.507306,0.3638,-0.08510498,0.1250332,0.08683172,-0.4873297,0.677731,-0.2845625,0.729208,1.61572,0.1946967,0.432293,1.112219,0.2942413,302.6644,239.6818,351.6393,False
1,0.05555556,-0.04838301,-0.3222345,0.1684158,-1.43584,-4.238594,2.882107,0.6487568,1.265198,0.483067,-1.696904,-0.03295973,34.5,16.2,-0.1250973,0.1612949,-0.03398897,-0.8287864,-3.914873,-0.4055723,0.6027236,1.507354,0.3635817,-0.09585946,0.1112492,0.07940511,-0.4868951,0.6798062,-0.2848983,0.7291903,1.615739,0.1946974,0.4325983,1.111642,0.2921307,302.7669,239.7913,351.2266,False
1,0.06666667,-0.0718495,-0.3149088,0.1577439,-1.438027,-4.235799,2.883362,0.6481408,1.265143,0.4825637,-1.696933,-0.002159194,34.5,16.2,-0.1261402,0.1399909,-0.03297544,-0.8294325,-3.914007,-0.4047813,0.602548,1.507428,0.3633006,-0.1066098,0.1145324,0.06778522,-0.4870234,0.6830307,-0.2860232,0.7293184,1.615785,0.1946309,0.4329907,1.111198,0.2900025,302.8839,239.7406,350.8465,False
1,0.07777778,-0.09849519,-0.3215006,0.139724,-1.439888,-4.232247,2.884866,0.6474938,1.265164,0.4820073,-1.696451,0.04411812,34.5,16.2,-0.1250677,0.1282733,-0.03301684,-0.8301611,-3.912984,-0.4041102,0.602406,1.507548,0.36308,-0.1098956,0.1092597,0.05819795,-0.4870506,0.6853691,-0.2867846,0.7294465,1.615797,0.194586,0.4334269,1.110976,0.2879868,302.9904,239.6667,350.4565,False
1,0.08888889,-0.1123521,-0.3301693,0.1248963,-1.441715,-4.228536,2.886151,0.6469132,1.265138,0.4814897,-1.696293,0.01417571,34.5,16.2,-0.1291528,0.107961,-0.009616137,-0.8296497,-3.912007,-0.4032803,0.6023559,1.507895,0.3627887,-0.1165448,0.09021635,0.03365858,-0.487694,0.6856216,-0.285351,0.7297322,1.615838,0.1944447,0.4337755,1.111019,0.2861494,303.056,239.6203,350.0846,False
1,0.1,-0.1432635,-0.3410823,0.1005276,-1.443007,-4.224402,2.888361,0.6462108,1.265295,0.4810386,-1.696152,0.01306095,34.5,16.2,-0.128938,0.08017658,0.02013068,-0.8283123,-3.911534,-0.4021719,0.6024446,1.508327,0.3625486,-0.1189105,0.07115056,0.01121844,-0.4883406,0.6854506,-0.2837649,0.730129,1.615977,0.1943214,0.433937,1.111351,0.2844754,303.0668,239.5812,349.8232,False
1,0.1111111,-0.1731291,-0.3456214,0.07397318,-1.443881,-4.220292,2.890891,0.6456878,1.265512,0.4806416,-1.696554,-0.03672898,34,14.4,-0.1276024,0.05450198,0.05840195,-0.8262649,-3.91073,-0.4013647,0.6026139,1.508751,0.3622217,-0.1222391,0.05416112,0.0005225613,-0.4885574,0.6851518,-0.2819971,0.7304533,1.616014,0.1941347,0.4339221,1.111969,0.2829098,302.9889,239.5211,349.6982,False
1,0.1222222,-0.1901946,-0.3468313,0.06016495,-1.445069,-4.216559,2.893128,0.6449823,1.265763,0.4802473,-1.695842,0.06553905,34,14.4,-0.1327455,0.03205313,0.08393854,-0.8242792,-3.910355,-0.3999543,0.6027516,1.509188,0.3619406,-0.124554,0.0404015,-0.01763287,-0.4894272,0.6843751,-0.2798538,0.7309678,1.616134,0.1938896,0.4338184,1.11283,0.281419,302.8052,239.4528,349.6291,False
1,0.1333333,-0.22113,-0.3428223,0.03674951,-1.445555,-4.212822,2.896264,0.644232,1.266123,0.4799683,-1.695695,0.01307106,34,14.4,-0.1400324,0.01280324,0.1084347,-0.822104,-3.909945,-0.3983197,0.6030226,1.509846,0.3615999,-0.1236249,0.02447364,-0.029434,-0.4900696,0.6834037,-0.2777144,0.7315705,1.616203,0.1936309,0.43366,1.113896,0.2799503,302.5995,239.3384,349.5926,False
1,0.1444445,-0.2563242,-0.3495587,0.003828883,-1.445458,-4.208335,2.899807,0.6434045,1.266714,0.4795702,-1.696294,-0.0546677,32.7,12.5,-0.1451441,0.0009999573,0.13826,-0.8195719,-3.909026,-0.3973018,0.6032984,1.510632,0.3613248,-0.1205357,0.0170575,-0.04014686,-0.4908728,0.6826697,-0.2758638,0.7321461,1.616348,0.1933649,0.4335014,1.115151,0.2784893,302.3806,239.1726,349.5683,False
1,0.1555556,-0.2904493,-0.3573464,-0.02908249,-1.444987,-4.203809,2.903641,0.6424736,1.267369,0.4793673,-1.695717,0.05346601,32.7,12.5,-0.1522439,-0.01833273,0.1904545,-0.8154839,-3.908063,-0.3960006,0.6036923,1.511458,0.3609617,-0.1240827,-0.02647685,-0.06908233,-0.4921111,0.6776516,-0.2698871,0.7328987,1.616428,0.192987,0.4332801,1.11653,0.2770094,302.1393,239.0069,349.4959,False
1,0.1666667,-0.3256213,-0.3683009,-0.05770433,-1.4445,-4.199048,2.907875,0.641592,1.268074,0.479104,-1.691155,0.4168709,32.7,12.5,-0.157237,-0.03658414,0.2383696,-0.8110609,-3.90711,-0.3948011,0.6041211,1.512378,0.3606908,-0.125311,-0.04879142,-0.08195847,-0.4930587,0.6739123,-0.2651811,0.7336165,1.616517,0.1925809,0.4329186,1.11801,0.2754315,301.987,238.801,349.4921,False
1,0.1777778,-0.3469229,-0.382311,-0.07247494,-1.444348,-4.194095,2.911843,0.6406423,1.268682,0.4788563,-1.699581,-0.7736075,32.7,12.5,-0.1592047,-0.06115077,0.2606877,-0.8070145,-3.907144,-0.392935,0.6046003,1.513214,0.3603537,-0.1213186,-0.07852202,-0.1045012,-0.4945256,0.6689326,-0.2595189,0.7344077,1.616688,0.1921556,0.4322754,1.119793,0.2734888,302.0063,238.2811,349.6933,False
1,0.1888889,-0.3607888,-0.3942751,-0.09899256,-1.443472,-4.188735,2.915667,0.6396099,1.269522,0.478622,-1.695953,0.3389056,32.7,12.5,-0.1664433,-0.1315431,0.2860935,-0.8017824,-3.910493,-0.3885925,0.6052618,1.514199,0.3600545,-0.1237648,-0.1060662,-0.1344348,-0.4964612,0.6635472,-0.2533175,0.7352458,1.616807,0.1918068,0.4319723,1.121856,0.2718948,301.5007,237.8306,349.7134,False
1,0.2,-0.3810803,-0.3848786,-0.1182089,-1.442378,-4.184455,2.920069,0.6385779,1.270531,0.4785171,-1.695816,0.008990205,32.7,12.5,-0.1696742,-0.1464352,0.2796806,-0.7984423,-3.911673,-0.3857642,0.6057119,1.51509,0.3598428,-0.1303029,-0.1123644,-0.1503891,-0.4982876,0.6595195,-0.2480897,0.7361097,1.61692,0.1914625,0.4316763,1.123949,0.27044,301.0515,237.609,349.6478,False
1,0.2111111,-0.3992648,-0.3637603,-0.1364569,-1.44104,-4.180654,2.92468,0.6376494,1.271704,0.4782329,-1.696198,-0.03449968,32.1,10.8,-0.1932004,-0.1623936,0.2648735,-0.7954159,-3.913595,-0.3814038,0.6063961,1.51627,0.3596225,-0.1239636,-0.1272833,-0.1526415,-0.4995792,0.6548048,-0.2429173,0.7371287,1.617104,0.1910756,0.4312949,1.126001,0.2689731,300.7069,237.3057,349.7219,False
1,0.2222222,-0.4291306,-0.356475,-0.1503208,-1.439684,-4.176498,2.930003,0.6366233,1.272811,0.4779544,-1.696036,0.01531242,32.1,10.8,-0.2124113,-0.1730401,0.2585787,-0.7921109,-3.915289,-0.3770964,0.607065,1.517511,0.3593516,-0.1240246,-0.1411166,-0.1558995,-0.5008522,0.649698,-0.2370826,0.738093,1.617233,0.1906481,0.4308627,1.128028,0.2674786,300.482,236.8508,349.8949,False
1,0.2333333,-0.4376932,-0.3663934,-0.1885837,-1.437221,-4.171116,2.934596,0.6356155,1.274025,0.4775085,-1.696097,-0.005631396,32.1,10.8,-0.2302524,-0.1838216,0.298082,-0.7867334,-3.915987,-0.3733139,0.607927,1.519017,0.3590174,-0.1298679,-0.2005511,-0.1998094,-0.5036016,0.6391338,-0.226097,0.7395069,1.617406,0.1900845,0.4303468,1.130104,0.2660216,300.3446,236.3674,350.0431,False
1,0.2444444,-0.4302562,-0.3611092,-0.1960979,-1.43557,-4.166801,2.938385,0.634596,1.275236,0.4771733,-1.695597,0.04599425,32.1,10.8,-0.2222415,-0.1947011,0.3800312,-0.7788287,-3.915466,-0.371577,0.6088865,1.52057,0.3586335,-0.1259725,-0.2280952,-0.2361903,-0.5066792,0.6301681,-0.2170458,0.7407573,1.617489,0.189538,0.4297186,1.132299,0.2646221,300.205,235.918,350.2165,False
1,0.2555556,-0.4601592,-0.3368264,-0.215419,-1.43311,-4.163332,2.944086,0.6336222,1.276511,0.4769211,-1.696358,-0.06981709,32.5,10.7,-0.2080177,-0.2150921,0.4342124,-0.7712024,-3.916103,-0.3693911,0.6101039,1.522155,0.3583117,-0.1231254,-0.2588466,-0.2693777,-0.5099266,0.6203029,-0.2071953,0.7419847,1.617602,0.1889479,0.4289657,1.134649,0.2632218,300.0067,235.477,350.4832,False
1,0.2666667,-0.5262817,-0.2986314,-0.2156119,-1.431207,-4.160755,2.951956,0.632674,1.277837,0.476625,-1.697577,-0.1105691,32.5,10.7,-0.2099772,-0.238591,0.45759,-0.7646649,-3.91778,-0.3657908,0.6114102,1.523703,0.3580673,-0.1083439,-0.2790829,-0.2781083,-0.5123571,0.6116555,-0.1988564,0.7431889,1.61776,0.1882398,0.428217,1.137161,0.2617778,299.7309,234.9137,350.8923,False
1,0.2777778,-0.5913802,-0.2541361,-0.2297093,-1.428384,-4.158875,2.960554,0.6317657,1.279267,0.4763601,-1.69604,0.1414542,32.5,10.7,-0.2131551,-0.2673506,0.4564707,-0.7585327,-3.920695,-0.3612208,0.612718,1.525218,0.3577573,-0.09774762,-0.3004163,-0.2782929,-0.5146245,0.6020972,-0.1898368,0.7444211,1.617898,0.1876383,0.4275347,1.139786,0.2603518,299.375,234.3609,351.2016,False
1,0.2888889,-0.6330124,-0.2244906,-0.2415988,-1.425516,-4.156808,2.968887,0.630843,1.280673,0.4760094,-1.694059,0.1800513,32.5,10.7,-0.2163539,-0.3450932,0.4477458,-0.7517917,-3.927605,-0.3537658,0.6143709,1.526939,0.3575962,-0.08816198,-0.326045,-0.2699618,-0.5163742,0.5919092,-0.1803325,0.7457452,1.61802,0.1869872,0.4267942,1.142491,0.2589648,299.0511,233.8242,351.4321,False
1,0.3,-0.6789258,-0.1906823,-0.2652326,-1.421868,-4.155267,2.977819,0.6299343,1.282246,0.4756176,-1.693654,0.03586916,32.8,6.8,-0.189691,-0.4345447,0.4430605,-0.7444733,-3.936559,-0.3462011,0.6161091,1.528714,0.3574107,-0.08929321,-0.3345386,-0.2753185,-0.5188078,0.5829043,-0.1714141,0.7472188,1.618068,0.186404,0.4258177,1.145373,0.2575899,298.8145,233.3334,351.6429,False
1,0.3111111,-0.7152047,-0.1770677,-0.2844631,-1.418323,-4.153103,2.986762,0.6290781,1.283933,0.4751799,-1.694369,-0.06510336,32.8,6.8,-0.1662034,-0.483543,0.4459605,-0.7372476,-3.944229,-0.3396566,0.6177359,1.530476,0.3572803,-0.0851751,-0.3462002,-0.2892569,-0.5218267,0.5733277,-0.1623362,0.7486269,1.618209,0.1858203,0.4245669,1.148575,0.2562642,298.5692,232.7572,352.01,False
1,0.3222222,-0.8804893,-0.1265704,-0.3197652,-1.413584,-4.152578,3.002449,0.6283187,1.28588,0.4747474,-1.694397,-0.001684155,32.8,6.8,-0.1308092,-0.5752102,0.4721069,-0.7281151,-3.954751,-0.3317609,0.6196831,1.532548,0.3571601,-0.08038056,-0.3981863,-0.3385393,-0.5263072,0.5590734,-0.1493117,0.7503766,1.618313,0.1852102,0.4231047,1.152165,0.255012,298.206,232.1284,352.5233,False
1,0.3333333,-0.9039297,-0.1126381,-0.3027936,-1.410948,-4.151506,3.013193,0.6274567,1.287546,0.4743776,-1.694721,-0.02931236,32.8,6.8,-0.127484,-0.611483,0.4879557,-0.7198327,-3.963576,-0.3238311,0.6214164,1.534484,0.3570428,-0.07744211,-0.4183214,-0.3642228,-0.5304345,0.5470248,-0.1381784,0.7518762,1.618382,0.1845987,0.4215026,1.156164,0.253844,297.7374,231.4683,353.1431,False
1,0.3444445,-0.9616363,-0.02756664,-0.3065717,-1.407066,-4.153836,3.025966,0.6272247,1.289443,0.474072,-1.688863,0.5362748,32.8,6.8,-0.1208028,-0.6307638,0.5283474,-0.7104174,-3.971003,-0.317183,0.6232383,1.536655,0.3568306,-0.0777446,-0.4426938,-0.3930906,-0.5348805,0.5344352,-0.1264261,0.7534746,1.618566,0.1838861,0.4198831,1.160551,0.2527464,297.1686,230.7599,353.8516,False
1,0.3555556,-0.9755318,-0.002022907,-0.305705,-1.403541,-4.154274,3.037189,0.6263522,1.291094,0.4735384,-1.693836,-0.4587803,32.8,6.8,-0.1235175,-0.6469443,0.5986356,-0.6991687,-3.978035,-0.3103051,0.6251051,1.538721,0.3565147,-0.07155812,-0.4714006,-0.4092554,-0.5392736,0.5210381,-0.1143876,0.755156,1.61864,0.1831646,0.4179761,1.165483,0.2515203,296.7226,230.0527,354.5493,False
1,0.3666667,-0.9883775,0.02886796,-0.3016598,-1.400237,-4.15521,3.048838,0.6252072,1.292774,0.4730985,-1.693671,0.0200287,28.9,6.2,-0.1264448,-0.6726056,0.6358922,-0.6884474,-3.986426,-0.3023013,0.6270524,1.540831,0.3560975,-0.0706405,-0.4884005,-0.4221216,-0.5436002,0.508161,-0.1025892,0.7568842,1.618698,0.1824565,0.4160797,1.171018,0.2503117,296.0073,229.3433,355.2523,False
1,0.3777778,-1.014008,0.05968606,-0.3040035,-1.396524,-4.15666,3.061197,0.624249,1.29449,0.4724882,-1.695314,-0.1504313,28.9,6.2,-0.1361757,-0.6895967,0.6146095,-0.6803178,-3.996081,-0.2928814,0.6289925,1.542684,0.3556833,-0.07615221,-0.4925446,-0.4434028,-0.5487071,0.4964597,-0.09157546,0.758572,1.618752,0.1818345,0.4142337,1.177023,0.2492388,295.1032,228.6008,356.0059,False
1,0.3888889,-1.026829,0.06700219,-0.317881,-1.392453,-4.157268,3.073227,0.6230466,1.296093,0.4720085,-1.695544,-0.01952727,28.9,6.2,-0.1611476,-0.70965,0.5422781,-0.6745585,-4.007723,-0.2811936,0.6306883,1.544362,0.3552916,-0.0912258,-0.4956184,-0.4624605,-0.5538645,0.4847969,-0.08015556,0.7603446,1.618752,0.1812005,0.4122117,1.183203,0.2481325,294.0181,227.7079,356.9193,False
1,0.4,-1.031119,0.0603404,-0.3508634,-1.387208,-4.157291,3.084798,0.6218799,1.297943,0.4712393,-1.695255,0.02666537,28.9,6.2,-0.1997742,-0.729798,0.4988089,-0.6680449,-4.019672,-0.2683036,0.6325053,1.546062,0.3548679,-0.110454,-0.4933995,-0.4697533,-0.5589554,0.4738793,-0.0689804,0.7620196,1.618753,0.1806693,0.409984,1.189319,0.2469844,292.9274,226.7777,357.8547,False
1,0.4111111,-1.026852,0.03231934,-0.3911284,-1.381496,-4.156116,3.095843,0.6205611,1.299932,0.4705801,-1.696466,-0.1095927,25.9,3.6,-0.2874052,-0.7510372,0.4556564,-0.6624278,-4.032828,-0.2514807,0.6338774,1.547763,0.3544216,-0.1244015,-0.4644966,-0.4897532,-0.5649257,0.4656582,-0.06012512,0.7638152,1.618759,0.1801891,0.40765,1.195261,0.2458285,291.966,225.7853,358.8978,True
1,0.4222222,-1.02683,0.001201943,-0.4196535,-1.37586,-4.154733,3.107131,0.6193269,1.301962,0.4700205,-1.698627,-0.1949781,25.9,3.6,-0.3542119,-0.7437602,0.5040599,-0.6531253,-4.042521,-0.2374533,0.6353246,1.549636,0.353941,-0.1274614,-0.4272337,-0.4852943,-0.5700187,0.4584409,-0.05265043,0.7656149,1.618786,0.1795382,0.4053233,1.200997,0.2446657,291.1595,224.6459,0.1264888,True
1,0.4333333,-1.007629,-0.02121268,-0.4312141,-1.370794,-4.153591,3.117409,0.6179006,1.303881,0.4696739,-1.701317,-0.2422135,25.9,3.6,-0.3992888,-0.6791404,0.6206477,-0.6413068,-4.047234,-0.2276185,0.6363457,1.551529,0.3533349,-0.1379426,-0.397423,-0.4744232,-0.5747309,0.4519027,-0.04534112,0.7672986,1.618764,0.1791563,0.4031433,1.206574,0.2434415,290.5323,223.3022,1.58859,True
1,0.4444444,-0.9787933,-0.0542026,-0.4320593,-1.366111,-4.151583,3.126836,0.6164997,1.305711,0.4692245,-1.703895,-0.2314397,25.9,3.6,-0.4182279,-0.619617,0.6603684,-0.631852,-4.052226,-0.2184903,0.6378191,1.553402,0.3527062,-0.1507055,-0.3824626,-0.4774433,-0.5799263,0.4445695,-0.03714257,0.7691276,1.61871,0.1787388,0.4012499,1.212073,0.2421317,290.021,221.7687,3.164497,True
1,0.4555556,-0.9415144,-0.03906867,-0.4151869,-1.362147,-4.151717,3.136005,0.6149001,1.307528,0.4687726,-1.708164,-0.385877,24.2,3.2,-0.4372709,-0.5142589,0.690613,-0.6230625,-4.052655,-0.2126081,0.638844,1.555145,0.352109,-0.1732184,-0.3769899,-0.4964106,-0.5859439,0.4370836,-0.02813949,0.7708086,1.618601,0.178323,0.3996717,1.217601,0.2407167,289.5518,220.1488,4.687818,True
1,0.4666667,-0.9415144,-0.03906867,-0.4151869,-1.362147,-4.151717,3.136005,0.6149001,1.307528,0.4687726,-1.712391,-0.3806709,24.2,3.2,-0.4372709,-0.5142589,0.690613,-0.6230625,-4.052655,-0.2126081,0.638844,1.555145,0.352109,-0.1732184,-0.3769899,-0.4964106,-0.5859439,0.4370836,-0.02813949,0.7708086,1.618601,0.178323,0.3983265,1.223201,0.2392084,289.0015,218.4613,6.166842,True
1,0.4777778,-0.9275427,-0.07828984,-0.3925551,-1.353945,-4.148653,-3.127549,0.6118884,1.310979,0.4676337,-1.725559,-1.198503,24.2,3.2,-0.4447915,-0.4034778,0.6909804,-0.6070724,-4.056961,-0.1991094,0.6412346,1.558448,0.3509185,-0.2223659,-0.3778397,-0.5141253,-0.5978168,0.4217755,-0.009301622,0.7743931,1.618383,0.1772087,0.397401,1.228786,0.2377398,288.2139,216.7363,7.699,True
1,0.4888889,-0.9232643,-0.08678353,-0.389312,-1.349625,-4.147455,-3.117648,0.6105165,1.312639,0.4670737,-1.710464,1.392812,24.2,3.2,-0.4395023,-0.3406279,0.6921967,-0.5991707,-4.056927,-0.1943894,0.6423438,1.559899,0.3503399,-0.2286822,-0.3757318,-0.5055413,-0.6030734,0.4145495,-0.0005691175,0.7760231,1.61823,0.176753,0.3971175,1.233787,0.2365984,287.1015,215.019,9.195426,True
1,0.5,-0.9179639,-0.09873165,-0.4190546,-1.339294,-4.145067,-3.097894,0.6072703,1.315692,0.4660187,-1.712418,-0.1884488,24.2,3.2,-0.4186229,-0.2903744,0.6325493,-0.5862763,-4.061247,-0.1822446,0.6445111,1.562556,0.3493259,-0.2347065,-0.3492374,-0.4691506,-0.612331,0.4027971,0.0144061,0.779106,1.617842,0.1762462,0.3952042,1.238845,0.2343441,287.2873,213.4448,10.38161,True
1,0.5111111,-0.9265042,-0.09886682,-0.4350289,-1.33373,-4.144232,-3.08752,0.6056581,1.317313,0.4654493,-1.727399,-1.363071,22.4,4.2,-0.4028344,-0.2924095,0.604749,-0.5799779,-4.065396,-0.1748509,0.6457359,1.563762,0.3489206,-0.2355916,-0.3237317,-0.4551762,-0.616868,0.3984737,0.0205897,0.7805467,1.617645,0.1759799,0.3922514,1.244907,0.2313261,287.7419,211.1789,12.26271,True
1,0.5222223,-0.9340003,-0.09261748,-0.4499831,-1.328162,-4.14366,-3.077078,0.6041114,1.318562,0.4647551,-1.732916,-0.4893722,22.4,4.2,-0.3912125,-0.3094018,0.5886436,-0.5736017,-4.070974,-0.1664108,0.6469511,1.564948,0.3485782,-0.2226543,-0.3110476,-0.4424436,-0.6213645,0.3934072,0.02651044,0.7819922,1.617306,0.1757922,0.3899658,1.251881,0.2288058,287.1844,208.2793,14.92363,True
1,0.5333334,-0.9308631,-0.06280757,-0.4523631,-1.323023,-4.144361,-3.066789,0.6026414,1.319872,0.4641008,-1.736754,-0.3449053,22.4,4.2,-0.3785945,-0.3465999,0.5607536,-0.5677812,-4.079397,-0.1556676,0.6482566,1.565994,0.3483076,-0.2193502,-0.3079162,-0.4307416,-0.6258402,0.387922,0.03322906,0.7834296,1.617017,0.1755037,0.3885907,1.25924,0.2269369,285.9729,204.8191,18.28785,True
1,0.5444446,-0.9298463,-0.03502825,-0.4408626,-1.31868,-4.145385,-3.056223,0.6011322,1.321155,0.4634027,-1.740769,-0.3615868,22.4,4.2,-0.357345,-0.3838276,0.5466726,-0.5614008,-4.088347,-0.1451391,0.649533,1.567182,0.3479438,-0.2172159,-0.3100507,-0.4318336,-0.6307878,0.3820664,0.04017165,0.7849216,1.616813,0.1753006,0.3877992,1.266553,0.2254882,284.6993,200.5184,22.49581,True
1,0.5555557,-0.9150074,0.007737219,-0.4252475,-1.314683,-4.147515,-3.046132,0.5996419,1.322367,0.4626906,-1.745271,-0.4058585,20.6,3.2,-0.3222746,-0.4231743,0.5303494,-0.555341,-4.098627,-0.1343224,0.6507217,1.568092,0.3476124,-0.2162601,-0.3067927,-0.4467448,-0.6364604,0.3769381,0.04659919,0.7863411,1.616457,0.174988,0.3871824,1.273476,0.224188,283.6468,195.6652,27.22452,True
1,0.5666668,-0.898031,0.04728016,-0.4138622,-1.310807,-4.150199,-3.036274,0.5981469,1.323532,0.4620161,-1.749147,-0.3481573,20.6,3.2,-0.3063785,-0.4422983,0.5163465,-0.5494325,-4.107892,-0.123646,0.6516836,1.569074,0.347373,-0.2163714,-0.3035221,-0.4605822,-0.6423353,0.3722036,0.05284644,0.7877792,1.61623,0.1748245,0.3864307,1.279844,0.2229158,282.9166,190.9749,31.75285,True
1,0.577778,-0.8736553,0.1178211,-0.3910287,-1.30759,-4.154835,-3.026278,0.5968745,1.324497,0.4615602,-1.753862,-0.4255937,20.6,3.2,-0.2842949,-0.4602847,0.4724728,-0.5451816,-4.118366,-0.1123668,0.6525368,1.569811,0.3471453,-0.2248932,-0.2768288,-0.4689123,-0.6479998,0.3694752,0.05786064,0.7890574,1.615966,0.1747816,0.3853676,1.285625,0.2216173,282.4539,186.9274,35.66526,True
1,0.5888891,-0.8599465,0.2032998,-0.3640222,-1.305209,-4.161096,-3.015829,0.5955644,1.325324,0.4610732,-1.758257,-0.3955958,20.6,3.2,-0.3072442,-0.4334272,0.3885431,-0.543875,-4.125418,-0.1021671,0.6529479,1.570306,0.3468552,-0.2343164,-0.2448934,-0.4591013,-0.6527221,0.3676053,0.06229293,0.7902109,1.615737,0.1748819,0.3840038,1.290848,0.2203799,282.1759,183.3658,39.138,True
1,0.6000003,-0.8482907,0.2353433,-0.3557762,-1.301942,-4.165345,-3.005571,0.5941969,1.326436,0.4603894,-1.762417,-0.3746488,18.8,7,-0.3319091,-0.3875931,0.3696729,-0.5399628,-4.129872,-0.09355978,0.6536709,1.571168,0.3464873,-0.237227,-0.2055792,-0.4365254,-0.6567094,0.3667392,0.06573773,0.7913663,1.615489,0.1748996,0.3824424,1.295568,0.2193641,282.0264,180.1571,42.28426,True
1,0.6111114,-0.8482907,0.2353433,-0.3557762,-1.301942,-4.165345,-3.005571,0.5941969,1.326436,0.4603894,-1.766032,-0.3249539,18.8,7,-0.3319091,-0.3875931,0.3696729,-0.5399628,-4.129872,-0.09355978,0.6536709,1.571168,0.3464873,-0.237227,-0.2055792,-0.4365254,-0.6567094,0.3667392,0.06573773,0.7913663,1.615489,0.1748996,0.3807326,1.299887,0.2187682,281.9374,177.2873,45.11383,True
1,0.6222225,-0.8111032,0.3049242,-0.322296,-1.297096,-4.175454,-2.986196,0.5915632,1.328083,0.4589992,-1.777679,-1.060643,18.8,7,-0.3896081,-0.2118479,0.3620294,-0.5323159,-4.126137,-0.08601664,0.6545694,1.572657,0.3457067,-0.24003,-0.1599227,-0.4032674,-0.6646004,0.3643764,0.07289311,0.7936306,1.61493,0.1747911,0.3790999,1.303881,0.2187687,281.7543,174.9731,47.6445,True
1,0.6333337,-0.7908808,0.3242674,-0.3054465,-1.294923,-4.18016,-2.976936,0.5904337,1.328843,0.4582407,-1.763571,1.300265,18.8,7,-0.4173014,-0.1341389,0.3730915,-0.5277618,-4.122682,-0.08312924,0.6550738,1.573231,0.3453715,-0.248481,-0.1524812,-0.3967645,-0.6687543,0.3624468,0.07747455,0.7946584,1.61473,0.174799,0.3779546,1.307142,0.2193258,281.4193,171.8504,51.13839,True
1,0.6444448,-0.7823811,0.3414322,-0.2938627,-1.292923,-4.185322,-2.967118,0.5891651,1.329699,0.4576118,-1.773307,-0.9007207,18.8,7,-0.420464,-0.1192411,0.3795473,-0.5232515,-4.123349,-0.0777209,0.6554911,1.5739,0.3451071,-0.2525867,-0.1461571,-0.3796565,-0.6724061,0.3606977,0.08180884,0.7955949,1.614493,0.1748664,0.3750934,1.310639,0.2190046,281.6886,171.2075,51.99633,True
1,0.655556,-0.7674891,0.3639817,-0.2748755,-1.29153,-4.190812,-2.957619,0.58801,1.330341,0.4570086,-1.776939,-0.3215652,17,8.4,-0.398086,-0.1501386,0.3782476,-0.5187662,-4.129133,-0.06912661,0.6560386,1.574459,0.3450549,-0.2534933,-0.1302326,-0.3689364,-0.6763209,0.3595801,0.08527362,0.7965432,1.614202,0.1748407,0.3721261,1.314463,0.2187745,281.849,170.0713,53.51021,True
1,0.6666671,-0.7526087,0.3982956,-0.2506762,-1.290658,-4.19713,-2.948075,0.5869164,1.330882,0.4562998,-1.778243,-0.1162249,17,8.4,-0.3598561,-0.192657,0.3565637,-0.5153877,-4.136269,-0.06034989,0.6563646,1.575026,0.3449168,-0.257627,-0.1206872,-0.3560769,-0.6798752,0.3586009,0.08910803,0.7974368,1.614023,0.1749632,0.3695994,1.318467,0.2187904,281.7487,168.15,55.90738,True
1,0.6777782,-0.7441335,0.4271881,-0.2327916,-1.290015,-4.203364,-2.938288,0.5859922,1.33132,0.4557989,-1.779976,-0.1568663,17,8.4,-0.3471657,-0.2277623,0.3393409,-0.5119416,-4.143961,-0.05018301,0.6568298,1.575513,0.3448093,-0.2564691,-0.1250101,-0.3433221,-0.6833405,0.356593,0.09350305,0.7982864,1.613779,0.1749866,0.36755,1.322584,0.2189545,281.581,165.3079,59.14704,True
1,0.6888894,-0.7207883,0.4978841,-0.1907641,-1.291213,-4.212101,-2.928706,0.5851063,1.331771,0.45523,-1.78136,-0.1245402,17,8.4,-0.3323408,-0.2681819,0.3220866,-0.5087383,-4.153194,-0.03894181,0.6568476,1.57603,0.3445027,-0.2550782,-0.1379985,-0.2986469,-0.6851243,0.3535727,0.09869994,0.7990405,1.613554,0.1748655,0.3658817,1.326726,0.219175,281.416,161.6937,63.05201,True
1,0.7000005,-0.6952809,0.5440118,-0.156007,-1.292319,-4.220037,-2.919559,0.5842606,1.3324,0.4545691,-1.782085,-0.06468646,17,8.4,-0.3387205,-0.2586323,0.3264216,-0.5046269,-4.158395,-0.0301848,0.6567823,1.57678,0.3442068,-0.2589112,-0.1766375,-0.233808,-0.6855872,0.3481826,0.1059294,0.7996175,1.613223,0.1746612,0.3644112,1.33081,0.2193795,281.2929,157.7605,67.19809,True
1,0.7111117,-0.6729364,0.5665662,-0.1402231,-1.293007,-4.22767,-2.910715,0.5833393,1.333086,0.4540002,-1.783751,-0.1514139,15.5,11.5,-0.3440613,-0.2128338,0.3287187,-0.5008026,-4.15932,-0.02526887,0.6567341,1.577425,0.3436587,-0.2682967,-0.1927313,-0.2039785,-0.6870764,0.3440076,0.1125066,0.8003312,1.612925,0.1744549,0.3630212,1.334776,0.2195934,281.2379,154.0717,71.01266,True
1,0.7222228,-0.64098,0.579532,-0.1265196,-1.293713,-4.234913,-2.902891,0.5825737,1.333836,0.4533372,-1.784693,-0.08437977,15.5,11.5,-0.3588852,-0.1404606,0.3482034,-0.4961869,-4.156403,-0.0232992,0.6568765,1.578096,0.3431749,-0.2968541,-0.2045113,-0.1750354,-0.6882242,0.3398476,0.1201038,0.8009551,1.612616,0.1743748,0.3614563,1.33866,0.2198695,281.1868,150.8705,74.32955,True
1,0.7333339,-0.6100707,0.578606,-0.1180325,-1.294255,-4.241664,-2.89548,0.5817637,1.334656,0.4527001,-1.78541,-0.06471337,15.5,11.5,-0.3736407,-0.1064751,0.3771708,-0.4906523,-4.156476,-0.01834172,0.656739,1.579016,0.3426948,-0.3120016,-0.1968761,-0.2057609,-0.6919079,0.3376095,0.125951,0.8015068,1.612352,0.1744635,0.3596808,1.342445,0.2202511,281.1501,148.1283,77.30711,True
1,0.7444451,-0.553543,0.5521601,-0.1115221,-1.294414,-4.247136,-2.889911,0.5811777,1.335616,0.4519286,-1.786692,-0.1166085,15.5,11.5,-0.3819944,-0.0969691,0.4038829,-0.4850538,-4.157711,-0.01263137,0.6564373,1.579941,0.3422468,-0.314423,-0.1753688,-0.248256,-0.6964411,0.3367563,0.1301844,0.8020366,1.61217,0.1746066,0.3577613,1.34609,0.220773,281.1563,145.7216,80.05135,True
1,0.7555562,-0.5204895,0.5394627,-0.1093406,-1.294668,-4.252975,-2.883729,0.5805556,1.336373,0.4513404,-1.78729,-0.05351216,17.4,13.4,-0.3864471,-0.113969,0.3729714,-0.4819991,-4.162681,-0.003842142,0.6561629,1.580821,0.3419931,-0.3338977,-0.121826,-0.301116,-0.7019799,0.3389572,0.1329655,0.802492,1.612183,0.1749206,0.3558294,1.349542,0.2214406,281.1691,143.5697,82.62528,True
1,0.7666674,-0.5204895,0.5394627,-0.1093406,-1.294668,-4.252975,-2.883729,0.5805556,1.336373,0.4513404,-1.788891,-0.1459512,17.4,13.4,-0.3864471,-0.113969,0.3729714,-0.4819991,-4.162681,-0.003842142,0.6561629,1.580821,0.3419931,-0.3338977,-0.121826,-0.301116,-0.7019799,0.3389572,0.1329655,0.802492,1.612183,0.1749206,0.3539641,1.352772,0.2221794,281.1619,141.7761,84.90418,True
1,0.7777785,-0.4522162,0.5174795,-0.08050549,-1.29661,-4.264221,-2.872846,0.5794146,1.337805,0.4504402,-1.792952,-0.3702653,17.4,13.4,-0.3621875,-0.1277262,0.3354878,-0.4755005,-4.170521,0.01052508,0.6554101,1.582296,0.3416193,-0.3635769,-0.02047661,-0.3153331,-0.7094086,0.3451755,0.1373331,0.8029024,1.612121,0.1758432,0.3525978,1.355575,0.2230126,281.132,139.8499,87.39977,True
1,0.7888896,-0.4010335,0.5146295,-0.05071831,-1.298789,-4.269722,-2.868938,0.5788453,1.338256,0.4503169,-1.784675,0.7596538,17.4,13.4,-0.3432508,-0.1180175,0.3012956,-0.4734685,-4.172569,0.01550519,0.6547757,1.582893,0.3414111,-0.3666184,0.007168561,-0.3045342,-0.7122289,0.3473817,0.1399222,0.8031836,1.612108,0.1763058,0.3518851,1.357594,0.2238226,281.1565,137.521,90.0615,True
1,0.8000008,-0.3679862,0.5266892,-0.0167647,-1.301534,-4.27584,-2.864352,0.5782774,1.338529,0.4501789,-1.788303,-0.3386211,17.4,13.4,-0.3327454,-0.09132315,0.2800089,-0.4710253,-4.172631,0.01878674,0.6543201,1.583307,0.341279,-0.3748589,0.03903612,-0.2798179,-0.714084,0.3504966,0.1420786,0.8031775,1.612075,0.1768258,0.350195,1.359754,0.2239791,281.2419,137.8088,89.80406,True
1,0.8111119,-0.3519993,0.5353972,0.002331525,-1.304069,-4.281929,-2.859379,0.5776385,1.338969,0.4499938,-1.790327,-0.1813197,14.2,28.2,-0.3222807,-0.01241855,0.2599279,-0.4688213,-4.165967,0.01608283,0.6537069,1.583797,0.3410184,-0.3734025,0.07081264,-0.2423967,-0.7147855,0.3534862,0.1437803,0.8032222,1.612,0.1770709,0.3484732,1.361908,0.2242157,281.3058,137.7158,89.96199,True
1,0.8222231,-0.3317378,0.5323653,0.01724041,-1.306351,-4.28754,-2.854893,0.577076,1.339233,0.4498336,-1.789772,0.051849,14.2,28.2,-0.3191369,0.07813039,0.2612324,-0.4658561,-4.156046,0.01065078,0.6530929,1.584299,0.3407075,-0.3473989,0.07690537,-0.1914509,-0.7147993,0.355159,0.1452706,0.8032078,1.611898,0.1772826,0.3469767,1.363902,0.2247775,281.2828,136.6788,91.11053,True
1,0.8333342,-0.3210464,0.519639,0.02157894,-1.308132,-4.29265,-2.850435,0.5763673,1.339647,0.4496429,-1.789062,0.06417876,14.2,28.2,-0.3212157,0.1249677,0.2741597,-0.4623173,-4.148805,0.007870174,0.6526567,1.584864,0.3405137,-0.3269791,0.06607613,-0.166093,-0.7155099,0.3554979,0.1477871,0.8030901,1.611853,0.1774352,0.3455637,1.365734,0.2256393,281.2134,135.2945,92.68419,True
1,0.8444453,-0.3060173,0.4631567,0.01453122,-1.308721,-4.295483,-2.846953,0.5756748,1.340034,0.4493217,-1.789178,-0.01129634,14.2,28.2,-0.3105246,0.1324182,0.2805005,-0.4589772,-4.145324,0.007713846,0.6524637,1.585338,0.3403347,-0.3140403,0.0382179,-0.1386319,-0.7161118,0.3542892,0.151536,0.8031008,1.61169,0.1774499,0.3440705,1.367496,0.2266939,281.1469,134.1617,94.10519,True
1,0.8555565,-0.3006404,0.4311018,0.0009227246,-1.309263,-4.299167,-2.84288,0.5749565,1.340425,0.4489446,-1.788949,0.0209363,13.7,45.5,-0.2788506,0.06548062,0.2300268,-0.4585117,-4.149779,0.01343804,0.6521584,1.585621,0.3402665,-0.298134,0.02008227,-0.1420401,-0.7178428,0.3538783,0.1545006,0.8031094,1.611607,0.1776369,0.3425079,1.369202,0.2278728,281.0949,133.1778,95.4598,True
1,0.8666676,-0.295225,0.3755603,-0.01995511,-1.308881,-4.301475,-2.839223,0.5740856,1.340758,0.4486609,-1.78917,-0.02042806,13.7,45.5,-0.2408376,-0.02380641,0.1709177,-0.4591311,-4.158336,0.02230797,0.6519593,1.585844,0.3404377,-0.2750222,0.008470982,-0.1785026,-0.7212325,0.3540907,0.1564746,0.8030465,1.611503,0.1779361,0.3408706,1.370891,0.2290215,281.0365,132.3306,96.7597,True
1,0.8777788,-0.2866266,0.3285781,-0.03664762,-1.308477,-4.303701,-2.83579,0.5732229,1.340998,0.4484241,-1.788701,0.04294947,13.7,45.5,-0.197352,-0.08758822,0.1352898,-0.4589942,-4.165671,0.02940103,0.6516159,1.585948,0.340477,-0.2464382,0.01702853,-0.2031958,-0.7245039,0.3554345,0.1571425,0.8032963,1.611483,0.1782818,0.339331,1.372493,0.2299703,281.007,131.4416,98.13214,True
1,0.8888899,-0.2790911,0.2880558,-0.04380512,-1.308229,-4.305585,-2.832497,0.5722847,1.341208,0.4482329,-1.788606,0.008294369,13.7,45.5,-0.1750902,-0.1056295,0.1169799,-0.4584238,-4.169748,0.03416489,0.6513263,1.586121,0.3405702,-0.2165676,0.03719819,-0.2044111,-0.7266334,0.3577158,0.1567023,0.8031475,1.611371,0.178642,0.3379105,1.374006,0.2306082,281.0369,130.5957,99.35029,True
1,0.900001,-0.2790911,0.2880558,-0.04380512,-1.308229,-4.305585,-2.832497,0.5722847,1.341208,0.4482329,-1.788723,-0.01084323,13.7,45.5,-0.1750902,-0.1056295,0.1169799,-0.4584238,-4.169748,0.03416489,0.6513263,1.586121,0.3405702,-0.2165676,0.03719819,-0.2044111,-0.7266334,0.3577158,0.1567023,0.8031475,1.611371,0.178642,0.3366916,1.375382,0.2309095,281.1354,129.7152,100.4447,True
1,0.9111122,-0.2747955,0.26353,-0.04788697,-1.308211,-4.307865,-2.828867,0.5716507,1.341441,0.4479825,-1.79142,-0.2465668,13.7,45.5,-0.1655435,-0.08642751,0.1116431,-0.4573345,-4.169875,0.03581233,0.6509573,1.586308,0.3405497,-0.1887081,0.05090989,-0.1885935,-0.7281093,0.3599468,0.1562157,0.8030518,1.611252,0.1789179,0.3358935,1.376527,0.2309942,281.2205,128.9228,101.3357,True
1,0.9222233,-0.2619493,0.2380543,-0.04024036,-1.308707,-4.309591,-2.825976,0.5707228,1.341593,0.4478772,-1.788669,0.2533479,11.8,54.4,-0.1538302,-0.06085338,0.1137707,-0.4559646,-4.169326,0.03668504,0.6505253,1.58642,0.3405411,-0.1703896,0.05501278,-0.1642192,-0.7288433,0.3613693,0.1564114,0.8029111,1.611195,0.1791234,0.3357636,1.377223,0.2309896,281.3171,127.8861,102.3619,True
1,0.9333345,-0.2490959,0.2157958,-0.03049742,-1.309268,-4.311241,-2.823342,0.5698794,1.341623,0.4477651,-1.787944,0.06381586,11.8,54.4,-0.1410338,-0.05020118,0.1169085,-0.4546064,-4.1699,0.03835431,0.6501794,1.586533,0.3406003,-0.1403316,0.0430641,-0.132559,-0.728994,0.3612606,0.1569598,0.8027492,1.611089,0.179328,0.3354694,1.377782,0.2306151,281.448,127.4557,102.6011,True
1,0.9444456,-0.2426695,0.2030484,-0.0272161,-1.30961,-4.313005,-2.820455,0.5690482,1.341776,0.4476645,-1.788458,-0.04730758,11.8,54.4,-0.1378505,-0.04273003,0.1158489,-0.4533052,-4.170357,0.04024329,0.6497718,1.586657,0.3406584,-0.1317212,0.03019081,-0.1177731,-0.7297445,0.3611651,0.1581635,0.8025948,1.61099,0.1795142,0.3349151,1.378375,0.2300298,281.5726,127.5861,102.2145,True
1,0.9555568,-0.2330333,0.1807643,-0.01852721,-1.310204,-4.314168,-2.817762,0.5683666,1.34177,0.4475586,-1.788712,-0.02276165,11.8,54.4,-0.1294499,-0.03521609,0.09876309,-0.4529185,-4.170603,0.04165983,0.6493589,1.586712,0.3407977,-0.1349004,0.01738511,-0.1124801,-0.7308593,0.3606321,0.1602232,0.802317,1.610867,0.1797831,0.3341185,1.379056,0.2294482,281.6703,127.574,101.9806,True
1,0.9666679,-0.2287454,0.1680024,-0.01736819,-1.310525,-4.315654,-2.814939,0.5676506,1.341736,0.4474237,-1.788437,0.02524363,13.5,77.4,-0.1231592,-0.03091175,0.08488435,-0.4524823,-4.171141,0.04339168,0.6489812,1.58666,0.3409832,-0.1285435,0.01738848,-0.1167931,-0.7322723,0.3612736,0.1609484,0.8021393,1.610735,0.1800973,0.3332127,1.379784,0.2290604,281.7375,127.2966,102.1141,True
1,0.977779,-0.2169917,0.158494,-0.01198351,-1.3111,-4.317197,-2.812618,0.5669416,1.341673,0.4474099,-1.787887,0.04929877,13.5,77.4,-0.1179783,-0.02658498,0.06355283,-0.4525733,-4.171439,0.044817,0.6485775,1.586691,0.3412271,-0.1052662,0.03662139,-0.1424622,-0.7345797,0.3634533,0.1596211,0.8018412,1.610596,0.180548,0.3322662,1.380536,0.2289525,281.7922,126.8778,102.5142,True
1,0.9888902,-0.2073839,0.1564664,-0.00132852,-1.312,-4.318684,-2.810254,0.5663326,1.341608,0.4473369,-1.786808,0.09709268,13.5,77.4,-0.1106304,-0.02440157,0.04753221,-0.4525771,-4.171852,0.04621117,0.6482313,1.586574,0.3414769,-0.09568085,0.04726212,-0.1456812,-0.7362346,0.3652893,0.1591332,0.8016065,1.610758,0.1808586,0.3313643,1.381238,0.22913,281.8282,126.1893,103.3043,True
1,1.000001,-0.2031068,0.1565655,0.009315521,-1.313006,-4.320327,-2.807714,0.565676,1.34157,0.4473104,-1.785728,0.09646657,13.5,77.4,-0.10963,-0.024376,0.03793356,-0.4525504,-4.172573,0.04804955,0.6478471,1.586602,0.3416762,-0.07201191,0.05027217,-0.1181609,-0.7364125,0.3663708,0.1582291,0.8013191,1.610679,0.1811852,0.3304366,1.381852,0.2295054,281.8746,125.3901,104.2507,True
1,1.011112,-0.1871072,0.1631768,0.03267874,-1.314796,-4.32197,-2.805768,0.5652243,1.341465,0.4472966,-1.783504,0.2006433,13.5,77.4,-0.09479286,-0.03072513,0.02609591,-0.4526697,-4.173878,0.04981815,0.6475667,1.586551,0.3419137,-0.06970486,0.03736047,-0.09053738,-0.7363459,0.3664102,0.1590983,0.800958,1.61066,0.1815481,0.329448,1.382302,0.2300367,281.9034,124.5756,105.217,True
1,1.022224,-0.1807054,0.1643217,0.04118408,-1.316094,-4.32355,-2.803575,0.5646253,1.341377,0.4472492,-1.780587,0.2626465,15.4,92.5,-0.08520423,-0.03817709,0.02601272,-0.4523725,-4.17549,0.05194256,0.6472729,1.586569,0.3422022,-0.07473403,0.03507502,-0.05321921,-0.7355565,0.3666952,0.159921,0.8006634,1.610591,0.1818399,0.3283483,1.382539,0.2306431,281.8746,123.947,106.0207,True
1,1.033335,-0.1700229,0.160192,0.05505044,-1.317639,-4.324776,-2.801776,0.5641174,1.341362,0.4472952,-1.777795,0.2504148,15.4,92.5,-0.07453077,-0.04882928,0.02804215,-0.4520386,-4.177639,0.05433035,0.6469845,1.58665,0.3424597,-0.07671615,0.03925671,-0.03506632,-0.7350665,0.3673824,0.1605007,0.8002427,1.610607,0.1821225,0.3271145,1.38254,0.2312705,281.791,123.6673,106.4822,True
1,1.044446,-0.1593252,0.1442949,0.06261887,-1.318917,-4.32547,-2.800187,0.5635224,1.341355,0.4473317,-1.773695,0.3697093,15.4,92.5,-0.06918795,-0.05415744,0.03012074,-0.4516865,-4.179402,0.05656927,0.6467066,1.586771,0.3427072,-0.07038585,0.04247528,-0.04362595,-0.7357638,0.3684336,0.1602807,0.7999442,1.610563,0.1824796,0.3258162,1.382248,0.2319141,281.6542,123.604,106.7433,True
1,1.055557,-0.1486248,0.1251727,0.06701049,-1.319985,-4.32581,-2.798831,0.5629796,1.341352,0.4472876,-1.769482,0.3786066,15.4,92.5,-0.06170693,-0.06161499,0.03324383,-0.4512742,-4.18142,0.05885932,0.6464503,1.586881,0.3430057,-0.06628334,0.03828608,-0.06178936,-0.7370335,0.3691462,0.1603439,0.7996632,1.610522,0.1828182,0.3244107,1.381666,0.2325021,281.4965,123.9005,106.6357,True
1,1.066668,-0.1378551,0.07300504,0.06846659,-1.320443,-4.324538,-2.798037,0.5624033,1.341489,0.4472883,-1.764595,0.439937,13.8,100,-0.05745322,-0.0690577,0.03106189,-0.4511081,-4.183557,0.06124685,0.6461896,1.586883,0.343267,-0.06866214,0.02456399,-0.08847508,-0.7392983,0.3693402,0.1610475,0.7995901,1.610427,0.1831729,0.3229647,1.380792,0.2330326,281.3036,124.5836,106.1126,True
1,1.077779,-0.1282013,0.04000562,0.0687087,-1.320995,-4.323808,-2.797024,0.5618474,1.341545,0.447274,-1.75918,0.4872076,13.8,100,-0.05004968,-0.07222954,0.02248066,-0.451238,-4.18581,0.06354728,0.6459025,1.586985,0.3435276,-0.07303639,0.02250557,-0.102304,-0.7409766,0.3699385,0.1615239,0.7993532,1.610389,0.1834331,0.3214876,1.379638,0.2334577,281.0889,125.5434,105.3007,True
1,1.08889,-0.1217629,0.01656683,0.06674992,-1.321426,-4.322989,-2.796084,0.561294,1.341634,0.4472828,-1.753285,0.5303938,13.8,100,-0.0543145,-0.06051325,0.02360266,-0.4510026,-4.186268,0.06478858,0.6456156,1.586976,0.3438072,-0.06562743,0.02250449,-0.1066224,-0.7422011,0.3705758,0.1617149,0.7991303,1.610423,0.1837513,0.3200393,1.37821,0.233735,280.8531,126.816,104.1775,True
1,1.100002,-0.1153384,-0.007960218,0.06160344,-1.321643,-4.322052,-2.795062,0.5608606,1.341699,0.4473639,-1.746592,0.602661,13.8,100,-0.06392635,-0.04772649,0.02157458,-0.4507975,-4.186421,0.06598727,0.6453846,1.586983,0.3440888,-0.04743716,0.02348016,-0.09717808,-0.7429239,0.3711048,0.1612038,0.7987993,1.610402,0.1840975,0.3186953,1.376509,0.2338058,280.624,128.4316,102.6643,True
1,1.111113,-0.1142447,-0.02396946,0.05746126,-1.321818,-4.321136,-2.794068,0.5603607,1.341748,0.4473562,-1.739525,0.6359044,13.8,100,-0.0660331,-0.04028527,0.02587001,-0.4503837,-4.187069,0.06736759,0.6451357,1.587003,0.3443091,-0.03880641,0.03193219,-0.08655636,-0.7434182,0.3721838,0.1605383,0.7984803,1.610385,0.1844378,0.3174314,1.374568,0.2336735,280.4271,130.3373,100.7558,True
1,1.122224,-0.113176,-0.02932289,0.05430493,-1.322121,-4.320444,-2.792958,0.5599024,1.341734,0.4474163,-1.731779,0.6973041,11.4,100,-0.05111961,-0.03494933,0.02685302,-0.4500497,-4.187606,0.06798704,0.6449134,1.586943,0.3445888,-0.02372529,0.04567268,-0.07062182,-0.7431407,0.3737757,0.1590967,0.7980785,1.610426,0.1847115,0.3162373,1.372421,0.2334072,280.2581,132.4949,98.50845,True
1,1.133335,-0.1206138,-0.03677689,0.05650061,-1.322521,-4.319583,-2.791563,0.5593983,1.34174,0.4474277,-1.72369,0.7278483,11.4,100,-0.04155498,-0.03280566,0.02360024,-0.4499123,-4.188375,0.06884724,0.6446949,1.58696,0.3448329,-0.007677397,0.04879407,-0.06328105,-0.7434971,0.3748301,0.1578874,0.7977713,1.610405,0.1849892,0.3151094,1.370098,0.233093,280.1127,134.8586,96.01729,True
1,1.144446,-0.1195381,-0.04316596,0.05654695,-1.322871,-4.318691,-2.790446,0.5589279,1.341768,0.4473989,-1.714995,0.7826729,11.4,100,-0.03836551,-0.03386677,0.02251686,-0.4496369,-4.189396,0.07011784,0.6445451,1.586975,0.3450696,0.005202951,0.04230335,-0.04849854,-0.7434555,0.3752323,0.1572693,0.7974892,1.610376,0.1853943,0.3139552,1.367641,0.2327711,279.989,137.2942,93.44807,True
1,1.155557,-0.1248512,-0.0463524,0.05870514,-1.323284,-4.317891,-2.789107,0.5584204,1.341755,0.4473484,-1.705563,0.849287,11.4,100,-0.03732815,-0.0306612,0.01826198,-0.4495288,-4.189997,0.07101931,0.6444145,1.586915,0.3453326,0.0180029,0.03480035,-0.04437611,-0.7437969,0.3756292,0.1563497,0.7972159,1.610364,0.1856661,0.3127356,1.365065,0.2325203,279.8674,139.8079,90.81462,True
1,1.166668,-0.1248409,-0.05489391,0.05663985,-1.323502,-4.316789,-2.787911,0.5578787,1.341723,0.4473307,-1.696179,0.8439645,9.1,100,-0.03628731,-0.03704015,0.01397559,-0.449556,-4.191387,0.07264491,0.6442688,1.586894,0.3456109,0.02329463,0.02946249,-0.04657359,-0.7444111,0.3757828,0.1559049,0.7970436,1.610343,0.1859698,0.3113929,1.362407,0.2323553,279.7295,142.5318,88.02969,True
1,1.17778,-0.1312162,-0.06022795,0.05775923,-1.323879,-4.315688,-2.786554,0.557304,1.341755,0.4473312,-1.685919,0.9237775,9.1,100,-0.03312074,-0.04980748,0.008591544,-0.449711,-4.193672,0.0750082,0.6440961,1.586946,0.3459542,0.0264817,0.02945928,-0.04766499,-0.7449234,0.3763912,0.155041,0.7967944,1.610302,0.1862667,0.3099457,1.35966,0.2322947,279.6002,145.4009,85.16537,True
1,1.188891,-0.134406,-0.06235702,0.05884569,-1.324238,-4.31471,-2.785202,0.5568138,1.341738,0.447253,-1.675467,0.9405492,9.1,100,-0.02463716,-0.05617563,0.002124997,-0.4499693,-4.195546,0.0766812,0.643935,1.586911,0.3462222,0.03063551,0.02844148,-0.06048771,-0.7459797,0.377069,0.1540663,0.7965573,1.610259,0.1865664,0.3083994,1.356809,0.232334,279.4854,148.389,82.22831,True
1,1.200002,-0.1386696,-0.05809476,0.06095489,-1.324849,-4.313891,-2.783781,0.5562544,1.34176,0.4472475,-1.664343,1.001491,9.1,100,-0.0257916,-0.06572629,-0.0117451,-0.4506883,-4.197857,0.07912065,0.6437633,1.586859,0.3464823,0.03487942,0.02950596,-0.06263958,-0.7466103,0.3778011,0.1531112,0.796378,1.610201,0.1868272,0.3067889,1.353827,0.2324602,279.3916,151.5279,79.16142,True
1,1.211113,-0.1408107,-0.05169123,0.06303915,-1.32544,-4.313285,-2.782317,0.5557873,1.341732,0.4471638,-1.652969,1.02343,9.1,100,-0.03751952,-0.05934092,-0.01271394,-0.450887,-4.198892,0.08084585,0.643605,1.586879,0.34675,0.03076022,0.0305104,-0.04555589,-0.7464857,0.3784775,0.1524122,0.7961599,1.610138,0.1870949,0.3051274,1.350714,0.2326454,279.3126,154.9767,75.80245,True
1,1.222224,-0.1408191,-0.04313132,0.06830502,-1.326319,-4.312762,-2.780957,0.5553046,1.341666,0.4471171,-1.64119,1.060187,6.3,100,-0.04391079,-0.0508226,-0.01157755,-0.4509158,-4.199357,0.08198488,0.6435157,1.586917,0.3469663,0.03396807,0.02410324,-0.04241627,-0.7468377,0.3788038,0.1516486,0.7959443,1.610098,0.1874018,0.3034531,1.347462,0.2328679,279.268,158.6783,72.20395,True
1,1.233335,-0.140847,-0.02711708,0.07243999,-1.327249,-4.312719,-2.779405,0.5548699,1.341582,0.4469905,-1.629124,1.085882,6.3,100,-0.05128092,-0.03915138,0.002355667,-0.4504311,-4.199684,0.0830576,0.6434048,1.586943,0.3471806,0.03822369,0.02302328,-0.04138839,-0.7471472,0.3792517,0.1509301,0.7957925,1.610137,0.1875985,0.3017644,1.344089,0.2331159,279.2625,162.5896,68.38622,True
1,1.244446,-0.141927,-0.01856273,0.07663495,-1.328167,-4.312449,-2.777795,0.5544633,1.341503,0.446857,-1.616902,1.099858,6.3,100,-0.04809971,-0.03168759,0.001291756,-0.4504529,-4.199945,0.08375349,0.6432594,1.586955,0.3474116,0.03496706,0.02413274,-0.04881062,-0.7478215,0.3799059,0.1502342,0.7956523,1.610066,0.1877768,0.3000937,1.340599,0.2333875,279.2999,166.5778,64.49702,True
1,1.255558,-0.1483352,-0.01112712,0.07551541,-1.328834,-4.312279,-2.776033,0.5540917,1.341483,0.446666,-1.604128,1.149776,6.3,100,-0.05022833,-0.03488597,0.001296628,-0.4505008,-4.201154,0.08547842,0.6431495,1.586903,0.3475726,0.03061955,0.01458223,-0.05521056,-0.7486769,0.3798705,0.150222,0.7954787,1.610025,0.1880226,0.2984418,1.336992,0.2336843,279.3727,170.5487,60.61887,True
1,1.266669,-0.1494014,-0.01221111,0.07339468,-1.329461,-4.311853,-2.774454,0.5536931,1.341438,0.4465258,-1.590976,1.183792,6.3,100,-0.05235445,-0.03169455,0.002387391,-0.4504673,-4.201792,0.08674502,0.6431974,1.586886,0.3478231,0.03166467,-0.003544807,-0.05210561,-0.7492293,0.3790365,0.150451,0.7953343,1.609973,0.1882303,0.2967944,1.333277,0.2340033,279.4874,174.5405,56.73144,True
1,1.27778,-0.1579269,-0.01011411,0.07125821,-1.330096,-4.311523,-2.772558,0.5533172,1.341357,0.4463909,-1.577538,1.209498,5.2,100,-0.04592612,-0.03064359,0.008741725,-0.4501477,-4.202536,0.08775995,0.643229,1.586777,0.348033,0.03702618,-0.006771959,-0.04683003,-0.7494609,0.3789285,0.1499187,0.7952082,1.609898,0.1883888,0.2951725,1.329461,0.2343342,279.657,178.5872,52.81028,True
1,1.288891,-0.1621828,-0.01332711,0.07022391,-1.330692,-4.311,-2.770759,0.5529057,1.34133,0.4462936,-1.564119,1.207523,5.2,100,-0.04055063,-0.04131136,0.01506748,-0.4498537,-4.204454,0.0897677,0.6432585,1.586783,0.3483133,0.0348936,-0.009971585,-0.04575602,-0.7498583,0.3786825,0.1498028,0.7950847,1.609806,0.1885831,0.2935892,1.325567,0.2346576,279.9018,182.5732,48.9549,True
1,1.300002,-0.1707167,-0.0112202,0.06915542,-1.331389,-4.310709,-2.768608,0.5524589,1.341302,0.4462626,-1.550112,1.261171,5.2,100,-0.03096405,-0.07112537,0.01279075,-0.4499048,-4.208436,0.09346949,0.6432916,1.586744,0.3486249,0.03284334,-0.00254317,-0.03824799,-0.7500005,0.3790505,0.1492531,0.7949353,1.609746,0.188823,0.2920753,1.321599,0.2349789,280.198,186.2935,45.34286,True
1,1.311113,-0.1792364,-0.01338838,0.06705453,-1.331959,-4.310212,-2.766514,0.552036,1.341342,0.4463091,-1.536234,1.248725,5.2,100,-0.02037144,-0.09132633,0.002007626,-0.4504375,-4.212112,0.09668952,0.6433123,1.586718,0.348901,0.02867968,-0.002578046,-0.02649507,-0.7498854,0.3791881,0.1489647,0.7948041,1.609757,0.1891198,0.290625,1.317575,0.2352971,280.5358,189.8267,41.89418,True
1,1.322224,-0.1845631,-0.01339514,0.06706166,-1.332597,-4.309852,-2.764405,0.5515455,1.34135,0.4462605,-1.521912,1.289354,4.5,99.8,-0.02256178,-0.08597891,-0.005417507,-0.4507688,-4.213737,0.09856892,0.6432823,1.586629,0.3492012,0.02877379,0.00804417,-0.01899451,-0.7497928,0.3799801,0.1480036,0.7947015,1.609746,0.1894805,0.289223,1.313519,0.2356184,280.9197,193.1387,38.63623,True
1,1.333336,-0.1909382,-0.02732072,0.0586548,-1.332617,-4.309006,-2.762269,0.5510994,1.341416,0.4462552,-1.507735,1.275717,4.5,99.8,-0.02897549,-0.0731941,-0.007469729,-0.4509632,-4.214587,0.09987094,0.6432694,1.586607,0.3494396,0.0255281,0.005931852,-0.0232314,-0.7501091,0.3798226,0.1480883,0.7946355,1.609718,0.189687,0.2878478,1.309466,0.2359721,281.349,196.259,35.54398,True
1,1.344447,-0.1930593,-0.04018943,0.04810468,-1.332471,-4.308142,-2.760273,0.5506034,1.341541,0.4461699,-1.493498,1.281351,4.5,99.8,-0.03748357,-0.04018889,-0.001989251,-0.4506793,-4.213068,0.09920062,0.6433271,1.586597,0.3496649,0.02866028,-0.003634397,-0.02863133,-0.7507622,0.3795781,0.1477564,0.794651,1.609682,0.1899171,0.2865033,1.305447,0.2363842,281.8082,199.1334,32.70691,True
1,1.355558,-0.1951757,-0.05088687,0.04286548,-1.332459,-4.307162,-2.758267,0.5501578,1.341636,0.4461441,-1.479001,1.304955,4.5,99.8,-0.04383557,-0.02636514,0.005544014,-0.4504348,-4.212887,0.09973192,0.6434648,1.586569,0.3498833,0.02969084,-0.003624823,-0.03183078,-0.7511457,0.3795294,0.1475559,0.7946327,1.609637,0.1901562,0.2851595,1.301468,0.2368407,282.2711,201.7235,30.19548,True
1,1.366669,-0.2036669,-0.06906833,0.03556229,-1.332122,-4.305813,-2.756092,0.5497512,1.341869,0.4460468,-1.464555,1.299829,4.5,99.8,-0.05657497,-0.01680674,0.01311343,-0.4500071,-4.212557,0.1005309,0.6435872,1.586599,0.3500917,0.03490815,-0.0270382,-0.03837495,-0.7519851,0.3782293,0.1478627,0.7946445,1.609589,0.1903405,0.2838651,1.297511,0.2373302,282.7576,204.0084,28.02259,True
1,1.37778,-0.2079082,-0.08079943,0.03459049,-1.331974,-4.304546,-2.753867,0.5493533,1.341934,0.4460034,-1.449764,1.331359,3.5,91.6,-0.05648617,-0.0264376,0.02693198,-0.4493626,-4.214392,0.1029205,0.6437972,1.586628,0.350425,0.03482775,-0.0376662,-0.04374956,-0.7527601,0.3772427,0.148329,0.7946457,1.609587,0.1905549,0.2826198,1.293554,0.237824,283.2613,206.0428,26.09989,True
1,1.388891,-0.2100292,-0.08829367,0.03039016,-1.331695,-4.303277,-2.751754,0.5489637,1.342148,0.4459636,-1.434564,1.368277,3.5,91.6,-0.04790846,-0.04775634,0.03320598,-0.4488992,-4.217389,0.1058774,0.6440043,1.586712,0.3507395,0.03696041,-0.03340558,-0.04481304,-0.7533028,0.3770252,0.1480161,0.7946423,1.609554,0.1908011,0.2814757,1.289565,0.2383254,283.7761,207.9867,24.26382,True
1,1.400002,-0.216419,-0.08616042,0.03251442,-1.331786,-4.302267,-2.74942,0.5485851,1.34242,0.4459438,-1.419436,1.361421,3.5,91.6,-0.03299003,-0.07011003,0.03091269,-0.4488082,-4.220889,0.1088277,0.644171,1.586901,0.3510206,0.03908347,-0.02913658,-0.04694043,-0.7539026,0.3769906,0.1475335,0.7946254,1.609566,0.1910815,0.2804463,1.285532,0.2387952,284.3276,209.7992,22.55617,True
1,1.411114,-0.2164122,-0.08612615,0.03677015,-1.331882,-4.301175,-2.747298,0.5482243,1.342617,0.445914,-1.404352,1.357324,3.5,91.6,-0.023369,-0.0786385,0.03508554,-0.4484039,-4.223711,0.111297,0.6443766,1.586996,0.3513052,0.03476562,-0.02909817,-0.05329556,-0.7547111,0.3767127,0.1475727,0.7946163,1.609503,0.1913381,0.2795299,1.281437,0.2392291,284.8969,211.4476,20.97372,True
1,1.422225,-0.2196141,-0.08081052,0.03673929,-1.332017,-4.300259,-2.745053,0.5477931,1.342762,0.4459035,-1.388902,1.39087,2.6,94.7,-0.02442741,-0.0839683,0.03613884,-0.448137,-4.226138,0.1138621,0.6446143,1.587137,0.3515804,0.03479361,-0.03017266,-0.05010895,-0.7552373,0.3764326,0.1473466,0.7946165,1.609468,0.1915677,0.2787031,1.277294,0.2396372,285.5151,213.0234,19.41641,True
1,1.433336,-0.2270789,-0.07872116,0.03353292,-1.331872,-4.299411,-2.742486,0.5474623,1.342996,0.4459124,-1.373674,1.370139,2.6,94.7,-0.02648444,-0.08826332,0.04679217,-0.4474057,-4.228954,0.1167961,0.6448679,1.58724,0.3518577,0.03908732,-0.02913841,-0.04587955,-0.7556432,0.3760859,0.1470893,0.7946482,1.609564,0.191782,0.2779292,1.273133,0.240048,286.1644,214.5589,17.87719,True
1,1.444447,-0.2313473,-0.07448088,0.03244269,-1.33191,-4.298563,-2.740039,0.5471432,1.343192,0.445883,-1.358124,1.399679,2.6,94.7,-0.03179923,-0.09678932,0.04786826,-0.447002,-4.23211,0.1202154,0.6450791,1.587285,0.3521914,0.04549259,-0.02702908,-0.04485155,-0.756048,0.3758036,0.1465974,0.7945194,1.609511,0.1921463,0.2771926,1.268952,0.2404887,286.7989,215.9377,16.4997,True
1,1.455558,-0.2430756,-0.06701324,0.03666156,-1.332228,-4.297875,-2.737144,0.5468134,1.343403,0.445919,-1.342377,1.417602,2.6,94.7,-0.01907488,-0.09249644,0.03927363,-0.4469434,-4.234188,0.1218556,0.645288,1.587339,0.3525701,0.04761826,-0.03236572,-0.04382793,-0.7565694,0.3751135,0.1465194,0.7944789,1.609522,0.1924412,0.2764635,1.264748,0.240985,287.4351,217.2103,15.23496,True
1,1.466669,-0.248435,-0.04887575,0.04078944,-1.332771,-4.297752,-2.734271,0.5465034,1.343571,0.4459281,-1.327106,1.374032,2.6,94.7,-0.006381661,-0.08925606,0.02641349,-0.4471927,-4.23621,0.1234005,0.6454754,1.587397,0.3530059,0.04969024,-0.03127188,-0.05129739,-0.7574366,0.3748485,0.1460952,0.7944304,1.609544,0.1927755,0.2757728,1.260555,0.2415701,288.1104,218.4253,14.05422,True
1,1.47778,-0.2644814,-0.02012566,0.04271644,-1.333461,-4.298226,-2.730618,0.5462824,1.343796,0.4459827,-1.311427,1.411829,3.6,76.8,-0.003204577,-0.08605029,0.02426926,-0.4471005,-4.238166,0.1251449,0.645758,1.587422,0.3533757,0.0529002,-0.0291542,-0.05024876,-0.7580038,0.3746014,0.1455852,0.7943578,1.609581,0.193119,0.2751225,1.256403,0.2422456,288.7932,219.5946,12.94682,True
1,1.488891,-0.2709002,-0.007355997,0.04262713,-1.334028,-4.298333,-2.727394,0.5459933,1.344003,0.4459798,-1.296311,1.35989,3.6,76.8,-0.002088927,-0.07542099,0.03281473,-0.4465322,-4.239414,0.1262301,0.6460857,1.58754,0.3537095,0.05512287,-0.01852714,-0.04275383,-0.7580475,0.375168,0.1444424,0.7942165,1.609676,0.1934447,0.2744827,1.252336,0.2429995,289.4769,220.7617,11.85565,True
1,1.500003,-0.2730571,0.001113819,0.036162,-1.334162,-4.298516,-2.724257,0.5456387,1.344335,0.4459159,-1.280526,1.421683,3.6,76.8,-0.006176233,-0.08296084,0.0583876,-0.4452219,-4.242845,0.1296011,0.6466213,1.587608,0.3541007,0.06386575,-0.01440389,-0.0172386,-0.7573306,0.3749945,0.1435329,0.7941195,1.609695,0.1937208,0.2738378,1.248385,0.2438426,290.1359,221.8706,10.83255,True
1,1.511114,-0.2741067,-0.007426981,0.03409693,-1.334276,-4.29804,-2.721305,0.5452102,1.344702,0.4459527,-1.265683,1.334925,3.6,76.8,0.02054454,-0.09789412,0.06988595,-0.4442691,-4.246829,0.1321104,0.6471103,1.587757,0.3545847,0.07567544,-0.02302367,-0.002460415,-0.7568949,0.3740692,0.143052,0.7941234,1.609744,0.1940358,0.2731711,1.244599,0.2447843,290.7874,222.9487,9.869707,True
1,1.522225,-0.2815392,-0.02346751,0.02890654,-1.334092,-4.297165,-2.718151,0.544799,1.345023,0.4458933,-1.250734,1.345477,3.6,76.8,0.03649373,-0.1159703,0.06333929,-0.4440358,-4.251048,0.1349376,0.6475862,1.587899,0.3549814,0.08316144,-0.03906047,0.005927872,-0.7566872,0.372605,0.1429164,0.7940831,1.609745,0.1942539,0.272468,1.240979,0.2457801,291.3989,223.9037,9.082342,True
1,1.533336,-0.2932015,-0.05335034,0.02489562,-1.333607,-4.295603,-2.714862,0.5443299,1.345525,0.4458399,-1.237531,1.188308,3.9,93.1,0.05774435,-0.1457484,0.05138983,-0.4443202,-4.256907,0.1388484,0.6481839,1.588112,0.3553727,0.08530305,-0.05187343,0.01117872,-0.7565337,0.3710585,0.1430165,0.7940555,1.609752,0.1944873,0.27174,1.237589,0.2467712,292.0453,224.7814,8.397553,False
1,1.544447,-0.3112636,-0.08863433,0.01240497,-1.332428,-4.293807,-2.711118,0.5438848,1.346046,0.4457757,-1.225835,1.053051,3.9,93.1,0.05993882,-0.1574897,0.0598643,-0.4436965,-4.262193,0.1428746,0.6488075,1.588345,0.355705,0.09396058,-0.06370101,0.03129524,-0.755706,0.369193,0.1430706,0.7941872,1.60973,0.1947019,0.2710499,1.234545,0.2476833,292.6967,225.5642,7.82215,False
1,1.555558,-0.3314451,-0.1271534,-0.00324735,-1.330836,-4.291493,-2.707289,0.5433718,1.346704,0.4457266,-1.215742,0.9086484,3.9,93.1,0.05267696,-0.1479881,0.08977083,-0.4418989,-4.265804,0.1458272,0.6494859,1.588593,0.355967,0.09394917,-0.06582988,0.03022645,-0.7554823,0.3679491,0.1429239,0.794242,1.609625,0.1949112,0.2704363,1.23198,0.2483933,293.316,226.2189,7.381757,False
1,1.566669,-0.3569407,-0.1656142,-0.009304322,-1.329283,-4.288688,-2.703115,0.5427673,1.34737,0.4455664,-1.206865,0.7994025,3.9,93.1,0.04956944,-0.1288583,0.1047621,-0.4403095,-4.268313,0.1476299,0.6501508,1.588868,0.3562679,0.09177833,-0.07326005,0.02700943,-0.7554978,0.3665668,0.1428802,0.7943578,1.609563,0.1949742,0.2699335,1.230032,0.2487896,293.8704,226.6435,7.115924,False
1,1.577781,-0.3856435,-0.1965933,-0.01222103,-1.327779,-4.285885,-2.698543,0.5422552,1.348011,0.4454529,-1.199505,0.6624048,4,88.3,0.03908214,-0.09485739,0.1326302,-0.4379297,-4.26908,0.1481993,0.6509126,1.58906,0.3564918,0.09909667,-0.08601758,0.01410523,-0.7560629,0.3643275,0.1431561,0.794692,1.609547,0.1951458,0.2695424,1.228801,0.2488075,294.3048,226.7493,7.055282,False
1,1.588892,-0.4271406,-0.2255103,-0.02046083,-1.325882,-4.282951,-2.693224,0.5417151,1.348796,0.4453566,-1.192986,0.5871297,4,88.3,0.02110755,-0.08321125,0.1540898,-0.4355621,-4.271163,0.1504846,0.6517373,1.589313,0.3567402,0.1191326,-0.1040911,-0.005317979,-0.7570845,0.3618833,0.1429287,0.7949558,1.609563,0.1952262,0.2692218,1.228339,0.2484173,294.5739,226.5833,7.146112,False
1,1.600003,-0.4516292,-0.2384038,-0.02778697,-1.324015,-4.280379,-2.687998,0.541226,1.34959,0.4451389,-1.187416,0.5015541,4,88.3,0.01795945,-0.09282301,0.160471,-0.4339312,-4.275422,0.1542146,0.6525306,1.589608,0.3571556,0.1371501,-0.1126202,-0.01402772,-0.7577593,0.3597308,0.1423396,0.7951704,1.609579,0.1953642,0.2689305,1.228621,0.247608,294.6456,226.2352,7.334751,False
1,1.611114,-0.492121,-0.2385471,-0.03518454,-1.322275,-4.278198,-2.681716,0.5407145,1.350373,0.4449713,-1.182274,0.4635989,4,88.3,0.03388226,-0.1172844,0.1496417,-0.4330119,-4.281087,0.1583979,0.6534271,1.589815,0.357517,0.1508574,-0.1264544,-0.0269806,-0.7587112,0.3570256,0.1421657,0.7952305,1.609679,0.1954637,0.2687122,1.229576,0.2464596,294.5408,225.7084,7.616044,False
1,1.622225,-0.5177271,-0.2172793,-0.03317863,-1.321283,-4.276772,-2.675482,0.5402235,1.350993,0.4448476,-1.178731,0.318104,4,88.3,0.04015703,-0.135338,0.1303741,-0.4325741,-4.286478,0.1626179,0.6544106,1.590021,0.3579304,0.1581593,-0.1253207,-0.0462117,-0.7601242,0.3553216,0.1413553,0.7954361,1.609699,0.1956117,0.2685238,1.231128,0.2450484,294.3406,225.0133,7.996733,False
1,1.633336,-0.5572016,-0.185366,-0.02804427,-1.320698,-4.275974,-2.66816,0.5398049,1.351712,0.4445212,-1.17473,0.3614956,4.2,82.9,0.04006325,-0.1502034,0.1143602,-0.4320617,-4.291691,0.1668787,0.6553578,1.590281,0.3583248,0.1835362,-0.1370071,-0.06565358,-0.7618292,0.3530812,0.1400927,0.7957766,1.610112,0.1958218,0.2683299,1.233157,0.2434864,294.0334,224.1678,8.488262,False
1,1.644447,-0.5956219,-0.1524101,-0.02611633,-1.320181,-4.275506,-2.660344,0.5393181,1.352526,0.4442515,-1.17229,0.2186717,4.2,82.9,0.03799407,-0.1576861,0.1228753,-0.4307546,-4.297128,0.1714692,0.6563836,1.590561,0.3587232,0.1932302,-0.1466912,-0.04979677,-0.7620907,0.3502793,0.1396596,0.7959185,1.610139,0.195991,0.2680452,1.235546,0.2418879,293.6575,223.2937,8.987235,False
1,1.655559,-0.6222805,-0.1364573,-0.02194275,-1.319578,-4.274637,-2.65273,0.5388442,1.353286,0.4439092,-1.169242,0.2758089,4.2,82.9,0.03918885,-0.1918209,0.1387544,-0.4291855,-4.306075,0.1791168,0.6575631,1.590864,0.3590963,0.2115633,-0.1415323,-0.02541034,-0.761533,0.3479226,0.1382519,0.7960072,1.610146,0.1961076,0.267631,1.238174,0.2403785,293.2051,222.516,9.4424,False
1,1.66667,-0.6724302,-0.09925927,-0.01896378,-1.31947,-4.274785,-2.643407,0.5383761,1.354156,0.4434934,-1.16696,0.2053309,4.2,82.9,0.07989019,-0.2579181,0.1649267,-0.4274246,-4.319445,0.1889665,0.6588393,1.591174,0.3595603,0.2223025,-0.1448143,-0.01378814,-0.7613301,0.3452629,0.1374103,0.7961712,1.610297,0.1961155,0.2670292,1.240979,0.2389916,292.7894,221.9282,9.824984,False
1,1.677781,-0.7001514,-0.07901906,-0.01055184,-1.319527,-4.2744,-2.634966,0.537892,1.355012,0.4432569,-1.165569,0.1246918,3.7,64.6,0.0862546,-0.2866569,0.158408,-0.4267609,-4.32955,0.1970569,0.6599706,1.591345,0.3600283,0.2296463,-0.1650395,-0.02139782,-0.7621589,0.3417422,0.1371427,0.7964039,1.610361,0.196147,0.2662457,1.243946,0.2377473,292.4207,221.3785,10.26871,False
1,1.688892,-0.7332137,-0.05235883,0.002074197,-1.320129,-4.274523,-2.625581,0.5373347,1.355883,0.4428291,-1.162952,0.2376354,3.7,64.6,0.07974118,-0.3079098,0.1381502,-0.426795,-4.339767,0.2057183,0.6609616,1.591752,0.3604493,0.2230517,-0.1979796,-0.03641103,-0.7636103,0.3372374,0.1381139,0.7968427,1.610435,0.1961565,0.2653562,1.247041,0.236625,292.0494,220.8233,10.80603,False
1,1.700003,-0.7406628,-0.05125901,0.009541273,-1.320151,-4.273715,-2.617363,0.5367513,1.356937,0.4424388,-1.162606,0.02915572,3.7,64.6,0.07232782,-0.3089968,0.1445875,-0.4257063,-4.348786,0.2133823,0.6618751,1.592162,0.3607695,0.2090811,-0.2256067,-0.04281306,-0.7647853,0.3325399,0.1396333,0.7970427,1.610611,0.1963372,0.2643449,1.250322,0.2355645,291.7212,220.4092,11.23863,False
1,1.711114,-0.7406628,-0.05125901,0.009541273,-1.320151,-4.273715,-2.617363,0.5367513,1.356937,0.4424388,-1.161118,0.1354915,3.7,64.6,0.07232782,-0.3089968,0.1445875,-0.4257063,-4.348786,0.2133823,0.6618751,1.592162,0.3607695,0.2090811,-0.2256067,-0.04281306,-0.7647853,0.3325399,0.1396333,0.7970427,1.610611,0.1963372,0.2633296,1.253802,0.2345545,291.3364,219.966,11.71323,False
1,1.722225,-0.7331753,-0.05861442,0.0202423,-1.320234,-4.27263,-2.609856,0.5360111,1.358018,0.441982,-1.169475,-0.7657934,3.7,64.6,0.04903364,-0.2994905,0.1660844,-0.423776,-4.357424,0.2214003,0.662641,1.592592,0.3609354,0.2005076,-0.2287626,-0.04809017,-0.7659976,0.3288441,0.1403931,0.7972143,1.610485,0.1964827,0.2623937,1.25745,0.2335577,290.8374,219.4182,12.31889,False
1,1.733337,-0.7213787,-0.1001128,0.01843627,-1.31881,-4.268746,-2.587425,0.5338659,1.361126,0.4407554,-1.153483,1.468321,8.9,37.9,-0.004275292,-0.2228204,0.1666547,-0.4198346,-4.373682,0.2376352,0.6647827,1.594015,0.3614833,0.154859,-0.180729,-0.04323508,-0.767971,0.3224731,0.1411113,0.7976545,1.610628,0.1966188,0.261957,1.260742,0.2328347,290.0031,218.3384,13.38641,False
1,1.744448,-0.7192475,-0.1033369,0.01419672,-1.318093,-4.26762,-2.579931,0.5330058,1.362283,0.4402065,-1.152188,0.1049753,8.9,37.9,-0.03625263,-0.155736,0.1702559,-0.4176412,-4.372292,0.2380765,0.6650875,1.594569,0.3614173,0.1325672,-0.1785917,-0.03345498,-0.7681617,0.3198856,0.142482,0.7978511,1.610741,0.1965458,0.2606132,1.264148,0.2313905,290.1036,218.7886,13.02438,False
1,1.755559,-0.7256685,-0.1044457,0.005723387,-1.317619,-4.266983,-2.571632,0.5321895,1.363436,0.4398284,-1.160207,-0.732501,8.9,37.9,-0.05536859,-0.1163771,0.1832767,-0.4151964,-4.373622,0.2406504,0.6657944,1.595048,0.361486,0.121918,-0.1807003,-0.0323116,-0.7687614,0.3169959,0.1436656,0.7979615,1.610841,0.1965194,0.2587863,1.26834,0.2291626,290.4289,218.679,13.17544,False
1,1.76667,-0.724604,-0.107662,0.002558306,-1.316886,-4.26589,-2.564018,0.5312026,1.364468,0.4391723,-1.161039,-0.06977749,8.9,37.9,-0.07019537,-0.08340796,0.19945,-0.4122573,-4.374047,0.2424276,0.6660247,1.595544,0.3613532,0.1059765,-0.1753455,-0.03109129,-0.769293,0.3144364,0.1447607,0.7981009,1.611063,0.196501,0.2575942,1.273199,0.2268379,289.9958,217.2801,14.37171,False
1,1.777781,-0.7246202,-0.1013015,-0.001756832,-1.316218,-4.265303,-2.556208,0.5300422,1.365744,0.4384277,-1.159914,0.1024917,17.1,24.8,-0.08627849,-0.07379025,0.1857407,-0.4109476,-4.376313,0.2461352,0.6662441,1.596048,0.3613153,0.08779301,-0.176334,-0.03947555,-0.7704855,0.3115877,0.1465143,0.7981939,1.611176,0.1965086,0.2570084,1.278321,0.2246223,289.0654,215.4118,15.8504,False
1,1.788892,-0.7278269,-0.10569,-0.01664293,-1.314655,-4.264599,-2.548123,0.5287927,1.366726,0.437629,-1.159954,-0.004917456,17.1,24.8,-0.09602115,-0.06946599,0.163447,-0.4101689,-4.378318,0.2494405,0.66606,1.596474,0.3610833,0.07069359,-0.1773274,-0.04573142,-0.7715572,0.3088726,0.1483892,0.7982289,1.611271,0.196425,0.2566927,1.28337,0.2225618,288.067,213.4503,17.37999,False
1,1.800003,-0.7257146,-0.1111839,-0.03683853,-1.312792,-4.263879,-2.540209,0.5273126,1.367924,0.4369109,-1.159552,0.03666073,17.1,24.8,-0.1239334,-0.06726138,0.1316803,-0.4101252,-4.380074,0.253542,0.6657358,1.596877,0.3608348,0.03447749,-0.1537631,-0.05278622,-0.7726192,0.3080039,0.1500214,0.7980918,1.611512,0.1965101,0.2562489,1.288085,0.2205608,287.2366,211.5615,18.92935,False
1,1.811115,-0.7182551,-0.1197845,-0.04850571,-1.310957,-4.262982,-2.532709,0.5259354,1.369055,0.4363606,-1.15889,0.05998503,17.1,24.8,-0.1496809,-0.05655283,0.1073819,-0.4098658,-4.380806,0.2570579,0.6655115,1.597403,0.3605149,0.01003768,-0.1334706,-0.05142079,-0.7731604,0.3070549,0.1515435,0.7978902,1.611527,0.1964598,0.2554372,1.292345,0.2185897,286.6628,209.8772,20.36048,False
1,1.822226,-0.6937763,-0.117724,-0.06454271,-1.309109,-4.262824,-2.525977,0.5242428,1.370113,0.4356937,-1.158735,0.01350071,17.1,24.8,-0.1967443,0.01379158,0.08552548,-0.4090786,-4.373678,0.254656,0.6645328,1.597784,0.3601391,-0.03133231,-0.09825464,-0.04133938,-0.7732547,0.3075815,0.1531342,0.7977744,1.611687,0.1964438,0.2542325,1.296102,0.2166871,286.3007,208.311,21.73019,False
1,1.833337,-0.6873804,-0.1241616,-0.07196653,-1.307191,-4.262091,-2.518726,0.5227742,1.371166,0.435003,-1.158867,-0.0122446,17,18.7,-0.218144,0.04895946,0.07617833,-0.4081225,-4.36958,0.2541785,0.6640604,1.598223,0.3600004,-0.05466582,-0.07052422,-0.03675464,-0.7733415,0.3080357,0.1544415,0.7975984,1.611833,0.1963947,0.2527508,1.299431,0.2149553,286.1209,207.0183,22.84321,False
1,1.844448,-0.6437107,-0.1262395,-0.07734545,-1.305392,-4.261531,-2.513481,0.5207775,1.372122,0.4343522,-1.159588,-0.06599414,17,18.7,-0.261861,0.08196601,0.07336896,-0.4068687,-4.36447,0.2542155,0.663072,1.598577,0.3595817,-0.09268704,-0.008736387,-0.0159211,-0.7722672,0.3113342,0.1545659,0.7975451,1.612005,0.1963713,0.2511626,1.302421,0.2134908,286.0199,205.9767,23.74992,False
1,1.855559,-0.6139119,-0.1241029,-0.08594448,-1.303483,-4.261373,-2.50762,0.5188074,1.373075,0.4337296,-1.15873,0.07881844,17,18.7,-0.3076967,0.09260374,0.07156925,-0.4058625,-4.361529,0.2568041,0.6620185,1.598912,0.3592248,-0.1340447,0.028606,-0.004761875,-0.7716951,0.313732,0.1558365,0.7972879,1.612245,0.1965265,0.2494304,1.305146,0.2122722,285.9223,205.0746,24.59807,False
1,1.86667,-0.6139119,-0.1241029,-0.08594448,-1.303483,-4.261373,-2.50762,0.5188074,1.373075,0.4337296,-1.160378,-0.1516208,17,18.7,-0.3076967,0.09260374,0.07156925,-0.4058625,-4.361529,0.2568041,0.6620185,1.598912,0.3592248,-0.1340447,0.028606,-0.004761875,-0.7716951,0.313732,0.1558365,0.7972879,1.612245,0.1965265,0.2476195,1.307708,0.211222,285.8589,204.39,25.32338,False
1,1.877781,-0.5617266,-0.1391467,-0.1168026,-1.298415,-4.260643,-2.49728,0.5143853,1.374854,0.4323466,-1.165437,-0.461592,13.5,13.5,-0.3834513,0.1085857,0.05507847,-0.4045773,-4.355121,0.261851,0.6593839,1.599314,0.3580537,-0.19223,0.104271,0.02162712,-0.7696498,0.3202172,0.1573702,0.7969309,1.612364,0.1966302,0.2460369,1.310079,0.2104452,285.681,203.4753,26.30959,False
1,1.888893,-0.5255343,-0.136002,-0.1318043,-1.295859,-4.260739,-2.492823,0.5118674,1.375641,0.4314697,-1.154411,1.01155,13.5,13.5,-0.4123302,0.151219,0.04153932,-0.4038332,-4.346784,0.2598265,0.6575682,1.599506,0.357352,-0.2228881,0.1618256,0.03279408,-0.7682043,0.3258637,0.1570296,0.7965807,1.612501,0.1967087,0.2449023,1.311915,0.210065,285.3077,202.1315,27.66758,False
1,1.900004,-0.480817,-0.1285004,-0.1383196,-1.293726,-4.260941,-2.489217,0.5091752,1.376306,0.4306889,-1.158594,-0.3916865,13.5,13.5,-0.427434,0.1960223,0.01726604,-0.4036154,-4.336222,0.255537,0.6557222,1.599724,0.356683,-0.2483186,0.2012859,0.03744382,-0.7670016,0.3312566,0.1569856,0.7962482,1.612648,0.1967862,0.2419317,1.313771,0.2088221,285.5668,201.9763,27.74039,False
1,1.911115,-0.4456946,-0.1135211,-0.1395543,-1.292045,-4.261429,-2.485537,0.5066042,1.377124,0.4300094,-1.160052,-0.1290763,13.5,13.5,-0.4597608,0.2685761,-0.03131429,-0.404498,-4.320317,0.2473405,0.6534045,1.600098,0.3557715,-0.3182791,0.2684788,0.05963135,-0.7645541,0.3390291,0.1577002,0.7956948,1.612821,0.1970029,0.238702,1.315789,0.2074787,285.787,201.3595,28.37274,False
1,1.922226,-0.3562763,-0.07813544,-0.1335643,-1.291398,-4.262631,-2.484839,0.5037345,1.377801,0.4290862,-1.160683,-0.0572184,13.5,13.5,-0.5144144,0.3730549,-0.07006643,-0.4048601,-4.298141,0.2349992,0.6505493,1.600636,0.3547156,-0.3554133,0.3004971,0.06754591,-0.7627629,0.3451197,0.1584861,0.7953272,1.613299,0.1971943,0.2355608,1.317905,0.2062243,285.7559,200.3987,29.36544,False
1,1.933337,-0.2785685,-0.04595111,-0.1254091,-1.290866,-4.263865,-2.48416,0.5010997,1.378517,0.4280808,-1.160321,0.03314077,12.4,10.7,-0.5422912,0.4487356,-0.08990293,-0.4046982,-4.278068,0.2235551,0.6479031,1.601192,0.353766,-0.4054364,0.3454034,0.05963847,-0.7614787,0.3532077,0.1592426,0.7947665,1.613555,0.1975172,0.2326649,1.319991,0.2051699,285.5558,199.2385,30.51476,False
1,1.944448,-0.2285286,-0.02553168,-0.1160515,-1.290464,-4.26488,-2.483346,0.49846,1.379261,0.4271367,-1.162944,-0.2405273,12.4,10.7,-0.5668691,0.4945495,-0.0970645,-0.4044479,-4.259284,0.213544,0.6453677,1.60175,0.3527691,-0.4631045,0.3818916,0.03152461,-0.7613024,0.3608577,0.1609529,0.7939215,1.613866,0.1977363,0.2299352,1.321991,0.2043005,285.3521,198.2638,31.46001,False
1,1.955559,-0.1625157,-0.005156726,-0.1163164,-1.28967,-4.266288,-2.483705,0.4955667,1.380013,0.4259903,-1.162631,0.03026062,12.4,10.7,-0.6020714,0.5658976,-0.09768482,-0.4036223,-4.236895,0.2009145,0.6425009,1.602334,0.3515003,-0.5194916,0.4129294,0.03106139,-0.76017,0.368849,0.1629657,0.7933131,1.614192,0.1979713,0.2271692,1.323742,0.2035728,285.0904,197.2612,32.46683,False
1,1.966671,-0.1039379,-0.001880877,-0.1217543,-1.288414,-4.26733,-2.484504,0.4926667,1.380765,0.4249234,-1.161689,0.0851704,12.4,10.7,-0.6384062,0.6138455,-0.1111436,-0.403536,-4.215023,0.1890666,0.6394749,1.602807,0.3502753,-0.5535349,0.4375262,0.0293223,-0.7589711,0.3770991,0.1644616,0.7925218,1.61454,0.1983762,0.2243548,1.32509,0.2029799,284.8818,196.6312,33.18036,False
1,1.977782,-0.06238238,-0.01367278,-0.141957,-1.286231,-4.268179,-2.485323,0.4895508,1.381569,0.4238315,-1.16224,-0.05149531,10.2,10.8,-0.6746112,0.6500283,-0.105471,-0.4029016,-4.192949,0.1776651,0.6365796,1.603339,0.3490043,-0.5885934,0.4716886,0.03190037,-0.7573945,0.3859783,0.1658358,0.791729,1.614844,0.1987629,0.2213889,1.326011,0.202423,284.8149,196.4707,33.46836,False
1,1.988893,-0.04424356,-0.03181001,-0.1503724,-1.283901,-4.26857,-2.485372,0.4865624,1.382445,0.4228153,-1.162026,0.0195798,10.2,10.8,-0.7032655,0.7330289,-0.08054267,-0.4009133,-4.164266,0.1601588,0.6332986,1.603997,0.3476255,-0.6149935,0.5142992,0.0472256,-0.7550941,0.396285,0.1661706,0.7908413,1.615201,0.199194,0.218181,1.326501,0.2018368,284.8671,196.4707,33.5933,False
1,2.000004,-0.01755137,-0.07127905,-0.1639517,-1.280608,-4.268011,-2.4863,0.4834149,1.383343,0.4217231,-1.161351,0.06103568,10.2,10.8,-0.7297305,0.7883224,-0.05037814,-0.3986033,-4.136552,0.143758,0.6301979,1.604749,0.3462212,-0.6528929,0.5610704,0.08929984,-0.7510892,0.4070377,0.1670726,0.7898208,1.615539,0.1997099,0.214814,1.326569,0.2012569,285.0223,196.6214,33.54505,False
1,2.011115,0.01662569,-0.1202599,-0.1700081,-1.277076,-4.266598,-2.488061,0.4802205,1.384478,0.4206872,-1.159866,0.1348654,10.2,10.8,-0.7575475,0.8128465,-0.06609419,-0.3985847,-4.111196,0.1297993,0.6271253,1.605464,0.3447876,-0.6599402,0.5896683,0.129967,-0.7468862,0.4174006,0.1669837,0.7886468,1.615843,0.2000756,0.2113208,1.326293,0.2006833,285.2919,196.9603,33.29165,False
1,2.022226,0.01662569,-0.1202599,-0.1700081,-1.277076,-4.266598,-2.488061,0.4802205,1.384478,0.4206872,-1.15991,-0.005345608,10.2,10.8,-0.7575475,0.8128465,-0.06609419,-0.3985847,-4.111196,0.1297993,0.6271253,1.605464,0.3447876,-0.6599402,0.5896683,0.129967,-0.7468862,0.4174006,0.1669837,0.7886468,1.615843,0.2000756,0.2078339,1.325843,0.2001104,285.6645,197.6118,32.75872,False
1,2.033337,0.06576274,-0.1850607,-0.1599754,-1.270988,-4.263279,-2.491926,0.4743296,1.386673,0.4187031,-1.158836,0.09805436,9.1,15,-0.7510556,0.7393418,-0.06422022,-0.3983679,-4.075154,0.1125721,0.6212262,1.606877,0.3423412,-0.642825,0.562911,0.1478227,-0.7409654,0.4333871,0.1689544,0.7862662,1.616804,0.2009931,0.2050448,1.32529,0.1997813,286.0016,198.2132,32.34554,False
1,2.044448,0.07968104,-0.2191362,-0.1618636,-1.267168,-4.261222,-2.493995,0.4713589,1.387747,0.4175622,-1.161494,-0.2440367,9.1,15,-0.7456897,0.6860784,-0.06334098,-0.3983577,-4.060853,0.1074644,0.6184893,1.607311,0.3409173,-0.6547177,0.5192879,0.1413315,-0.7389867,0.4387375,0.1728282,0.7849455,1.617304,0.2013409,0.2031055,1.324774,0.1995943,286.3111,199.1649,31.59884,False
1,2.055559,0.07866319,-0.2458193,-0.1680482,-1.263129,-4.259362,-2.495419,0.4683801,1.388547,0.4165101,-1.159392,0.1940767,9.1,15,-0.7338481,0.6540855,-0.05181782,-0.3980957,-4.045417,0.100708,0.6154385,1.607685,0.3397238,-0.6601947,0.485253,0.1327051,-0.7372077,0.4443358,0.1762222,0.7836856,1.617731,0.2016041,0.199507,1.324579,0.1981666,286.8258,198.992,31.68983,False
1,2.06667,0.05311302,-0.2500935,-0.1626511,-1.260056,-4.257914,-2.495414,0.4654176,1.389109,0.4155519,-1.159104,0.02419665,9.1,15,-0.7284198,0.6401993,-0.03804128,-0.3972675,-4.028334,0.09286842,0.6125675,1.607967,0.338378,-0.6400577,0.4585896,0.1281572,-0.7352322,0.4500449,0.1784294,0.7823831,1.618158,0.2019069,0.196099,1.324547,0.196623,287.1576,198.6944,31.81096,False
1,2.077781,0.02115739,-0.2501271,-0.1572767,-1.257202,-4.256621,-2.494646,0.4623143,1.389727,0.4146204,-1.158262,0.07675266,4.5,17.4,-0.6985703,0.6284859,-0.03506622,-0.3968398,-4.011346,0.0837732,0.6095133,1.608286,0.3369341,-0.6271443,0.4521061,0.1450642,-0.7321435,0.4568143,0.1798451,0.7810572,1.618457,0.202127,0.1931126,1.324633,0.195111,287.3282,198.2313,32.14414,False
1,2.088892,-0.01400207,-0.2480441,-0.152981,-1.254293,-4.255311,-2.493537,0.4593264,1.390049,0.4137838,-1.156722,0.1400441,4.5,17.4,-0.6730049,0.6103954,-0.03634256,-0.3967487,-3.995511,0.07574456,0.6065106,1.608476,0.3355908,-0.6117993,0.4678478,0.1918828,-0.727109,0.4647982,0.1799767,0.7796313,1.61883,0.2024534,0.1905241,1.324746,0.1936898,287.4409,197.4807,32.73592,False
1,2.100003,-0.04279047,-0.2310035,-0.1456129,-1.252056,-4.254551,-2.492208,0.4563336,1.390112,0.4130173,-1.155851,0.07854103,4.5,17.4,-0.6378753,0.6157521,-0.03975865,-0.3968302,-3.977035,0.06441494,0.6034038,1.60832,0.3343785,-0.6016186,0.5368258,0.2443137,-0.7209198,0.476407,0.1777836,0.7781725,1.619185,0.2030101,0.1880784,1.324907,0.1923137,287.5531,196.873,33.1355,False
1,2.111114,-0.06519577,-0.2097096,-0.141478,-1.250098,-4.254196,-2.490923,0.4531643,1.390418,0.4122169,-1.155545,0.02749698,4.5,17.4,-0.6007116,0.6062474,-0.05921477,-0.397962,-3.960302,0.05423927,0.6001927,1.608226,0.3331816,-0.5897081,0.5612335,0.2603132,-0.7161581,0.4864542,0.1764163,0.7766368,1.619564,0.2033484,0.1855441,1.325185,0.1909378,287.6853,196.3724,33.42421,False
1,2.122225,-0.08441505,-0.1787425,-0.1267742,-1.248983,-4.254077,-2.489274,0.4502239,1.390267,0.4115121,-1.155633,-0.008145113,4.5,17.4,-0.5655959,0.6094778,-0.0647727,-0.3985921,-3.94268,0.04293602,0.5970314,1.608029,0.3321099,-0.5735878,0.5856513,0.2698792,-0.7115673,0.4967514,0.174339,0.7749816,1.619965,0.2037315,0.182917,1.325581,0.189622,287.7746,195.712,33.90541,False
1,2.133336,-0.0940689,-0.1371015,-0.1110992,-1.248469,-4.254428,-2.487828,0.447247,1.390264,0.410713,-1.15598,-0.0314456,3.6,16.1,-0.5423008,0.6170034,-0.08408134,-0.3999333,-3.924193,0.03112543,0.5939329,1.607738,0.3308411,-0.5573485,0.6281467,0.2891283,-0.706249,0.5087659,0.1709036,0.773103,1.620294,0.2041733,0.1801345,1.326084,0.1884042,287.7999,195.0435,34.4181,False
1,2.144447,-0.09839785,-0.09222929,-0.0933293,-1.24848,-4.255202,-2.486409,0.4443723,1.390204,0.4098957,-1.155868,0.01055802,3.6,16.1,-0.5370958,0.6170567,-0.1022297,-0.4016367,-3.906632,0.0207897,0.5908133,1.607562,0.3297246,-0.5476625,0.6483518,0.2944683,-0.701557,0.5200689,0.1679997,0.7714664,1.620634,0.2045665,0.1771613,1.326691,0.1873236,287.7804,194.4271,34.9261,False
1,2.155558,-0.0995239,-0.05484864,-0.0808323,-1.248616,-4.256155,-2.484962,0.4415334,1.39002,0.4090536,-1.156325,-0.04181936,3.6,16.1,-0.5339586,0.6213356,-0.1096884,-0.4029091,-3.888647,0.01008566,0.587966,1.607117,0.3285086,-0.5221768,0.6579052,0.2847073,-0.6975474,0.5309958,0.1647623,0.769665,1.621168,0.2049055,0.1741235,1.327332,0.186451,287.6831,193.917,35.42533,False
1,2.166669,-0.0984823,-0.036709,-0.07670721,-1.248151,-4.256638,-2.483874,0.4386261,1.389994,0.4080842,-1.15663,-0.02741492,3.6,16.1,-0.5405336,0.6043586,-0.1373883,-0.4053555,-3.873238,0.002251703,0.5849813,1.606734,0.327369,-0.4998712,0.664286,0.2749612,-0.6937535,0.5419288,0.1612475,0.76807,1.621641,0.205549,0.1710167,1.327987,0.1857435,287.5655,193.6164,35.80058,False
1,2.17778,-0.0984823,-0.036709,-0.07670721,-1.248151,-4.256638,-2.483874,0.4386261,1.389994,0.4080842,-1.156739,-0.009753781,3.6,16.1,-0.5405336,0.6043586,-0.1373883,-0.4053555,-3.873238,0.002251703,0.5849813,1.606734,0.327369,-0.4998712,0.664286,0.2749612,-0.6937535,0.5419288,0.1612475,0.76807,1.621641,0.205549,0.1678885,1.328611,0.1851739,287.4369,193.4066,36.14713,False
1,2.188891,-0.08999167,-0.019622,-0.07365564,-1.247868,-4.257443,-2.482925,0.4358617,1.389646,0.4070282,-1.157892,-0.1053742,4.2,14.5,-0.5437436,0.5564368,-0.1438954,-0.4071851,-3.862206,-0.001692172,0.5820583,1.606344,0.3262897,-0.4839397,0.6664054,0.2684474,-0.6898748,0.552798,0.1576754,0.766359,1.622041,0.206033,0.1653286,1.329131,0.1849551,287.3161,193.446,36.35765,False
1,2.200002,-0.08682866,-0.003614464,-0.07058094,-1.24767,-4.258208,-2.481785,0.4329685,1.389372,0.4059911,-1.157042,0.07862975,4.2,14.5,-0.5330932,0.5351303,-0.1450903,-0.4087499,-3.84937,-0.00796152,0.5790694,1.605902,0.3252075,-0.4637811,0.6738749,0.2576524,-0.6862609,0.5644351,0.153336,0.7645077,1.62224,0.206316,0.1640368,1.32945,0.1852522,287.2407,193.4853,36.62437,False
1,2.211113,-0.07514896,0.01667509,-0.06755881,-1.247734,-4.259406,-2.481009,0.4301459,1.388912,0.4049079,-1.157135,-0.009336798,4.2,14.5,-0.5065562,0.5149519,-0.1613055,-0.4112347,-3.837182,-0.01456403,0.5760667,1.605338,0.324142,-0.4616667,0.6813459,0.2534073,-0.682426,0.5761382,0.1493392,0.7627662,1.62257,0.2067847,0.1620495,1.329672,0.1849583,287.198,193.2009,37.02923,False
1,2.222224,-0.06560116,0.03804001,-0.06241306,-1.248029,-4.260697,-2.480181,0.4273578,1.388535,0.403805,-1.156947,0.01730514,4.2,14.5,-0.4939617,0.497987,-0.1891311,-0.414423,-3.825245,-0.02041899,0.5730928,1.604709,0.3231268,-0.4574142,0.6813329,0.2544492,-0.6783343,0.5873812,0.1456818,0.7608265,1.622724,0.2072837,0.1592867,1.329772,0.1840694,287.134,192.8037,37.41805,False
1,2.233335,-0.05176938,0.05198362,-0.05401846,-1.248525,-4.261816,-2.4798,0.4245782,1.388027,0.4026301,-1.157411,-0.04253065,4.2,14.5,-0.5036613,0.5054815,-0.2050301,-0.4174622,-3.810985,-0.02748515,0.5700855,1.604209,0.3221881,-0.4521812,0.6749976,0.2437161,-0.6750927,0.59851,0.1417838,0.7589452,1.623154,0.207943,0.1560182,1.329741,0.182806,287.0931,192.5618,37.59181,False
1,2.244446,-0.03050203,0.08088337,-0.04148648,-1.249711,-4.263318,-2.479822,0.4217111,1.387563,0.4014511,-1.157408,0.0006834373,4.5,11.8,-0.5100943,0.5129539,-0.2102864,-0.4200902,-3.796252,-0.03501391,0.567117,1.603727,0.3210199,-0.4404842,0.6749573,0.2436173,-0.6713675,0.6096305,0.1377416,0.7570359,1.623549,0.2083838,0.1526484,1.329553,0.1814706,287.0684,192.4514,37.63728,False
1,2.255557,-0.01562956,0.1097472,-0.0321382,-1.251089,-4.265071,-2.479698,0.4188688,1.387035,0.4002488,-1.157733,-0.02977137,4.5,11.8,-0.5377817,0.5288891,-0.2047248,-0.4223156,-3.780832,-0.04204546,0.5641646,1.603076,0.3198738,-0.4234354,0.6792037,0.2413562,-0.6678345,0.6215122,0.1324635,0.755095,1.623859,0.2088788,0.1494099,1.329231,0.1802435,287.0697,192.5448,37.51894,False
1,2.266668,0.0056364,0.1343594,-0.02383684,-1.252577,-4.267009,-2.479945,0.416118,1.386437,0.3990045,-1.158196,-0.04222399,4.5,11.8,-0.54518,0.5150143,-0.1972574,-0.4244227,-3.768353,-0.04715473,0.5613226,1.602462,0.3187668,-0.4116721,0.6834024,0.2476658,-0.6638797,0.6332435,0.1275002,0.7531203,1.624261,0.2091572,0.1463406,1.328794,0.1791629,287.0667,192.7346,37.34121,False
1,2.277779,0.01943118,0.1588785,-0.0251059,-1.253936,-4.269277,-2.479889,0.4133753,1.385722,0.3977501,-1.158049,0.01367891,4.5,11.8,-0.5409743,0.499046,-0.2037095,-0.4270773,-3.756759,-0.05175534,0.558405,1.601859,0.317786,-0.3977121,0.6833122,0.2624611,-0.6594525,0.6450676,0.1221488,0.7510449,1.624626,0.2098026,0.1433279,1.328277,0.1782099,287.0408,193.0215,37.07187,False
1,2.28889,0.02899544,0.1727802,-0.020966,-1.255369,-4.271351,-2.479896,0.4106577,1.385106,0.3965106,-1.158309,-0.02397248,5.8,12.2,-0.5270392,0.4755885,-0.1932168,-0.4290779,-3.746455,-0.0558132,0.5555577,1.601253,0.3167648,-0.4007774,0.6864488,0.2774152,-0.6549187,0.6569248,0.1172883,0.7490328,1.624927,0.2102187,0.1402811,1.327704,0.1773625,286.9989,193.3844,36.76,False
1,2.300001,0.03964334,0.172799,-0.02097818,-1.256315,-4.272941,-2.480097,0.4079352,1.384472,0.395303,-1.157994,0.02890202,5.8,12.2,-0.5067376,0.4574655,-0.1848827,-0.4310507,-3.736018,-0.06040742,0.5526516,1.600582,0.3157573,-0.3966018,0.6768841,0.2698805,-0.6513842,0.668101,0.1126597,0.7470243,1.625207,0.2106252,0.1371804,1.327075,0.1766175,286.9391,193.7005,36.54076,False
1,2.311112,0.06199706,0.1824505,-0.01895506,-1.257673,-4.274999,-2.480958,0.4053114,1.383875,0.3941329,-1.157827,0.01486356,5.8,12.2,-0.5024471,0.4467829,-0.1796107,-0.4330998,-3.725672,-0.0642722,0.5497921,1.599988,0.3148212,-0.3945242,0.6662468,0.2676789,-0.6477489,0.6792271,0.1082737,0.7450129,1.625421,0.2108276,0.1339957,1.326391,0.1759582,286.8864,194.0535,36.31731,False
1,2.322223,0.06948604,0.1686209,-0.01779076,-1.258444,-4.276195,-2.481549,0.4026239,1.383291,0.3928499,-1.157748,0.00710512,5.8,12.2,-0.498183,0.4531745,-0.1785557,-0.4353714,-3.713519,-0.06995512,0.5469711,1.599374,0.313745,-0.3838719,0.6619605,0.2686366,-0.6440408,0.6906934,0.1030633,0.7429085,1.625738,0.2113447,0.1307682,1.325681,0.1753647,286.8574,194.5142,36.0232,False
1,2.333334,0.07376098,0.1579424,-0.02197649,-1.25897,-4.277587,-2.482001,0.3999251,1.382852,0.3918147,-1.158426,-0.06210453,3.7,11.5,-0.4971897,0.4585076,-0.1860108,-0.4381454,-3.701773,-0.07493496,0.5440542,1.598786,0.3127894,-0.3667173,0.6629649,0.2801923,-0.6400226,0.7029561,0.09676569,0.7410177,1.625985,0.21176,0.127571,1.324955,0.1748095,286.8525,194.986,35.73396,False
1,2.344445,0.07488949,0.1291909,-0.02069084,-1.259136,-4.278151,-2.482718,0.3972165,1.382334,0.3907976,-1.15783,0.05489871,3.7,11.5,-0.4725982,0.4733964,-0.1712195,-0.4400298,-3.688465,-0.08254521,0.5412713,1.598152,0.3117521,-0.361407,0.6650722,0.278048,-0.6361594,0.71473,0.09111632,0.7389016,1.62612,0.2121916,0.1244586,1.324206,0.1742908,286.826,195.416,35.48758,False
1,2.355556,0.07707097,0.1057491,-0.02156982,-1.259318,-4.278621,-2.483513,0.3945211,1.381689,0.3896999,-1.157561,0.02399793,3.7,11.5,-0.4619766,0.4638165,-0.1734331,-0.4422744,-3.677528,-0.08748537,0.5385006,1.597346,0.3105512,-0.350714,0.6586546,0.283246,-0.6322936,0.7266309,0.085031,0.7368828,1.626305,0.2124443,0.1214028,1.32343,0.1737178,286.8246,195.8309,35.24456,False
1,2.366668,0.0835474,0.06634808,-0.02127514,-1.258794,-4.278312,-2.48475,0.3918731,1.381138,0.3887336,-1.157473,0.007821392,3.7,11.5,-0.4533958,0.4414331,-0.1671627,-0.4443037,-3.668294,-0.09108677,0.5358002,1.596682,0.3095009,-0.3401372,0.63092,0.283049,-0.6285103,0.7363829,0.08058672,0.7347993,1.626558,0.2127073,0.1184276,1.322656,0.1731001,286.8683,196.1521,35.01886,False
1,2.377779,0.08146609,0.03971323,-0.02106909,-1.258362,-4.27819,-2.4855,0.3893219,1.380465,0.3875959,-1.157454,0.001622191,3.7,11.5,-0.4298571,0.4286122,-0.1513888,-0.4459399,-3.658538,-0.0957007,0.5331525,1.595975,0.3084795,-0.3445656,0.6000731,0.2754738,-0.6253257,0.74562,0.07739545,0.7327482,1.626878,0.2129054,0.1155451,1.321875,0.1724139,286.8947,196.3315,34.9174,False
1,2.38889,0.08043785,0.01619798,-0.03047509,-1.257487,-4.278156,-2.486358,0.3868229,1.379922,0.3866267,-1.157594,-0.01283239,1.4,9.9,-0.4063476,0.4285972,-0.1408957,-0.4477178,-3.647824,-0.1016031,0.5304842,1.59538,0.3075068,-0.3456278,0.5947582,0.2765145,-0.6217917,0.7565074,0.0724726,0.7306977,1.627092,0.2131684,0.1127658,1.321058,0.1716311,286.8946,196.412,34.90976,False
1,2.400001,0.08044559,0.01084402,-0.03362216,-1.257161,-4.278327,-2.487217,0.3842614,1.379321,0.3855212,-1.157125,0.04287659,1.4,9.9,-0.4073974,0.4339027,-0.1366097,-0.4495698,-3.636723,-0.1069331,0.52786,1.594791,0.3064187,-0.3456517,0.5990245,0.2744084,-0.6182656,0.767952,0.06716013,0.7286672,1.627212,0.2134912,0.1101537,1.320159,0.1707557,286.9087,196.3872,34.98382,False
1,2.411112,0.09008114,-0.01366123,-0.03664313,-1.256098,-4.277768,-2.488745,0.3818758,1.378784,0.3846834,-1.157174,-0.004830225,1.4,9.9,-0.416951,0.445576,-0.1301192,-0.4513515,-3.625267,-0.1122442,0.5253257,1.594082,0.305604,-0.3307715,0.5926054,0.2753079,-0.6147694,0.7791564,0.0614868,0.7266885,1.627505,0.2137141,0.1076688,1.319174,0.1697568,286.961,196.4047,34.97524,False
1,2.422223,0.09864534,-0.04250094,-0.04815759,-1.254353,-4.277103,-2.490322,0.3796046,1.378211,0.3836215,-1.157227,-0.004764512,1.4,9.9,-0.4041183,0.437045,-0.1238381,-0.4530271,-3.615109,-0.1173027,0.5228391,1.593436,0.3046205,-0.3169855,0.5851377,0.269835,-0.6115726,0.7898048,0.05587498,0.72473,1.6277,0.2139626,0.1052754,1.318139,0.1686802,287.0663,196.4352,34.87099,False
1,2.433334,0.09654044,-0.05747747,-0.0554985,-1.252994,-4.27675,-2.491466,0.377445,1.377656,0.3828652,-1.157637,-0.03744859,1.4,9.9,-0.3806162,0.4008761,-0.1166151,-0.4543411,-3.606489,-0.121475,0.5204462,1.592585,0.3030431,-0.3043484,0.5659856,0.2589731,-0.6089174,0.7994533,0.05100593,0.7228193,1.627774,0.2140956,0.1029123,1.317091,0.1675656,287.1705,196.5054,34.69682,False
1,2.444445,0.08164009,-0.07359546,-0.06920093,-1.251191,-4.276397,-2.491964,0.3753892,1.377075,0.3822227,-1.157631,0.0007496094,0.4,7.6,-0.3506664,0.3603773,-0.1030835,-0.4553782,-3.60075,-0.1237944,0.5181177,1.591952,0.3019707,-0.303458,0.5415431,0.2450076,-0.6064242,0.8082989,0.04706631,0.7209843,1.62796,0.2142427,0.1007143,1.316,0.1665272,287.2714,196.4342,34.68581,False
1,2.455556,0.0603406,-0.08655522,-0.085036,-1.249376,-4.276028,-2.492104,0.3733321,1.376549,0.3817117,-1.157223,0.0371991,0.4,7.6,-0.3579909,0.3475265,-0.08175702,-0.4560131,-3.592803,-0.1264631,0.5155714,1.591393,0.3011539,-0.3077251,0.535157,0.2471561,-0.6032518,0.818244,0.04258981,0.7191806,1.628062,0.2143078,0.09865873,1.314839,0.1655636,287.3915,196.2618,34.79866,False
1,2.466667,0.04543881,-0.1005262,-0.09662431,-1.247275,-4.275631,-2.492216,0.3713967,1.376034,0.3811796,-1.156514,0.06451379,0.4,7.6,-0.3738752,0.3559942,-0.06671072,-0.4567417,-3.583287,-0.1303103,0.5133592,1.590721,0.3000667,-0.3011722,0.5457402,0.2631258,-0.5995542,0.8297328,0.03630075,0.7173493,1.628208,0.2145026,0.09673893,1.313632,0.1647478,287.5317,196.1541,34.80333,False
1,2.477778,0.04653302,-0.1240564,-0.1081558,-1.244782,-4.274724,-2.493067,0.3692277,1.375512,0.3806093,-1.156125,0.03516018,0.4,7.6,-0.3738987,0.3634352,-0.06777249,-0.4583385,-3.574219,-0.1341746,0.5109523,1.590106,0.2992477,-0.2851631,0.5424757,0.2693676,-0.5960453,0.8401921,0.03031583,0.715194,1.628253,0.2146142,0.09487493,1.312438,0.1640923,287.7062,196.1289,34.71877,False
1,2.488889,0.08172417,-0.1507201,-0.1218513,-1.241757,-4.273724,-2.495532,0.3673012,1.375018,0.3801134,-1.156146,-0.002137181,0.6,6.1,-0.3537058,0.3677273,-0.07429092,-0.4599508,-3.565179,-0.1390386,0.5087774,1.58945,0.2982619,-0.2800628,0.5340757,0.2426568,-0.5940447,0.8505549,0.02461427,0.7132968,1.628406,0.2147651,0.09298882,1.311347,0.163583,287.8997,196.1674,34.60904,False
1,2.5,0.1083753,-0.1656645,-0.1324257,-1.238912,-4.272855,-2.498066,0.3652626,1.374644,0.3796258,-1.156813,-0.06086327,0.6,6.1,-0.3292591,0.3688309,-0.08084024,-0.4615993,-3.556242,-0.1441047,0.5066496,1.588746,0.2973571,-0.2716739,0.5330601,0.2266037,-0.5919701,0.8610223,0.01867595,0.7115657,1.62851,0.2148867,0.09103998,1.310412,0.1631692,288.0734,196.1255,34.65833,False
1,2.511111,0.1393113,-0.1869205,-0.1344379,-1.235952,-4.271418,-2.501243,0.3634919,1.374294,0.3792176,-1.158461,-0.1502223,0.6,6.1,-0.2749475,0.3699541,-0.08333336,-0.4631844,-3.547185,-0.1509988,0.5046768,1.588028,0.2964017,-0.2676261,0.5182431,0.2052006,-0.5904154,0.8705773,0.01362846,0.7099587,1.62866,0.2150493,0.08901893,1.309601,0.1627907,288.1945,195.8479,34.99546,False
1,2.522222,0.1617281,-0.2124749,-0.1385407,-1.232627,-4.269736,-2.504233,0.3619874,1.374015,0.3788457,-1.158616,-0.01299878,0.6,6.1,-0.2292235,0.3359454,-0.0997199,-0.4651946,-3.541885,-0.1547494,0.5028568,1.587448,0.2955489,-0.2667835,0.4788802,0.1911857,-0.5885634,0.8776451,0.01076183,0.7083657,1.628866,0.2150738,0.08710793,1.308773,0.1625174,288.2624,195.3049,35.58997,False
1,2.533333,0.1542511,-0.2092952,-0.139623,-1.230096,-4.269037,-2.505689,0.3604065,1.373632,0.3785264,-1.158866,-0.02299393,0.6,6.1,-0.2260916,0.3178585,-0.1083283,-0.4672266,-3.535887,-0.1573201,0.5008643,1.587014,0.2947543,-0.2669053,0.4554926,0.1825713,-0.5866528,0.8856178,0.00711863,0.7070168,1.628943,0.2150133,0.08528008,1.30782,0.1623361,288.3294,194.87,36.05651,False
1,2.544444,0.1190652,-0.1858353,-0.1269681,-1.228455,-4.268525,-2.506002,0.3591418,1.373212,0.3782113,-1.158412,0.04151806,0.1,4.6,-0.2216695,0.3241839,-0.08383778,-0.4679787,-3.527599,-0.1624171,0.4991594,1.586574,0.2938724,-0.2573156,0.444816,0.1856365,-0.5844392,0.8942473,0.002489523,0.7054895,1.629062,0.2150407,0.08369315,1.306638,0.1622777,288.4369,194.6262,36.36179,False
1,2.555555,0.1222414,-0.1751477,-0.1238492,-1.226636,-4.267924,-2.507658,0.3576532,1.372816,0.3779948,-1.157002,0.1284389,0.1,4.6,-0.2289769,0.3272888,-0.05822448,-0.4683563,-3.519185,-0.1669536,0.4973888,1.586081,0.2926712,-0.2348837,0.4393981,0.1939686,-0.5818208,0.9030643,-0.003156911,0.7041215,1.62913,0.2149253,0.08233912,1.3052,0.162282,288.6376,194.5872,36.4493,False
1,2.566666,0.1456828,-0.1729179,-0.1175095,-1.224664,-4.267028,-2.510354,0.3563945,1.372386,0.377718,-1.15576,0.1124812,0.1,4.6,-0.2341349,0.3144346,-0.03478891,-0.4684378,-3.512248,-0.1703307,0.495888,1.585709,0.2918909,-0.2114704,0.4073701,0.2000407,-0.579205,0.9099103,-0.007360444,0.7027892,1.629144,0.214756,0.08101305,1.303619,0.1622523,288.9081,194.9156,36.11943,False
1,2.577777,0.1616506,-0.1664385,-0.1101233,-1.222861,-4.266136,-2.512929,0.3550987,1.371964,0.3774333,-1.15702,-0.1160232,0.1,4.6,-0.2170258,0.2633229,-0.0329008,-0.4689337,-3.509399,-0.1711664,0.4944493,1.58512,0.2911038,-0.2066229,0.3436221,0.1613669,-0.578608,0.9133184,-0.007967912,0.7016629,1.629183,0.2146943,0.07969663,1.302091,0.1621484,289.2141,195.5421,35.48959,False
1,2.588888,0.1808412,-0.1652418,-0.0984426,-1.221264,-4.265015,-2.515983,0.3540196,1.371617,0.3772361,-1.15812,-0.09941795,0.1,4.6,-0.1818051,0.2132667,-0.02902263,-0.4693012,-3.508107,-0.1714543,0.4930333,1.584832,0.2905045,-0.2110851,0.3213284,0.1453219,-0.5775198,0.918519,-0.009743974,0.7002821,1.629303,0.2146194,0.0783927,1.300704,0.1619848,289.4766,195.8809,35.12677,False
1,2.599999,0.1979312,-0.1790061,-0.09089957,-1.219147,-4.263211,-2.519372,0.3529198,1.371212,0.376699,-1.158006,0.01107077,0,3.5,-0.1488545,0.1984134,-0.03571887,-0.4706546,-3.504194,-0.1737103,0.4918153,1.584524,0.2898281,-0.2047963,0.3053764,0.137744,-0.5762569,0.9241465,-0.01232671,0.6990862,1.629357,0.2145345,0.07722909,1.299411,0.1618346,289.6435,195.8865,35.10286,False
1,2.61111,0.2213897,-0.1831428,-0.08025368,-1.217301,-4.261662,-2.523046,0.3520116,1.37083,0.3761938,-1.158244,-0.022008,0,3.5,-0.136171,0.1953189,-0.04438107,-0.4725231,-3.498137,-0.1770933,0.4907739,1.583916,0.2891023,-0.1920718,0.277637,0.1396503,-0.5746132,0.9281449,-0.01396429,0.6980063,1.629288,0.2143943,0.07618753,1.298166,0.1617048,289.757,195.831,35.13171,False
1,2.622221,0.2395042,-0.185235,-0.08026447,-1.215348,-4.260364,-2.526724,0.3512391,1.370425,0.3760123,-1.158226,0.001673377,0,3.5,-0.1352005,0.2070736,-0.05713875,-0.4740767,-3.492784,-0.1803985,0.4896599,1.583521,0.2884662,-0.1665026,0.2615699,0.1446961,-0.5728907,0.9324115,-0.01660987,0.696981,1.629304,0.2142236,0.07531023,1.296911,0.1616013,289.8464,195.8143,35.16507,False
1,2.633332,0.2480006,-0.1702996,-0.07933131,-1.213783,-4.259672,-2.529952,0.3504901,1.369969,0.3756044,-1.158431,-0.0188456,0,3.5,-0.12245,0.2273666,-0.0540171,-0.475795,-3.484903,-0.1857486,0.4884919,1.58325,0.2879393,-0.1440933,0.2572246,0.1519514,-0.5709072,0.937758,-0.02015028,0.6960071,1.629347,0.2140002,0.07452628,1.295567,0.161398,289.9556,195.8159,35.24058,False
1,2.644443,0.2458092,-0.1372313,-0.07319268,-1.213089,-4.259691,-2.532598,0.3499551,1.369458,0.3755019,-1.158374,0.005218696,0.4,1.7,-0.1117798,0.2231078,-0.05196959,-0.4767293,-3.480027,-0.1892006,0.4875035,1.58285,0.287421,-0.1367428,0.2359287,0.1454043,-0.5695436,0.9413003,-0.02186588,0.6951202,1.629331,0.2138309,0.07392871,1.29408,0.1611364,290.1059,195.808,35.25283,False
1,2.655554,0.2318784,-0.09350938,-0.06392322,-1.212972,-4.260275,-2.534408,0.3495547,1.369026,0.3757122,-1.157964,0.03730847,0.4,1.7,-0.1022657,0.2114504,-0.05956999,-0.4786388,-3.475774,-0.191562,0.4864333,1.582495,0.2870269,-0.1294112,0.2125237,0.1367147,-0.5684251,0.9446099,-0.02339773,0.6943537,1.629242,0.2135887,0.07351261,1.292425,0.160908,290.2905,195.8221,35.12797,False
1,2.666665,0.1955744,-0.04663196,-0.05357939,-1.213355,-4.261312,-2.535025,0.3492412,1.368481,0.3757491,-1.157468,0.0449537,0.4,1.7,-0.08311111,0.2008241,-0.06398811,-0.479843,-3.472271,-0.1943913,0.4856094,1.582147,0.28666,-0.1189269,0.1944534,0.1216336,-0.5676342,0.9474266,-0.02483771,0.6936074,1.629198,0.2133956,0.07312249,1.290647,0.1607273,290.5005,196.0177,34.78085,False
1,2.677776,0.1795438,-0.01996394,-0.04523084,-1.213611,-4.26191,-2.536191,0.3487585,1.36789,0.3758075,-1.156728,0.06730162,0.4,1.7,-0.058577,0.1976568,-0.05672987,-0.4809962,-3.467131,-0.1987933,0.4848344,1.581788,0.2859201,-0.107306,0.1838222,0.112971,-0.5667558,0.9509321,-0.02692056,0.6929433,1.629059,0.2131886,0.07279362,1.288837,0.1607556,290.7276,196.4266,34.18472,False
1,2.688887,0.1720842,-0.008146111,-0.03039673,-1.213976,-4.262087,-2.537763,0.3485395,1.367423,0.3758826,-1.155657,0.09735162,0.4,1.7,-0.03617136,0.1795564,-0.05373078,-0.4817621,-3.464364,-0.2015371,0.4841923,1.581491,0.2856038,-0.06695995,0.1528677,0.1061131,-0.5658078,0.9526113,-0.02896054,0.692422,1.628964,0.2129076,0.07246634,1.287139,0.1610747,290.9561,197.0369,33.43874,False
1,2.699998,0.1710298,-0.001680655,-0.01978787,-1.214083,-4.261945,-2.53987,0.3482111,1.367052,0.3756237,-1.156061,-0.03755497,2.4,0.4,-0.01380508,0.1593605,-0.05396323,-0.4830244,-3.461847,-0.2039739,0.4834467,1.581255,0.2852216,-0.04898472,0.1315549,0.09734853,-0.5650397,0.9540341,-0.03012009,0.6917697,1.62894,0.2126043,0.07197101,1.2857,0.1615794,291.1502,197.743,32.76196,False
1,2.711109,0.1731836,-0.006921596,-0.00909758,-1.214085,-4.26156,-2.541962,0.3481222,1.366813,0.3757932,-1.156492,-0.03895295,2.4,0.4,0.02341469,0.1072339,-0.07032911,-0.4842101,-3.463823,-0.2037896,0.4829997,1.581074,0.2851295,-0.03430638,0.08791406,0.08212119,-0.5646136,0.9532786,-0.02957787,0.691308,1.628922,0.2122993,0.07133526,1.284572,0.1621956,291.2678,198.2895,32.38009,False
1,2.72222,0.1753529,-0.02287119,-0.005780879,-1.213699,-4.260864,-2.54424,0.3480006,1.366592,0.3759167,-1.157018,-0.04778739,2.4,0.4,0.05971899,0.06995194,-0.06214542,-0.4844806,-3.465042,-0.204539,0.4824524,1.580798,0.285037,-0.01517768,0.05268424,0.08820264,-0.5633784,0.9522139,-0.02902606,0.6908211,1.628853,0.211906,0.07083531,1.2839,0.1627295,291.0817,199.1,31.74328,False
1,2.733331,0.1753822,-0.03558927,0.001770716,-1.213459,-4.260144,-2.546319,0.3479832,1.366302,0.3760319,-1.156991,0.002902879,2.4,0.4,0.07144146,0.04653073,-0.06441662,-0.4851981,-3.46603,-0.2048786,0.4820271,1.580628,0.2849295,0.01775834,0.01851212,0.08778144,-0.5623654,0.9505136,-0.0288692,0.6904851,1.628826,0.2115591,0.07053022,1.283635,0.1630451,290.8045,199.4623,31.5127,False
1,2.744442,0.1722323,-0.05797482,0.000884071,-1.212656,-4.258897,-2.548556,0.3479745,1.36617,0.3761995,-1.157056,-0.006036307,4.3,0,0.07570733,0.02523659,-0.06346563,-0.4863129,-3.466849,-0.2046381,0.4822364,1.580628,0.2848637,0.04321324,-0.006016394,0.08107761,-0.5615696,0.9493198,-0.02914457,0.6901492,1.628899,0.2111721,0.0705073,1.283463,0.1632994,290.7648,198.9009,32.15056,False
1,2.755553,0.1775933,-0.07176533,0.006306447,-1.212181,-4.257792,-2.551078,0.3481437,1.366053,0.3764474,-1.156857,0.01823517,4.3,0,0.08324343,0.02094118,-0.04969283,-0.4866202,-3.466823,-0.2055364,0.482071,1.580555,0.284766,0.05044607,-0.03151638,0.06172702,-0.5614929,0.9471446,-0.0281054,0.6899707,1.628874,0.2108247,0.07069504,1.2833,0.1634693,290.6328,198.4906,32.53078,False
1,2.766664,0.1775933,-0.07176533,0.006306447,-1.212181,-4.257792,-2.551078,0.3481437,1.366053,0.3764474,-1.156821,0.003158545,4.3,0,0.08324343,0.02094118,-0.04969283,-0.4866202,-3.466823,-0.2055364,0.482071,1.580555,0.284766,0.05044607,-0.03151638,0.06172702,-0.5614929,0.9471446,-0.0281054,0.6899707,1.628874,0.2108247,0.07123654,1.283266,0.1639303,290.3378,197.9027,33.05829,False
1,2.777775,0.1861416,-0.07700711,0.01486025,-1.211616,-4.255754,-2.556279,0.3485792,1.365771,0.3770406,-1.155095,0.1578361,4.3,0,0.09085993,0.005973242,-0.02316201,-0.4865696,-3.467225,-0.207032,0.4819998,1.58062,0.2847884,0.06054044,-0.1059135,0.01656933,-0.562139,0.9394777,-0.02311091,0.6898662,1.628838,0.2101173,0.07133915,1.283014,0.1639034,290.3815,197.3923,33.65107,False
1,2.788886,0.1797349,-0.06848194,0.01693434,-1.21157,-4.255177,-2.558277,0.3488259,1.365651,0.3773861,-1.159556,-0.409147,4.3,0,0.1025814,0.00172174,-0.02324987,-0.4867944,-3.467585,-0.2082629,0.4819334,1.580635,0.284795,0.0625817,-0.11334,0.007992333,-0.5623621,0.9367324,-0.02145815,0.6897566,1.628713,0.2097566,0.07144781,1.282956,0.1637893,290.3472,197.13,33.88389,False
1,2.799997,0.1701497,-0.07064036,0.01590264,-1.21125,-4.254312,-2.560115,0.3490442,1.365595,0.3777025,-1.157361,0.2042539,6.2,0,0.1174959,-0.0004089773,-0.01910758,-0.4870421,-3.468035,-0.2092936,0.4818501,1.580862,0.2850096,0.06558447,-0.1334992,-0.01023717,-0.563135,0.932833,-0.01905598,0.6897002,1.628533,0.2096059,0.07196394,1.282737,0.1639585,290.2161,196.0952,34.9046,False
1,2.811108,0.1552386,-0.07281061,0.0148766,-1.210849,-4.253438,-2.561599,0.3494459,1.365508,0.3781769,-1.156756,0.05312044,6.2,0,0.1483488,-0.002496958,-0.02570693,-0.4875225,-3.468469,-0.2117663,0.4820195,1.580925,0.2851844,0.06771881,-0.1388404,-0.008147608,-0.5631238,0.9295634,-0.01713371,0.6896728,1.628477,0.2092576,0.07245415,1.282526,0.1643793,290.0131,195.4453,35.59925,False
1,2.822219,0.1509798,-0.07496781,0.01276816,-1.210359,-4.252568,-2.56348,0.3498023,1.365389,0.378417,-1.157615,-0.07880792,6.2,0,0.1525962,-0.007785589,-0.03107785,-0.488135,-3.468527,-0.2137733,0.4820364,1.580717,0.2852974,0.07621691,-0.1537848,-0.006149732,-0.5629272,0.9255308,-0.01483487,0.6898223,1.628474,0.2089221,0.07262973,1.282379,0.1651856,289.4723,195.9966,35.21527,False
1,2.83333,0.1445781,-0.07180206,0.01062253,-1.210033,-4.25197,-2.565031,0.3502855,1.365345,0.378916,-1.155043,0.2359438,6.2,0,0.1599865,-0.02798797,-0.04396115,-0.4888482,-3.471321,-0.2133362,0.4822909,1.58071,0.2854869,0.09008163,-0.1644961,-0.0009841174,-0.5627084,0.9213414,-0.01280474,0.6899462,1.6284,0.2085929,0.07290155,1.282175,0.1661702,289.1743,196.1216,35.30051,False
1,2.844441,0.1392082,-0.05693458,0.005186141,-1.209901,-4.252154,-2.566274,0.3507556,1.365195,0.3794026,-1.15643,-0.1288478,6.2,0,0.1642528,-0.03864646,-0.04296153,-0.4892227,-3.473582,-0.2130878,0.4825777,1.580877,0.2856197,0.09535201,-0.1644762,-0.007414028,-0.562849,0.9182218,-0.01139141,0.6901815,1.628448,0.2082324,0.07299542,1.282138,0.1668923,288.9146,196.8522,34.72631,False
1,2.855552,0.1327506,-0.03463406,-0.002438422,-1.209846,-4.252783,-2.567214,0.3512707,1.365007,0.3797078,-1.156497,-0.00476829,5.3,0,0.1738519,-0.03226379,-0.03875868,-0.4896999,-3.474245,-0.2145594,0.4829364,1.580914,0.285785,0.09206241,-0.1601502,-0.02015202,-0.5635142,0.9151542,-0.009696836,0.6904184,1.62835,0.2079685,0.07320397,1.282075,0.1675385,288.7156,197.2485,34.48616,False
1,2.866663,0.1188693,-0.02621559,-0.01207091,-1.209425,-4.253081,-2.567897,0.3518309,1.364908,0.3802669,-1.156519,-0.001997107,5.3,0,0.1781669,-0.03015149,-0.03025882,-0.489668,-3.474783,-0.2162324,0.4832234,1.580901,0.2860003,0.09619863,-0.1558251,-0.03615018,-0.5645513,0.9123769,-0.008428905,0.6907146,1.628142,0.2077439,0.0735705,1.281972,0.1682169,288.6464,196.965,34.8496,False
1,2.877774,0.103927,-0.01777244,-0.01744409,-1.209079,-4.253292,-2.568429,0.3524975,1.364891,0.3805923,-1.156438,0.007433914,5.3,0,0.1834446,-0.0365158,-0.03883338,-0.4902374,-3.476431,-0.217034,0.4836339,1.580818,0.2864974,0.1003363,-0.1664367,-0.0479499,-0.565501,0.9081697,-0.006139918,0.6910231,1.628036,0.2074919,0.07398301,1.281855,0.1689262,288.6342,196.5235,35.37284,False
1,2.888885,0.0975243,-0.0156885,-0.02171196,-1.208684,-4.253425,-2.569239,0.3530562,1.364872,0.381146,-1.156133,0.02792465,5.3,0,0.1898789,-0.06421794,-0.03575166,-0.49015,-3.480173,-0.2161073,0.4839848,1.580773,0.2868793,0.1012042,-0.1855342,-0.06615255,-0.5669113,0.902963,-0.00292708,0.6914264,1.627904,0.2072387,0.07438709,1.281766,0.1696066,288.4879,196.2574,35.70163,False
1,2.899997,0.09966223,-0.01568116,-0.02065475,-1.20831,-4.253304,-2.57059,0.3536906,1.364681,0.3811805,-1.156018,0.01030359,3.2,0,0.2047286,-0.08335701,-0.04229814,-0.4908009,-3.483669,-0.2152207,0.4849912,1.580997,0.2871225,0.09896131,-0.1897296,-0.07894166,-0.5683516,0.898959,-0.0005768407,0.6917689,1.627691,0.2069895,0.07485387,1.281683,0.1703296,288.5904,195.7189,36.30795,False
1,2.911108,0.09967192,-0.02101576,-0.02167859,-1.207824,-4.253107,-2.571779,0.3542504,1.364781,0.3816998,-1.156367,-0.03189925,3.2,0,0.2121576,-0.0918598,-0.04769467,-0.4912275,-3.486756,-0.2151131,0.4855565,1.581044,0.2874904,0.09793319,-0.1854799,-0.0757184,-0.5691015,0.8953919,0.001396562,0.6922138,1.627555,0.2067745,0.07535347,1.281679,0.1709896,288.5058,195.6582,36.43266,False
1,2.922219,0.1081989,-0.0274485,-0.0290976,-1.207044,-4.252926,-2.573392,0.3548401,1.364802,0.3817515,-1.15693,-0.05114039,3.2,0,0.2078452,-0.1014351,-0.05622189,-0.4919226,-3.490285,-0.2139895,0.4858183,1.581121,0.2879288,0.1021934,-0.1940243,-0.07366348,-0.5698382,0.8907315,0.003952664,0.6928566,1.627372,0.2065513,0.07597844,1.281616,0.1716153,288.5474,195.985,36.10596,False
1,2.93333,0.1114282,-0.05093997,-0.03637457,-1.205196,-4.251743,-2.576291,0.3559994,1.365124,0.3828397,-1.15683,0.009585279,3.2,0,0.2017268,-0.1345545,-0.02110511,-0.4903987,-3.498487,-0.2112611,0.4867247,1.581304,0.2886081,0.1062539,-0.2045965,-0.09505428,-0.5725679,0.8819139,0.008879245,0.6940169,1.627237,0.2062469,0.07651264,1.281521,0.1721741,288.3942,195.704,36.58732,False
1,2.944441,0.1071531,-0.05208668,-0.04487607,-1.204247,-4.251527,-2.57734,0.3566177,1.365335,0.3835793,-1.158501,-0.1529513,1.3,0,0.2060471,-0.1452213,-0.01370102,-0.4898507,-3.502438,-0.2102342,0.4872355,1.581421,0.2889574,0.1028363,-0.2194032,-0.1174641,-0.5746926,0.8766209,0.01230141,0.6945375,1.627111,0.2060766,0.07716156,1.281472,0.172729,288.3199,195.8406,36.49519,False
1,2.955552,0.1071531,-0.05208668,-0.04487607,-1.204247,-4.251527,-2.57734,0.3566177,1.365335,0.3835793,-1.156951,0.1430022,1.3,0,0.2060471,-0.1452213,-0.01370102,-0.4898507,-3.502438,-0.2102342,0.4872355,1.581421,0.2889574,0.1028363,-0.2194032,-0.1174641,-0.5746926,0.8766209,0.01230141,0.6945375,1.627111,0.2060766,0.07807118,1.281366,0.1734746,288.1717,195.5233,36.85953,False
1,2.966663,0.1050284,-0.05636881,-0.04697018,-1.203336,-4.25116,-2.578558,0.357215,1.365488,0.3841486,-1.155572,0.124761,1.3,0,0.211409,-0.1473629,-0.01054276,-0.4894762,-3.506271,-0.20959,0.4878196,1.581643,0.289232,0.09742689,-0.227879,-0.1249146,-0.5763651,0.8714724,0.01572623,0.6950587,1.626981,0.2058904,0.07884079,1.281277,0.1741898,288.1491,195.235,37.11155,False
1,2.977774,0.1050576,-0.06487042,-0.04371127,-1.201644,-4.25004,-2.581383,0.3585368,1.365649,0.3848004,-1.15651,-0.08666778,1.3,0,0.2017171,-0.1388155,-0.02748615,-0.489774,-3.512875,-0.2081953,0.489297,1.581728,0.2896073,0.09547563,-0.2269084,-0.1035877,-0.5781611,0.8622822,0.02145656,0.6958929,1.626636,0.2053826,0.079188,1.281253,0.1747021,288.1492,194.9962,37.41059,False
1,2.988885,0.1072036,-0.06910045,-0.03942225,-1.200841,-4.249305,-2.582916,0.359287,1.365667,0.385082,-1.158043,-0.1392249,1.3,0,0.2028557,-0.1292555,-0.01786651,-0.4891241,-3.515,-0.2089378,0.4900378,1.581877,0.289897,0.09659049,-0.2280046,-0.09720965,-0.5790426,0.8576427,0.02423237,0.696418,1.626544,0.2052076,0.07967301,1.281272,0.1753095,288.1294,195.3353,37.0628,False
1,2.999996,0.1071932,-0.06269231,-0.03734146,-1.200299,-4.249052,-2.584209,0.3600738,1.365803,0.3856161,-1.156984,0.09788284,0.6,0,0.1977226,-0.1197508,0.01308544,-0.4876322,-3.516449,-0.2096851,0.4907185,1.582122,0.2901976,0.09012102,-0.2311466,-0.1056933,-0.5805558,0.8527941,0.02751898,0.6970086,1.626481,0.2050805,0.0805284,1.281196,0.1761266,288.1264,194.9154,37.60376,False
1,3.011107,0.1050516,-0.04987284,-0.03104511,-1.200109,-4.248933,-2.585419,0.3608564,1.365857,0.3858237,-1.156916,0.005190645,0.6,0,0.1796911,-0.1208744,0.02492838,-0.4864455,-3.519409,-0.2084861,0.491514,1.582458,0.2908173,0.08361037,-0.2321355,-0.1205744,-0.5826538,0.8480833,0.03063461,0.6977851,1.626292,0.2050753,0.08140917,1.281128,0.1769407,288.091,194.8089,37.73048,False
1,3.022218,0.1039287,-0.01896091,-0.02808769,-1.200378,-4.249805,-2.586281,0.3618887,1.365917,0.3864446,-1.156868,0.004438889,0.6,0,0.1595579,-0.1337121,0.03994117,-0.4850405,-3.523073,-0.2062826,0.4922804,1.582667,0.2911632,0.08567509,-0.2299704,-0.130169,-0.5845436,0.8436649,0.03315183,0.6984222,1.626174,0.2048972,0.08226935,1.281046,0.1776319,287.9769,194.408,38.25048,False
1,3.033329,0.1007034,-0.005119268,-0.02819061,-1.200356,-4.250394,-2.58707,0.3628308,1.365974,0.3869989,-1.156842,0.002407971,0.6,0,0.1424681,-0.1486425,0.03254664,-0.4846181,-3.528448,-0.2024245,0.4929923,1.583153,0.2919757,0.08139479,-0.2278282,-0.1322648,-0.5862949,0.8391001,0.03625201,0.6992294,1.625893,0.2047479,0.08310645,1.280988,0.1782677,287.9074,194.7442,37.90387,False
1,3.04444,0.09216619,-0.001982484,-0.03352493,-1.199932,-4.250708,-2.587682,0.3637326,1.365986,0.3878131,-1.156869,-0.002474029,0.1,0,0.1530169,-0.1475286,0.0165034,-0.4846351,-3.531842,-0.2015715,0.4936494,1.583102,0.2925112,0.08142419,-0.2107742,-0.1332499,-0.587781,0.8362138,0.0378065,0.699807,1.625716,0.2045903,0.08380911,1.280939,0.1788525,287.8701,194.1593,38.69085,False
1,3.055551,0.07189752,0.009676099,-0.03571584,-1.199836,-4.251482,-2.587443,0.3647928,1.365888,0.3884397,-1.156718,0.01379299,0.1,0,0.162417,-0.1389277,-0.01123432,-0.4854437,-3.534941,-0.2009773,0.49438,1.583135,0.2929773,0.08147092,-0.1980025,-0.1310693,-0.5893165,0.8330936,0.03956978,0.7003465,1.62556,0.2045374,0.08475205,1.280943,0.1795563,287.7963,195.4084,37.21953,False
1,3.066662,0.06335662,0.01926389,-0.03258215,-1.199863,-4.251999,-2.587635,0.3659118,1.365757,0.3888857,-1.156464,0.02315888,0.1,0,0.155948,-0.1335752,-0.02393985,-0.4855507,-3.537975,-0.1999334,0.4951401,1.5832,0.2931423,0.08576675,-0.196958,-0.1268395,-0.5906726,0.8295658,0.04141109,0.700945,1.625419,0.2043993,0.08537548,1.2809,0.1800233,287.5121,194.2131,38.50321,False
