loc,t,aDotUA,bDotUA,gDotUA,aUA,bUA,gUA,xUA,yUA,zUA,qE,qDotE,emgA,emgB,aDotSH,bDotSH,gDotSH,aSH,bSH,gSH,xSH,ySH,zSH,aDotUB,bDotUB,gDotUB,aUB,bUB,gUB,xUB,yUB,zUB,xHand,yHand,zHand,aHand,bHand,gHand,enable
3,0,-0.4816172,-0.3398309,-0.08076119,-1.26604,-3.833748,-3.049674,0.549569,1.345233,0.46457,-0.9451143,-0.01336242,5.6,1.3,-0.2997776,0.05531721,0.348155,-0.1118512,-3.896818,-0.3633833,0.6180694,1.567006,0.3720138,-0.09256688,-0.1804683,-0.155024,-0.7725905,-0.087308,0.1327293,0.6683307,1.56008,0.2302577,0.4162763,1.059181,0.2904507,326.9684,214.8668,1.554686,True
3,0.01111111,-0.4816172,-0.3398309,-0.08076119,-1.26604,-3.833748,-3.049674,0.549569,1.345233,0.46457,-0.9448661,0.02284424,5.6,1.3,-0.2997776,0.05531721,0.348155,-0.1118512,-3.896818,-0.3633833,0.6180694,1.567006,0.3720138,-0.09256688,-0.1804683,-0.155024,-0.7725905,-0.087308,0.1327293,0.6683307,1.56008,0.2302577,0.4156755,1.06103,0.2878979,326.5265,214.305,1.57993,True
3,0.02222222,-0.4553435,-0.2400925,-0.153853,-1.260763,-3.831455,-3.040959,0.5488585,1.34669,0.4638836,-0.9501088,-0.4796239,3.9,0.9,-0.2892614,-0.1362864,0.3159111,-0.1030068,-3.949768,-0.3044685,0.6195916,1.567605,0.3712251,-0.02239004,-0.1751086,-0.1674893,-0.7772958,-0.09193978,0.1346822,0.6692599,1.559876,0.2299232,0.4151909,1.062999,0.2853431,325.9489,213.7441,1.535905,True
3,0.03333334,-0.4024787,-0.1220304,-0.2068694,-1.255009,-3.83311,-3.032716,0.5481946,1.347493,0.4636104,-0.9396895,0.9566792,3.9,0.9,-0.1939809,-0.1975869,0.1718418,-0.1017072,-4.010409,-0.242239,0.6208454,1.567786,0.3709548,0.004543662,-0.1601493,-0.137963,-0.7798769,-0.09616581,0.1369025,0.670125,1.559782,0.2295654,0.4149038,1.064876,0.2833076,325.1265,213.266,1.430178,True
3,0.04444445,-0.3717223,-0.08910915,-0.2369442,-1.251456,-3.833884,-3.029254,0.5478832,1.347791,0.4634261,-0.9411739,-0.1442536,3.9,0.9,-0.1057264,-0.17972,0.1455435,-0.1007953,-4.021589,-0.2332801,0.6214576,1.567872,0.3708243,0.0474741,-0.1728607,-0.1085651,-0.7802806,-0.09971474,0.1373166,0.6706253,1.55971,0.2294559,0.4142283,1.066562,0.2815193,325.2012,212.7433,1.361164,True
3,0.05555556,-0.3494307,-0.07432988,-0.2636982,-1.247655,-3.833821,-3.026173,0.5475262,1.348403,0.4631393,-0.9465801,-0.4917718,3.9,0.9,-0.04286988,-0.1960324,0.1533644,-0.09801711,-4.040009,-0.21683,0.6220255,1.568096,0.3706429,0.05575344,-0.1547922,-0.1310513,-0.7827653,-0.1010662,0.1372766,0.6709392,1.559644,0.2293091,0.4126631,1.068331,0.279778,325.4209,212.2336,1.403382,True
3,0.06666667,-0.310097,-0.06275384,-0.3000498,-1.243044,-3.834074,-3.024152,0.5471903,1.348812,0.4630752,-0.9475697,-0.08629082,1.9,0.7,-0.05897218,-0.2578579,0.1701622,-0.09446339,-4.088224,-0.1674705,0.6225954,1.568083,0.3706188,0.04675345,-0.1069296,-0.1725769,-0.7861449,-0.09974257,0.1362425,0.6714391,1.55953,0.2292328,0.4104847,1.070371,0.2784846,324.985,211.9389,1.631957,True
3,0.07777778,-0.2622278,-0.05223915,-0.3310935,-1.238157,-3.83379,-3.023158,0.5471063,1.349027,0.4629004,-0.947451,0.0108674,1.9,0.7,-0.0804977,-0.2811133,0.1584919,-0.09273873,-4.127476,-0.1266112,0.6230341,1.568022,0.3706963,0.04023971,-0.069674,-0.1810845,-0.7883143,-0.09871992,0.1353884,0.6719018,1.559401,0.2291853,0.408014,1.072466,0.2777928,324.2685,211.7666,2.140802,True
3,0.08888889,-0.2388245,-0.04586555,-0.3428932,-1.233908,-3.834059,-3.021297,0.5467801,1.349105,0.4627211,-0.9482558,-0.07403394,1.9,0.7,-0.07311694,-0.2693404,0.14465,-0.09137732,-4.152767,-0.1009511,0.6233075,1.567909,0.3708365,0.02036092,-0.01423848,-0.142606,-0.7881306,-0.09596541,0.133916,0.672379,1.559249,0.2291324,0.4055412,1.074425,0.2776936,323.6773,211.5531,2.835115,True
3,0.1,-0.2112021,-0.0224862,-0.3548135,-1.229592,-3.834632,-3.019826,0.5464705,1.349029,0.4629536,-0.9488092,-0.05021622,1.9,0.7,-0.05791135,-0.2272097,0.0435715,-0.09458429,-4.164805,-0.08903161,0.6233425,1.567412,0.3711731,0.0003204048,0.01878624,-0.1211346,-0.7883159,-0.09429535,0.1334598,0.6728528,1.559071,0.2290857,0.4032121,1.076023,0.2781416,323.2359,211.2914,3.577948,True
3,0.1111111,-0.1889383,0.01478575,-0.3604256,-1.225533,-3.836313,-3.017821,0.5461209,1.348921,0.4633365,-0.947754,0.09655111,1.9,0.7,-0.08236664,-0.1505335,-0.09951643,-0.1010547,-4.160286,-0.09177093,0.6232004,1.566996,0.3715036,-0.02024318,0.0474712,-0.1497237,-0.7909636,-0.09226162,0.1329056,0.6733487,1.558943,0.2290144,0.4011296,1.077049,0.2790147,322.9775,211.0849,4.280842,True
3,0.1222222,-0.1538889,0.05965897,-0.3543812,-1.222158,-3.839293,-3.016438,0.5455508,1.349045,0.4636889,-0.9477444,-0.0002874574,0.7,0,-0.09877384,0.0414729,-0.1258115,-0.1044279,-4.090634,-0.1593249,0.6230331,1.56674,0.3717978,-0.03004486,0.09004968,-0.1667301,-0.7930776,-0.08817047,0.1307346,0.6738456,1.558726,0.2290914,0.3992573,1.077389,0.2800985,322.9652,210.9957,4.802866,True
3,0.1333333,-0.1198715,0.08002298,-0.3470935,-1.218943,-3.841283,-3.015131,0.5451664,1.349405,0.4643307,-0.947272,0.04306974,0.7,0,-0.06188498,0.1284843,-0.09896092,-0.1049136,-4.048388,-0.2021017,0.6234281,1.566349,0.3719063,-0.03248447,0.1262112,-0.1933913,-0.7957653,-0.08415496,0.1282522,0.6745263,1.558431,0.2292385,0.397659,1.077178,0.2813701,323.1043,210.9372,5.136466,True
3,0.1444445,-0.1198715,0.08002298,-0.3470935,-1.218943,-3.841283,-3.015131,0.5451664,1.349405,0.4643307,-0.947966,-0.06406232,0.7,0,-0.06188498,0.1284843,-0.09896092,-0.1049136,-4.048388,-0.2021017,0.6234281,1.566349,0.3719063,-0.03248447,0.1262112,-0.1933913,-0.7957653,-0.08415496,0.1282522,0.6745263,1.558431,0.2292385,0.3962417,1.076616,0.2827706,323.425,210.9821,5.240545,True
3,0.1555556,-0.102866,0.05949813,-0.397033,-1.209076,-3.843514,-3.012381,0.5441409,1.35014,0.464802,-0.9480709,-0.009200818,0.7,0,-0.04226065,0.04152548,-0.01022541,-0.1022696,-4.063301,-0.1870301,0.6243476,1.565587,0.3721581,-0.06993212,0.1632914,-0.3070462,-0.8053351,-0.07603645,0.1253608,0.675702,1.557772,0.2294469,0.394986,1.075999,0.2842501,323.8201,211.1953,5.301779,True
3,0.1666667,-0.1200349,0.0880368,-0.4248892,-1.203845,-3.846667,-3.009109,0.5436623,1.350065,0.4650226,-0.9465449,0.139312,0.7,0,-0.06051991,-0.09222713,-0.07164273,-0.1042462,-4.124673,-0.1246343,0.6246294,1.564976,0.3725529,-0.06920981,0.1717589,-0.3390304,-0.8099104,-0.07233385,0.1235177,0.6762549,1.55735,0.2294884,0.3941268,1.0755,0.285677,324.1718,211.3085,5.459937,True
3,0.1777778,-0.1416206,0.1944589,-0.4319621,-1.199784,-3.853657,-3.00422,0.5429969,1.350163,0.465337,-0.9459564,0.05246805,0.2,0,-0.0664081,-0.1541496,-0.2104843,-0.1114554,-4.166545,-0.08206877,0.6243681,1.564526,0.3731978,-0.0822535,0.1664183,-0.3634116,-0.8148,-0.06874005,0.1225669,0.6769476,1.557135,0.2295804,0.3930893,1.075219,0.2871335,324.6161,211.006,5.447584,True
3,0.1888889,-0.1578189,0.2817971,-0.4293296,-1.196128,-3.861304,-2.999053,0.5423508,1.350067,0.4655981,-0.9450414,0.08322809,0.2,0,-0.03963026,-0.1126972,-0.2158028,-0.1140184,-4.165308,-0.08388984,0.6242437,1.56424,0.3738487,-0.09227267,0.2165749,-0.2994599,-0.8152447,-0.06279135,0.1198135,0.6773891,1.556961,0.2298999,0.3914954,1.075217,0.2884476,324.9525,210.8266,5.53548,True
3,0.2,-0.1934436,0.4691609,-0.4369277,-1.192941,-3.874955,-2.990741,0.541341,1.350136,0.4659262,-0.9447021,0.03040774,0.2,0,0.0631938,-0.03339504,-0.1971043,-0.1155157,-4.139899,-0.1138134,0.624082,1.56387,0.3743937,-0.1222898,0.2519097,-0.2108034,-0.8142221,-0.05579242,0.1178944,0.6780367,1.55677,0.2300825,0.3891666,1.075489,0.289518,325.0604,210.8405,5.708692,True
3,0.2111111,-0.2159757,0.5232974,-0.4564336,-1.188413,-3.883664,-2.984437,0.5403095,1.350492,0.4660978,-0.9446903,0.0009826968,0.2,0,0.1270814,0.01904704,-0.115349,-0.1141287,-4.12137,-0.1358779,0.6240643,1.563612,0.3746967,-0.1454051,0.2476671,-0.1807287,-0.8148682,-0.05223697,0.1179431,0.6785216,1.556514,0.2302394,0.3860823,1.076181,0.2903847,324.9695,211.0643,5.87982,True
3,0.2222222,-0.2619115,0.5409121,-0.512947,-1.181732,-3.89238,-2.976488,0.5387313,1.35116,0.4661975,-0.9438387,0.07789153,0,0,0.05956258,0.003961854,-0.03915667,-0.1116759,-4.121904,-0.1336587,0.6242607,1.563301,0.3747017,-0.1202514,0.2006711,-0.2266973,-0.8185881,-0.05245602,0.1181408,0.6778989,1.555939,0.230509,0.3822956,1.077335,0.2911109,324.7039,211.355,6.077242,True
3,0.2333333,-0.3533944,0.4432487,-0.5856653,-1.173017,-3.895342,-2.968135,0.5370669,1.351759,0.4659846,-0.9440821,-0.02279568,0,0,-0.09289721,-0.08073438,-0.009478182,-0.1105531,-4.158335,-0.09074322,0.6244512,1.562964,0.3748887,-0.1002573,0.1868021,-0.2513895,-0.8221498,-0.04976489,0.1166544,0.6782507,1.555665,0.2306685,0.3777119,1.079035,0.2917987,324.3434,211.7468,6.251239,True
3,0.2444444,-0.4639568,0.3104102,-0.6549186,-1.163174,-3.895996,-2.958722,0.5350021,1.352546,0.4658306,-0.9426749,0.12876,0,0,-0.2037151,-0.1069119,0.00100559,-0.1100317,-4.177223,-0.06582242,0.6244748,1.562623,0.3751554,-0.04098907,0.1611947,-0.2924427,-0.8269269,-0.04851787,0.1134499,0.6783853,1.555466,0.2310011,0.3726512,1.081342,0.2925898,323.9055,211.8436,6.804427,True
3,0.2555556,-0.4639568,0.3104102,-0.6549186,-1.163174,-3.895996,-2.958722,0.5350021,1.352546,0.4658306,-0.9402892,0.2171595,0,0,-0.2037151,-0.1069119,0.00100559,-0.1100317,-4.177223,-0.06582242,0.6244748,1.562623,0.3751554,-0.04098907,0.1611947,-0.2924427,-0.8269269,-0.04851787,0.1134499,0.6783853,1.555466,0.2310011,0.3671025,1.084103,0.293415,323.4678,211.647,7.666487,True
3,0.2666667,-0.6374781,0.22426,-0.7286584,-1.145606,-3.902408,-2.936991,0.5309908,1.353841,0.4657605,-0.9475266,-0.6635012,0,0,-0.237183,-0.09256302,-0.05184682,-0.112755,-4.192148,-0.04498319,0.6242465,1.562043,0.3759258,0.001825832,0.1209116,-0.1756373,-0.8266239,-0.04645658,0.1105659,0.6789771,1.555212,0.2315412,0.3615833,1.087306,0.2941436,322.9385,211.3925,8.980003,True
3,0.2777778,-0.7442607,0.3047553,-0.7578144,-1.137697,-3.911678,-2.921114,0.5290431,1.354664,0.4657476,-0.9312392,1.495245,0,0,-0.2284858,-0.07775328,-0.04118248,-0.112787,-4.194018,-0.0410758,0.6243,1.561849,0.3763664,-0.001143306,0.1017566,-0.1553451,-0.8277935,-0.04585684,0.1103313,0.6795201,1.55505,0.2318268,0.357025,1.090541,0.2947334,322.0046,210.9386,10.37823,True
3,0.2888889,-0.8330562,0.4417787,-0.7863077,-1.130321,-3.924859,-2.903507,0.5271451,1.355631,0.4659376,-0.9371493,-0.5529013,0,0,-0.2144464,-0.09505029,-0.01373317,-0.1117718,-4.210453,-0.0229948,0.624312,1.561779,0.3767002,-0.02153542,0.09957431,-0.170042,-0.8302224,-0.04418277,0.110183,0.6801853,1.55502,0.2322338,0.3513342,1.093147,0.2943372,322.2435,210.0642,10.97854,True
3,0.3,-0.8330562,0.4417787,-0.7863077,-1.130321,-3.924859,-2.903507,0.5271451,1.355631,0.4659376,-0.9378839,-0.05982613,0,0,-0.2144464,-0.09505029,-0.01373317,-0.1117718,-4.210453,-0.0229948,0.624312,1.561779,0.3767002,-0.02153542,0.09957431,-0.170042,-0.8302224,-0.04418277,0.110183,0.6801853,1.55502,0.2322338,0.3450364,1.096329,0.2934453,322.2961,209.5091,11.35665,True
3,0.3111111,-0.9645131,0.5784678,-0.8488306,-1.114269,-3.949729,-2.866942,0.5226595,1.357993,0.465848,-0.9503975,-1.14348,0,0,-0.3077949,-0.09915505,0.03081285,-0.10962,-4.230779,0.007307714,0.6246329,1.561241,0.3772688,-0.02784558,0.1132634,-0.2616113,-0.8385751,-0.03910053,0.1077574,0.6816373,1.554511,0.2330987,0.3388354,1.100583,0.2923985,321.6802,209.5058,12.05115,True
3,0.3222222,-1.114794,0.5572368,-0.9422198,-1.102312,-3.959817,-2.844134,0.519637,1.359561,0.4655182,-0.9277452,2.081016,0,0,-0.3797763,-0.0873684,0.07313038,-0.1072301,-4.236748,0.02045627,0.6251354,1.560912,0.377547,-0.003726929,0.1664992,-0.2939082,-0.8427227,-0.0331433,0.1028537,0.6827324,1.554197,0.2335908,0.3338558,1.105375,0.2915432,320.2805,209.0554,13.11403,True
3,0.3333333,-1.233023,0.5063525,-1.019468,-1.090175,-3.968456,-2.822335,0.5167931,1.36151,0.4651458,-0.9374018,-0.9015772,0,0,-0.3552737,-0.05292499,0.1668806,-0.1018952,-4.229362,0.01600986,0.625761,1.560667,0.3777428,0.02028799,0.1685637,-0.3399697,-0.8478791,-0.03007162,0.09967253,0.6837687,1.553935,0.2340701,0.3267533,1.110232,0.2900221,320.2036,208.8335,12.81214,True
3,0.3444445,-1.309686,0.4632281,-1.067007,-1.078456,-3.977199,-2.800676,0.5140748,1.363379,0.4647324,-0.9350598,0.2245113,0,0,-0.3153061,-0.06202994,0.2282288,-0.09705198,-4.240582,0.02916694,0.626583,1.560408,0.3779407,0.03935567,0.1408646,-0.3529102,-0.8522674,-0.02891727,0.09778754,0.6849984,1.553673,0.234576,0.3184128,1.116334,0.2885782,319.7769,208.1972,13.37279,True
3,0.3555556,-1.407634,0.3962267,-1.15174,-1.063413,-3.984415,-2.777869,0.5117211,1.365404,0.4640112,-0.9362167,-0.108084,0,0,-0.2902941,-0.1266046,0.3117325,-0.09081858,-4.28617,0.07671022,0.6278484,1.560116,0.3780463,0.07346788,0.132365,-0.3521771,-0.8557397,-0.02706517,0.0944,0.6859107,1.553362,0.2349474,0.309184,1.123693,0.2871972,319.042,207.3528,14.85346,True
3,0.3666667,-1.503528,0.3315884,-1.230975,-1.049139,-3.993299,-2.752628,0.5089117,1.368287,0.4638305,-0.9377587,-0.1388963,0,0,-0.3417391,-0.3153094,0.3706633,-0.08604567,-4.415802,0.2115588,0.6294552,1.55994,0.3781745,0.1281835,0.09182308,-0.4208724,-0.8630139,-0.02690285,0.09067345,0.6874055,1.552866,0.235302,0.2998193,1.132333,0.2858829,317.974,206.3048,16.96708,True
3,0.3777778,-1.583392,0.2873071,-1.291284,-1.034666,-4.002429,-2.727584,0.5059851,1.371239,0.4631753,-0.9371227,0.06010862,0,0,-0.4138349,-0.5463794,0.4071554,-0.08493886,-4.599882,0.4022761,0.6309636,1.559874,0.3784297,0.1141739,0.1054688,-0.5368761,-0.8730385,-0.02370866,0.08786967,0.6886934,1.552391,0.2357125,0.2908327,1.141903,0.2845481,316.617,205.0408,19.42703,True
3,0.3888889,-1.63455,0.2785416,-1.311373,-1.022151,-4.01294,-2.702224,0.5034224,1.373857,0.4626827,-0.9364761,0.05892256,0,0,-0.42396,-0.6859698,0.4191213,-0.08602224,1.532204,0.5577487,0.6322495,1.559673,0.3786433,0.09119457,0.1309308,-0.5931385,-0.8813742,-0.01955253,0.08507068,0.689961,1.551979,0.2361379,0.2824629,1.151993,0.2830529,315.3937,203.4282,21.95185,True
3,0.4,-1.729436,0.2930169,-1.342226,-1.009731,-4.025157,-2.673497,0.5011274,1.376897,0.4622989,-0.9378545,-0.1255285,0,0,-0.372126,-0.7415367,0.4076101,-0.08871522,1.41044,0.6812782,0.6334208,1.559578,0.3787463,0.08750939,0.1233891,-0.6410222,-0.8898335,-0.01727832,0.0828086,0.6911404,1.551515,0.2365,0.2745313,1.162448,0.2812645,314.443,201.7869,24.08196,True
3,0.4111111,-1.770018,0.3365584,-1.343554,-0.9987909,-4.038906,-2.64539,0.4990876,1.379446,0.4616697,-0.939397,-0.1392613,0,0,-0.3458578,-0.6908307,0.4556181,-0.08731759,1.314677,0.7795501,0.6346524,1.559408,0.3788888,0.09588993,0.1063289,-0.6570644,-0.8976046,-0.01585646,0.08041095,0.692317,1.551206,0.2369163,0.2668524,1.173112,0.2790649,313.5342,200.1038,26.14271,True
3,0.4222222,-1.832074,0.4396981,-1.349485,-0.989668,-4.057165,-2.612761,0.4973477,1.382534,0.4613438,-0.9379984,0.1296841,0,0,-0.3079002,-0.5393558,0.5627707,-0.08057394,1.221924,0.8741315,0.6361236,1.559262,0.3786721,0.1121878,0.06802468,-0.6294721,-0.9034113,-0.01644209,0.07888176,0.6934948,1.550879,0.2371407,0.2596424,1.183878,0.2766262,312.5088,198.3532,28.25286,True
3,0.4333333,-1.89301,0.5279344,-1.353194,-0.9812225,-4.075881,-2.579351,0.495806,1.38571,0.4611089,-0.9401385,-0.1963194,0,0,-0.2432137,-0.4468496,0.7076375,-0.07433628,1.073037,1.023117,0.6378865,1.559299,0.3784895,0.1713572,0.04152814,-0.5778483,-0.907788,-0.01676154,0.07476026,0.6944752,1.550524,0.2373161,0.2529406,1.194725,0.2740149,311.5713,196.6415,30.30769,True
3,0.4444444,-1.950566,0.5490483,-1.357559,-0.9720085,-4.092359,-2.546921,0.494384,1.389035,0.4608612,-0.9391574,0.09205195,0,0,-0.2226346,-0.5144963,0.7751855,-0.07675124,0.8929272,1.204339,0.6393868,1.559204,0.3783512,0.1833968,-0.004240334,-0.5502051,-0.9130568,-0.01853147,0.07348514,0.6954923,1.550238,0.2377689,0.2467615,1.205621,0.2713357,310.6459,194.8944,32.3155,True
3,0.4555556,-1.950566,0.5490483,-1.357559,-0.9720085,-4.092359,-2.546921,0.494384,1.389035,0.4608612,-0.9393252,-0.01558366,0,0,-0.2226346,-0.5144963,0.7751855,-0.07675124,0.8929272,1.204339,0.6393868,1.559204,0.3783512,0.1833968,-0.004240334,-0.5502051,-0.9130568,-0.01853147,0.07348514,0.6954923,1.550238,0.2377689,0.2410063,1.21677,0.2687743,309.8432,193.3442,33.99206,True
3,0.4666667,-2.003601,0.4700992,-1.353788,-0.9526932,-4.121485,-2.48455,0.4907498,1.396034,0.4602489,-0.9623812,-2.107939,0,0,-0.307561,-0.5648658,0.7170952,-0.0880473,0.6835117,1.422434,0.6426353,1.559014,0.378782,0.1559781,-0.01791616,-0.423119,-0.9184849,-0.01901603,0.07134342,0.6973672,1.549738,0.2384636,0.2360818,1.228239,0.2665114,308.7596,191.6989,36.25591,True
3,0.4777778,-2.004448,0.3730274,-1.372309,-0.9409598,-4.134091,-2.454955,0.4886901,1.400244,0.4595699,-0.9183069,4.047193,0.4,0,-0.1819265,-0.4628177,0.6600814,-0.08867154,0.6240916,1.479175,0.6441162,1.55906,0.3790286,0.1786105,-0.03703488,-0.399888,-0.922111,-0.02000034,0.06921023,0.6984004,1.549438,0.2387009,0.23306,1.238495,0.2650875,307.0682,188.573,39.73711,True
3,0.4888889,-2.01266,0.2428017,-1.402357,-0.9274879,-4.145928,-2.425319,0.4870942,1.404558,0.4590046,-0.9387302,-1.903054,0.4,0,-0.01972395,-0.4391842,0.6767831,-0.09239677,0.5310295,1.566264,0.64599,1.559175,0.378865,0.2126398,-0.1009402,-0.4118646,-0.9274469,-0.02368123,0.06783018,0.6996741,1.549004,0.2389381,0.2275642,1.248772,0.2625728,307.9621,188.1465,39.58273,True
3,0.5,-2.018793,0.1264918,-1.428198,-0.913492,-4.157459,-2.395592,0.485258,1.408846,0.4583614,-0.9428986,-0.3601019,0.4,0,-0.02611977,-0.4387939,0.7865803,-0.09804161,0.4029491,1.694154,0.6478388,1.559044,0.3786652,0.2303216,-0.1233636,-0.4546286,-0.9341347,-0.02585184,0.0659388,0.7008352,1.54858,0.2391279,0.221686,1.260558,0.2599906,308.4561,186.8879,40.75614,True
3,0.5111111,-2.04501,-0.07535937,-1.486451,-0.8950576,-4.166594,-2.365804,0.4836984,1.41364,0.4577029,-0.9430856,-0.01569894,0.4,0,-0.1360318,-0.4004031,0.8603309,-0.1035203,0.2906246,1.811674,0.6499149,1.558668,0.3784335,0.2458445,-0.09359482,-0.4963839,-0.9412106,-0.02511348,0.06218721,0.7021295,1.548134,0.2394269,0.2162059,1.273596,0.2575822,308.1306,184.7836,43.43605,True
3,0.5222223,-2.063861,-0.2194345,-1.517414,-0.8769901,-4.176111,-2.335707,0.4818219,1.418329,0.456836,-0.9431856,-0.00904981,0.3,0,-0.2009237,-0.4055037,0.8726408,-0.1109318,0.2113248,1.895066,0.6518812,1.558455,0.3783937,0.2959191,-0.08805725,-0.3946418,-0.9419899,-0.02589112,0.05754852,0.7033726,1.547855,0.2398286,0.2116864,1.287361,0.2553967,307.5257,181.8581,47.14596,True
3,0.5333334,-2.063861,-0.2194345,-1.517414,-0.8769901,-4.176111,-2.335707,0.4818219,1.418329,0.456836,-0.9420794,0.1014567,0.3,0,-0.2009237,-0.4055037,0.8726408,-0.1109318,0.2113248,1.895066,0.6518812,1.558455,0.3783937,0.2959191,-0.08805725,-0.3946418,-0.9419899,-0.02589112,0.05754852,0.7033726,1.547855,0.2398286,0.2080341,1.3013,0.2532198,307.0695,178.472,51.16024,True
3,0.5444446,-2.079389,-0.3943457,-1.543967,-0.8574766,-4.18384,-2.307195,0.4802698,1.423028,0.4560828,-0.9656537,-2.156883,0.3,0,-0.2446952,-0.5088794,0.9107508,-0.1235456,0.1514364,1.958447,0.6539371,1.558108,0.3786509,0.3557965,-0.09863335,-0.3750047,-0.9453167,-0.02773762,0.05258012,0.7044003,1.547454,0.240242,0.2056627,1.314879,0.2510294,306.5916,174.983,55.39909,True
3,0.5555557,-2.069668,-0.4530092,-1.56065,-0.8409879,-4.195775,-2.276833,0.4789424,1.427957,0.4554462,-0.9431841,2.072193,0.3,0,-0.1877011,-0.483821,0.9497947,-0.1322228,0.08056448,2.028585,0.6559267,1.557937,0.3789897,0.326043,-0.01980385,-0.362026,-0.9489136,-0.02441267,0.048114,0.7053746,1.547125,0.2405496,0.2055079,1.326105,0.249501,305.192,170.0464,60.91666,True
3,0.5666668,-1.989808,-0.4805577,-1.573259,-0.8108628,-4.223505,-2.216037,0.476144,1.438844,0.4533098,-0.9405134,0.2239502,0.3,0,0.04889625,-0.5754899,0.7817838,-0.1512106,0.04903066,2.051572,0.6600858,1.55785,0.3796504,0.3321345,-0.1262316,-0.2979962,-0.9535613,-0.03094047,0.04452086,0.7076994,1.546352,0.2411103,0.2046188,1.334818,0.2470999,305.652,167.3448,63.33942,True
3,0.577778,-1.930866,-0.6275554,-1.593669,-0.7907628,-4.234033,-2.189277,0.4747867,1.445141,0.4516392,-0.9216183,1.72728,0.1,0,-0.01025081,-0.7212433,0.7941963,-0.1666691,0.03800238,2.064131,0.6624161,1.558347,0.3797183,0.3528621,-0.1678539,-0.356741,-0.9596866,-0.0347681,0.04210351,0.708969,1.545994,0.2413783,0.2024575,1.34251,0.2437344,307.6703,166.9191,62.5229,True
3,0.5888891,-1.930866,-0.6275554,-1.593669,-0.7907628,-4.234033,-2.189277,0.4747867,1.445141,0.4516392,-0.943509,-2.013612,0.1,0,-0.01025081,-0.7212433,0.7941963,-0.1666691,0.03800238,2.064131,0.6624161,1.558347,0.3797183,0.3528621,-0.1678539,-0.356741,-0.9596866,-0.0347681,0.04210351,0.708969,1.545994,0.2413783,0.1980265,1.352469,0.2389378,310.6958,168.6697,59.43147,True
3,0.6000003,-1.908103,-0.797101,-1.627735,-0.7681563,-4.244456,-2.161391,0.4737247,1.45119,0.4497347,-0.9673693,-2.162533,0.1,0,-0.1105596,-0.8435673,0.8348395,-0.1833821,0.02063284,2.085912,0.6647617,1.558488,0.3795915,0.349121,-0.1636829,-0.4078505,-0.9660723,-0.03610208,0.03924674,0.7103229,1.545606,0.2416492,0.1950226,1.365036,0.2348244,311.4352,167.6122,60.61959,True
3,0.6111114,-1.890317,-1.113812,-1.681044,-0.7373345,-4.250306,-2.136244,0.472705,1.458198,0.4475026,-0.9489253,1.702024,0.1,0,-0.2775522,-0.9102862,0.8903531,-0.2002548,0.001238104,2.113474,0.6671845,1.558618,0.3790576,0.3311098,-0.1808935,-0.5013855,-0.9751782,-0.03885805,0.03775643,0.7115602,1.545132,0.2417927,0.1952628,1.377247,0.2327074,309.972,163.0368,66.23661,True
3,0.6222225,-1.895916,-1.429509,-1.732246,-0.7040775,-4.256276,-2.109987,0.4722189,1.46496,0.4450071,-0.9446136,0.3772159,0.1,0,-0.3897444,-0.9551344,0.9870265,-0.2178226,-0.02631563,2.148237,0.669486,1.558678,0.3784213,0.3235416,-0.1810851,-0.6142302,-0.9859422,-0.04077992,0.03538489,0.7125635,1.544769,0.2419395,0.1957336,1.388383,0.2305017,310.2036,159.459,70.40824,True
3,0.6333337,-1.900754,-1.611866,-1.759864,-0.6733281,-4.265934,-2.080779,0.4720232,1.471322,0.4426341,-0.9439121,0.06227846,1.3,0.7,-0.4624476,-1.016601,0.9894605,-0.2354059,-0.03440631,2.1638,0.6715074,1.558779,0.3777716,0.3277836,-0.2087822,-0.6184896,-0.9930475,-0.04431953,0.03344611,0.7135621,1.544472,0.2420974,0.1957011,1.398791,0.2275751,311.8432,157.5389,72.30643,True
3,0.6444448,-1.890203,-1.565946,-1.7474,-0.6499162,-4.280974,-2.048132,0.4718484,1.476991,0.4405928,-0.9430541,0.07714003,1.3,0.7,-0.6784489,-1.015763,1.011794,-0.2514056,-0.04602795,2.189265,0.6730557,1.55918,0.3769999,0.3364338,-0.2865472,-0.6120567,-0.999625,-0.05124268,0.03324903,0.7144356,1.544236,0.2420762,0.1953467,1.408827,0.2238418,313.9749,156.4952,73.19418,True
3,0.655556,-1.859868,-1.304504,-1.691683,-0.6365365,-4.302607,-2.01127,0.4718198,1.482171,0.4387872,-0.9432048,-0.01415856,1.3,0.7,-0.7602004,-0.9749535,1.016066,-0.2660743,-0.06026241,2.213692,0.6747091,1.55921,0.3765457,0.2881605,-0.3227445,-0.5464537,-1.003291,-0.05718393,0.03478355,0.7153132,1.544136,0.2420003,0.1952403,1.418637,0.2194177,316.0401,155.5542,74.08511,True
3,0.6666671,-1.826366,-1.057003,-1.652897,-0.6261395,-4.32713,-1.972479,0.4715728,1.487091,0.4372869,-0.9444177,-0.10983,1.3,0.7,-0.8033548,-0.8051971,0.9867097,-0.2749176,-0.08189394,2.244844,0.6755961,1.559415,0.3760765,0.2309276,-0.3289727,-0.416936,-1.003819,-0.06171796,0.03657293,0.7155782,1.544063,0.2418971,0.1958003,1.428351,0.21451,317.7738,154.3664,75.10522,True
3,0.6777782,-1.767481,-0.7164803,-1.573219,-0.6238817,-4.354024,-1.933194,0.4713279,1.491305,0.435909,-0.9458579,-0.1300754,1.3,0.7,-0.8335652,-0.6327657,0.8677343,-0.2797565,-0.09431279,2.267024,0.6765079,1.559539,0.3755603,0.2152073,-0.3543385,-0.2931472,-1.00357,-0.06720646,0.03738466,0.7154906,1.543885,0.2420218,0.1970653,1.438191,0.2093677,319.0069,152.8981,76.09165,True
3,0.6888894,-1.705171,-0.4546585,-1.47491,-0.6229006,-4.378053,-1.896954,0.4709792,1.495203,0.4345136,-0.9465013,-0.05728478,0.5,1.1,-0.8631291,-0.5573225,0.7470673,-0.2858824,-0.09665836,2.279733,0.6769962,1.559637,0.375047,0.2142991,-0.346686,-0.1759611,-1.002074,-0.07167578,0.03734258,0.715525,1.543727,0.2420702,0.1987786,1.448482,0.2042733,319.8008,151.1788,77.08592,True
3,0.7000005,-1.668215,-0.2643527,-1.38466,-0.6201836,-4.400105,-1.86133,0.4710269,1.49983,0.4331121,-0.947834,-0.1219495,0.5,1.1,-0.7818906,-0.4243103,0.7141037,-0.2911932,-0.1134857,2.302127,0.6777077,1.55975,0.3746784,0.2197545,-0.2880525,-0.1569603,-1.003704,-0.07299311,0.03557264,0.7155921,1.543571,0.2421644,0.2005752,1.45941,0.1995123,320.4316,149.2366,78.3131,True
3,0.7111117,-1.65028,-0.1583959,-1.312958,-0.6176898,-4.421934,-1.825399,0.4707251,1.503638,0.4315803,-0.9484145,-0.0520023,0.5,1.1,-0.6846185,-0.3847344,0.6186057,-0.2965936,-0.1168567,2.309949,0.6783812,1.559787,0.3742292,0.1771132,-0.2454742,-0.1555333,-1.005877,-0.07448982,0.03584322,0.7158513,1.543463,0.2421424,0.2021995,1.471018,0.1953475,320.7598,147.1809,79.9612,True
3,0.7222228,-1.630075,-0.1111242,-1.257923,-0.6149761,-4.442651,-1.791164,0.4707847,1.507591,0.4302433,-0.9471176,0.1183857,0.5,1.1,-0.682217,-0.4258907,0.5565218,-0.3038795,-0.1132737,2.313939,0.678818,1.559981,0.3738947,0.1385517,-0.2455411,-0.1753693,-1.008579,-0.07758001,0.03731808,0.7159603,1.543359,0.2420573,0.2036,1.482986,0.1919337,320.9826,145.2352,82.00745,True
3,0.7333339,-1.583305,-0.01656264,-1.153159,-0.6157969,-4.459646,-1.761522,0.4706882,1.510908,0.4291277,-0.946219,0.08053292,0,0,-0.6921884,-0.4394974,0.5224342,-0.3111084,-0.1121283,2.320824,0.6792137,1.560152,0.3735135,0.1122617,-0.2115769,-0.2412059,-1.013701,-0.07866019,0.03741661,0.7160161,1.543221,0.2419746,0.2048354,1.494967,0.1891384,321.3258,143.6557,84.14849,True
3,0.7444451,-1.544028,0.06918406,-1.090933,-0.617848,-4.477611,-1.731404,0.4704428,1.514013,0.4280457,-0.9467666,-0.05073013,0,0,-0.6741119,-0.4245939,0.5116865,-0.317607,-0.1159993,2.331268,0.679221,1.560401,0.3730361,0.0985772,-0.1934534,-0.2240447,-1.015678,-0.08026461,0.03762567,0.7160313,1.543211,0.2417049,0.205955,1.506608,0.1866747,321.7195,142.3015,86.30877,True
3,0.7555562,-1.486777,0.2233284,-0.9983011,-0.624286,-4.493247,-1.704457,0.4704578,1.516409,0.4271154,-0.9481524,-0.1263266,0,0,-0.682498,-0.4278655,0.5266578,-0.3255331,-0.1198288,2.342658,0.6794672,1.560556,0.3724639,0.1018424,-0.2009114,-0.2176719,-1.017854,-0.0833628,0.03801982,0.716067,1.543165,0.2415817,0.2072641,1.517577,0.1844651,322.0648,141.1307,88.25224,True
3,0.7666674,-1.391351,0.4447357,-0.9040411,-0.6357296,-4.507724,-1.680699,0.4701483,1.518341,0.4263508,-0.9482643,-0.009249706,0,0,-0.68363,-0.3783065,0.6058319,-0.3339646,-0.1347685,2.364477,0.6796092,1.560652,0.3717766,0.08692771,-0.1615031,-0.2143851,-1.020141,-0.08387373,0.03777721,0.7158843,1.543106,0.2413261,0.2088149,1.527616,0.1823481,322.2384,139.912,90.03775,True
3,0.7777785,-1.346772,0.5335482,-0.8610397,-0.6430708,-4.52323,-1.654613,0.4699613,1.520779,0.4253881,-0.9490579,-0.07293889,0,0,-0.6535512,-0.2735461,0.6893293,-0.3411041,-0.1574403,2.39206,0.6796721,1.560617,0.3711777,0.07326141,-0.1380465,-0.1951019,-1.021714,-0.08463179,0.03778306,0.715709,1.543087,0.2411983,0.2104884,1.536669,0.1801575,322.3605,138.7489,91.51477,True
3,0.7888896,-1.276634,0.6300235,-0.7999939,-0.652826,-4.535991,-1.632677,0.469584,1.522795,0.4245274,-0.9507917,-0.1580855,0,0,-0.6022124,-0.2771243,0.7080049,-0.3496789,-0.1674597,2.406359,0.6795955,1.560742,0.3705928,0.03934039,-0.1359187,-0.1787674,-1.023097,-0.08624421,0.03938709,0.7153763,1.543004,0.2409916,0.2123007,1.544794,0.177935,322.332,137.641,92.68005,True
3,0.8000008,-1.23406,0.6644551,-0.7608958,-0.6604554,-4.548668,-1.610131,0.4693412,1.525032,0.4236805,-0.948806,0.1825501,0,0,-0.5736918,-0.3091632,0.6979159,-0.3582793,-0.171197,2.41533,0.6793433,1.56077,0.3701568,0.01780666,-0.1072224,-0.1977619,-1.026097,-0.08675141,0.04012585,0.7150209,1.543,0.2408669,0.2140178,1.55222,0.1757319,322.251,136.5006,93.62847,True
3,0.8111119,-1.173355,0.6936871,-0.7153635,-0.6690803,-4.559491,-1.590775,0.4687353,1.52702,0.4228747,-0.9498414,-0.09724958,0,0,-0.5433203,-0.3121526,0.6443436,-0.36468,-0.1738821,2.422834,0.6788671,1.560789,0.3698564,0.02047709,-0.06024923,-0.1424694,-1.025789,-0.08561291,0.03923262,0.7146215,1.543077,0.2407935,0.2154656,1.559235,0.1734975,322.3619,135.6647,94.28735,True
3,0.8222231,-1.132781,0.6770775,-0.6630949,-0.6758102,-4.568641,-1.572118,0.4682167,1.528991,0.4221056,-0.9487277,0.1026234,0,0,-0.4840694,-0.2245586,0.5654743,-0.3670901,-0.1810049,2.43312,0.678428,1.5608,0.3698256,0.03593614,-0.0249957,-0.08836026,-1.024906,-0.08483912,0.03782701,0.7140847,1.543025,0.2406979,0.216721,1.566018,0.171401,322.468,134.8882,94.91423,True
3,0.8333342,-1.098491,0.6198322,-0.6297615,-0.6806193,-4.578125,-1.553553,0.4676083,1.531024,0.4213281,-0.9497131,-0.09152911,0,0,-0.4199639,-0.1996791,0.46275,-0.3692494,-0.1813598,2.435805,0.6779372,1.560842,0.369736,0.02346756,-0.02282625,-0.0584001,-1.024723,-0.0852386,0.03820731,0.7137108,1.543126,0.2406294,0.2178319,1.572718,0.1694991,322.5706,134.2047,95.5634,True
3,0.8444453,-1.074739,0.5264983,-0.5780225,-0.6835775,-4.585394,-1.536696,0.4669576,1.533151,0.420516,-0.9486643,0.09648045,0,0,-0.3560161,-0.2712196,0.2815754,-0.3703701,-0.1630631,2.420487,0.6773347,1.561253,0.3698826,0.000722792,0.0230817,0.01100835,-1.022201,-0.08338877,0.03802728,0.713315,1.543303,0.2405906,0.2188363,1.579364,0.1678674,322.6405,133.4024,96.41056,True
3,0.8555565,-1.057502,0.4649504,-0.5477974,-0.6871381,-4.593351,-1.51911,0.4665954,1.535048,0.4197726,-0.9483682,0.02578593,0,0,-0.3295971,-0.2947221,0.2704828,-0.3753933,-0.1600261,2.420626,0.6768659,1.561481,0.3698299,0.00154831,0.05180469,-0.009293997,-1.02306,-0.08175278,0.03710129,0.7128624,1.543274,0.2405379,0.2198041,1.585862,0.1664815,322.7152,132.6229,97.392,True
3,0.8666676,-1.014569,0.3565657,-0.5236785,-0.6875893,-4.600875,-1.503529,0.4658622,1.536757,0.4190848,-0.9478984,0.04244182,0,0,-0.3663357,-0.4021299,0.2669295,-0.3828502,-0.1486899,2.415276,0.676275,1.561533,0.3695409,-0.02512158,0.06545041,-0.1123758,-1.027601,-0.08018658,0.03743499,0.7123786,1.543191,0.2405627,0.2207581,1.59213,0.1652117,322.8859,131.9146,98.3857,True
3,0.8777788,-0.9942427,0.33968,-0.5065756,-0.6914115,-4.608741,-1.487047,0.4651443,1.538252,0.4183831,-0.9472811,0.05584048,0,0,-0.4769721,-0.4380771,0.29862,-0.3899635,-0.1436726,2.419548,0.6754649,1.561622,0.3690677,-0.06534488,0.08658896,-0.1876364,-1.032283,-0.07817204,0.03833487,0.7117686,1.543162,0.2406342,0.2217854,1.598049,0.1639207,323.0659,131.2965,99.30629,True
3,0.8888899,-0.9485326,0.3900656,-0.478213,-0.69772,-4.614754,-1.473469,0.4638169,1.539462,0.4178162,-0.9485359,-0.1153646,0,0,-0.52918,-0.3819296,0.3815375,-0.3968147,-0.1513056,2.434341,0.6745307,1.561832,0.3686478,-0.1042815,0.1525159,-0.2374124,-1.036574,-0.07332108,0.03836283,0.711148,1.543132,0.2405968,0.2230008,1.603553,0.1625506,323.2869,130.7,100.1475,True
3,0.900001,-0.8870675,0.5269196,-0.4248827,-0.7083343,-4.617732,-1.463153,0.4622468,1.540179,0.4174619,-0.9476608,0.0806869,0,0,-0.598884,-0.2121338,0.3662968,-0.3973756,-0.1640331,2.45484,0.6726794,1.562045,0.3683007,-0.1500136,0.1844485,-0.2273942,-1.038307,-0.069686,0.03959588,0.7103394,1.543314,0.2405415,0.2243341,1.608515,0.1610653,323.6595,129.9566,100.9532,True
3,0.9111122,-0.8351559,0.6541177,-0.3832045,-0.7201885,-4.620206,-1.453834,0.4605966,1.541027,0.4169335,-0.9486169,-0.0883802,0,0,-0.6354113,-0.1123844,0.2884917,-0.3968478,-0.1678542,2.466347,0.6712871,1.562411,0.3680995,-0.1798221,0.1835365,-0.1248031,-1.036188,-0.06752551,0.04141429,0.7094299,1.543572,0.2404923,0.2255855,1.613137,0.1593966,323.9614,129.1777,101.5333,True
3,0.9222233,-0.7067822,0.8829328,-0.3114356,-0.737351,-4.619392,-1.450606,0.4583954,1.541242,0.4164417,-0.9492145,-0.05398716,0,0,-0.6612599,-0.02979621,0.2221779,-0.3953564,-0.173292,2.479646,0.6692617,1.562885,0.3679497,-0.2009356,0.208224,-0.004240047,-1.032208,-0.0642935,0.0424444,0.7083652,1.54383,0.2403822,0.2265727,1.617597,0.1576937,324.1251,128.2216,102.0514,True
3,0.9333345,-0.6409608,0.9609625,-0.2950289,-0.7499994,-4.621464,-1.443758,0.4567314,1.541878,0.4160392,-0.9493583,-0.01302227,0,0,-0.6484039,0.006096214,0.1050882,-0.3929675,-0.1707986,2.484081,0.6673814,1.563133,0.367981,-0.2289765,0.229627,0.06633235,-1.02905,-0.06063645,0.0440383,0.7074065,1.544056,0.2403262,0.227183,1.622018,0.1562052,324.056,127.1815,102.6166,True
3,0.9444456,-0.5590637,1.01237,-0.2880275,-0.7632486,-4.623359,-1.438962,0.4546803,1.542209,0.4152758,-0.9523416,-0.2732117,0,0,-0.655004,0.0005829334,-0.02272885,-0.3894575,-0.163376,2.484615,0.6654841,1.563401,0.3678691,-0.2644384,0.2552962,0.1401732,-1.024971,-0.05649124,0.04599705,0.7064381,1.544077,0.2402563,0.2272759,1.626584,0.1550179,323.8301,126.2148,103.248,True
3,0.9555568,-0.5111943,1.023101,-0.2913824,-0.7747743,-4.62603,-1.432587,0.4528093,1.542673,0.4146571,-0.9504481,0.1750242,0,0,-0.6619245,-0.08128476,-0.03920518,-0.3911395,-0.1545793,2.484044,0.6638734,1.563673,0.3677347,-0.2729734,0.2851128,0.1412695,-1.023563,-0.05188171,0.04677336,0.7055897,1.544137,0.2401993,0.2268035,1.631232,0.1544543,323.478,125.1253,104.1437,True
3,0.9666679,-0.4696872,1.041384,-0.2830379,-0.7871569,-4.627682,-1.427738,0.450649,1.542764,0.414031,-0.9513179,-0.08211438,0,0,-0.6304233,-0.1740855,-0.04332772,-0.3939023,-0.142893,2.479157,0.6619017,1.564019,0.3676062,-0.3474835,0.3924896,0.05557239,-1.025502,-0.04248075,0.04822479,0.70476,1.544147,0.2400882,0.2257749,1.635854,0.1545535,323.1642,124.379,105.0968,True
3,0.977779,-0.4272121,1.090698,-0.2525389,-0.8009622,-4.627257,-1.4244,0.4486315,1.542603,0.4135826,-0.9497083,0.1475604,0,0,-0.5806268,-0.1607297,-0.09814886,-0.3932551,-0.1377167,2.479715,0.6598794,1.56412,0.3673801,-0.4315766,0.4764141,-0.03211783,-1.028178,-0.03331149,0.05085226,0.7039032,1.54408,0.2399182,0.2241741,1.640394,0.1551684,322.8616,123.7955,106.1554,True
3,0.9888902,-0.371994,1.173156,-0.2126938,-0.8168341,-4.625565,-1.423305,0.4464979,1.542296,0.4131851,-0.9496529,0.003232681,0,0,-0.5490064,-0.141975,-0.1216261,-0.3913824,-0.1322146,2.47917,0.6577374,1.564236,0.3669329,-0.4575339,0.4987003,-0.06704001,-1.029769,-0.02584984,0.05300862,0.703123,1.544147,0.2396734,0.2221442,1.644756,0.1561619,322.4695,123.4112,107.188,True
3,1.000001,-0.3146081,1.237476,-0.1769904,-0.8325825,-4.623643,-1.422813,0.444311,1.54184,0.4128325,-0.9491474,0.0460116,0,0,-0.5337415,-0.04504114,-0.1307497,-0.3883219,-0.1341894,2.486526,0.6555879,1.564432,0.3665254,-0.4266468,0.5115178,-0.06631551,-1.02982,-0.01887555,0.052929,0.7020102,1.544266,0.2393603,0.2198707,1.648837,0.157396,321.9442,123.0296,108.2482,True
3,1.011112,-0.2720355,1.25901,-0.1612133,-0.8474935,-4.622442,-1.422027,0.4421764,1.541452,0.4123549,-0.9499069,-0.07015578,0,0,-0.5507305,-0.0215008,-0.1368116,-0.3868188,-0.1326688,2.49174,0.6535403,1.564448,0.3659883,-0.3891428,0.491344,-0.04749963,-1.02946,-0.01327359,0.05306428,0.7010862,1.544365,0.2390997,0.2175888,1.652565,0.1587601,321.2382,122.6213,109.2737,True
3,1.022224,-0.1943252,1.287134,-0.1295346,-0.8624924,-4.620011,-1.423741,0.4396945,1.540647,0.4118412,-0.9498814,0.002560931,0,0,-0.5682052,-0.05531052,-0.1656878,-0.3855229,-0.1232237,2.490087,0.6512662,1.564698,0.3655624,-0.3868725,0.4648969,0.06440095,-1.024385,-0.008859138,0.05486085,0.7003616,1.544573,0.2388978,0.2153817,1.655972,0.1601338,320.4981,122.0795,110.2872,True
3,1.033335,-0.1518282,1.315991,-0.1319051,-0.8780687,-4.618864,-1.423944,0.4373356,1.539865,0.4115138,-0.9494798,0.03619228,0,0,-0.543432,-0.06770355,-0.2416416,-0.3823127,-0.1123609,2.4852,0.6489829,1.564869,0.365145,-0.4309898,0.4915902,0.1255392,-1.020913,-0.001626792,0.05733147,0.6991719,1.544667,0.2387948,0.2132501,1.659075,0.1614262,319.847,121.4575,111.2782,True
3,1.044446,-0.08278373,1.395141,-0.1144284,-0.8963012,-4.616461,-1.426888,0.4348861,1.538646,0.4111092,-0.9505344,-0.09725013,0,0,-0.5736617,-0.08117712,-0.2766285,-0.3794557,-0.1016835,2.482796,0.6465422,1.565005,0.3646424,-0.4585297,0.4809379,0.1396998,-1.018513,0.004162787,0.06034084,0.6982262,1.544725,0.2385561,0.2111471,1.661928,0.162539,319.3189,120.8002,112.2371,True
3,1.055557,-0.01492714,1.514835,-0.08657163,-0.9167857,-4.612762,-1.431037,0.4323819,1.537235,0.4109104,-0.949394,0.1048053,0,0,-0.5265864,0.006425321,-0.1870147,-0.3784171,-0.1092213,2.494289,0.6439881,1.565247,0.364306,-0.464218,0.5192339,0.1087963,-1.018014,0.0124331,0.06127081,0.6970397,1.544852,0.2384949,0.2090112,1.664419,0.1635393,318.8819,119.9657,113.2323,True
3,1.066668,0.04330424,1.620567,-0.07032889,-0.9376212,-4.609213,-1.435451,0.4299102,1.53589,0.4108675,-0.9505829,-0.1102817,0,0,-0.4689393,0.05203354,-0.195786,-0.3752053,-0.1097847,2.498105,0.6414988,1.565374,0.3639481,-0.4936614,0.5744955,0.04934783,-1.018995,0.0221796,0.06263702,0.6961625,1.544913,0.2384222,0.2067614,1.666611,0.164535,318.4052,119.1819,114.0538,True
3,1.077779,0.08050115,1.657032,-0.05038491,-0.9568173,-4.605961,-1.439386,0.427421,1.534541,0.4107082,-0.9505275,0.005756435,0,0,-0.466696,0.05269027,-0.2948935,-0.3692968,-0.0986861,2.49287,0.6389686,1.565554,0.3636301,-0.5001409,0.6064372,0.04401979,-1.018183,0.03111757,0.06371879,0.6952016,1.544904,0.2383237,0.2043477,1.668553,0.165742,317.814,118.3017,114.8724,True
3,1.08889,0.1252838,1.65201,-0.02483779,-0.9746552,-4.602431,-1.444267,0.4250531,1.53318,0.410454,-0.9502446,0.02535933,0,0,-0.4352015,0.1062905,-0.3672754,-0.3623619,-0.09341557,2.491953,0.6362447,1.565748,0.3636031,-0.4950475,0.6639368,0.02681546,-1.017909,0.04216516,0.06324555,0.6942992,1.545014,0.23827,0.2016872,1.670329,0.1673475,317.0702,117.3646,115.7433,True
3,1.100002,0.154194,1.602074,-0.0170607,-0.9905607,-4.599842,-1.448399,0.4226915,1.531862,0.4101686,-0.9493301,0.0828406,0,0,-0.3779772,0.1522192,-0.4208038,-0.3550239,-0.08960725,2.490554,0.6337851,1.565679,0.363363,-0.4749214,0.6777802,0.01590368,-1.017755,0.05137837,0.06286072,0.6934245,1.545091,0.2381554,0.1987043,1.672039,0.1694154,316.2717,116.4926,116.7131,True
3,1.111113,0.2035929,1.462613,-0.02362396,-1.001825,-4.598892,-1.45286,0.4206718,1.530664,0.4097004,-0.9494931,-0.01601532,0,0,-0.328461,0.1277956,-0.4672533,-0.349305,-0.07861305,2.482019,0.6316588,1.565812,0.3630102,-0.4385802,0.6160367,0.02095417,-1.017062,0.05688618,0.06357631,0.6924713,1.545187,0.2380319,0.1954058,1.673698,0.1718462,315.4481,115.7501,117.8434,True
3,1.122224,0.245486,1.327274,-0.04725227,-1.01176,-4.599223,-1.456763,0.4185624,1.529425,0.4093857,-0.9488161,0.06178519,0,0,-0.383729,-0.009889543,-0.3909461,-0.3509956,-0.06453159,2.475094,0.6296462,1.565975,0.3625205,-0.417143,0.5723968,0.029325,-1.016167,0.06248828,0.06451641,0.691336,1.545271,0.2378728,0.1919094,1.675177,0.1744953,314.6317,115.0668,119.1308,True
3,1.133335,0.269081,1.258025,-0.05851713,-1.023763,-4.598708,-1.460611,0.4164372,1.528018,0.409337,-0.9494649,-0.06031512,0,0,-0.3690665,-0.04791984,-0.2901385,-0.3521477,-0.06118453,2.475597,0.6274697,1.56588,0.3620708,-0.3980063,0.5883862,0.02588671,-1.015649,0.07091212,0.06379469,0.6902925,1.545372,0.2377367,0.188322,1.676334,0.1771474,313.8766,114.5061,120.4375,True
3,1.144446,0.2915563,1.220777,-0.06255205,-1.036101,-4.598177,-1.464872,0.4143813,1.526782,0.4091902,-0.9491565,0.02835855,0.1,0,-0.2921345,0.0178301,-0.296829,-0.3479228,-0.06013604,2.475322,0.6253985,1.565846,0.3615563,-0.3957146,0.6097252,0.04286912,-1.014177,0.07976554,0.0634333,0.6891716,1.545483,0.237489,0.1847866,1.676912,0.179608,313.3299,114.1437,121.5699,True
3,1.155557,0.3129446,1.194203,-0.06344542,-1.048633,-4.597368,-1.469462,0.4122526,1.525579,0.4091666,-0.9481157,0.09444795,0.1,0,-0.257564,0.04833809,-0.2617973,-0.3453012,-0.06062713,2.4774,0.6231581,1.565947,0.3611748,-0.3793361,0.5810409,0.07789636,-1.011825,0.08588961,0.06384103,0.6879599,1.545576,0.2372942,0.1812945,1.676867,0.181782,312.8803,113.8992,122.3117,True
3,1.166668,0.3333365,1.135563,-0.07904964,-1.059103,-4.597864,-1.473609,0.4104442,1.524484,0.4090075,-0.9480001,0.009619245,0.1,0,-0.2135188,0.06391484,-0.2312223,-0.3434508,-0.06105457,2.478601,0.6210936,1.56598,0.36081,-0.3322974,0.5566056,0.0912938,-1.010042,0.09204218,0.06266072,0.6868639,1.545639,0.2370596,0.177817,1.676412,0.1836927,312.2821,113.6727,122.7225,True
3,1.17778,0.3537272,1.072615,-0.1020583,-1.068996,-4.598782,-1.47779,0.4085203,1.523354,0.4089828,-0.9478211,0.01610139,0.1,0,-0.2110056,0.05797428,-0.2994728,-0.3386939,-0.05132204,2.47169,0.6189409,1.566126,0.3605897,-0.321634,0.5374328,0.09014101,-1.008952,0.09819594,0.06255499,0.6858767,1.545802,0.236927,0.1743122,1.675835,0.1853755,311.6064,113.4877,122.9693,True
3,1.188891,0.385731,1.054555,-0.1083683,-1.080017,-4.599293,-1.482854,0.4068096,1.522202,0.4087708,-0.9476608,0.01424981,0.1,0,-0.2037871,0.03246179,-0.3125001,-0.3359652,-0.04265066,2.46553,0.6169086,1.566297,0.3602605,-0.3218814,0.5118186,0.06462236,-1.008803,0.1037754,0.0631297,0.6848824,1.545964,0.2366431,0.1708213,1.675269,0.1869548,310.954,113.3304,123.21,True
3,1.200002,0.4059359,1.060919,-0.1212221,-1.092074,-4.60017,-1.487619,0.4051415,1.521089,0.4086087,-0.9475421,0.01040233,0.1,9.1,-0.1123987,0.05144906,-0.3452165,-0.3316056,-0.03604162,2.457402,0.6151445,1.56627,0.3598778,-0.3136731,0.5000487,0.03364929,-1.00933,0.1098996,0.0631012,0.6840402,1.545991,0.2364576,0.1674372,1.674718,0.1885374,310.4319,113.2558,123.4677,True
3,1.211113,0.4496021,1.055582,-0.1414838,-1.103727,-4.601744,-1.493412,0.4037603,1.5202,0.4084871,-0.9478824,-0.03137852,0.1,9.1,-0.0898467,0.09397635,-0.3472769,-0.3270767,-0.03440804,2.456092,0.6134062,1.566458,0.359488,-0.2808426,0.4499673,0.01102282,-1.00991,0.1136367,0.06301865,0.6830906,1.546134,0.2361474,0.1641732,1.674207,0.1902208,309.9758,113.1235,123.7889,True
3,1.222224,0.4903067,0.9756122,-0.1686774,-1.112404,-4.603983,-1.499198,0.402487,1.519142,0.4086349,-0.9474574,0.03894347,0.1,9.1,-0.07678661,0.07021728,-0.3081458,-0.3253967,-0.03048467,2.452794,0.6119511,1.566767,0.3590181,-0.2413748,0.3722334,0.007556099,-1.009603,0.1154133,0.06326286,0.68189,1.546211,0.2357059,0.1610136,1.673785,0.1920691,309.4615,112.8349,124.2648,True
3,1.233335,0.4915682,0.9126779,-0.1799536,-1.120787,-4.605785,-1.50394,0.4011443,1.518146,0.4086475,-0.9483911,-0.08602303,0.1,9.1,-0.04580715,0.02086559,-0.277877,-0.3250452,-0.02277469,2.444874,0.6104891,1.566927,0.3584816,-0.2192452,0.3381144,-0.01818383,-1.010499,0.1186436,0.06330308,0.6809304,1.546288,0.2352159,0.1579087,1.673539,0.1941411,308.8904,112.4977,124.8158,True
3,1.244446,0.4653084,0.7815216,-0.1864785,-1.125249,-4.608027,-1.507221,0.4002674,1.517216,0.4087079,-0.9483847,0.001050357,1.6,33.9,0.0609408,0.08041777,-0.1730419,-0.324373,-0.03243411,2.449758,0.6094288,1.567066,0.3578224,-0.1823358,0.2688321,-0.06000621,-1.012701,0.1197192,0.06352545,0.6798249,1.546419,0.2346277,0.1549061,1.673349,0.196553,308.4159,112.1659,125.4595,True
3,1.255558,0.447489,0.6930938,-0.1783927,-1.130286,-4.60959,-1.511002,0.3991989,1.516072,0.4088387,-0.9467506,0.149018,1.6,33.9,0.09241836,0.1119263,-0.1262629,-0.3227794,-0.03815418,2.453381,0.6080397,1.567309,0.3573024,-0.1329402,0.1538698,-0.03262736,-1.012368,0.1173993,0.06468925,0.6787997,1.546602,0.2341599,0.1520055,1.672968,0.1993184,308.0849,111.8368,126.2323,True
3,1.266669,0.4381134,0.6314559,-0.1523903,-1.134986,-4.610188,-1.515234,0.3984923,1.514747,0.4089327,-0.9450717,0.1520681,1.6,33.9,0.1149688,0.1127711,-0.1083647,-0.3216172,-0.04016992,2.453213,0.6069163,1.56733,0.3567169,-0.1269682,0.07088354,0.02179897,-1.01047,0.114903,0.06716599,0.6777737,1.546656,0.2334695,0.149106,1.672403,0.2021998,307.6887,111.5734,127.0919,True
3,1.27778,0.4400918,0.6945392,-0.1219023,-1.145235,-4.609734,-1.520521,0.3975898,1.513277,0.4094241,-0.9450344,0.00213783,1.6,33.9,0.1019758,0.1460944,-0.14423,-0.3177284,-0.04048045,2.452935,0.6057255,1.567327,0.3562517,-0.1339453,0.0464367,0.06451648,-1.008651,0.1144692,0.06917241,0.6769483,1.546882,0.2328718,0.1463579,1.671537,0.2049396,307.2606,111.5905,127.7957,True
3,1.288891,0.4450929,0.8193282,-0.1003685,-1.158241,-4.609144,-1.526077,0.3967484,1.511721,0.4091856,-0.9450797,-0.003965882,1.6,33.9,0.05703332,0.1624559,-0.1724444,-0.3142189,-0.04057379,2.453717,0.6046494,1.567224,0.3558583,-0.08639584,0.02848659,0.1269051,-1.005079,0.1138184,0.06889198,0.6760896,1.546898,0.2322209,0.1438478,1.670351,0.2073443,306.8125,111.6205,128.3768,True
3,1.300002,0.4427136,0.9023765,-0.106259,-1.171086,-4.609976,-1.530593,0.3959776,1.510388,0.4091146,-0.9456693,-0.05383551,5.2,69.6,0.03096265,0.1575802,-0.2222969,-0.3100937,-0.03602365,2.449861,0.6037061,1.567117,0.3554466,-0.01273268,-0.007669829,0.1368532,-1.003428,0.1119633,0.06727385,0.6753693,1.546594,0.2317359,0.1416874,1.668835,0.2093404,306.3082,111.5833,128.749,True
3,1.311113,0.4362779,0.9108471,-0.1126639,-1.181301,-4.610934,-1.534997,0.3952271,1.509182,0.4092181,-0.9458818,-0.01903562,5.2,69.6,0.05096509,0.1298752,-0.234396,-0.3075578,-0.0313735,2.444084,0.6027244,1.567058,0.3550963,0.006019056,-0.01305676,0.09618189,-1.003775,0.111579,0.06674574,0.6746118,1.546511,0.2312624,0.1397093,1.667316,0.2110278,305.6899,111.2314,129.0627,True
3,1.322224,0.4204353,0.8477032,-0.1484344,-1.188724,-4.61382,-1.538031,0.3947232,1.508188,0.4090383,-0.9453439,0.04920102,5.2,69.6,0.09476462,0.06121325,-0.1916068,-0.3080606,-0.02563732,2.436074,0.6018779,1.566968,0.3548057,-0.0003929599,0.01027375,-0.00606964,-1.007544,0.114638,0.06532921,0.6741524,1.546828,0.2310193,0.1377148,1.6661,0.2125037,305.0385,110.6762,129.5197,True
3,1.333336,0.4035379,0.7910482,-0.1703945,-1.195637,-4.616448,-1.54103,0.3941754,1.507188,0.4091351,-0.9451489,0.01720922,5.2,69.6,0.1299472,0.04393279,-0.1803404,-0.3070076,-0.02257309,2.430749,0.6011143,1.566946,0.3545368,-0.005430847,0.05069143,-0.07748264,-1.010673,0.1183462,0.06361973,0.673259,1.547035,0.2303627,0.1356942,1.665244,0.2140115,304.5225,110.2432,129.9089,True
3,1.344447,0.3696078,0.7279674,-0.1890972,-1.20156,-4.619288,-1.542864,0.3938865,1.506272,0.4091377,-0.9441103,0.09431229,3.7,83,0.1747493,0.04369599,-0.1743859,-0.305365,-0.01993722,2.424829,0.6003448,1.567101,0.3542116,0.004243242,0.05390992,-0.06906711,-1.01126,0.1193376,0.06269906,0.6725956,1.5472,0.2299371,0.133728,1.664606,0.2157175,304.1832,109.923,130.3612,True
3,1.355558,0.3601114,0.7057067,-0.1686924,-1.20876,-4.620424,-1.546176,0.3935131,1.505387,0.4092896,-0.9430706,0.0932849,3.7,83,0.1931803,0.04981035,-0.1446892,-0.3043136,-0.02068943,2.422843,0.5995318,1.567136,0.3538604,0.005672169,0.03585879,-0.03601905,-1.010445,0.1189191,0.06274248,0.67185,1.547288,0.2293584,0.1318346,1.664067,0.2176402,303.9629,109.7567,130.8344,True
3,1.366669,0.3580753,0.6824026,-0.14829,-1.215655,-4.621303,-1.549831,0.3931056,1.504553,0.4094565,-0.9406477,0.2195263,3.7,83,0.2022514,0.1156394,-0.1176973,-0.301775,-0.02884203,2.428028,0.5988865,1.567141,0.353549,0.02774056,-0.01193641,0.03309298,-1.007853,0.1167606,0.06285992,0.6708524,1.547007,0.2288895,0.1300345,1.663492,0.2198088,303.7492,109.5413,131.3992,True
3,1.37778,0.3434176,0.6078684,-0.1360293,-1.220345,-4.622206,-1.553297,0.392726,1.504023,0.4097261,-0.9394844,0.1028068,3.7,83,0.2002258,0.1476439,-0.1227788,-0.2987385,-0.03202691,2.428829,0.5984008,1.567097,0.3531318,0.06995301,-0.09485688,0.09138548,-1.005516,0.1129104,0.06286845,0.6704322,1.547148,0.2284,0.128311,1.662861,0.2221283,303.4276,109.3117,132.0278,True
3,1.388891,0.326644,0.50332,-0.1533975,-1.222739,-4.624659,-1.555484,0.3924375,1.503925,0.410203,-0.9373496,0.1923921,2.5,52.2,0.1913078,0.1116283,-0.1474407,-0.2968524,-0.02648927,2.421729,0.597871,1.567132,0.3528774,0.08389011,-0.125729,0.09768869,-1.00437,0.1099489,0.06305194,0.6698471,1.547227,0.2279391,0.1266125,1.662145,0.2244993,303.0427,108.8969,132.8194,True
3,1.400002,0.3151344,0.4243771,-0.1666839,-1.225038,-4.627028,-1.55777,0.3920908,1.503518,0.4104984,-0.93405,0.2973882,2.5,52.2,0.1933817,0.02617263,-0.1160706,-0.298591,-0.01848966,2.411842,0.5976264,1.567241,0.3527207,0.07184035,-0.1140403,0.06689232,-1.004982,0.1098095,0.06278988,0.6693363,1.547127,0.2275269,0.1248306,1.661268,0.2267979,302.6769,108.4522,133.6418,True
3,1.411114,0.2876583,0.3356673,-0.1969442,-1.225739,-4.630521,-1.558798,0.3919084,1.503405,0.4105909,-0.9294816,0.4120367,2.5,52.2,0.2040905,0.007911161,-0.1024466,-0.298453,-0.01593103,2.406702,0.5972336,1.567243,0.3525252,0.05546768,-0.07576512,0.03183629,-1.005818,0.1104702,0.06240559,0.6688696,1.547153,0.2271311,0.1228627,1.660169,0.2288978,302.36,108.333,134.1207,True
3,1.422225,0.2568034,0.3152201,-0.2148798,-1.228711,-4.633693,-1.55952,0.3918782,1.50304,0.4108226,-0.9251263,0.3913368,2.5,52.2,0.2129824,0.0001356378,-0.06103606,-0.2991614,-0.01681427,2.404903,0.5969105,1.567375,0.3522892,0.05038872,-0.05028944,-0.04487207,-1.009065,0.1121249,0.0611025,0.6685421,1.547147,0.2268441,0.1206636,1.658857,0.2307797,302.0607,108.6578,134.0912,True
3,1.433336,0.2354202,0.3226041,-0.2244601,-1.23335,-4.636191,-1.560355,0.3917701,1.50247,0.4113727,-0.9193403,0.5220299,2.5,52.2,0.2250928,0.004087836,-0.02275802,-0.2998283,-0.020311,2.405351,0.5965845,1.567412,0.3519657,0.03906011,-0.04082806,-0.1086929,-1.012469,0.112094,0.06107001,0.6681207,1.547126,0.2265275,0.1182789,1.657277,0.2324873,301.7255,109.0957,133.9271,True
3,1.444447,0.2086971,0.3545049,-0.2214456,-1.238526,-4.638629,-1.5609,0.391681,1.502057,0.4116492,-0.9134019,0.5344166,1.2,53.9,0.2340492,0.04862568,0.001960903,-0.2991529,-0.02774894,2.409513,0.5961978,1.567426,0.3516634,0.02949145,-0.03232323,-0.1064689,-1.013388,0.111818,0.06119864,0.6671714,1.547066,0.2262232,0.1157562,1.655489,0.2340409,301.289,109.7566,133.5281,True
3,1.455558,0.1874286,0.3460314,-0.2064428,-1.242259,-4.640352,-1.561683,0.391607,1.501673,0.4120815,-0.9073843,0.541555,1.2,53.9,0.2438078,0.1072304,-0.006255957,-0.2967646,-0.03474773,2.413235,0.595847,1.5674,0.3513534,0.03515416,-0.03227594,-0.07455852,-1.012872,0.1110729,0.06091874,0.6664515,1.546984,0.2258902,0.1132779,1.653532,0.2356253,300.7367,110.3897,133.0235,True
3,1.466669,0.1663463,0.2757616,-0.1910288,-1.24291,-4.641999,-1.562217,0.3916892,1.501678,0.4124575,-0.9006795,0.6037967,1.2,53.9,0.264351,0.1550145,0.003457461,-0.2947517,-0.04425788,2.418699,0.5955702,1.567362,0.3510616,0.08191272,-0.07682633,0.01345955,-1.009884,0.1081044,0.06001806,0.6657847,1.547035,0.2255313,0.1108774,1.651538,0.2373977,300.1185,110.8058,132.6694,True
3,1.47778,0.136966,0.1296887,-0.1932097,-1.239243,-4.644493,-1.562173,0.3916132,1.501904,0.4126158,-0.8937856,0.620214,1.2,53.9,0.2730219,0.1698271,0.01199606,-0.2937621,-0.05069007,2.421535,0.5952859,1.567211,0.3508239,0.1005363,-0.1097658,0.06020392,-1.007912,0.1050287,0.05995202,0.66531,1.547153,0.2251832,0.1084956,1.649685,0.23936,299.4912,111.1136,132.5435,True
3,1.488891,0.1170623,0.01348621,-0.1966611,-1.235316,-4.646971,-1.561931,0.3916193,1.502062,0.4129272,-0.8862361,0.6798198,1.2,53.9,0.2442231,0.1614294,0.01221842,-0.2928817,-0.05500479,2.423981,0.5951806,1.567177,0.3506382,0.1213917,-0.1479995,0.1165201,-1.004809,0.1012924,0.05987265,0.6648664,1.547171,0.2248089,0.1062061,1.647919,0.2414514,298.9429,111.4456,132.564,True
3,1.500003,0.09190945,-0.1272248,-0.1978102,-1.229069,-4.649468,-1.561314,0.3915931,1.502457,0.413069,-0.8782764,0.7166268,2,54.8,0.1979925,0.1063558,-0.005813346,-0.2929434,-0.05145587,2.420142,0.5951711,1.567104,0.3504932,0.1160814,-0.1586621,0.116593,-1.003899,0.09873377,0.06012885,0.6645412,1.547232,0.2245023,0.1040079,1.646195,0.2434438,298.5359,112.0027,132.5428,True
3,1.511114,0.08140243,-0.1740885,-0.1921536,-1.225797,-4.651556,-1.56117,0.3916545,1.5027,0.4132583,-0.870124,0.7336938,2,54.8,0.1730848,0.05760067,-0.02412112,-0.292691,-0.04862266,2.416227,0.5951291,1.567092,0.3503573,0.104882,-0.1566345,0.06450386,-1.005154,0.09685598,0.06037466,0.6643681,1.54718,0.2241826,0.1018583,1.644409,0.2450894,298.3274,112.8663,132.2408,True
3,1.522225,0.07814088,-0.1463351,-0.1827464,-1.225256,-4.653367,-1.561414,0.3917807,1.502712,0.413312,-0.8615731,0.7699832,2,54.8,0.1785595,0.01045758,0.009700164,-0.2947033,-0.04588533,2.411388,0.5953408,1.567337,0.3502502,0.09866293,-0.1493583,-0.02067302,-1.008528,0.09514835,0.06040182,0.6642723,1.547152,0.2239134,0.09979735,1.64244,0.2463243,298.1716,113.8405,131.6562,True
3,1.533336,0.08858406,-0.07168852,-0.1779359,-1.227192,-4.655282,-1.562161,0.3919793,1.50264,0.4134786,-0.8534665,0.7288486,2,54.8,0.1927399,-0.01654561,0.05519461,-0.2971486,-0.04824463,2.41093,0.5954069,1.567343,0.350085,0.08689705,-0.1133391,-0.1250243,-1.01348,0.0954445,0.05958929,0.6640151,1.54722,0.2237813,0.09777815,1.640284,0.2470927,297.9922,114.9711,130.7427,True
3,1.544447,0.08841851,-0.01088966,-0.1666287,-1.229089,-4.656851,-1.562588,0.3920654,1.502505,0.4135213,-0.8452841,0.7362139,4.6,75.4,0.1961316,-0.0380654,0.08484031,-0.2992781,-0.04980031,2.410099,0.5953844,1.567263,0.3498452,0.08118099,-0.08146647,-0.1601758,-1.016369,0.09559004,0.05881778,0.6636425,1.547231,0.2235937,0.09583822,1.637966,0.2475508,297.6885,116.0012,129.6979,True
3,1.555558,0.07562814,-0.002357587,-0.1592148,-1.229108,-4.658524,-1.562496,0.3920722,1.502459,0.4136848,-0.837211,0.7260519,4.6,75.4,0.1664569,-0.04658571,0.1042528,-0.3011439,-0.05200687,2.411416,0.5953269,1.567117,0.3495843,0.08142073,-0.07610863,-0.1378173,-1.016902,0.0945518,0.05830938,0.6633267,1.54724,0.2232995,0.09397657,1.63556,0.2479313,297.2682,116.8368,128.6977,True
3,1.566669,0.002410159,-0.08000663,-0.1117258,-1.225493,-4.659908,-1.559979,0.39205,1.502364,0.4141054,-0.8280998,0.8210035,4.6,75.4,0.1260376,0.09993955,0.04598368,-0.2962586,-0.06692617,2.424147,0.5949631,1.566972,0.3492346,0.1302232,-0.1226397,0.04287682,-1.010851,0.08900018,0.05681321,0.662514,1.547384,0.2228911,0.09213833,1.633153,0.2484951,296.8135,117.5116,127.8306,True
3,1.577781,-0.003849074,-0.1139412,-0.0859208,-1.223054,-4.659972,-1.559687,0.392012,1.502282,0.41415,-0.8178866,0.9208939,4.6,75.4,0.12763,0.1120599,-0.0146758,-0.2933765,-0.06639447,2.422172,0.5946949,1.566937,0.3492277,0.1254011,-0.1427971,0.08984026,-1.008305,0.08610879,0.05715517,0.6621761,1.547451,0.2226543,0.09021954,1.630794,0.2493552,296.4327,118.1621,127.1399,True
3,1.588892,-0.001758197,-0.08169144,-0.04459805,-1.223451,-4.659103,-1.560203,0.391969,1.50214,0.4141433,-0.8084697,0.8473661,2.5,66.6,0.1119184,0.07848664,-0.08080561,-0.2913306,-0.05759432,2.413157,0.5946205,1.566966,0.3492332,0.1105506,-0.1417445,0.09533143,-1.007138,0.08404111,0.05753253,0.6620107,1.547518,0.2224972,0.08821027,1.628476,0.250524,296.1323,119.0854,126.3708,True
3,1.600003,0.009737881,0.009123486,-0.01113936,-1.226617,-4.658158,-1.561053,0.3920063,1.501938,0.414037,-0.8006288,0.7040523,2.5,66.6,0.1098143,0.07740895,-0.07759636,-0.2902334,-0.05797568,2.412392,0.5946428,1.566973,0.3491657,0.1017639,-0.1311446,0.07090071,-1.007358,0.08278316,0.05739298,0.6618571,1.547624,0.2223225,0.08621227,1.626212,0.2518114,295.7534,120.1056,125.7133,True
3,1.611114,0.02545515,0.1094932,0.01586039,-1.23127,-4.656932,-1.562283,0.392116,1.501589,0.4138343,-0.7924119,0.7393932,2.5,66.6,0.1122828,0.03762384,-0.0246095,-0.2921871,-0.06042752,2.413411,0.5950013,1.566922,0.3489962,0.08947239,-0.1408517,0.0156502,-1.009084,0.08048272,0.05803401,0.6617421,1.547526,0.2221847,0.08429874,1.623955,0.2530023,295.3175,120.9341,125.3057,True
3,1.622225,0.03812183,0.1532804,0.02619752,-1.234398,-4.656322,-1.563343,0.3922244,1.501339,0.4137268,-0.783731,0.7811252,2.5,66.6,0.09112075,-0.0040543,0.008345416,-0.2941499,-0.05934894,2.412038,0.5952199,1.566873,0.3488114,0.08058074,-0.1217479,-0.01838556,-1.010392,0.07963331,0.05783534,0.6616982,1.547462,0.2219765,0.08248424,1.621699,0.2539935,294.7653,121.4535,125.0644,True
3,1.633336,0.03918451,0.1586468,0.03148312,-1.23629,-4.65583,-1.564067,0.3924629,1.501148,0.413481,-0.7748126,0.8024717,2.5,66.6,0.04975905,-0.04782085,0.04786791,-0.2969094,-0.05818914,2.411994,0.5954037,1.566837,0.3487391,0.06756081,-0.09945134,-0.04066418,-1.011623,0.07897058,0.0577139,0.6617361,1.547384,0.221853,0.08076965,1.61945,0.254799,294.1357,121.753,124.8838,True
3,1.644447,0.03077286,0.1191671,0.0253641,-1.236211,-4.655852,-1.564102,0.3925412,1.501188,0.4133935,-0.7654964,0.8385884,2.3,68,0.01647544,-0.06353217,0.02890579,-0.297375,-0.05427629,2.409163,0.5954366,1.566659,0.3486099,0.0578986,-0.08032801,-0.04805499,-1.012336,0.07820665,0.05759405,0.6616547,1.54739,0.2218659,0.07916209,1.617161,0.2554798,293.5453,121.978,124.7021,True
3,1.655559,0.001134144,0.05191665,0.01839876,-1.234505,-4.65592,-1.563077,0.3926259,1.501256,0.4132533,-0.7557167,0.8806434,2.3,68,0.006676899,-0.02167103,-0.01119919,-0.2955076,-0.05366256,2.408873,0.59543,1.566579,0.3486156,0.08565643,-0.07284008,-0.04196724,-1.012655,0.07757389,0.05602572,0.6615595,1.547397,0.2218516,0.07762073,1.614775,0.256087,293.0806,122.4099,124.3162,True
3,1.66667,-0.02956173,-0.01206886,0.02206793,-1.232398,-4.655499,-1.562022,0.3925614,1.501293,0.4131444,-0.7456334,0.9080251,2.3,68,0.02484555,0.02415365,-0.02491396,-0.2938505,-0.05700843,2.411237,0.5954117,1.566594,0.3486807,0.1095204,-0.06531626,-0.002802628,-1.011268,0.07648852,0.05426217,0.6613468,1.547244,0.2217715,0.07751947,1.614951,0.2565312,292.6112,120.9094,125.5167,True
3,1.677781,-0.04228761,-0.02802781,0.03071417,-1.231518,-4.654844,-1.561328,0.3925298,1.501304,0.4130757,-0.7350128,0.9569523,2.3,68,0.03418993,0.02321314,-0.0495147,-0.2926745,-0.05441917,2.408054,0.5953311,1.56667,0.348722,0.107794,-0.0695073,0.0355761,-1.009577,0.07529329,0.05376736,0.6612157,1.547273,0.2216961,0.07798117,1.61527,0.2567953,292.8566,119.3724,126.9643,True
3,1.688892,-0.04553434,-0.001274243,0.04970732,-1.232619,-4.653651,-1.561217,0.3924264,1.501214,0.4130247,-0.7252203,0.880871,2.3,53.2,0.01807065,0.02444793,-0.06426574,-0.2917259,-0.0518841,2.406032,0.5952349,1.566695,0.3487468,0.08393008,-0.09498288,0.09553809,-1.006553,0.07270456,0.05517883,0.6607987,1.547505,0.2215927,0.07850455,1.615534,0.2568621,293.2989,118.3447,127.952,True
3,1.700003,-0.04553434,-0.001274243,0.04970732,-1.232619,-4.653651,-1.561217,0.3924264,1.501214,0.4130247,-0.715863,0.8415878,2.3,53.2,0.01807065,0.02444793,-0.06426574,-0.2917259,-0.0518841,2.406032,0.5952349,1.566695,0.3487468,0.08393008,-0.09498288,0.09553809,-1.006553,0.07270456,0.05517883,0.6607987,1.547505,0.2215927,0.07895226,1.615752,0.2568235,293.7231,117.6277,128.6047,True
3,1.711114,-0.02760228,0.06274986,0.05777239,-1.235485,-4.652668,-1.561846,0.3924166,1.501199,0.4128861,-0.7069686,0.7993956,2.3,53.2,0.02336537,0.03620066,-0.07276039,-0.2903336,-0.05138516,2.405106,0.5952756,1.566722,0.3487697,0.08173689,-0.1067148,0.08919392,-1.005975,0.07081985,0.05535806,0.6605796,1.547644,0.2215536,0.07929718,1.615957,0.2568248,294.0181,116.8921,129.2256,True
3,1.722225,0.004366265,0.04991742,0.03650446,-1.236636,-4.652501,-1.562844,0.3929462,1.501642,0.4126,-0.6965077,0.9428428,2.3,53.2,0.05744524,0.01180264,0.04607501,-0.2934676,-0.06096935,2.411525,0.5962557,1.566965,0.3485603,0.08643878,-0.1302596,0.02846093,-1.007269,0.06654827,0.05556552,0.6608096,1.547621,0.2214825,0.07957517,1.616188,0.2569893,294.1511,115.7686,130.1611,True
3,1.733337,0.003557158,-0.04611849,0.0137182,-1.233007,-4.653182,-1.562653,0.3932754,1.50194,0.4124084,-0.6874929,0.8091761,2.3,53.2,-0.002182715,-0.04245599,0.07397354,-0.2960967,-0.05876132,2.411465,0.5966654,1.567005,0.3484797,0.05928152,-0.1101309,-0.02029577,-1.009071,0.06599433,0.05610907,0.6610222,1.547578,0.221503,0.07979694,1.616501,0.2571011,294.0749,113.1835,131.8295,True
3,1.744448,-0.00272642,-0.09101761,-0.007277947,-1.230767,-4.653989,-1.562156,0.3935468,1.502155,0.4123216,-0.6770389,0.9421186,3.5,45.9,-0.01805264,-0.07024473,0.09738018,-0.2983779,-0.05851924,2.411854,0.5969713,1.567071,0.3485172,0.04290361,-0.0867701,-0.05638945,-1.010801,0.06596437,0.05622812,0.6611855,1.54754,0.2215257,0.07997563,1.616861,0.2573784,294.0864,111.8819,132.9329,True
3,1.755559,-0.01333831,-0.1081438,-0.01460594,-1.228904,-4.65446,-1.561495,0.393859,1.502246,0.4122281,-0.6662968,0.9672489,3.5,45.9,0.01185471,-0.06615557,0.1035096,-0.2998778,-0.06012059,2.412278,0.5972745,1.567039,0.3485446,0.02429099,-0.05171404,-0.1020713,-1.01353,0.06693056,0.05610881,0.6613638,1.547493,0.221586,0.08023544,1.617141,0.2576527,294.2007,110.6049,134.0612,True
3,1.76667,-0.01873964,-0.08150983,-0.01265288,-1.229152,-4.65453,-1.561141,0.3939851,1.502265,0.4122372,-0.6557864,0.9459529,3.5,45.9,0.03077692,-0.03933776,0.06515307,-0.2988967,-0.06046174,2.411481,0.597323,1.566894,0.3485236,0.02197167,-0.02724326,-0.1180755,-1.015274,0.06762724,0.05556845,0.6614438,1.547462,0.2216358,0.08057647,1.61739,0.2578203,294.4488,109.5071,134.9878,True
3,1.777781,-0.03165101,-0.03353584,-0.002309435,-1.230396,-4.65417,-1.560494,0.3940567,1.502309,0.412358,-0.6453617,0.9384143,3.5,45.9,0.00483365,-0.04216725,0.02704075,-0.2987449,-0.05708632,2.408942,0.5973942,1.566921,0.3486402,0.02452216,-0.03675519,-0.07866637,-1.014806,0.06668049,0.05566113,0.6614791,1.547461,0.2217209,0.08091263,1.61762,0.257954,294.7106,108.5029,135.801,True
3,1.788892,-0.02636872,-0.01426897,0.008208774,-1.230874,-4.653662,-1.56056,0.3941365,1.502364,0.4124458,-0.6354313,0.8933129,3.5,45.9,-0.003831051,-0.03562418,0.01012434,-0.2986309,-0.05568483,2.408047,0.5974312,1.566966,0.348767,0.02708813,-0.04093789,-0.03714204,-1.013902,0.0658645,0.05572398,0.6616375,1.547416,0.2217922,0.08120644,1.617847,0.2581312,294.9208,107.4457,136.6729,True
3,1.800003,-0.0221581,0.00387087,0.01020946,-1.231516,-4.653504,-1.560551,0.3941125,1.502469,0.4126492,-0.6250929,0.9311729,4.2,34,0.01738211,-0.01855544,-0.007011878,-0.2979001,-0.05520187,2.40667,0.5974064,1.567111,0.3489056,0.0212066,-0.03552196,0.01191584,-1.012081,0.06552202,0.05586087,0.6616296,1.547412,0.2217901,0.08137502,1.618116,0.2579157,295.2961,105.6959,137.9046,True
3,1.811115,-0.0221785,0.008099441,0.004853569,-1.231778,-4.653669,-1.560179,0.3941601,1.50256,0.4127514,-0.6159194,0.8244135,4.2,34,0.03871264,-0.002636714,-0.01137593,-0.2973467,-0.05585261,2.406108,0.5975696,1.567148,0.3489823,0.00881947,-0.04718094,0.0493558,-1.010315,0.06428977,0.05689124,0.6616527,1.547423,0.2217422,0.08158746,1.618614,0.2575846,295.6172,104.2227,138.6914,True
3,1.822226,-0.0221785,0.008099441,0.004853569,-1.231778,-4.653669,-1.560179,0.3941601,1.50256,0.4127514,-0.6063325,0.863193,4.2,34,0.03871264,-0.002636714,-0.01137593,-0.2973467,-0.05585261,2.406108,0.5975696,1.567148,0.3489823,0.00881947,-0.04718094,0.0493558,-1.010315,0.06428977,0.05689124,0.6616527,1.547423,0.2217422,0.08168913,1.619163,0.2575643,295.8551,102.2006,140.2571,True
3,1.833337,-0.02431474,0.007025436,0.003793227,-1.231881,-4.653718,-1.559705,0.3943461,1.502621,0.4129317,-0.5968879,0.8499811,4.2,34,0.03365296,0.04848959,-0.006720928,-0.2959624,-0.06133992,2.41118,0.5977124,1.567169,0.348942,0.004614685,-0.06848139,0.053702,-1.009775,0.06246537,0.05800045,0.6617028,1.547362,0.2217636,0.08150748,1.619439,0.2577475,295.9544,103.1578,140.0899,True
3,1.844448,-0.02110861,-0.0004872424,-0.005747505,-1.231647,-4.65411,-1.559469,0.3945596,1.502663,0.4130635,-0.5868313,0.9062415,4.2,34,0.009619629,0.07711852,0.02886409,-0.295801,-0.06924485,2.419394,0.5979155,1.56725,0.3488989,-0.005155159,-0.07810992,0.03571137,-1.010035,0.06108719,0.05910433,0.6618729,1.547328,0.221777,0.08135413,1.619815,0.2578467,296.6851,104.5755,140.6127,True
3,1.855559,-0.01789935,-0.005815355,-0.007846685,-1.231436,-4.654297,-1.55932,0.3947308,1.502786,0.4132371,-0.5784354,0.7540056,3.5,23.3,-0.002019573,0.06749675,0.04170701,-0.296397,-0.07230043,2.42276,0.5980537,1.567162,0.3488872,-0.01056612,-0.08239033,0.02725322,-1.01013,0.05989356,0.06001753,0.6619973,1.547322,0.221837,0.08132432,1.620345,0.2579916,296.7722,104.5958,140.991,True
3,1.86667,-0.003007144,-0.0004798761,-0.01323133,-1.231594,-4.654811,-1.559524,0.3950875,1.503235,0.413331,-0.5696006,0.7957986,3.5,23.3,-0.03390175,0.03445165,0.06524558,-0.2982953,-0.07716642,2.429365,0.5986637,1.567262,0.3489923,-0.01221585,-0.04095009,-0.02500869,-1.012296,0.06038771,0.06022552,0.6624352,1.547167,0.2221155,0.0816128,1.620679,0.2583482,296.9453,103.5338,142.0052,True
3,1.877781,-0.004073206,-0.001569999,-0.01641858,-1.231548,-4.655137,-1.559318,0.3952461,1.503499,0.4134619,-0.5610822,0.7665078,3.5,23.3,-0.01194271,-0.02412547,0.048654,-0.2998581,-0.07091838,2.422748,0.5989074,1.567242,0.3491812,-0.02315073,-0.01969999,-0.05050316,-1.013751,0.06118653,0.06045615,0.6626869,1.547111,0.2222843,0.08137682,1.620966,0.2586925,297.1035,100.9352,144.1221,True
3,1.888893,-0.01360077,-0.02830816,-0.02794586,-1.230274,-4.655936,-1.558479,0.395419,1.503801,0.4137154,-0.5530486,0.7225876,3.5,23.3,0.01111724,-0.0624344,0.02685531,-0.3007103,-0.06452347,2.415705,0.5991079,1.567245,0.3493924,-0.03520746,-0.004852332,-0.08130115,-1.015682,0.06180917,0.0610527,0.6629264,1.547032,0.2224441,0.08142261,1.621704,0.2588865,297.5391,100.6431,144.8286,True
3,1.900004,-0.02948506,-0.0700511,-0.05001368,-1.228061,-4.657372,-1.557086,0.3956506,1.504088,0.4139001,-0.5446026,0.7609419,1.6,22.1,0.01747424,-0.08701351,0.03408433,-0.3024259,-0.06124964,2.412139,0.5993243,1.567288,0.3494642,-0.03955448,-0.01020101,-0.08976941,-1.017002,0.06146562,0.0617888,0.6631827,1.547019,0.2225451,0.08105078,1.622295,0.2591462,297.5448,98.5002,146.3497,True
3,1.911115,-0.03372086,-0.08613566,-0.06374967,-1.22658,-4.658685,-1.556046,0.3958485,1.504312,0.4141347,-0.5363223,0.7456155,1.6,22.1,0.006048575,-0.06900253,0.0566908,-0.3035684,-0.06474091,2.41599,0.5993915,1.567304,0.3495364,-0.0351513,-0.01123476,-0.0759605,-1.017338,0.06129652,0.06217016,0.6632751,1.546986,0.2226303,0.08100967,1.622644,0.2600629,296.1913,93.28438,149.4511,True
3,1.922226,-0.03047648,-0.1031778,-0.0647013,-1.224869,-4.659436,-1.555594,0.3960531,1.504526,0.4143257,-0.5284798,0.7059773,1.6,22.1,0.008609988,-0.02016142,0.07937023,-0.3038038,-0.0728292,2.423522,0.5995107,1.567343,0.3495874,-0.03912735,0.001601949,-0.0482441,-1.016823,0.06190265,0.06234993,0.6634694,1.546955,0.222743,0.08098041,1.62288,0.2608194,295.6809,90.39217,151.4785,True
3,1.933337,-0.01983036,-0.09777877,-0.05836187,-1.224,-4.659923,-1.555606,0.3961592,1.504766,0.414551,-0.5216717,0.6120442,1.6,22.1,0.007612666,0.0706147,0.04697716,-0.3005324,-0.08254814,2.432774,0.5995145,1.567321,0.3495245,-0.04821804,0.007009935,-0.0002123932,-1.014912,0.06206071,0.0631827,0.6635409,1.546946,0.2228012,0.0809605,1.623123,0.2613535,295.3914,88.41035,152.9911,True
3,1.944448,-0.009119874,-0.1136744,-0.05081034,-1.22219,-4.660283,-1.555769,0.3963936,1.505009,0.4146841,-0.5153089,0.5723388,0.5,19,0.002301132,0.08344137,0.04286505,-0.3001713,-0.08647776,2.436702,0.5998008,1.567303,0.3496799,-0.03118424,-0.008966412,-0.002495208,-1.015252,0.06115776,0.06337418,0.6637846,1.54687,0.2228749,0.08048843,1.623182,0.2620002,294.904,86.77711,154.4439,True
3,1.955559,-0.005870694,-0.1306953,-0.04856857,-1.220126,-4.660821,-1.555636,0.3966039,1.505195,0.4148059,-0.5091341,0.5554653,0.5,19,0.001058821,0.06006262,0.03525102,-0.3003204,-0.08592916,2.436236,0.6000406,1.567308,0.3498216,-0.008054122,-0.03457636,-0.03358369,-1.016798,0.05974189,0.06335633,0.6640695,1.546811,0.2229185,0.08039225,1.622512,0.2603737,295.699,92.27503,150.4326,True
3,1.966671,-0.005850647,-0.1392436,-0.05277233,-1.218387,-4.661681,-1.555257,0.3967979,1.505362,0.4149561,-0.5028671,0.5641409,0.5,19,0.007083192,-0.0219813,0.03356262,-0.3026278,-0.07802463,2.428328,0.6004531,1.567421,0.3500562,-0.01463262,-0.04313468,-0.05161312,-1.01812,0.05901698,0.06423838,0.6642684,1.546715,0.2230704,0.08046064,1.622951,0.2611759,294.8235,88.1334,153.1091,True
3,1.977782,-0.01016391,-0.123306,-0.05713685,-1.217608,-4.662519,-1.554703,0.3970222,1.505288,0.4150903,-0.4965277,0.5709252,0.5,19,-0.006036662,-0.0825958,0.025821,-0.3047311,-0.0700695,2.421262,0.6006594,1.567354,0.3502338,-0.03815116,-0.03570798,-0.05883872,-1.019076,0.058952,0.06558913,0.6644834,1.546694,0.2232156,0.08101207,1.622587,0.2594832,296.3762,92.06973,149.8382,True
3,1.988893,-0.01778817,-0.0625336,-0.04689015,-1.219167,-4.662687,-1.554134,0.3972791,1.50521,0.415349,-0.490558,0.5373129,0.5,19,-0.002849534,-0.06015983,0.015284,-0.3042741,-0.07038175,2.421535,0.6007975,1.567379,0.350291,-0.03277447,-0.0154557,-0.05254594,-1.01937,0.05963603,0.06546369,0.6645866,1.546655,0.2233727,0.08119388,1.623069,0.2601259,295.5504,88.59761,151.9384,True
3,2.000004,-0.02117072,0.006791415,-0.03351107,-1.221628,-4.662557,-1.553827,0.3974889,1.505032,0.4155622,-0.4848327,0.5154189,1.4,14.5,0.01561206,-0.0102642,0.02929335,-0.303782,-0.07647906,2.426524,0.6009825,1.567344,0.3504131,-0.01445075,-0.003684206,-0.03145311,-1.01889,0.06010222,0.06466421,0.6647365,1.546627,0.2235305,0.08141249,1.622691,0.2583223,296.9341,91.7511,149.0885,True
3,2.011115,-0.02117072,0.006791415,-0.03351107,-1.221628,-4.662557,-1.553827,0.3974889,1.505032,0.4155622,-0.4792827,0.4997487,1.4,14.5,0.01561206,-0.0102642,0.02929335,-0.303782,-0.07647906,2.426524,0.6009825,1.567344,0.3504131,-0.01445075,-0.003684206,-0.03145311,-1.01889,0.06010222,0.06466421,0.6647365,1.546627,0.2235305,0.08158187,1.623364,0.259222,296.0725,88.40769,151.3118,True
3,2.022226,-0.01814892,0.07510449,-0.01693353,-1.225527,-4.662344,-1.553684,0.3978816,1.504972,0.4161456,-0.4746749,0.4138246,1.4,14.5,0.02553848,0.04394665,0.04022573,-0.3029479,-0.08688656,2.435368,0.601337,1.567175,0.3506377,0.00114806,-0.01846346,0.03339994,-1.016056,0.05882137,0.06484132,0.6649119,1.546521,0.2238886,0.08151485,1.622946,0.2573833,297.2536,91.63304,148.5093,True
3,2.033337,-0.01383173,0.0581017,-0.01256256,-1.22547,-4.662329,-1.553693,0.3981242,1.505007,0.4163744,-0.4694982,0.4668058,1.4,14.5,0.01568647,0.03775464,0.01577615,-0.3023801,-0.08495484,2.433841,0.6016201,1.567226,0.3508847,0.004355673,-0.01952452,0.03443377,-1.01564,0.05848475,0.06483839,0.6651904,1.546454,0.2240086,0.08153171,1.62366,0.2585186,296.3189,88.31445,150.901,True
3,2.044448,-0.00843864,0.03683762,-0.009226485,-1.22509,-4.662304,-1.553813,0.3983755,1.505031,0.4165764,-0.4655179,0.3576054,1.4,14.5,0.02913668,-0.002626461,-0.008073404,-0.3026038,-0.07862504,2.426846,0.6018673,1.567225,0.3512127,-0.0002596173,-0.02065882,0.0003877701,-1.016978,0.0582637,0.06510284,0.6655256,1.546404,0.2242444,0.08155926,1.62329,0.2567497,297.5062,92.07734,147.881,True
3,2.055559,0.001249525,0.001687588,-0.01325801,-1.223892,-4.662636,-1.554107,0.3987154,1.504971,0.416836,-0.4620888,0.3085159,0.5,16.3,0.05027469,-0.04106713,-0.008540072,-0.303725,-0.07352947,2.420623,0.6023217,1.567129,0.3513684,-0.001739148,-0.0186052,-0.03901893,-1.018822,0.05823774,0.06521762,0.665872,1.546309,0.224402,0.08155896,1.62398,0.2581378,296.5325,88.04099,150.794,True
3,2.06667,0.0003061299,-0.04417786,-0.02146949,-1.221974,-4.663268,-1.553801,0.3990176,1.505169,0.4170864,-0.459088,0.2700771,0.5,16.3,0.03639354,-0.05915082,-0.004262984,-0.3047146,-0.07082344,2.41807,0.6026217,1.567147,0.3515217,0.003499553,-0.0132894,-0.04654277,-1.019511,0.05835545,0.06498885,0.6660681,1.546268,0.2245514,0.08163762,1.623577,0.2564006,297.7128,91.90868,147.7209,True
3,2.077781,-0.008152226,-0.06550097,-0.02024872,-1.220502,-4.663492,-1.553336,0.3993097,1.505142,0.4172723,-0.4566863,0.2157943,0.5,16.3,0.005634412,-0.08048199,0.0193202,-0.3064606,-0.06874351,2.41719,0.6028242,1.567008,0.351721,-0.002995271,-0.009051177,-0.0560712,-1.020489,0.05848395,0.06519445,0.6662818,1.546172,0.224735,0.08167519,1.624257,0.2579253,296.8328,87.79588,150.7504,True
3,2.088892,-0.02309948,-0.05704208,-0.02349058,-1.220293,-4.663981,-1.552294,0.399609,1.505069,0.4174459,-0.4538863,0.2528923,0.5,16.3,0.0003640875,-0.06875136,0.02051749,-0.3068707,-0.06859091,2.4173,0.6030762,1.566929,0.3518429,-0.01370362,0.004782127,-0.06024443,-1.021201,0.05918955,0.06541842,0.6664418,1.546157,0.2248299,0.08193401,1.623856,0.2561899,298.0997,92.18964,147.3836,True
3,2.100003,-0.02849595,-0.03146224,-0.01939699,-1.220889,-4.664042,-1.551747,0.3998542,1.504926,0.4176364,-0.4515533,0.2100491,0.2,15.2,0.01312493,-0.01643438,-0.004819916,-0.3049165,-0.07075886,2.418746,0.6032127,1.56696,0.3518882,0.0004157647,-0.01327095,-0.03585431,-1.02081,0.05823708,0.06536489,0.6666156,1.546201,0.2249408,0.08197059,1.624488,0.2578389,297.2145,87.7168,150.6314,True
3,2.111114,-0.02969007,0.01544977,-0.01332226,-1.222889,-4.663874,-1.551477,0.4001284,1.504749,0.4178565,-0.449393,0.1949018,0.2,15.2,0.0136225,0.06656168,0.009591598,-0.3029191,-0.08178981,2.429008,0.6034015,1.567075,0.3519869,0.01454825,-0.0547653,-0.01142151,-1.020266,0.05566979,0.0660629,0.6668628,1.546193,0.2249784,0.08219609,1.624024,0.2561277,298.4183,92.10379,147.2959,True
3,2.122225,-0.01703561,0.06457634,-0.0008903146,-1.225393,-4.663351,-1.551961,0.4004173,1.504611,0.4181111,-0.448316,0.09612943,0.2,15.2,0.0182029,0.1037201,0.02578616,-0.3020685,-0.09023828,2.436728,0.603626,1.567064,0.3521075,0.0167792,-0.0856453,-0.003927831,-1.020244,0.05324711,0.06709088,0.6670227,1.546243,0.2250679,0.08213972,1.624637,0.2578777,297.5019,87.68365,150.5676,True
3,2.133336,0.001034396,0.07958914,0.005375889,-1.226823,-4.663033,-1.552679,0.4007263,1.504578,0.4182768,-0.447378,0.08436556,0.2,15.2,0.05010183,0.09722449,0.02222305,-0.3014443,-0.09239411,2.437117,0.6039126,1.566936,0.3523612,0.01387117,-0.08239703,0.02380157,-1.01897,0.05225322,0.06760807,0.6670997,1.546245,0.2251928,0.08238813,1.624164,0.256238,298.6573,92.33089,147.1613,True
