loc,t,aDotUA,bDotUA,gDotUA,aUA,bUA,gUA,xUA,yUA,zUA,qE,qDotE,emgA,emgB,aDotSH,bDotSH,gDotSH,aSH,bSH,gSH,xSH,ySH,zSH,aDotUB,bDotUB,gDotUB,aUB,bUB,gUB,xUB,yUB,zUB,xHand,yHand,zHand,aHand,bHand,gHand,enable
1,0,-0.193198,-1.679906,-0.4386861,-1.357879,-3.866164,2.939128,0.5304958,1.2994,0.5059144,-1.378139,0.02604036,0.5,0,-0.5586555,0.2144603,0.07721679,-0.4155186,-3.960532,-0.2789616,0.5413257,1.521496,0.4032955,-0.2286396,0.2795194,0.03101269,-0.7386267,0.2659603,-0.04034583,0.6327336,1.55566,0.2502418,0.4038284,1.067489,0.3054974,316.887,220.5809,356.3261,True
1,0.01111111,-0.2063,-1.521865,-0.3866311,-1.357739,-3.854502,2.939435,0.5283766,1.299442,0.5054209,-1.378077,0.005500813,0.5,0,-0.5043476,0.2281507,0.06931805,-0.4159027,-3.953033,-0.2820812,0.5405625,1.52151,0.4030952,-0.2233102,0.2848574,0.03201618,-0.7383385,0.2708946,-0.04170111,0.6326693,1.555683,0.2506344,0.4042197,1.067125,0.3036205,317.2448,218.7563,357.1046,True
1,0.02222222,-0.2258258,-1.343585,-0.3304653,-1.35776,-3.844828,2.940545,0.5263888,1.299585,0.5048692,-1.374884,0.2919192,0.5,0,-0.4796895,0.232229,0.08295324,-0.415328,-3.945337,-0.284509,0.539757,1.521568,0.4028769,-0.2222146,0.2901894,0.03519607,-0.7379193,0.2759081,-0.04308435,0.6325356,1.555653,0.2510121,0.4052284,1.066527,0.3010252,317.5115,217.4517,357.2452,True
1,0.03333334,-0.2551633,-1.063936,-0.2494878,-1.357748,-3.828232,2.943593,0.5224901,1.299525,0.5038052,-1.380051,-0.4748508,2.1,0,-0.4429305,0.1921766,0.1526108,-0.4108677,-3.933516,-0.2865364,0.5383343,1.521707,0.4025929,-0.2232283,0.3083052,0.04263948,-0.7370203,0.2868475,-0.04633953,0.6323481,1.555587,0.2516968,0.4066963,1.065799,0.2976264,317.8784,216.1348,356.9775,True
1,0.04444445,-0.2757533,-0.9006526,-0.2027975,-1.357974,-3.823188,2.946397,0.5207089,1.29944,0.5033793,-1.374227,0.5368937,2.1,0,-0.4301309,0.1483117,0.171342,-0.4083073,-3.931778,-0.2838445,0.5376777,1.521725,0.4025037,-0.2286571,0.3242602,0.03520992,-0.7371129,0.2930512,-0.04822426,0.6322831,1.555547,0.2521358,0.4084905,1.065559,0.2945214,317.9169,215.5586,356.0601,True
1,0.05555556,-0.2984362,-0.7501429,-0.157059,-1.358384,-3.82023,2.949958,0.5190792,1.299281,0.5028994,-1.377071,-0.2649043,2.1,0,-0.4082942,0.1069481,0.1345942,-0.4081438,-3.931865,-0.2797944,0.5369405,1.521628,0.4025416,-0.2265804,0.3167887,0.02775197,-0.7371507,0.2978802,-0.04943466,0.6321799,1.555547,0.2525668,0.4097133,1.065348,0.2911273,318.1316,214.7289,355.4805,True
1,0.06666667,-0.3243177,-0.6179189,-0.1303284,-1.358383,-3.8171,2.954006,0.5174985,1.299138,0.5025301,-1.376977,0.01151006,2.1,0,-0.3981456,0.08484447,0.09277572,-0.4087388,-3.931364,-0.2760681,0.5362401,1.521655,0.4025028,-0.225483,0.3189267,0.03093643,-0.7368173,0.3032965,-0.05100273,0.6320572,1.555575,0.2529418,0.4104319,1.065538,0.2879796,318.0798,213.9097,355.045,True
1,0.07777778,-0.3243177,-0.6179189,-0.1303284,-1.358383,-3.8171,2.954006,0.5174985,1.299138,0.5025301,-1.376741,0.0213514,2.1,0,-0.3981456,0.08484447,0.09277572,-0.4087388,-3.931364,-0.2760681,0.5362401,1.521655,0.4025028,-0.225483,0.3189267,0.03093643,-0.7368173,0.3032965,-0.05100273,0.6320572,1.555575,0.2529418,0.4104176,1.066158,0.2853684,317.8403,213.4604,354.5866,True
1,0.08888889,-0.3822403,-0.421729,-0.1003934,-1.358303,-3.811725,2.962855,0.5144096,1.298733,0.5015938,-1.380919,-0.3821469,2.6,0,-0.4198496,0.1012452,0.04622966,-0.409983,-3.925447,-0.2715692,0.5350094,1.521675,0.402426,-0.2210496,0.2752596,0.03844468,-0.7356791,0.3103816,-0.05162591,0.6319723,1.555383,0.2534237,0.409661,1.067218,0.2834809,317.4612,213.3025,354.3777,True
1,0.1,-0.4154644,-0.3760682,-0.09790793,-1.357597,-3.810123,2.968813,0.5129666,1.298494,0.5009403,-1.371974,0.8211253,2.6,0,-0.4321198,0.1169592,0.09120551,-0.4080836,-3.918887,-0.2723421,0.5344398,1.521743,0.4023218,-0.2168536,0.2507465,0.02779164,-0.7358516,0.3131294,-0.05142244,0.6319858,1.555308,0.2537193,0.4084229,1.068534,0.2825221,316.8753,213.1976,354.514,True
1,0.1111111,-0.4603757,-0.3196813,-0.0950233,-1.357219,-3.808306,2.975466,0.511539,1.298465,0.5003121,-1.375528,-0.3321267,2.6,0,-0.4243423,0.1252445,0.1199548,-0.4062104,-3.913285,-0.273138,0.5339944,1.521783,0.402235,-0.2170036,0.2336678,0.008656967,-0.7364641,0.3161002,-0.05141472,0.6319388,1.555218,0.2540317,0.4059077,1.069397,0.2812966,316.7307,213.0708,354.7801,True
1,0.1222222,-0.4603757,-0.3196813,-0.0950233,-1.357219,-3.808306,2.975466,0.511539,1.298465,0.5003121,-1.375382,0.01733101,2.6,0,-0.4243423,0.1252445,0.1199548,-0.4062104,-3.913285,-0.273138,0.5339944,1.521783,0.402235,-0.2170036,0.2336678,0.008656967,-0.7364641,0.3161002,-0.05141472,0.6319388,1.555218,0.2540317,0.4029583,1.0704,0.2801859,316.5029,212.9286,355.2849,True
1,0.1333333,-0.4871084,-0.27926,-0.09423263,-1.35645,-3.806526,2.981481,0.5100641,1.298208,0.4996185,-1.381725,-0.5803272,2.6,0,-0.4146959,0.1240952,0.1262428,-0.4049805,-3.908825,-0.272966,0.5336561,1.521794,0.4021878,-0.2161173,0.2229823,-0.01050906,-0.7373622,0.3192407,-0.05138383,0.6319571,1.555164,0.2543833,0.400025,1.071703,0.2792434,316.1744,212.9719,355.8205,True
1,0.1444445,-0.5502638,-0.1451237,-0.08347693,-1.35482,-3.806856,2.995248,0.5076777,1.297106,0.4974689,-1.369167,1.153292,2.2,0,-0.4118879,0.04211548,0.1192289,-0.402295,-3.910787,-0.2622535,0.5331914,1.521521,0.4021313,-0.2063604,0.2006474,0.001152223,-0.737146,0.324762,-0.05125733,0.6320057,1.555024,0.2550733,0.3976923,1.07323,0.2787187,315.5536,212.9932,356.3318,True
1,0.1555556,-0.5727815,-0.0898125,-0.08707486,-1.353547,-3.807759,3.002584,0.5063102,1.296659,0.4965539,-1.374809,-0.5259395,2.2,0,-0.4341736,-0.03934547,0.05387075,-0.4032575,-3.920219,-0.2478926,0.5328429,1.521294,0.402277,-0.2051235,0.1857601,0.01501569,-0.7365419,0.327019,-0.05071138,0.6320029,1.554884,0.2554352,0.3948277,1.074199,0.2770475,315.5104,212.9456,356.6488,True
1,0.1666667,-0.5888222,-0.06325494,-0.08833432,-1.352487,-3.807435,3.009438,0.5049909,1.296115,0.4955459,-1.376045,-0.1069745,2.2,0,-0.4667132,-0.08152157,0.01233573,-0.404132,-3.926934,-0.2353222,0.5323885,1.521151,0.4023397,-0.2157367,0.1985331,0.02043953,-0.7361744,0.3310798,-0.05099368,0.6319956,1.554775,0.2558141,0.3920255,1.075267,0.2746668,315.272,212.7964,356.9656,True
1,0.1777778,-0.6154937,-0.04733536,-0.08734918,-1.351547,-3.807429,3.017176,0.5035371,1.295727,0.4946611,-1.376141,-0.00819546,2.2,0,-0.4755539,-0.07698312,-0.0205715,-0.4053848,-3.929389,-0.2272787,0.5317894,1.520928,0.402508,-0.2210867,0.2294226,0.02363608,-0.7359843,0.3366125,-0.0524696,0.6319797,1.554615,0.2562304,0.3895945,1.076591,0.272012,314.7742,212.6282,357.0971,True
1,0.1888889,-0.6442732,-0.03998089,-0.08736831,-1.350575,-3.806724,3.025081,0.5021087,1.295277,0.4938009,-1.37658,-0.04003562,4.3,0,-0.4306406,-0.04415503,-0.01652424,-0.4055819,-3.927024,-0.2264174,0.5313133,1.520717,0.4025273,-0.2263782,0.2475339,0.03004591,-0.7356541,0.3417327,-0.05359638,0.6319381,1.554498,0.2566142,0.3875035,1.078132,0.2692607,314.1793,212.3813,357.1288,True
1,0.2,-0.6677337,-0.03904109,-0.09797665,-1.349125,-3.806144,3.03332,0.5005233,1.294976,0.4929352,-1.376024,0.05128025,4.3,0,-0.3486904,0.02181378,-0.05095293,-0.4080112,-3.921425,-0.2308135,0.5306567,1.520568,0.4024448,-0.2337006,0.2560603,0.04395884,-0.7347555,0.3464655,-0.05429413,0.6318746,1.554336,0.2568181,0.3857088,1.079785,0.2665185,313.5656,212.0534,357.1582,True
1,0.2111111,-0.6848143,-0.03067195,-0.1076158,-1.347638,-3.805803,3.041299,0.4990847,1.294656,0.4921756,-1.375869,0.013956,4.3,0,-0.3230196,0.07612464,-0.06253744,-0.4098403,-3.915133,-0.2339638,0.530091,1.520449,0.4023671,-0.231394,0.2486292,0.05886633,-0.7336705,0.3500589,-0.0545972,0.6318526,1.554207,0.257035,0.384055,1.081469,0.2638248,313.0272,211.7158,357.1501,True
1,0.2222222,-0.7232668,2.041459E-05,-0.1205772,-1.345676,-3.806781,3.051057,0.497492,1.294467,0.4913869,-1.375813,0.005174969,4.3,0,-0.3489219,0.1953551,-0.03584772,-0.4109103,-3.898675,-0.2440846,0.5294379,1.520606,0.4021611,-0.2237082,0.2145821,0.07482747,-0.7322324,0.3518057,-0.0537133,0.6318297,1.55412,0.2571571,0.3824044,1.083131,0.2611787,312.5531,211.355,357.1745,True
1,0.2333333,-0.7521622,0.03490338,-0.1421198,-1.343107,-3.807908,3.060746,0.4959911,1.294448,0.4906394,-1.376373,-0.05094945,4.3,0,-0.3666314,0.2485494,-0.0161132,-0.4114413,-3.887502,-0.2494221,0.5290595,1.520693,0.4019389,-0.2109747,0.17197,0.06198376,-0.732128,0.3522587,-0.05225628,0.6319036,1.55414,0.257385,0.3806191,1.084784,0.2586023,312.1393,210.9666,357.2382,True
1,0.2444444,-0.7671683,0.06031286,-0.1572102,-1.340641,-3.809396,3.070188,0.4944474,1.294412,0.4897537,-1.375208,0.1071119,2.2,0,-0.3799763,0.2813572,0.0215451,-0.4109391,-3.875721,-0.2554613,0.5286968,1.520868,0.4016714,-0.2061541,0.1473847,0.007651449,-0.7339975,0.3533891,-0.05114947,0.6321529,1.554096,0.2575035,0.3786433,1.086473,0.2561912,311.7234,210.5942,357.3307,True
1,0.2555556,-0.7919756,0.152594,-0.1973194,-1.336609,-3.814121,3.08085,0.4929751,1.294534,0.4890022,-1.375474,-0.02507496,2.2,0,-0.3518978,0.2467906,0.07322122,-0.4087047,-3.870688,-0.2572736,0.5282958,1.520923,0.4014983,-0.2046259,0.1430231,-0.05095131,-0.7368178,0.3552807,-0.05035399,0.6322851,1.554049,0.2576344,0.3762824,1.088249,0.2539041,311.3789,210.2791,357.4407,True
1,0.2666667,-0.7996147,0.2077835,-0.220111,-1.333208,-3.818136,3.090931,0.4913072,1.29466,0.4881961,-1.376152,-0.06149326,2.2,0,-0.3158344,0.1687685,0.08827899,-0.4070019,-3.87209,-0.2537998,0.5281118,1.521087,0.4013121,-0.2100966,0.142989,-0.0647411,-0.7380019,0.3576475,-0.0495601,0.6323473,1.554017,0.2577667,0.3735214,1.09025,0.2517838,311.0318,209.9684,357.6903,True
1,0.2777778,-0.7996147,0.2077835,-0.220111,-1.333208,-3.818136,3.090931,0.4913072,1.29466,0.4881961,-1.376009,0.01376548,2.2,0,-0.3158344,0.1687685,0.08827899,-0.4070019,-3.87209,-0.2537998,0.5281118,1.521087,0.4013121,-0.2100966,0.142989,-0.0647411,-0.7380019,0.3576475,-0.0495601,0.6323473,1.554017,0.2577667,0.3703362,1.092511,0.2498035,310.6107,209.6682,358.04,True
1,0.2888889,-0.8287748,0.3255407,-0.2721398,-1.324876,-3.829194,3.112987,0.4877817,1.295058,0.4862053,-1.385498,-0.8677277,1.4,0,-0.2940754,0.02810434,0.08278199,-0.4045299,-3.879877,-0.2406914,0.5275391,1.521326,0.4010506,-0.2138238,0.1483939,-0.0135641,-0.7366415,0.3628128,-0.04857659,0.6323962,1.554165,0.2578049,0.3669394,1.095206,0.2482378,310.0601,209.494,358.5078,True
1,0.3,-0.8469469,0.3306004,-0.2998469,-1.320418,-3.833085,3.124061,0.4857328,1.295294,0.4851148,-1.367458,1.656749,1.4,0,-0.3059329,-0.02516964,0.09103291,-0.4028095,-3.884491,-0.2324189,0.5272456,1.521429,0.4008026,-0.2074356,0.1441424,-0.01468849,-0.7368833,0.3649611,-0.04808258,0.6323963,1.554155,0.2578173,0.3638882,1.098006,0.2474029,309.1219,209.2239,359.0679,True
1,0.3111111,-0.8746765,0.3239017,-0.3274387,-1.315934,-3.836235,3.135483,0.4835482,1.295462,0.4841189,-1.375365,-0.7376431,1.4,0,-0.3239459,-0.06042102,0.1154634,-0.4002529,-3.887339,-0.2254736,0.5269412,1.521536,0.4005136,-0.1938334,0.1366657,-0.04037743,-0.7382789,0.3666912,-0.04779788,0.632325,1.554026,0.2579086,0.3588333,1.100258,0.2454461,309.0595,209.0168,359.2555,True
1,0.3222222,-0.8981102,0.3119963,-0.3432837,-1.311557,-3.839336,-3.136083,0.4814126,1.295647,0.4830081,-1.376398,-0.08632006,1.4,0,-0.3365919,-0.07115403,0.1336227,-0.3978965,-3.88915,-0.2196423,0.5265816,1.521614,0.4001625,-0.1802223,0.1387818,-0.06289552,-0.7398869,0.3689502,-0.04797418,0.6323351,1.553941,0.2579236,0.3531565,1.103013,0.2435189,308.7368,208.7303,-0.002691988,True
1,0.3333333,-0.9418445,0.3127125,-0.3719817,-1.306446,-3.842958,-3.123138,0.4792777,1.295791,0.4817898,-1.376125,0.02519855,1.4,0,-0.350424,-0.05614877,0.1295952,-0.3968856,-3.888299,-0.2160694,0.526162,1.521688,0.3998535,-0.173922,0.1259931,-0.07465255,-0.7411503,0.3703152,-0.04738482,0.6323178,1.553886,0.2577727,0.3474512,1.106294,0.2417946,308.0943,208.4633,0.9833685,True
1,0.3444445,-0.9823911,0.3241509,-0.393307,-1.301462,-3.847187,-3.109735,0.476858,1.296,0.4805415,-1.37612,0.0002878662,0.6,0,-0.3683989,-0.02091348,0.128958,-0.3958618,-3.884762,-0.2146401,0.5257004,1.521673,0.3994343,-0.1747796,0.1217639,-0.05545973,-0.7410682,0.372061,-0.04670705,0.6322313,1.553838,0.2577088,0.3420479,1.109955,0.2401955,307.259,208.1339,2.032184,True
1,0.3555556,-1.012342,0.354793,-0.4158796,-1.296141,-3.852632,-3.096092,0.4745651,1.296302,0.4792712,-1.375212,0.08336978,0.6,0,-0.380989,0.05377749,0.1189706,-0.3956025,-3.875933,-0.2180663,0.5251802,1.521724,0.3990407,-0.160454,0.1240048,-0.00980976,-0.7394677,0.3744608,-0.04728283,0.6321089,1.55373,0.2574899,0.3370489,1.113785,0.2385189,306.3838,207.7121,3.038828,True
1,0.3666667,-1.039075,0.3833706,-0.4277789,-1.291301,-3.858122,-3.082227,0.4721687,1.296548,0.477808,-1.375147,0.005393048,0.6,0,-0.3827588,0.1539541,0.1154538,-0.3956989,-3.861743,-0.2268419,0.524721,1.521801,0.3985298,-0.1377174,0.1038663,0.02195258,-0.7380988,0.3752711,-0.04716245,0.6319263,1.553694,0.2572877,0.3323218,1.117606,0.2365247,305.6052,207.1491,3.944135,True
1,0.3777778,-1.046592,0.4003281,-0.4364226,-1.286484,-3.863723,-3.068828,0.4696987,1.29685,0.476321,-1.375596,-0.04075835,0.6,0,-0.38128,0.1963894,0.14025,-0.3942064,-3.850885,-0.232711,0.5242731,1.522054,0.3979378,-0.1314009,0.09001197,0.012323,-0.7382756,0.3760127,-0.04645432,0.6318454,1.553637,0.2571287,0.3276979,1.121394,0.2341462,304.9323,206.4982,4.698632,True
1,0.3888889,-1.071209,0.4299302,-0.4557892,-1.281214,-3.870189,-3.054231,0.4673019,1.297235,0.4748182,-1.375772,-0.01548064,0,0,-0.3938747,0.1877531,0.1637521,-0.3919417,-3.845286,-0.2329099,0.5239875,1.522199,0.3974485,-0.1272791,0.07720916,-0.002613012,-0.7389281,0.3766141,-0.04550357,0.6318107,1.5536,0.2569919,0.3230944,1.12521,0.2315165,304.2925,205.8041,5.397064,True
1,0.4,-1.089413,0.4510193,-0.477231,-1.275678,-3.876782,-3.039552,0.4646698,1.29762,0.4730847,-1.376567,-0.07238995,0,0,-0.4354069,0.1515837,0.1798831,-0.3894244,-3.842839,-0.228793,0.5236403,1.522312,0.3969486,-0.1319162,0.08246584,-0.03773071,-0.7406735,0.3780746,-0.04495789,0.6317361,1.553568,0.2568469,0.3184298,1.129083,0.2287164,303.6403,205.1129,6.110899,True
1,0.4111111,-1.113007,0.488139,-0.494467,-1.270973,-3.884825,-3.023584,0.462106,1.298316,0.4720654,-1.375952,0.05698568,0,0,-0.4675263,0.08879718,0.1893427,-0.3867693,-3.844532,-0.2208804,0.5233379,1.522339,0.3965619,-0.1437342,0.09202138,-0.04614949,-0.7415183,0.3801573,-0.04452645,0.6317276,1.553478,0.2566957,0.3137296,1.133043,0.2259197,302.9556,204.3622,6.908529,True
1,0.4222222,-1.140817,0.5285211,-0.4979352,-1.266232,-3.893092,-3.007499,0.4594943,1.298704,0.4704728,-1.376092,-0.01321583,0,0,-0.4818411,0.02936378,0.1666863,-0.3853093,-3.848198,-0.2115857,0.522811,1.522439,0.3961461,-0.1510171,0.09737076,-0.02904052,-0.7412989,0.3821125,-0.04412618,0.631518,1.55348,0.2565567,0.3088975,1.137105,0.2231878,302.3051,203.5622,7.785508,True
1,0.4333333,-1.140817,0.5285211,-0.4979352,-1.266232,-3.893092,-3.007499,0.4594943,1.298704,0.4704728,-1.375541,0.05069444,0,0,-0.4818411,0.02936378,0.1666863,-0.3853093,-3.848198,-0.2115857,0.522811,1.522439,0.3961461,-0.1510171,0.09737076,-0.02904052,-0.7412989,0.3821125,-0.04412618,0.631518,1.55348,0.2565567,0.3038547,1.141324,0.2206004,301.6928,202.7072,8.698807,True
1,0.4444444,-1.175678,0.5642003,-0.4856626,-1.261917,-3.901136,-2.991142,0.4568886,1.299072,0.4687276,-1.388946,-1.225994,0,0,-0.4779105,0.009293348,0.1419971,-0.3845706,-3.849067,-0.2055468,0.5222242,1.522519,0.3957813,-0.1529709,0.1155107,-0.009873898,-0.7408003,0.3849539,-0.04457119,0.6312821,1.553507,0.2563915,0.2992217,1.145974,0.2188005,300.9786,202.1587,9.621078,True
1,0.4555556,-1.244259,0.5935346,-0.4609957,-1.25513,-3.917791,-2.956187,0.4512873,1.300193,0.465178,-1.376329,1.16371,0.1,0,-0.4311915,0.04661453,0.1119736,-0.3834302,-3.842336,-0.203429,0.5209566,1.522565,0.394757,-0.1434152,0.1197861,-0.01316612,-0.7411641,0.3890985,-0.04485988,0.6309645,1.553378,0.2559958,0.2962658,1.1505,0.2184245,299.6326,201.4343,11.03849,True
1,0.4666667,-1.262385,0.5988344,-0.4514573,-1.251437,-3.925345,-2.939172,0.4488331,1.300624,0.4634695,-1.36027,1.457209,0.1,0,-0.4235846,0.0496833,0.1257772,-0.3816012,-3.839577,-0.2014735,0.5204619,1.522607,0.3942356,-0.1392536,0.1176435,-0.02386273,-0.7419301,0.3908362,-0.04482233,0.6308094,1.553331,0.2559128,0.2919208,1.15397,0.2168002,299.1008,200.6677,11.8001,True
1,0.4777778,-1.292204,0.6063404,-0.4354844,-1.248746,-3.933512,-2.92122,0.4460576,1.301224,0.4616215,-1.37293,-1.168003,0.1,0,-0.4266751,0.06778231,0.129135,-0.3803479,-3.835069,-0.2008287,0.5198938,1.522654,0.393738,-0.1256761,0.1261472,-0.04852244,-0.7433767,0.3932353,-0.04564631,0.6306669,1.553295,0.2557919,0.2842745,1.157447,0.2128372,299.6758,200.3875,11.84262,True
1,0.4888889,-1.313556,0.6308722,-0.4260674,-1.246009,-3.942605,-2.903196,0.4433364,1.301867,0.4596422,-1.376192,-0.2860716,0.1,0,-0.4502146,0.0604794,0.121855,-0.3794467,-3.833277,-0.1966736,0.5193917,1.522713,0.3931816,-0.1162512,0.1293315,-0.06460539,-0.7446449,0.3954057,-0.04639813,0.6304983,1.553438,0.2556298,0.2763342,1.162296,0.2091161,299.5648,199.965,12.76946,True
1,0.5,-1.320011,0.6575209,-0.4220067,-1.243537,-3.952362,-2.884937,0.4405678,1.3025,0.4577146,-1.376004,0.01876413,0.1,0,-0.4928156,0.02325758,0.1379856,-0.377249,-3.834727,-0.1883992,0.5188548,1.522802,0.3926291,-0.1087997,0.1197533,-0.06679693,-0.7455178,0.3968547,-0.046494,0.6303148,1.553437,0.2554793,0.269415,1.168413,0.2063509,298.6403,199.2772,14.38,True
1,0.5111111,-1.320011,0.6575209,-0.4220067,-1.243537,-3.952362,-2.884937,0.4405678,1.3025,0.4577146,-1.376432,-0.03934905,0.1,0,-0.4928156,0.02325758,0.1379856,-0.377249,-3.834727,-0.1883992,0.5188548,1.522802,0.3926291,-0.1087997,0.1197533,-0.06679693,-0.7455178,0.3968547,-0.046494,0.6303148,1.553437,0.2554793,0.2635022,1.175386,0.2041501,297.3389,198.2663,16.24109,True
1,0.5222223,-1.319077,0.7044194,-0.410713,-1.241431,-3.962881,-2.866591,0.4380524,1.302866,0.455766,-1.391347,-1.363557,0.1,0,-0.5341959,-0.003406584,0.1659021,-0.3743297,-3.835587,-0.1802044,0.5182347,1.522856,0.3920686,-0.1087637,0.1090921,-0.06678954,-0.746401,0.3978237,-0.04615764,0.6302093,1.553405,0.2552531,0.2589405,1.182836,0.2025545,295.8435,196.9896,18.34054,True
1,0.5333334,-1.317052,0.75567,-0.3962033,-1.240485,-3.974314,-2.84839,0.4352399,1.303559,0.4537654,-1.377183,1.306228,0.1,0,-0.5448855,-0.01615942,0.1680446,-0.3724042,-3.835926,-0.1734743,0.5176907,1.522921,0.3915842,-0.1119605,0.1122859,-0.06569171,-0.7471003,0.3998992,-0.04623248,0.6300297,1.553411,0.2550814,0.2568604,1.189641,0.2022343,293.8693,194.7343,21.18135,True
1,0.5444446,-1.307511,0.7824026,-0.3868629,-1.23928,-3.985156,-2.830753,0.4324083,1.304159,0.4518499,-1.375279,0.1613865,0.1,0,-0.5364747,-0.02786508,0.1614842,-0.370728,-3.83708,-0.1667168,0.517105,1.522938,0.3910909,-0.1097122,0.1112348,-0.05613618,-0.7475866,0.4014871,-0.0464703,0.6298908,1.553427,0.2549639,0.254071,1.195102,0.2006524,292.7867,192.9125,22.94088,True
1,0.5555557,-1.305343,0.7889506,-0.3635308,-1.238456,-3.994786,-2.81352,0.4296567,1.304637,0.4500103,-1.37596,-0.062356,0,2.3,-0.5199146,-0.07992327,0.1332378,-0.3698832,-3.843905,-0.1552745,0.5163521,1.52299,0.3906493,-0.1055424,0.1186776,-0.0647169,-0.7486646,0.4035348,-0.04707563,0.6297288,1.553423,0.2548444,0.2500294,1.199656,0.1978725,292.3995,191.6846,23.84452,True
1,0.5666668,-1.314815,0.7700533,-0.3250133,-1.238876,-4.003716,-2.795473,0.426796,1.305183,0.448005,-1.376684,-0.06514806,0,2.3,-0.5394065,-0.1266257,0.1203088,-0.3685043,-3.851804,-0.1411981,0.5155478,1.522961,0.3901339,-0.1155167,0.1494979,-0.09662822,-0.7509012,0.4073097,-0.04823597,0.6296031,1.553346,0.2547705,0.2449228,1.203876,0.1945519,292.2893,191.0203,24.27072,True
1,0.577778,-1.321135,0.7595403,-0.3047119,-1.238816,-4.012814,-2.777593,0.4240392,1.305904,0.4461482,-1.37695,-0.02378364,0,2.3,-0.563024,-0.1392243,0.1066135,-0.3673527,-3.856746,-0.1295425,0.5147376,1.522991,0.3896291,-0.1316345,0.1686137,-0.1071604,-0.7527111,0.4105714,-0.04865196,0.6295744,1.553219,0.2545688,0.2393737,1.208161,0.1914619,292.113,190.3828,24.95762,True
1,0.5888891,-1.324223,0.7470787,-0.2619869,-1.240344,-4.021283,-2.759897,0.4213152,1.306514,0.4440796,-1.376099,0.07809879,0,2.3,-0.5951661,-0.1090479,0.07625522,-0.3674214,-3.857558,-0.1210553,0.5138252,1.522927,0.3890507,-0.1648981,0.2026163,-0.1239176,-0.754743,0.4153793,-0.04919152,0.6294362,1.553155,0.254586,0.2338918,1.212723,0.1889835,291.7515,189.7221,25.96154,True
1,0.6000003,-1.317776,0.7408437,-0.2449309,-1.241125,-4.030178,-2.74261,0.4186819,1.307309,0.4422309,-1.376422,-0.03003928,0,2.3,-0.5897131,-0.06321615,0.06800832,-0.3670859,-3.855624,-0.1168387,0.5129645,1.52289,0.38866,-0.1735447,0.2089683,-0.1355568,-0.7567047,0.4187797,-0.04959285,0.6292682,1.552991,0.2545021,0.2286119,1.217719,0.1869821,291.2661,189.1694,27.0492,True
1,0.6111114,-1.304922,0.7228695,-0.2320266,-1.242131,-4.038324,-2.725823,0.4159511,1.30805,0.4401979,-1.376637,-0.01924459,0,2.3,-0.5711745,0.01439726,0.08010875,-0.3660797,-3.847308,-0.1188103,0.5121076,1.522953,0.3880568,-0.1746955,0.2100198,-0.1429977,-0.7585647,0.4221244,-0.04997928,0.6290902,1.552919,0.2544723,0.2236021,1.223252,0.1852863,290.6896,188.3985,28.40643,True
1,0.6222225,-1.267423,0.6570606,-0.2156222,-1.242301,-4.044237,-2.711001,0.4133214,1.309064,0.438117,-1.377352,-0.06509508,0,2.3,-0.5577228,0.04484916,0.1313384,-0.3630624,-3.842654,-0.1178659,0.5114045,1.523027,0.3874633,-0.174759,0.1993415,-0.1536527,-0.7609381,0.4244972,-0.05009113,0.6289605,1.552796,0.254421,0.2188319,1.229327,0.18362,289.9615,187.3764,30.01724,True
1,0.6333337,-1.238544,0.6113024,-0.2195721,-1.242224,-4.050558,-2.69596,0.4106593,1.309853,0.4360423,-1.377768,-0.03744739,0,2.3,-0.5593995,0.03384864,0.1813487,-0.3593265,-3.841611,-0.1124461,0.5107001,1.523098,0.3868661,-0.1716999,0.1939999,-0.1664577,-0.7633157,0.4272853,-0.05013347,0.6288233,1.552667,0.2543392,0.2143241,1.235857,0.1818899,289.1372,185.7368,32.14555,True
1,0.6444448,-1.173279,0.5005599,-0.2369511,-1.240049,-4.053962,-2.683923,0.4076298,1.310895,0.4339254,-1.37905,-0.1169241,0,2.3,-0.5858611,-0.02707088,0.2227245,-0.3550574,-3.847058,-0.09992447,0.510129,1.523164,0.3860114,-0.1739032,0.1822479,-0.1781496,-0.7659917,0.4292747,-0.04989858,0.6287196,1.552509,0.2541533,0.2100608,1.242664,0.1799692,288.2442,183.5763,34.74451,True
1,0.655556,-1.133743,0.4504799,-0.2547543,-1.238552,-4.059109,-2.670872,0.4046726,1.311791,0.4319627,-1.379014,0.004205905,0,1.8,-0.5999148,-0.106996,0.2340112,-0.3518899,-3.85647,-0.08408479,0.5094107,1.52321,0.3853807,-0.1706654,0.1747979,-0.1771223,-0.7681702,0.431553,-0.04993427,0.6285506,1.552336,0.2539899,0.2062208,1.249472,0.1778555,287.3632,180.7791,37.91278,True
1,0.6666671,-1.082439,0.375905,-0.272361,-1.236143,-4.062354,-2.65954,0.4016048,1.312761,0.4298089,-1.380876,-0.1705675,0,1.8,-0.6075971,-0.178385,0.2399633,-0.348669,-3.868266,-0.06601683,0.5086843,1.523272,0.3847976,-0.1598123,0.1673913,-0.1591105,-0.7694154,0.4338022,-0.05014466,0.6283142,1.552181,0.2537637,0.2027471,1.256001,0.175494,286.5866,177.4318,41.48138,True
1,0.6777782,-1.025847,0.3194914,-0.2826813,-1.233883,-4.06575,-2.648709,0.3988261,1.313743,0.4278414,-1.380364,0.04798979,0,1.8,-0.6349508,-0.2920729,0.2138582,-0.3466445,-3.887818,-0.03964088,0.5078577,1.523386,0.3840411,-0.1627336,0.164226,-0.135667,-0.7706426,0.4360205,-0.05013108,0.628116,1.552015,0.2534728,0.1996139,1.261956,0.1729138,286.0154,173.5825,45.33133,True
1,0.6888894,-0.991717,0.303595,-0.283676,-1.232432,-4.070008,-2.637399,0.3959506,1.314636,0.4258187,-1.38106,-0.06437685,0,1.8,-0.6555223,-0.3398288,0.1998673,-0.344734,-3.903802,-0.01661014,0.5069025,1.523433,0.3833597,-0.1712477,0.184464,-0.1302842,-0.7720647,0.4398718,-0.05055052,0.6277947,1.551828,0.253217,0.1966246,1.267203,0.1702105,285.6405,170.0844,48.66463,True
1,0.7000005,-0.9512609,0.3058769,-0.2826578,-1.231807,-4.075288,-2.626019,0.3933307,1.315623,0.4242172,-1.381336,-0.02493736,0,1.8,-0.6728357,-0.3438397,0.1755056,-0.3435105,-3.914987,0.002065281,0.5056601,1.523355,0.3824234,-0.1871414,0.1983109,-0.1216226,-0.7733564,0.4436886,-0.05091564,0.6274931,1.55161,0.2528579,0.1937207,1.271684,0.1674736,285.4505,167.203,51.38546,True
1,0.7111117,-0.9236244,0.3315501,-0.278643,-1.231511,-4.081099,-2.614781,0.3906293,1.316385,0.4223356,-1.380784,0.05037918,0,1.3,-0.6578262,-0.2852058,0.1619311,-0.3421161,-3.918533,0.01224681,0.504524,1.523245,0.3815482,-0.1986158,0.2196479,-0.09384069,-0.7736115,0.4482393,-0.05146399,0.626997,1.551455,0.2525218,0.1909088,1.27544,0.1648566,285.4064,165.1029,53.32714,True
1,0.7222228,-0.84488,0.3788086,-0.2567837,-1.232506,-4.087689,-2.60575,0.3880897,1.316801,0.4204888,-1.380635,0.0129793,0,1.3,-0.6029344,-0.0935294,0.1414649,-0.3412447,-3.903725,0.003406716,0.5029535,1.523063,0.3805339,-0.2036631,0.2239523,-0.06608614,-0.7734581,0.4520362,-0.05174469,0.6265239,1.551314,0.2520645,0.1880085,1.278672,0.1624042,285.4462,163.8499,54.39733,True
1,0.7333339,-0.7862842,0.3994556,-0.225086,-1.233716,-4.093096,-2.596998,0.3855214,1.317289,0.4186103,-1.380614,0.001615705,0,1.3,-0.5760739,-0.008326948,0.1300956,-0.3401048,-3.897189,0.002973419,0.5016195,1.523021,0.3796022,-0.2077913,0.2282312,-0.05220092,-0.7737463,0.4558703,-0.05199689,0.6260613,1.551197,0.2517173,0.184967,1.281656,0.1602938,285.5121,163.1443,54.96,True
1,0.7444451,-0.7521886,0.4092809,-0.2071074,-1.234769,-4.098434,-2.588039,0.3830014,1.31781,0.4168015,-1.382684,-0.1895439,0,1.3,-0.5524791,0.09616786,0.1039834,-0.3399046,-3.883772,-0.004343083,0.5001,1.522847,0.3784604,-0.2151689,0.2420787,-0.04149082,-0.7739477,0.4602645,-0.05240249,0.6256056,1.551055,0.2513089,0.1816023,1.284632,0.1584711,285.513,162.444,55.6842,True
1,0.7555562,-0.700009,0.4405898,-0.173386,-1.236877,-4.104417,-2.579914,0.3805638,1.318336,0.4150391,-1.382297,0.03667362,0,1.3,-0.5415292,0.1482549,0.113839,-0.3382769,-3.874896,-0.00676656,0.4987776,1.522744,0.3774612,-0.2462392,0.2632991,-0.0475741,-0.774655,0.4652449,-0.05122137,0.6249492,1.551007,0.2506731,0.1780148,1.287619,0.1570592,285.3508,161.3654,56.97602,True
1,0.7666674,-0.6467631,0.4697777,-0.1374788,-1.239896,-4.110225,-2.5726,0.3780854,1.318722,0.4133239,-1.381472,0.07459659,0,1.3,-0.5263801,0.1982393,0.1172468,-0.3369059,-3.862859,-0.01275388,0.4972657,1.522548,0.3763285,-0.2619758,0.2771661,-0.02186653,-0.774223,0.4703847,-0.05139501,0.6243408,1.550873,0.2502146,0.1742752,1.290592,0.1559572,285.1021,160.2973,58.43719,True
1,0.7777785,-0.6115953,0.474272,-0.1226623,-1.242004,-4.115724,-2.565001,0.3757276,1.31916,0.4117341,-1.381948,-0.04454302,0,1.3,-0.508378,0.2025252,0.1053819,-0.3361863,-3.85599,-0.01401089,0.4958388,1.522448,0.3753486,-0.2419506,0.2718338,-0.03586191,-0.7745346,0.4742071,-0.0511255,0.6237563,1.550566,0.2494395,0.1704768,1.293568,0.1550336,284.8735,159.4096,59.78239,True
1,0.7888896,-0.599877,0.4840159,-0.1067775,-1.244639,-4.121102,-2.557099,0.3736151,1.319373,0.4101176,-1.382267,-0.02896651,0,1.3,-0.4980511,0.1525005,0.09320348,-0.3354672,-3.855914,-0.008810003,0.4944365,1.522254,0.3742588,-0.2240082,0.2590501,-0.05413796,-0.7758672,0.4775651,-0.05165095,0.6230978,1.550466,0.2489049,0.1667009,1.296574,0.1542349,284.6194,158.5326,61.0917,True
1,0.8000008,-0.6755575,0.4794984,-0.1182806,-1.246661,-4.126933,-2.544545,0.3717145,1.319545,0.4091268,-1.381406,0.07856003,0,1.3,-0.4941508,0.07155469,0.08937684,-0.3346001,-3.861041,0.001368865,0.4928821,1.521973,0.37323,-0.2166523,0.2590652,-0.05951818,-0.7766481,0.482022,-0.05214496,0.6223408,1.550373,0.2483377,0.1630199,1.299554,0.1535269,284.311,157.4215,62.61629,True
1,0.8111119,-0.6947839,0.5007859,-0.115224,-1.249218,-4.133134,-2.534041,0.3697246,1.319586,0.4075696,-1.380525,0.07951684,0,1.6,-0.4870352,0.01620144,0.07825108,-0.3340323,-3.865627,0.01096503,0.4914017,1.521856,0.372118,-0.2260934,0.2462854,-0.04767644,-0.7768345,0.4853431,-0.05166346,0.6214803,1.550363,0.2476857,0.1595359,1.30244,0.1528702,284.0384,156.1479,64.30091,True
1,0.8222231,-0.5552642,0.5225694,-0.1007092,-1.252341,-4.139139,-2.530685,0.3678911,1.319257,0.4058585,-1.37573,0.4376536,0,1.6,-0.4715202,-0.05831516,0.06157581,-0.3339434,-3.875411,0.02490508,0.4897652,1.52166,0.3710387,-0.2271926,0.2516052,-0.04767856,-0.7775503,0.4895782,-0.05186959,0.6205403,1.550514,0.2472479,0.1563801,1.305181,0.1522702,283.8047,154.7546,66.04587,True
1,0.8333342,-0.4766486,0.6037084,-0.1046689,-1.256587,-4.147852,-2.525414,0.3664907,1.318717,0.4044437,-1.377421,-0.1583104,0,1.6,-0.4559756,-0.1157591,0.0407631,-0.3341745,-3.884403,0.03796815,0.4879483,1.521408,0.3697848,-0.234528,0.2750606,-0.03163576,-0.7775956,0.4952655,-0.05311115,0.6195321,1.550554,0.2467823,0.1534751,1.30801,0.1516132,283.6582,153.9241,67.14299,True
1,0.8444453,-0.4470053,0.6902735,-0.07982966,-1.262476,-4.156799,-2.518617,0.3654406,1.31791,0.4030046,-1.384634,-0.657699,0,1.6,-0.4595249,-0.1347204,0.01296122,-0.3350331,-3.890806,0.04922081,0.4860291,1.521181,0.3686013,-0.2524824,0.3059511,-0.01021088,-0.7772174,0.5013294,-0.05394046,0.6184896,1.550568,0.2463894,0.1506919,1.311123,0.1507383,283.4838,152.6012,68.74918,True
1,0.8555565,-0.425963,0.8023678,-0.05731171,-1.269708,-4.167201,-2.510877,0.3642763,1.317198,0.4017363,-1.383772,0.08393888,0,1.6,-0.4884601,-0.0863916,-0.02262075,-0.3362816,-3.888249,0.05326668,0.4840932,1.520792,0.3673606,-0.2651419,0.3304588,0.008003347,-0.7766784,0.5076836,-0.05491918,0.6174824,1.550634,0.2460959,0.1482785,1.314077,0.1499863,283.2232,149.3929,72.17046,True
1,0.8666676,-0.3752854,1.008499,-0.007879198,-1.281618,-4.181541,-2.504215,0.3635188,1.315952,0.400619,-1.38142,0.2131996,0,3.6,-0.5000985,-0.001995921,-0.04852806,-0.3375514,-3.879842,0.05124827,0.4821213,1.520462,0.3661957,-0.2939125,0.3772916,0.01568153,-0.7765484,0.5158852,-0.05654344,0.6164163,1.550763,0.2458606,0.1460703,1.316518,0.1495693,282.9285,145.9098,75.77534,True
1,0.8777788,-0.2105697,1.202233,0.05319613,-1.295045,-4.196195,-2.502999,0.3624638,1.314737,0.3994925,-1.380154,0.1137077,0,3.6,-0.458326,0.1290904,-0.07782473,-0.3390747,-3.862052,0.038288,0.4800852,1.519985,0.365072,-0.3079508,0.4209217,0.006162509,-0.7771637,0.5243091,-0.05868435,0.6152167,1.550906,0.2457669,0.143751,1.318437,0.1494504,282.5954,143.5361,78.30399,True
1,0.8888899,-0.09781586,1.295574,0.09915483,-1.307597,-4.209323,-2.502264,0.3614463,1.313494,0.3983579,-1.3818,-0.1515159,0,3.6,-0.4040211,0.1908574,-0.105617,-0.3410982,-3.849039,0.02862419,0.4780223,1.51956,0.364017,-0.3102538,0.4411359,-0.006633222,-0.7779935,0.5321921,-0.06077573,0.6141842,1.55094,0.2455993,0.1410083,1.320059,0.1496475,282.2178,142.5819,79.4212,True
1,0.900001,-0.2898362,1.429701,0.1495459,-1.322759,-4.223862,-2.488933,0.3613819,1.312093,0.3981862,-1.386781,-0.4542499,0,3.6,-0.3265932,0.2463407,-0.1613816,-0.3446546,-3.835853,0.01730762,0.4759322,1.519046,0.3630931,-0.3115402,0.457082,-0.02581584,-0.7792207,0.5399368,-0.06292916,0.6131669,1.550903,0.245373,0.1377094,1.321559,0.1504754,281.6539,142.0496,80.20363,True
1,0.9111122,-0.2770869,1.484581,0.2151595,-1.337332,-4.235761,-2.483257,0.3601515,1.311637,0.3971145,-1.386303,0.04689708,0,3.4,-0.2739167,0.2337276,-0.2152616,-0.3488112,-3.829632,0.01282712,0.473887,1.518573,0.3623011,-0.3267215,0.4879127,-0.04594781,-0.7808969,0.5490413,-0.06526556,0.6119735,1.550927,0.2453847,0.1338075,1.322786,0.1521588,280.9545,140.5864,82.20083,True
1,0.9222233,-0.2409819,1.533745,0.2232368,-1.351009,-4.249225,-2.478668,0.3592764,1.310689,0.3960509,-1.373154,1.200816,0,3.4,-0.2359334,0.2124724,-0.2434926,-0.3523991,-3.824828,0.009826798,0.4719026,1.518172,0.3616743,-0.3277055,0.4985826,-0.03637234,-0.7813427,0.5574054,-0.06750767,0.6108518,1.550924,0.2452309,0.1295641,1.32343,0.1547867,280.1751,139.0928,84.54257,True
1,0.9333345,-0.1701792,1.355085,0.2394247,-1.358991,-4.254622,-2.478246,0.3583312,1.309345,0.3954122,-1.378488,-0.4980808,0,3.4,-0.1875829,0.1689479,-0.2911681,-0.3571352,-3.822869,0.00874662,0.4699511,1.517825,0.3609521,-0.322165,0.4975627,-0.01618589,-0.7811563,0.5653498,-0.06973541,0.6095821,1.551043,0.245158,0.1249142,1.324162,0.1579658,279.132,141.778,82.98196,True
1,0.9444456,-0.1422332,1.252808,0.2295312,-1.367161,-4.261642,-2.476179,0.3573259,1.308535,0.3944736,-1.380581,-0.1857293,0,3.4,-0.1580248,0.1241483,-0.3003094,-0.3607821,-3.823286,0.009882725,0.4680794,1.517452,0.3602757,-0.3016458,0.4933846,0.01024516,-0.7804607,0.5729753,-0.07244997,0.6083041,1.55105,0.2449191,0.119879,1.325574,0.1611323,278.1745,144.6515,81.4761,True
1,0.9555568,-0.1088665,1.098164,0.1966084,-1.372438,-4.266757,-2.474838,0.3563994,1.307879,0.3936064,-1.382697,-0.1928467,0,3.4,-0.1380135,0.04092178,-0.2915361,-0.3636706,-3.829867,0.01704956,0.4661327,1.517,0.3596025,-0.2737014,0.4732306,0.03023227,-0.7798012,0.5795938,-0.07500101,0.6069502,1.55101,0.2445853,0.1152498,1.327369,0.16434,277.353,143.7725,83.81725,True
1,0.9666679,-0.07233131,0.9552287,0.1614533,-1.37643,-4.270945,-2.474448,0.3553303,1.307308,0.3927243,-1.381115,0.1459805,0,6.4,-0.1453376,0.01197723,-0.2639633,-0.365652,-3.832141,0.02107732,0.4644048,1.516734,0.3588479,-0.2470127,0.4423864,0.03000528,-0.7797725,0.5850638,-0.07704312,0.6056643,1.550977,0.2443154,0.1117563,1.328916,0.1673006,276.7586,138.3433,90.58737,True
1,0.977779,-0.04873215,0.882742,0.1470959,-1.382348,-4.276436,-2.473543,0.3543666,1.306363,0.3920734,-1.380779,0.02896995,0,6.4,-0.1362267,0.04784,-0.2190568,-0.3666544,-3.826562,0.01721174,0.4625528,1.516359,0.3580666,-0.229886,0.4221835,0.03518777,-0.7795157,0.5908842,-0.07906845,0.6041956,1.550913,0.244199,0.1090807,1.33011,0.1694279,276.3578,132.7203,97.164,True
1,0.9888902,-0.01970319,0.7676017,0.1266465,-1.38553,-4.27948,-2.473794,0.3533298,1.305901,0.3912692,-1.38114,-0.03341987,0,6.4,-0.1231796,0.06575936,-0.1998798,-0.3681735,-3.822733,0.01453899,0.4609123,1.516085,0.3572874,-0.1935264,0.3828463,0.0412662,-0.7790497,0.5950011,-0.08113986,0.6029254,1.550907,0.2438314,0.1071186,1.33085,0.1705005,276.1835,128.7284,101.69,True
1,1.000001,0.01782915,0.6685171,0.1103267,-1.388962,-4.282777,-2.474628,0.3524862,1.305234,0.3907084,-1.380537,0.05516144,0,6.4,-0.1108715,0.1016031,-0.1539353,-0.3684004,-3.816152,0.009372995,0.4592912,1.515815,0.3565104,-0.1657235,0.3370934,0.04319559,-0.7785996,0.5982629,-0.08247463,0.601732,1.551075,0.2433641,0.1056656,1.331098,0.170539,276.1474,126.3565,104.1061,True
1,1.011112,0.06381448,0.5918347,0.09701455,-1.392131,-4.285766,-2.476342,0.3516797,1.304667,0.3900983,-1.380798,-0.02464469,0,6.4,-0.09978877,0.1407743,-0.1260561,-0.368737,-3.807995,0.002563559,0.4578707,1.51557,0.3557346,-0.1517069,0.3073096,0.05375348,-0.7778226,0.6017122,-0.08376281,0.6004596,1.551134,0.2429438,0.1044954,1.330884,0.1698588,276.0624,125.206,104.9607,True
1,1.022224,0.08738301,0.5428222,0.08884707,-1.39557,-4.288839,-2.477699,0.35054,1.303469,0.3880646,-1.381105,-0.02798988,0,11,-0.09117392,0.1481446,-0.1197001,-0.3699695,-3.803181,-0.001201352,0.4563358,1.515333,0.3550279,-0.1300829,0.2743752,0.07809053,-0.7762086,0.6049204,-0.08530398,0.5991602,1.551262,0.2426004,0.1034992,1.330264,0.1687043,276.0067,125.6508,104.1396,True
1,1.033335,0.1280032,0.4831824,0.07753447,-1.398035,-4.291238,-2.480183,0.3496514,1.302966,0.3872707,-1.381559,-0.04156905,0,11,-0.09026016,0.1429072,-0.1325292,-0.3719184,-3.799412,-0.003694337,0.4549669,1.51519,0.3543019,-0.1084929,0.2510198,0.1013398,-0.7744558,0.6080003,-0.08699562,0.5979322,1.551351,0.2420959,0.1026668,1.329258,0.1674592,275.9554,127.0178,102.3404,True
1,1.044446,0.1580044,0.4117976,0.06632651,-1.399709,-4.292828,-2.482731,0.3485884,1.302474,0.3865187,-1.380851,0.06473635,0,11,-0.1030636,0.1055745,-0.1188255,-0.372833,-3.799911,-0.00150442,0.4535637,1.515115,0.3537512,-0.08079191,0.2297678,0.09788989,-0.7737069,0.6109757,-0.08910697,0.5967166,1.551499,0.2417374,0.1016838,1.327981,0.1662381,275.8619,127.8516,101.2518,True
1,1.055557,0.1784209,0.3393457,0.05833911,-1.400888,-4.293714,-2.485258,0.3476226,1.302132,0.3858297,-1.381373,-0.04852889,0,11,-0.08809377,0.07127477,-0.09791416,-0.3731584,-3.800769,7.456851E-06,0.4522669,1.514966,0.3531458,-0.06598404,0.214855,0.0860481,-0.7732696,0.613729,-0.09065986,0.5955842,1.551404,0.2412424,0.1002365,1.32651,0.1649212,275.6895,128.5091,100.5676,True
1,1.066668,0.1978072,0.2508954,0.0483463,-1.400936,-4.293458,-2.48816,0.346712,1.301794,0.3851707,-1.380973,0.03676796,0,21.6,-0.05409406,0.0391496,-0.0942239,-0.3740623,-3.802567,0.001126517,0.4509901,1.514759,0.3524265,-0.0626331,0.2159522,0.1009258,-0.7719045,0.6173989,-0.09270011,0.5943688,1.551496,0.2407072,0.09872365,1.324813,0.1638845,275.5191,131.3337,97.6497,True
1,1.077779,0.2064504,0.1900795,0.0328346,-1.40115,-4.293833,-2.490462,0.3458124,1.301,0.3846114,-1.380412,0.05062171,0,21.6,-0.04905977,0.01048836,-0.1115337,-0.3760362,-3.804691,0.003570766,0.4496331,1.514569,0.3516457,-0.0591723,0.2085476,0.124336,-0.7699752,0.6208007,-0.09459735,0.5930737,1.551667,0.2402244,0.09716471,1.323,0.1632131,275.3624,135.4436,93.48398,True
1,1.08889,0.2172293,0.1367853,0.02577686,-1.40091,-4.293468,-2.493344,0.345122,1.300446,0.3839242,-1.380223,0.01663173,0,21.6,-0.08537632,0.04169312,-0.1333197,-0.3782248,-3.800484,0.001859419,0.4482834,1.514298,0.3508115,-0.05768549,0.2054221,0.163744,-0.766968,0.6244205,-0.09662348,0.5919124,1.551788,0.2397139,0.09564066,1.321201,0.1628954,275.2084,139.9851,89.03935,True
1,1.100002,0.2235786,0.1527548,0.02244903,-1.402668,-4.295404,-2.495711,0.3444081,1.299638,0.3831728,-1.379457,0.06972941,0,21.6,-0.1054567,0.1078969,-0.1432992,-0.3802312,-3.791105,-0.00494549,0.4467924,1.514044,0.3500712,-0.06405354,0.2107483,0.1670031,-0.7652918,0.6284595,-0.09857345,0.59067,1.551883,0.2392335,0.09425704,1.319457,0.1628181,275.116,143.3987,85.84769,True
1,1.111113,0.2469095,0.2008399,0.0326878,-1.405652,-4.298186,-2.49875,0.3438098,1.299182,0.3825579,-1.379615,-0.01522032,0,21.6,-0.08584172,0.2207503,-0.143737,-0.3818824,-3.773824,-0.02063897,0.4454147,1.513955,0.3492467,-0.05677551,0.1904837,0.1456597,-0.7645296,0.6307195,-0.0999258,0.5896401,1.552015,0.2387805,0.09301508,1.317776,0.1628555,275.0245,145.5381,83.96177,True
1,1.122224,0.2830589,0.238343,0.04831389,-1.408831,-4.30074,-2.502664,0.3433446,1.298709,0.3820491,-1.379328,0.02638089,0.1,22.3,-0.02884555,0.3013273,-0.1224151,-0.382717,-3.758093,-0.03688292,0.4441831,1.513874,0.3485425,-0.05166659,0.1819288,0.1232435,-0.7641627,0.6331542,-0.1013501,0.5886632,1.552102,0.2384925,0.09190436,1.316187,0.1628485,274.9269,147.366,82.3669,True
1,1.133335,0.309718,0.2406422,0.06104484,-1.411337,-4.30215,-2.506848,0.3425878,1.298223,0.3815553,-1.379908,-0.0534675,0.1,22.3,-0.001046568,0.3257121,-0.1214529,-0.3842734,-3.747109,-0.04778403,0.4430593,1.513912,0.3478706,-0.04970337,0.1573963,0.1030277,-0.7637797,0.634562,-0.1018622,0.5876807,1.552288,0.2379923,0.09073924,1.31476,0.1627657,274.7825,149.5041,80.32486,True
1,1.144446,0.3546988,0.1696437,0.09455099,-1.412878,-4.30051,-2.512547,0.3420581,1.298011,0.3810949,-1.380566,-0.0598131,0.1,22.3,-0.003539741,0.2757693,-0.137771,-0.3863613,-3.743334,-0.05119048,0.4421239,1.513899,0.3472824,-0.0419976,0.09990431,0.1169011,-0.7618089,0.6336972,-0.1009176,0.5868202,1.552245,0.2371292,0.08952757,1.313534,0.1627508,274.5967,152.256,77.60502,True
1,1.155557,0.3622885,0.113199,0.09284648,-1.413317,-4.299644,-2.516725,0.3415609,1.297698,0.3805733,-1.380422,0.01342739,0.1,22.3,-0.01333308,0.22147,-0.1359365,-0.3878574,-3.741676,-0.05203897,0.4411662,1.513871,0.3466549,-0.03977536,0.08393718,0.1222323,-0.7603021,0.6345198,-0.101231,0.5858197,1.552319,0.2365551,0.08835274,1.312416,0.1629058,274.409,154.1293,75.81947,True
1,1.166668,0.3570617,0.06621346,0.08043929,-1.413156,-4.298615,-2.520667,0.3413153,1.29729,0.380002,-1.381099,-0.06231498,0.4,26,-0.0274812,0.1373388,-0.1321444,-0.3891065,-3.745612,-0.04758297,0.4404284,1.513798,0.346169,-0.0322852,0.03920305,0.1179717,-0.7590441,0.6331404,-0.1000195,0.5850667,1.552336,0.235779,0.08723413,1.311292,0.1631422,274.205,155.4289,74.73075,True
1,1.17778,0.3506434,0.0703532,0.06657042,-1.414074,-4.299511,-2.524173,0.3410067,1.29685,0.3794637,-1.379471,0.1492557,0.4,26,-0.0263859,0.1105918,-0.1174294,-0.3898101,-3.744385,-0.04840082,0.4395511,1.513681,0.3456123,-0.0226818,0.02218099,0.1157626,-0.7579692,0.6331683,-0.100174,0.5841643,1.552402,0.2354419,0.0864387,1.309975,0.1633018,274.0186,156.737,73.73823,True
1,1.188891,0.3260753,0.09477401,0.0642895,-1.415687,-4.300739,-2.526728,0.3409168,1.296362,0.379072,-1.378803,0.05953344,0.4,26,0.007031575,0.1187199,-0.08148042,-0.3894644,-3.740107,-0.05364618,0.4388971,1.513526,0.3451674,0.0007888302,0.00944322,0.1166026,-0.7566078,0.6328499,-0.1007743,0.5833589,1.552403,0.2349074,0.08591105,1.308411,0.1631797,273.9454,158.9235,71.7971,True
1,1.200002,0.3036744,0.1139526,0.07164271,-1.41792,-4.301739,-2.529307,0.3406488,1.295908,0.3787861,-1.3785,0.02723078,0.4,26,0.05407367,0.132303,-0.07013833,-0.3901361,-3.734548,-0.0610258,0.4381096,1.513297,0.3447468,0.02104169,0.006288119,0.1174651,-0.7552304,0.6331357,-0.1017996,0.5825258,1.552595,0.2343073,0.0856173,1.306634,0.1627279,273.9799,162.2473,68.52129,True
1,1.211113,0.2920104,0.100159,0.08242659,-1.419357,-4.301483,-2.53229,0.3403797,1.295515,0.3784804,-1.377531,0.0884326,1,26.5,0.08905911,0.1397616,-0.08960433,-0.3918607,-3.729801,-0.0674837,0.4375639,1.513114,0.3444281,0.05817548,-0.01391509,0.09899817,-0.7546296,0.6320779,-0.1029506,0.5818557,1.552537,0.2337513,0.08535849,1.304766,0.1620621,274.0547,166.6491,63.93438,True
1,1.222224,0.2857337,0.0554015,0.08278737,-1.419632,-4.300247,-2.53546,0.3401616,1.295204,0.3782377,-1.37744,0.007624702,1,26.5,0.1141978,0.0812107,-0.1094574,-0.3937324,-3.732859,-0.06671085,0.4369488,1.512998,0.3440895,0.07294055,-0.02883299,0.08288894,-0.7541524,0.6308511,-0.1032292,0.5811421,1.55258,0.2331173,0.08508094,1.302951,0.1613962,274.1351,172.0159,58.30336,True
1,1.233335,0.2793892,0.03081955,0.07447618,-1.41998,-4.299533,-2.538529,0.3399256,1.29494,0.3780382,-1.377341,0.008609666,1,26.5,0.1393336,0.003423788,-0.1219849,-0.3951833,-3.739727,-0.0626759,0.4364823,1.512908,0.3437743,0.07921471,-0.05441622,0.06688845,-0.7538142,0.6287056,-0.1027823,0.5804668,1.552678,0.2325604,0.08470694,1.301312,0.1608462,274.1948,176.9715,53.15868,True
1,1.244446,0.2655411,0.02000667,0.05860389,-1.420036,-4.299335,-2.541096,0.339788,1.294665,0.3778496,-1.376593,0.06737659,1,26.5,0.1324147,-0.06133918,-0.1490189,-0.3975812,-3.747416,-0.0568766,0.4359354,1.512806,0.3434975,0.06883663,-0.06290491,0.0915189,-0.7518088,0.6278269,-0.1025163,0.5797177,1.552673,0.2320299,0.08435125,1.299825,0.1604459,274.235,180.4962,49.60995,True
1,1.255558,0.2527838,0.001779456,0.04811614,-1.419966,-4.298792,-2.543582,0.3395611,1.294418,0.3775892,-1.375303,0.1161664,1,26.5,0.1163018,-0.07613768,-0.1564275,-0.399536,-3.750623,-0.05460119,0.4353044,1.512756,0.343091,0.06691667,-0.04476312,0.1149473,-0.7496799,0.6283482,-0.1035461,0.57911,1.552695,0.2314718,0.08411138,1.298404,0.1601564,274.287,182.6305,47.51729,True
1,1.266669,0.2240725,-0.02608268,0.0366634,-1.419291,-4.297756,-2.545272,0.3393814,1.294207,0.3774152,-1.373229,0.1872622,0.8,32.8,0.1017488,-0.03681016,-0.1357564,-0.4004196,-3.748471,-0.0572031,0.4346609,1.512718,0.3426816,0.06486633,-0.02770403,0.125593,-0.7478806,0.6290556,-0.1047166,0.5785325,1.552723,0.2310684,0.08392205,1.296991,0.159945,274.3404,184.159,45.99128,True
1,1.27778,0.2049298,-0.0443412,0.02405655,-1.418626,-4.296889,-2.547188,0.3392224,1.294052,0.3772225,-1.3711,0.1914753,0.8,32.8,0.1043709,0.03760587,-0.1150022,-0.4011243,-3.740897,-0.06535078,0.4340599,1.512678,0.3422022,0.06353053,-0.01176907,0.1032131,-0.7475227,0.6295703,-0.1056945,0.5779798,1.552881,0.2307208,0.08369697,1.295543,0.1598015,274.4045,185.7395,44.3991,True
1,1.288891,0.1921572,-0.05079082,0.02093247,-1.418296,-4.296164,-2.549026,0.3390512,1.293931,0.3770478,-1.368031,0.2774063,0.8,32.8,0.1091148,0.1098882,-0.09535025,-0.4017656,-3.731428,-0.07546067,0.4334744,1.512626,0.3417153,0.05368202,-0.004370328,0.07986637,-0.7475008,0.6299326,-0.1061904,0.5775307,1.55293,0.2303483,0.08337966,1.294027,0.1596782,274.4846,187.6059,42.55705,True
1,1.300002,0.1772451,-0.05409206,0.01246295,-1.417926,-4.295677,-2.550764,0.3390236,1.29391,0.3765254,-1.365804,0.1994458,0.8,32.8,0.1109529,0.2129503,-0.05839331,-0.4015136,-3.716304,-0.09060926,0.4332049,1.51266,0.3413384,0.05996827,-0.01077677,0.06808759,-0.7470912,0.6292804,-0.1067011,0.5771811,1.553059,0.229949,0.08302217,1.292433,0.1595358,274.6288,190.0207,40.19547,True
1,1.311113,0.1591332,-0.06165949,0.00296887,-1.417334,-4.295177,-2.551971,0.3388855,1.29401,0.3767216,-1.363194,0.2351196,0.8,32.8,0.1036377,0.2192828,-0.04655984,-0.4019818,-3.710243,-0.09705465,0.4328621,1.512758,0.3410025,0.05879955,-0.02145184,0.05639933,-0.746818,0.6284062,-0.1066737,0.5767217,1.553103,0.2295277,0.08266217,1.29078,0.1593561,274.8203,192.6179,37.63623,True
1,1.322224,0.1388813,-0.06823276,-0.01291478,-1.416327,-4.294561,-2.552963,0.3386268,1.293888,0.3763664,-1.360346,0.2563515,1.1,30.3,0.0876583,0.1659319,-0.02547856,-0.4015674,-3.710099,-0.09766451,0.4325147,1.512788,0.3406935,0.04707623,-0.01934213,0.0565265,-0.7460521,0.6284242,-0.1067374,0.5763257,1.553108,0.2291448,0.08229924,1.289102,0.1591227,275.0215,195.5158,34.78605,True
1,1.333336,0.1250317,-0.07150904,-0.01924869,-1.415684,-4.294027,-2.554048,0.3383349,1.293806,0.3762572,-1.356875,0.3130889,1.1,30.3,0.07798132,0.1179561,-0.01507334,-0.401316,-3.71105,-0.09729806,0.4321523,1.512888,0.3403893,0.02695273,-0.03213791,0.06635939,-0.7447429,0.6276692,-0.1056484,0.5757312,1.553132,0.2287049,0.08197606,1.287429,0.1588268,275.27,198.2126,32.1075,True
1,1.344447,0.106909,-0.06730267,-0.02031611,-1.415107,-4.293678,-2.554652,0.3380703,1.293937,0.3760767,-1.353547,0.2995006,1.1,30.3,0.0673301,0.05282612,0.01119038,-0.4002182,-3.714789,-0.09419734,0.431839,1.513053,0.3402946,0.009847371,-0.04709871,0.05804268,-0.7442721,0.6261963,-0.104083,0.5753539,1.553168,0.2283094,0.08170062,1.285802,0.1585648,275.5507,200.1398,30.09944,True
1,1.355558,0.1047733,-0.06515865,-0.01925378,-1.414855,-4.293264,-2.55591,0.3378535,1.294193,0.3767717,-1.350368,0.2858407,1.1,30.3,0.07462375,0.02192804,0.007705525,-0.400157,-3.716227,-0.09390759,0.4315122,1.513217,0.3400385,0.005557297,-0.05563582,0.05384349,-0.7437154,0.6249452,-0.1030926,0.5749559,1.553183,0.2279246,0.08131979,1.284247,0.1582604,275.7747,201.3526,28.83901,True
1,1.366669,0.1069394,-0.07684631,-0.01597045,-1.414123,-4.292264,-2.557311,0.3374602,1.294437,0.3766172,-1.34645,0.353286,2.6,30.7,0.06712478,-0.01220005,0.01712163,-0.3995232,-3.719505,-0.09135601,0.4312084,1.513377,0.3397985,-0.01042184,-0.07165322,0.05191102,-0.7430449,0.6230301,-0.1009234,0.5747039,1.553181,0.2274761,0.08087274,1.282745,0.1579793,275.978,202.6275,27.50694,True
1,1.37778,0.1016761,-0.1045608,-0.01681309,-1.412834,-4.29072,-2.558423,0.3371031,1.294476,0.376364,-1.343359,0.2770196,2.6,30.7,0.04574735,-0.02060968,0.01408434,-0.3993607,-3.720265,-0.09031605,0.4309151,1.513422,0.3394167,-0.0198769,-0.08231562,0.06267826,-0.7418986,0.621178,-0.09903124,0.5744095,1.553226,0.2271867,0.08042594,1.281317,0.1578106,276.2477,204.1824,25.83772,True
1,1.388891,0.09104905,-0.1152489,-0.01777722,-1.411751,-4.289476,-2.559281,0.3367384,1.294554,0.3761609,-1.339586,0.3398323,2.6,30.7,0.0003289431,0.02309623,0.03616047,-0.3984089,-3.715606,-0.0930149,0.430548,1.513501,0.339067,-0.03672244,-0.08018443,0.08202875,-0.7402645,0.62019,-0.09731111,0.5740469,1.553236,0.2268531,0.08006877,1.279956,0.1579289,276.5096,205.5966,24.29496,True
1,1.400002,0.05381711,-0.1441284,-0.02180873,-1.410218,-4.287961,-2.559157,0.3364152,1.294592,0.3759983,-1.335149,0.3999606,2.6,30.7,-0.007867865,0.0720426,0.04937655,-0.3977292,-3.708996,-0.09881366,0.4300498,1.513566,0.3387082,-0.04196741,-0.07058992,0.09271964,-0.7388765,0.6196977,-0.09615929,0.573701,1.553171,0.226634,0.07955994,1.27865,0.1580893,276.6653,206.7116,23.29106,True
1,1.411114,0.03788007,-0.1526755,-0.01952408,-1.408976,-4.286173,-2.559173,0.3360264,1.294802,0.3758476,-1.330719,0.3987376,2.6,30.7,0.002091341,0.1347713,0.06144768,-0.3970635,-3.699366,-0.108099,0.4296223,1.51365,0.338361,-0.04736299,-0.05569458,0.08848825,-0.7380434,0.6195799,-0.09543517,0.573456,1.553105,0.2264233,0.07897541,1.277285,0.1581493,276.7789,207.4618,22.74999,True
1,1.422225,0.02621857,-0.1718615,-0.01722632,-1.407469,-4.284111,-2.55946,0.3356777,1.295041,0.3756635,-1.325436,0.476756,3.3,35.5,0.008586317,0.1763341,0.05529145,-0.3970715,-3.690984,-0.1161895,0.4291873,1.51371,0.3380613,-0.0453708,-0.05038343,0.07674116,-0.7375406,0.6190926,-0.0945622,0.5731874,1.553163,0.2263079,0.07839753,1.275797,0.1580524,276.937,208.2354,22.11729,True
1,1.433336,0.01987983,-0.1867302,-0.009641297,-1.406223,-4.28186,-2.559912,0.3351821,1.295326,0.3754599,-1.321151,0.3848125,3.3,35.5,-0.001066841,0.1860398,0.04479992,-0.3972968,-3.684784,-0.1215645,0.4288237,1.513749,0.3377743,-0.04987507,-0.04936546,0.05334517,-0.7377356,0.618235,-0.09330145,0.572883,1.553231,0.2261152,0.07788478,1.274205,0.1577745,277.2106,209.2546,21.13539,True
1,1.444447,0.01018073,-0.1441527,-0.01102159,-1.405954,-4.281712,-2.559731,0.3347702,1.295442,0.37519,-1.317057,0.3682334,3.3,35.5,-0.03543048,0.1639298,0.02686617,-0.3978347,-3.682499,-0.1219797,0.4284953,1.513838,0.3376477,-0.04352142,-0.04722822,0.05007843,-0.7372583,0.6175959,-0.09255124,0.5726259,1.55326,0.2259393,0.07746524,1.272597,0.1573152,277.5689,210.4264,19.92168,True
1,1.455558,0.006906607,-0.1143463,-0.01337919,-1.405617,-4.281703,-2.559794,0.3342463,1.2955,0.3749776,-1.31278,0.3849142,3.3,35.5,-0.03439882,0.1468545,0.03099645,-0.3974033,-3.679407,-0.1244442,0.4281616,1.513954,0.3374381,-0.03809952,-0.03762187,0.05958911,-0.7362484,0.6174567,-0.09240157,0.5723461,1.553322,0.2257633,0.07717033,1.271021,0.1566931,277.9364,211.3275,18.92563,True
1,1.466669,0.003540522,-0.05046377,-0.01706712,-1.406229,-4.28325,-2.559454,0.3338017,1.295605,0.3747399,-1.307977,0.4326547,3.3,35.5,-0.01676043,0.0776794,0.01114367,-0.3977644,-3.683474,-0.121128,0.4278684,1.514101,0.3372812,-0.04128802,-0.02377364,0.06279509,-0.735442,0.6178991,-0.09220956,0.5721297,1.5534,0.2256043,0.07690773,1.269511,0.1559259,278.2588,211.9327,18.14258,True
1,1.47778,0.003433836,-0.007831084,-0.01420386,-1.406841,-4.284315,-2.5593,0.333312,1.295815,0.3745146,-1.303622,0.3914741,4.2,50.1,-0.01896335,0.03607595,0.02045684,-0.3970368,-3.685668,-0.1188257,0.4274732,1.514258,0.3370442,-0.05518156,-0.01314788,0.06079122,-0.7349046,0.6182945,-0.09135281,0.5719758,1.553489,0.2254345,0.07653745,1.268091,0.1551455,278.5153,212.3999,17.42474,True
1,1.488891,0.005562537,-0.005678499,-0.01209357,-1.406802,-4.284353,-2.559441,0.3328459,1.296037,0.3743248,-1.298855,0.4293888,4.2,50.1,-0.04450404,0.009450778,0.03437088,-0.3960131,-3.687267,-0.1158542,0.4271587,1.514434,0.3368113,-0.0658339,-0.01316807,0.06090362,-0.7341989,0.6181827,-0.09014986,0.5717722,1.553518,0.225275,0.07597943,1.266744,0.1545152,278.7276,212.8009,16.76847,True
1,1.500003,-0.0007471743,-0.03445471,-0.01185431,-1.405924,-4.283075,-2.559557,0.3322937,1.296342,0.3740969,-1.294241,0.4149787,4.2,50.1,-0.05380259,0.03065001,0.05485984,-0.3949356,-3.684081,-0.117945,0.4267997,1.514665,0.3364208,-0.07023891,-0.008942693,0.04815505,-0.73416,0.618118,-0.08920391,0.5716276,1.553561,0.2251203,0.07516973,1.265483,0.1541904,278.9388,213.6369,15.76831,True
1,1.511114,-0.005933461,-0.09310764,-0.01884347,-1.403972,-4.280837,-2.559724,0.3317165,1.296716,0.373955,-1.289628,0.4150387,4.2,50.1,-0.06313671,0.05721707,0.07005908,-0.3939087,-3.679549,-0.1211195,0.4265034,1.514785,0.3360944,-0.07775176,-0.008965462,0.04289909,-0.7339613,0.6179848,-0.08801614,0.5713865,1.553679,0.2250071,0.07417627,1.264301,0.1542273,279.1425,214.7373,14.70132,True
1,1.522225,-0.01746187,-0.1752624,-0.03096794,-1.400775,-4.27729,-2.559751,0.3311632,1.297044,0.3737829,-1.284613,0.4518529,6.5,47,-0.07985115,0.09764006,0.08756191,-0.3926969,-3.672864,-0.1257896,0.4261183,1.514893,0.3357818,-0.08309219,-0.00151851,0.04294265,-0.7335081,0.6183982,-0.08722358,0.5711591,1.553688,0.224884,0.07315711,1.263138,0.1545477,279.3251,215.7419,13.93053,True
1,1.533336,-0.03121775,-0.2158343,-0.0391432,-1.398401,-4.274683,-2.559447,0.3306229,1.297295,0.3737268,-1.279667,0.4451378,6.5,47,-0.08282737,0.153047,0.08799029,-0.3922474,-3.663806,-0.1331567,0.4256747,1.514842,0.3354738,-0.08848424,0.006988205,0.03872646,-0.7332162,0.6190205,-0.08646245,0.5708987,1.553643,0.2248044,0.07221314,1.261944,0.1549356,279.5193,216.5057,13.49944,True
1,1.544447,-0.05676096,-0.2287244,-0.04432616,-1.396133,-4.272425,-2.558343,0.3302074,1.297404,0.373508,-1.274358,0.4782321,6.5,47,-0.09123246,0.1978679,0.08200579,-0.3920423,-3.654008,-0.1409316,0.4253982,1.514802,0.3352199,-0.07669413,0.0102191,0.04605411,-0.732438,0.6194215,-0.08629227,0.5707048,1.55362,0.2247059,0.07146696,1.260659,0.1551932,279.7374,216.8005,13.51195,True
1,1.555558,-0.06536034,-0.1999863,-0.04559913,-1.395162,-4.271852,-2.557477,0.3297657,1.297495,0.3733945,-1.269095,0.4736575,6.5,47,-0.09243448,0.1883525,0.07236603,-0.3917308,-3.649693,-0.1438304,0.4251729,1.514867,0.3350267,-0.07136388,0.01662434,0.0481236,-0.7318143,0.6200706,-0.08605419,0.5705385,1.553674,0.2246423,0.07098786,1.259233,0.1551477,279.997,216.6766,13.79707,True
1,1.566669,-0.06762487,-0.1380906,-0.03116252,-1.395559,-4.272221,-2.556586,0.3292571,1.297519,0.3731794,-1.263205,0.5310473,6.5,47,-0.07977655,0.1520676,0.07410829,-0.3909153,-3.648121,-0.1448081,0.424916,1.514859,0.3349485,-0.07123622,0.01451381,0.05984481,-0.730782,0.6203438,-0.08549892,0.5703603,1.553677,0.22457,0.07070917,1.257677,0.154767,280.2821,216.5957,13.83116,True
1,1.577781,-0.0645397,-0.08471695,-0.01879259,-1.39637,-4.272852,-2.556017,0.3287306,1.297546,0.3728437,-1.258446,0.4270685,5.8,47.3,-0.05789775,0.09143382,0.04894964,-0.3910032,-3.650915,-0.1423095,0.4245762,1.515041,0.3348718,-0.07550502,0.01876521,0.05987919,-0.7301951,0.6208929,-0.08489971,0.5702325,1.553692,0.2245843,0.07051765,1.256042,0.1540811,280.6136,216.6559,13.57084,True
1,1.588892,-0.05286498,-0.04931767,0.008610593,-1.3977,-4.272888,-2.555835,0.3281804,1.2977,0.3725917,-1.253328,0.4606947,5.8,47.3,-0.0594032,0.01910957,0.03352451,-0.3908913,-3.656414,-0.1364958,0.424296,1.515186,0.3348353,-0.07560407,0.01768352,0.05029386,-0.7299677,0.6211731,-0.08427307,0.5701017,1.55372,0.2245533,0.07025499,1.254412,0.1532648,280.9532,216.9181,12.96977,True
1,1.600003,-0.05390444,-0.05459108,0.01504732,-1.397607,-4.27198,-2.555396,0.3277149,1.297982,0.3723891,-1.248261,0.4556265,5.8,47.3,-0.06599568,-0.01918341,0.02798784,-0.3904876,-3.660248,-0.132059,0.4240125,1.515346,0.3347013,-0.07892446,0.01339881,0.03755703,-0.7299394,0.6212974,-0.083411,0.5699605,1.553759,0.2244842,0.06976619,1.252845,0.1524905,281.25,217.5591,12.0153,True
1,1.611114,-0.05921253,-0.0620628,0.01512088,-1.397133,-4.270928,-2.554707,0.3272601,1.298157,0.3720365,-1.243012,0.4722958,5.8,47.3,-0.08096768,-0.04365511,0.03222398,-0.3897803,-3.663348,-0.1277492,0.4237294,1.515474,0.3345428,-0.09174989,0.02082573,0.03448556,-0.7296758,0.6220693,-0.08261978,0.5697843,1.5538,0.2244539,0.0690565,1.251351,0.1519011,281.5087,218.42,10.97687,True
1,1.622225,-0.07088044,-0.08234104,0.01423322,-1.396333,-4.269503,-2.553777,0.3269101,1.298338,0.3717332,-1.236842,0.5560678,4.8,44.7,-0.09987489,-0.0106563,0.04543301,-0.3889531,-3.660627,-0.1286182,0.4232787,1.515576,0.3342335,-0.09382364,0.03042321,0.04194988,-0.7289748,0.6231703,-0.08225599,0.5696123,1.553809,0.2243922,0.06827477,1.249903,0.1515836,281.7477,219.3694,10.01242,True
1,1.633336,-0.08043296,-0.09512304,0.01754345,-1.395761,-4.268121,-2.552745,0.3265726,1.298518,0.3714116,-1.230584,0.5633075,4.8,44.7,-0.1175662,0.07778701,0.05264231,-0.3886415,-3.650349,-0.1362391,0.4230366,1.51566,0.3339193,-0.08939493,0.0325962,0.05788169,-0.7278275,0.6240813,-0.08214521,0.5693931,1.553901,0.2244322,0.06754828,1.248453,0.1514917,281.9964,220.0161,9.487058,True
1,1.644447,-0.08682565,-0.09194206,0.01753023,-1.395431,-4.267267,-2.551816,0.3262483,1.298656,0.370975,-1.224207,0.5742391,4.8,44.7,-0.1276909,0.1842736,0.06310222,-0.3883784,-3.636063,-0.1477876,0.4228243,1.515793,0.3336594,-0.08401123,0.02835114,0.06315905,-0.7269556,0.6243472,-0.08150258,0.5691504,1.55382,0.224479,0.06688856,1.246972,0.1514954,282.2366,220.4827,9.199943,True
1,1.655559,-0.09000641,-0.09187523,0.02712299,-1.395391,-4.266084,-2.550929,0.3260162,1.298741,0.3707364,-1.217941,0.5637771,4.8,44.7,-0.1326485,0.2203379,0.08578151,-0.3872417,-3.627191,-0.1544266,0.4226692,1.515793,0.3335545,-0.07243045,0.01982519,0.04813838,-0.7269796,0.6241801,-0.08107568,0.5689724,1.553846,0.2245412,0.06634385,1.245445,0.1514945,282.493,220.9619,8.884007,True
1,1.66667,-0.09531365,-0.09503495,0.03354866,-1.395248,-4.264751,-2.549928,0.3257137,1.298854,0.3705111,-1.211884,0.5448766,4.8,44.7,-0.1293874,0.2127991,0.09528302,-0.3861727,-3.620913,-0.158917,0.4225991,1.515828,0.3334973,-0.06739058,0.02299107,0.02144927,-0.7277242,0.6247813,-0.08095504,0.5689346,1.553824,0.2246203,0.0658685,1.243883,0.1513809,282.7687,221.5157,8.444855,True
1,1.677781,-0.09531153,-0.09391659,0.03993757,-1.395341,-4.263553,-2.549017,0.3252512,1.299019,0.3705218,-1.205538,0.5712813,3.9,46.8,-0.1192004,0.1415012,0.07655238,-0.3858425,-3.623966,-0.1551984,0.4224008,1.515845,0.3334866,-0.05995074,0.02832791,0.02135919,-0.7275469,0.6254911,-0.08097075,0.5689257,1.553925,0.2245889,0.06545161,1.242285,0.1511256,283.0422,222.0446,7.962344,True
1,1.688892,-0.09211296,-0.09281825,0.04311955,-1.395287,-4.262406,-2.548303,0.3248917,1.299089,0.370209,-1.198949,0.5931295,3.9,46.8,-0.1154272,0.07559982,0.05366593,-0.3858026,-3.627858,-0.1504593,0.4223137,1.515903,0.333549,-0.05764729,0.03262198,0.0383729,-0.7265631,0.6263726,-0.08111802,0.5688564,1.553924,0.2245967,0.06517023,1.24063,0.1507814,283.3138,222.5258,7.450817,True
1,1.700003,-0.08468784,-0.07679195,0.04724363,-1.395581,-4.261721,-2.547796,0.3245586,1.299107,0.3697152,-1.192526,0.5778458,3.9,46.8,-0.1139308,-0.01584502,0.02529092,-0.3859693,-3.637517,-0.1404295,0.4220599,1.515979,0.3336279,-0.0553918,0.02518473,0.04901219,-0.7257327,0.626435,-0.08058193,0.5688254,1.55399,0.2246583,0.06495363,1.238926,0.1503536,283.6162,222.8961,6.960288,True
1,1.711114,-0.07838214,-0.04155961,0.05441362,-1.396679,-4.261943,-2.546984,0.3244612,1.299116,0.3695343,-1.186151,0.5735766,3.9,46.8,-0.1036469,-0.07865331,0.01301765,-0.3857733,-3.645385,-0.1323477,0.4219297,1.516094,0.3337097,-0.05864611,0.02090772,0.04266509,-0.7254105,0.6266209,-0.08001068,0.5688214,1.553998,0.2246866,0.06471454,1.237195,0.1498999,283.9298,223.2406,6.451367,True
1,1.722225,-0.07421237,0.001157769,0.06685495,-1.398358,-4.262464,-2.546138,0.3244762,1.299114,0.3691151,-1.17978,0.573021,2.1,45.2,-0.08870764,-0.06592435,0.008694272,-0.3857887,-3.64696,-0.1306331,0.4218428,1.516145,0.3337274,-0.05884516,0.01767614,0.02348997,-0.7259138,0.6266739,-0.0793345,0.5688621,1.554056,0.2247508,0.06440182,1.235422,0.1494197,284.2179,223.6462,5.971058,True
1,1.733337,-0.07001399,0.0214532,0.07095115,-1.399664,-4.262793,-2.545187,0.3243981,1.299315,0.3691275,-1.172917,0.6181675,2.1,45.2,-0.08002274,-0.03402082,0.01204216,-0.3855224,-3.644531,-0.1323058,0.4218079,1.516162,0.3334634,-0.06107128,0.01659136,0.0139317,-0.7260177,0.6269068,-0.07878003,0.5689192,1.554068,0.2247839,0.06405984,1.233585,0.1489668,284.4995,224.1505,5.42259,True
1,1.744448,-0.05934739,0.01830957,0.07415344,-1.400514,-4.262369,-2.544972,0.3243835,1.299485,0.3689983,-1.166125,0.6111894,2.1,45.2,-0.06583088,0.03084449,0.02089155,-0.3853338,-3.637296,-0.1387925,0.4218194,1.51627,0.3333304,-0.05902707,0.01017982,0.004326004,-0.7263213,0.62655,-0.07795952,0.5690312,1.554045,0.2248328,0.06379782,1.231695,0.1486888,284.8093,224.9038,4.623607,True
1,1.755559,-0.0560363,-0.03071824,0.06920655,-1.39988,-4.260316,-2.544789,0.3242167,1.299733,0.3690095,-1.159172,0.6258683,2.1,45.2,-0.0687273,0.06801237,0.03609702,-0.3847511,-3.632739,-0.1421705,0.4217197,1.51653,0.3331666,-0.04732099,0.0006087236,0.001023546,-0.7264209,0.6260203,-0.07753767,0.5690703,1.554087,0.224823,0.06357647,1.229793,0.1485912,285.1607,225.8003,3.72187,True
1,1.76667,-0.05696634,-0.0947634,0.05266539,-1.398202,-4.257665,-2.544586,0.3241774,1.299922,0.3690867,-1.152913,0.5623593,2.1,45.2,-0.09304552,0.06583929,0.05549996,-0.3835841,-3.630431,-0.142448,0.4217443,1.516639,0.333066,-0.04511192,-0.0132269,0.006350709,-0.72604,0.6251633,-0.07638478,0.5690594,1.554115,0.2248704,0.06339239,1.227933,0.1487067,285.5538,226.5572,2.971976,True
1,1.777781,-0.058974,-0.1545648,0.03502221,-1.395967,-4.25473,-2.544368,0.3242035,1.299859,0.3687863,-1.14584,0.6373753,1.2,38.2,-0.1068629,0.05196229,0.06405657,-0.382611,-3.630965,-0.140318,0.4217846,1.516754,0.3329439,-0.04083957,-0.01428862,0.007372338,-0.725917,0.6247736,-0.07574856,0.5691013,1.554098,0.224828,0.06326229,1.226101,0.1489638,285.8949,227.0831,2.542848,True
1,1.788892,-0.07170884,-0.1813394,0.02140404,-1.394305,-4.252544,-2.543596,0.324315,1.299879,0.3685505,-1.138768,0.6364949,1.2,38.2,-0.09513533,0.03481597,0.07234623,-0.381468,-3.630902,-0.1395973,0.4219174,1.516778,0.332957,-0.04409719,-0.008978233,0.002070346,-0.7260991,0.6248778,-0.07527398,0.5691807,1.554072,0.2248597,0.06323716,1.224237,0.1492433,286.2034,227.2527,2.503109,True
1,1.800003,-0.07704906,-0.1760267,0.02137167,-1.393481,-4.250906,-2.542846,0.3245027,1.299871,0.3685603,-1.131768,0.6300149,1.2,38.2,-0.07699122,0.03897688,0.07326137,-0.3806696,-3.6298,-0.1405068,0.42199,1.516769,0.3329976,-0.04205504,-0.01006225,-0.006473819,-0.726473,0.6244687,-0.07455652,0.5692354,1.554078,0.2249169,0.0633742,1.22227,0.1494315,286.4791,227.1727,2.720129,True
1,1.811115,-0.06435201,-0.1354297,0.03169628,-1.394211,-4.250407,-2.542657,0.3247625,1.299944,0.3689044,-1.12443,0.6610071,1.2,38.2,-0.04310229,0.05608624,0.04640961,-0.3813252,-3.626485,-0.1442475,0.4219807,1.516851,0.3330996,-0.0303496,-0.001517393,-0.006609137,-0.7265365,0.6248618,-0.07495227,0.5693136,1.554078,0.2249694,0.06362924,1.220132,0.1493723,286.7628,227.0689,2.929291,True
1,1.822226,-0.03675683,-0.08193798,0.05147341,-1.395709,-4.250419,-2.543129,0.324991,1.299895,0.3690233,-1.117612,0.6132158,1.2,38.2,-0.003997348,0.06150331,0.01197483,-0.3823895,-3.62456,-0.147394,0.4221278,1.516728,0.3331802,-0.02281915,0.001701556,0.0007589846,-0.7263223,0.6249919,-0.07506599,0.5694176,1.554091,0.2250383,0.06401567,1.217858,0.1490858,287.1546,227.1091,2.834785,True
1,1.833337,-0.0165736,-0.04874511,0.06610048,-1.397089,-4.25013,-2.543703,0.325107,1.299928,0.3692741,-1.111472,0.551508,2.1,29.9,0.02740041,0.04469903,-0.03745817,-0.3842409,-3.625108,-0.1480675,0.4222165,1.516683,0.3332806,-0.01627114,-0.008915693,0.01349827,-0.7255793,0.6243644,-0.074654,0.5695398,1.554128,0.2250626,0.06457029,1.215538,0.1487443,287.6312,227.3003,2.393137,True
1,1.844448,0.004642518,-0.00814429,0.07427032,-1.398783,-4.250639,-2.544435,0.3252707,1.299856,0.3693588,-1.105311,0.5539114,2.1,29.9,0.03458034,0.004274411,-0.04953956,-0.3850121,-3.628814,-0.1452797,0.4223901,1.516728,0.3334453,-0.003568849,-0.01956407,0.00379088,-0.7258946,0.6233843,-0.07431125,0.569636,1.554047,0.2250369,0.06521792,1.213259,0.1485534,288.0987,227.7239,1.643079,True
1,1.855559,0.0195185,0.007873979,0.07412261,-1.39974,-4.250607,-2.545122,0.3254023,1.299863,0.3694251,-1.098357,0.6263258,2.1,29.9,0.03128171,-0.02127016,-0.04968065,-0.3851666,-3.63124,-0.1431329,0.4224911,1.516735,0.3334343,0.002684977,-0.03130288,-0.0122406,-0.7265854,0.6221601,-0.07373654,0.5697548,1.554053,0.2250142,0.06576858,1.211013,0.1485677,288.4825,228.2786,0.8661174,True
1,1.86667,0.023785,-0.008183034,0.06145617,-1.399607,-4.250015,-2.545376,0.3256408,1.299891,0.3697596,-1.091527,0.6143056,2.1,29.9,0.02822631,-0.05020375,-0.02428938,-0.3843698,-3.635191,-0.1396871,0.4227201,1.516829,0.3335106,0.002592355,-0.03558042,-0.02182021,-0.7270733,0.6213485,-0.07315464,0.5698981,1.554064,0.2250116,0.06613234,1.208767,0.1488108,288.8308,228.8386,0.2114823,True
1,1.877781,0.03237142,-0.04666846,0.0415003,-1.398465,-4.248655,-2.546249,0.3258203,1.299956,0.3698194,-1.084405,0.6414301,1.8,33.9,0.01683837,-0.05360242,0.0109577,-0.3830046,-3.636156,-0.138506,0.4229847,1.516828,0.3335152,0.002610043,-0.03451559,-0.01969626,-0.7272241,0.6207496,-0.07267127,0.5700328,1.553999,0.225065,0.06627387,1.206482,0.1492712,289.1646,229.4496,359.6484,True
1,1.888893,0.0399003,-0.08298898,0.02686153,-1.397192,-4.246867,-2.547291,0.3260127,1.29992,0.3697283,-1.076996,0.66743,1.8,33.9,0.0009993576,-0.04509488,0.02183001,-0.3823564,-3.636459,-0.1376849,0.4231821,1.51688,0.3335271,-0.001621313,-0.03238768,-0.01645921,-0.7272848,0.620294,-0.07216527,0.5701441,1.553991,0.2250974,0.06631581,1.204137,0.1499412,289.5327,229.9452,359.2923,True
1,1.900004,0.04107065,-0.1310061,0.01658044,-1.395371,-4.244381,-2.548199,0.3261594,1.299962,0.3698685,-1.070704,0.5652565,1.8,33.9,-0.0209714,-0.003623014,0.04578564,-0.3813524,-3.632035,-0.140821,0.4232616,1.516772,0.3336594,0.001683846,-0.02384489,-0.004796176,-0.7270467,0.6202267,-0.07225689,0.5703342,1.554007,0.2252414,0.06640793,1.201747,0.1507929,289.9555,230.2502,359.1768,True
1,1.911115,0.03896973,-0.1491123,0.01672107,-1.394413,-4.242622,-2.548615,0.3263025,1.300043,0.3702214,-1.064225,0.5832734,1.8,33.9,-0.01674866,0.015585,0.03521841,-0.3815298,-3.631184,-0.1415071,0.4232336,1.516912,0.3338356,-0.0003300086,-0.01317402,0.007993018,-0.7265082,0.6205713,-0.0724489,0.5703962,1.554019,0.2253199,0.06648798,1.200853,0.151416,289.5552,231.5599,357.9451,True
1,1.922226,0.04540794,-0.1628946,0.0232095,-1.393491,-4.240404,-2.54973,0.3264003,1.300032,0.3703759,-1.057425,0.6124498,1.8,33.9,-0.004218727,0.04563115,-0.001978073,-0.3829141,-3.627651,-0.1451449,0.4232933,1.51682,0.3339331,0.000671132,-0.009985713,0.002644712,-0.726782,0.6205259,-0.07244118,0.5704594,1.553983,0.225455,0.06683925,1.20039,0.1517044,289.1271,231.7538,357.8043,True
1,1.933337,0.04861846,-0.1660445,0.027491,-1.392891,-4.238615,-2.550689,0.3265485,1.300054,0.3706014,-1.050572,0.6170996,0.6,21.7,-0.001059458,0.05739895,-0.009377817,-0.3833556,-3.62484,-0.1477237,0.4233873,1.516812,0.3340085,-0.003581258,-0.0131898,0.002696029,-0.7267261,0.6201479,-0.0720148,0.5705823,1.553946,0.2255244,0.06733938,1.200065,0.1518342,288.7013,231.237,358.3421,True
1,1.944448,0.052834,-0.1425313,0.03582317,-1.393025,-4.237588,-2.551605,0.3267211,1.29996,0.3707483,-1.044772,0.5208908,0.6,21.7,0.01368484,0.06919142,-0.03181646,-0.38457,-3.623261,-0.1499493,0.4234865,1.516844,0.3343611,-0.007832793,-0.01213512,0.003796099,-0.7267623,0.619855,-0.0715373,0.5706545,1.553874,0.2255735,0.06778568,1.199787,0.151997,288.3011,230.8286,358.7607,True
1,1.955559,0.05378939,-0.09663387,0.04504056,-1.393956,-4.23786,-2.552031,0.3270263,1.299889,0.3709316,-1.038419,0.5722389,0.6,21.7,0.02319961,0.06171218,-0.03623059,-0.3851091,-3.62311,-0.1506255,0.4235649,1.516753,0.3345311,-0.009934011,-0.01426847,0.005946104,-0.7266973,0.6195051,-0.07117831,0.5707952,1.553848,0.2256682,0.06816886,1.199465,0.1522338,287.8876,230.7831,358.8469,True
1,1.966671,0.05366004,-0.04115386,0.05419359,-1.395491,-4.238646,-2.552407,0.3273186,1.299779,0.3710175,-1.032312,0.5495416,0.6,21.7,0.02645322,0.04136009,-0.02255967,-0.384847,-3.6237,-0.1504942,0.4237424,1.51676,0.334717,-0.01318437,-0.006824908,0.001708305,-0.7268144,0.6197703,-0.07118896,0.5709114,1.553841,0.2257602,0.06849308,1.199115,0.1525469,287.4663,231.046,358.627,True
1,1.977782,0.05993418,0.008979696,0.06018375,-1.397142,-4.239607,-2.553099,0.3276536,1.299686,0.3711398,-1.026037,0.5651247,0,19,0.02426754,0.01684716,-0.01844411,-0.3847107,-3.624813,-0.1496209,0.4239187,1.516826,0.3346288,-0.01851877,-0.004706403,0.00175624,-0.7268608,0.6197494,-0.07074927,0.57113,1.55387,0.2258565,0.06875394,1.198747,0.1529253,287.0503,231.5917,358.1141,True
1,1.988893,0.06195649,0.04628983,0.06094364,-1.398552,-4.240811,-2.553425,0.3280379,1.299577,0.3710301,-1.020179,0.5269578,0,19,0.01143328,-0.01404666,-0.01107872,-0.3844092,-3.62761,-0.1466946,0.4242102,1.516807,0.3347907,-0.01330679,-0.003649247,-0.00895432,-0.7273125,0.6196843,-0.07073649,0.5713068,1.553851,0.2259748,0.06895626,1.198402,0.153387,286.6654,232.3775,357.348,True
1,2.000004,0.0598022,0.05264276,0.05663639,-1.399383,-4.241193,-2.553935,0.3283634,1.299539,0.3711684,-1.014782,0.4852754,0,19,-0.003477142,-0.0214793,-0.00885983,-0.3844411,-3.629474,-0.1446094,0.4243877,1.51683,0.334944,-0.01329198,-0.01004072,-0.008947709,-0.7274702,0.6191976,-0.07028109,0.5715252,1.553846,0.2260332,0.06906757,1.198067,0.1538831,286.326,233.5241,356.2507,True
1,2.011115,0.05234708,0.04297495,0.04713018,-1.399578,-4.241316,-2.554153,0.3286555,1.299357,0.370898,-1.008843,0.5352042,0,19,-0.008715615,-0.01404168,-0.002360658,-0.3842814,-3.628803,-0.1449053,0.4246364,1.516806,0.3351209,-0.01217164,-0.01535744,-0.004687849,-0.7273306,0.6187016,-0.06978893,0.5716577,1.553798,0.2261207,0.06916453,1.197721,0.1543876,285.9959,234.8282,355.0193,True
1,2.022226,0.04173136,0.02048574,0.03560546,-1.399309,-4.240876,-2.554342,0.3289436,1.299305,0.3710978,-1.003291,0.4994072,0,19,-0.002292222,-0.001286192,-0.00447165,-0.384521,-3.628418,-0.1454909,0.4248492,1.516803,0.3352807,-0.0005262382,-0.01001019,-0.01121496,-0.7277429,0.6189885,-0.07045366,0.5717782,1.553738,0.2263019,0.06927816,1.197377,0.1548435,285.683,236.0478,353.8794,True
1,2.033337,0.03004752,0.0001400467,0.02513052,-1.398933,-4.240429,-2.554386,0.3291554,1.299216,0.3710811,-0.9976265,0.510345,0,10.8,0.01042092,-0.001275836,-0.01098193,-0.3847831,-3.628126,-0.1462304,0.4250906,1.516669,0.335357,0.01554577,0.000692226,-0.0007458897,-0.7273897,0.6196172,-0.07169336,0.5719152,1.553723,0.2263577,0.06944953,1.197036,0.1552272,285.3679,236.9739,353.0164,True
1,2.044448,0.01948094,-0.03936832,0.01693487,-1.397812,-4.238943,-2.55447,0.3293874,1.299172,0.3713052,-0.9923423,0.4755207,0,10.8,0.03564373,-0.03210605,-0.03382648,-0.3856891,-3.632044,-0.1438509,0.4253618,1.516561,0.3355806,0.03072725,0.0007643905,0.02359581,-0.7263234,0.6197596,-0.07274798,0.5719338,1.553727,0.2264328,0.06967001,1.196696,0.1555005,285.0655,237.5273,352.5183,True
1,2.055559,0.01528154,-0.06710967,0.01182491,-1.396865,-4.237742,-2.554732,0.3295766,1.299086,0.3713439,-0.9872493,0.4584793,0,10.8,0.04393824,-0.05973736,-0.04582382,-0.3863245,-3.63593,-0.1409134,0.4255539,1.516427,0.3357484,0.03918606,0.0007729754,0.0171089,-0.726481,0.6198206,-0.07354799,0.5720688,1.553779,0.2264166,0.06994003,1.196397,0.1557401,284.7544,237.7424,352.3037,True
1,2.06667,0.02167038,-0.0649704,0.00966052,-1.396628,-4.237413,-2.555354,0.3299019,1.298992,0.3713021,-0.9823166,0.4440321,0,10.8,0.05964181,-0.09485295,-0.06008165,-0.3871565,-3.642304,-0.1362218,0.4257505,1.516418,0.3359008,0.03380486,-0.005639937,0.01078447,-0.7265636,0.6193832,-0.07341962,0.5721945,1.553793,0.2264307,0.07017495,1.196114,0.1559287,284.4342,238.1903,351.9033,True
1,2.077781,0.02803492,-0.05214601,0.01274523,-1.396755,-4.237125,-2.555936,0.3302232,1.298994,0.3715286,-0.9778712,0.3996899,0,10.8,0.05638725,-0.08092661,-0.07167329,-0.3882484,-3.644415,-0.1347975,0.4258317,1.516515,0.3360958,0.01473766,-0.003525971,0.02163152,-0.7260038,0.6195585,-0.07302627,0.572293,1.553857,0.226512,0.07045074,1.195843,0.1561342,284.1339,238.3181,351.779,True
1,2.088892,0.03324845,-0.006326921,0.01238187,-1.39769,-4.238222,-2.556326,0.3305958,1.298881,0.3714726,-0.9738216,0.3638817,0,7.8,0.0555719,-0.05225993,-0.0576094,-0.3884615,-3.64346,-0.1362638,0.4260017,1.516554,0.3361564,0.007397937,0.002872115,0.03342193,-0.7251617,0.6200477,-0.07329898,0.5724774,1.553838,0.2265296,0.0707183,1.195568,0.1563123,283.8486,238.4618,351.6673,True
1,2.100003,0.03742775,0.02133072,0.005766278,-1.398197,-4.23927,-2.556713,0.330947,1.298892,0.3716745,-0.9697959,0.362672,0,7.8,0.04443969,0.02106067,-0.02714485,-0.3881062,-3.636798,-0.1425742,0.4262142,1.516686,0.3361213,0.004225548,-0.004595576,0.0345319,-0.7247643,0.6195096,-0.07286888,0.5726418,1.553834,0.2265124,0.07098036,1.195307,0.1565203,283.5622,238.7289,351.4475,True
1,2.111114,0.03627562,0.05004055,-0.0008366704,-1.398945,-4.240501,-2.55682,0.3311005,1.298972,0.3719401,-0.966328,0.3120703,0,7.8,0.03097784,0.05822457,-0.002239566,-0.3876226,-3.631707,-0.1471724,0.4264416,1.516752,0.3361547,0.003984843,-0.006765685,0.01110355,-0.7253508,0.6192454,-0.0727786,0.5728825,1.553841,0.2265871,0.0711909,1.195083,0.1567774,283.2993,239.2427,350.9776,True
1,2.122225,0.03625256,0.05101416,-0.01256294,-1.398849,-4.241345,-2.557106,0.3313461,1.299058,0.3721428,-0.9633,0.2725428,0,7.8,0.007881641,0.07622819,0.02474967,-0.3867267,-3.627843,-0.1501338,0.4266334,1.516836,0.3360991,-0.0003947224,-0.01318958,-0.001625572,-0.7258105,0.618599,-0.072218,0.5730357,1.553891,0.2265871,0.07130659,1.194878,0.1570659,283.0912,240.0993,350.166,True
1,2.133336,0.03413187,0.03706525,-0.02416645,-1.398257,-4.241505,-2.557315,0.3314938,1.299198,0.3723848,-0.9604616,0.2557918,0.2,4.2,-0.008060573,0.05810869,0.03543092,-0.3860939,-3.62761,-0.1498121,0.4268466,1.516852,0.3361483,-0.01123448,-0.01537054,-0.01961624,-0.7265913,0.6181158,-0.07132132,0.5732268,1.55388,0.2266614,0.07134474,1.194715,0.1574031,282.928,241.1145,349.1302,True
1,2.144447,0.03098489,0.0135714,-0.03036918,-1.397444,-4.241266,-2.557593,0.3316633,1.299299,0.3726208,-0.958339,0.1906985,0.2,4.2,-0.004851539,0.04634191,0.04170358,-0.3855261,-3.626723,-0.1506526,0.4270743,1.51692,0.3362498,-0.0208132,-0.01538647,-0.0184531,-0.7267415,0.6178772,-0.07054874,0.5734394,1.553858,0.22683,0.07129198,1.194595,0.157753,282.8303,242.2849,347.9013,True
1,2.155558,0.02148472,-0.02910512,-0.03534434,-1.396019,-4.240039,-2.55753,0.3317965,1.299495,0.373193,-0.956273,0.1862884,0.2,4.2,0.001399597,0.01864171,0.03824589,-0.3851208,-3.628671,-0.1490574,0.4273238,1.516899,0.3364227,-0.01748187,-0.008964328,-0.004646169,-0.7262542,0.6181697,-0.0707562,0.5736535,1.553793,0.2268987,0.07125897,1.194491,0.1580745,282.7353,243.328,346.8016,True
1,2.166669,0.01198795,-0.0653567,-0.03610967,-1.394544,-4.238569,-2.557584,0.3318511,1.299593,0.3734524,-0.9546452,0.1463454,0.2,4.2,0.009699546,-0.03035755,0.03461255,-0.3846521,-3.633291,-0.1451801,0.4274912,1.51692,0.3366172,-0.01522371,-0.005741363,0.00810507,-0.7257583,0.6183221,-0.07081266,0.5738533,1.553824,0.2269855,0.07127938,1.194408,0.1583216,282.6317,244.0066,346.0674,True
1,2.17778,-0.003851573,-0.1154142,-0.02929614,-1.392884,-4.236098,-2.557445,0.3318157,1.299639,0.373471,-0.9527794,0.1686504,0.5,3.4,0.009371746,-0.05469052,0.01100302,-0.3851037,-3.637461,-0.1414304,0.4276557,1.516903,0.3367805,-0.0214852,0.00385521,0.02199329,-0.7252134,0.6189032,-0.07081239,0.5740137,1.553818,0.2271273,0.07138254,1.194343,0.158497,282.4776,244.3869,345.6469,True
1,2.188891,-0.003851573,-0.1154142,-0.02929614,-1.392884,-4.236098,-2.557445,0.3318157,1.299639,0.373471,-0.9516641,0.09993232,0.5,3.4,0.009371746,-0.05469052,0.01100302,-0.3851037,-3.637461,-0.1414304,0.4276557,1.516903,0.3367805,-0.0214852,0.00385521,0.02199329,-0.7252134,0.6189032,-0.07081239,0.5740137,1.553818,0.2271273,0.0714464,1.194178,0.1591632,282.2609,246.975,343.2134,True
1,2.200002,-0.01024123,-0.1089701,-0.02080689,-1.391605,-4.234337,-2.557415,0.3320118,1.299818,0.3738329,-0.9509211,0.06661052,0.5,3.4,0.006014299,-0.01076262,-0.02167691,-0.3867256,-3.63514,-0.1434789,0.4279863,1.51679,0.3370159,-0.01416332,-0.003613736,0.008082452,-0.7254302,0.6184083,-0.07029467,0.5744654,1.55386,0.2273171,0.07147469,1.194229,0.1590697,282.236,246.2411,343.7945,True
1,2.211113,-0.007237768,-0.0301008,-0.01716243,-1.392399,-4.235896,-2.557133,0.332525,1.299927,0.3739595,-0.9494366,0.1347201,0.5,3.4,0.01058106,0.04242026,-0.01174946,-0.3869861,-3.628002,-0.1505858,0.4283859,1.51684,0.3371229,-0.01856147,0.001685588,-0.00359411,-0.7258413,0.6186987,-0.06989253,0.5749612,1.553868,0.2275183,0.07164128,1.194229,0.1588064,282.177,244.7793,345.1849,True
1,2.222224,-0.009541055,0.03162424,-0.02402727,-1.393374,-4.238166,-2.556478,0.3328648,1.299987,0.3739588,-0.9491042,0.02889123,0.5,3.4,-0.004174985,0.05838743,-0.001900233,-0.3868502,-3.624576,-0.1531781,0.4287045,1.516947,0.3371875,-0.01537458,0.009153314,-0.002569133,-0.7257332,0.6193492,-0.07027123,0.5752323,1.553905,0.2276053,0.07197174,1.19428,0.1585086,282.0456,242.8632,347.0909,True
1,2.233335,-0.007506987,0.06567633,-0.02962386,-1.394047,-4.240192,-2.556118,0.3331725,1.300115,0.3740935,-0.9489093,0.0173026,1,2.5,-0.01474123,0.04875722,0.01091656,-0.3863277,-3.623894,-0.1531765,0.4290272,1.517054,0.3372722,-0.0153872,0.01021475,-0.003635513,-0.7258297,0.6195478,-0.07023501,0.5755455,1.553856,0.2277486,0.07225737,1.194369,0.1583826,281.9219,241.579,348.3825,True
1,2.244446,-0.008613031,0.08057463,-0.03080473,-1.394397,-4.241412,-2.555781,0.3334434,1.300243,0.3740051,-0.9481109,0.07253026,1,2.5,-0.02845875,0.02521399,0.03325667,-0.3850206,-3.625066,-0.1512313,0.4294245,1.517184,0.3373823,-0.01977514,0.004859814,-0.01635998,-0.7263905,0.6192827,-0.06960171,0.5758595,1.553853,0.2278514,0.07225537,1.194367,0.1584407,281.9091,241.9535,348.0689,True
1,2.255557,-0.01284697,0.06991111,-0.03071392,-1.394333,-4.24199,-2.555405,0.3337294,1.300399,0.3741808,-0.947867,0.02140364,1,2.5,-0.03690532,0.00276434,0.05022454,-0.3837226,-3.626636,-0.1489692,0.4297199,1.517313,0.3374848,-0.01353701,0.00271953,-0.03133888,-0.7273359,0.6192129,-0.06962968,0.5761064,1.55384,0.2278678,0.07217291,1.194413,0.158624,281.91,242.8138,347.2184,True
1,2.266668,-0.01813955,0.05710382,-0.03166381,-1.394116,-4.242158,-2.555021,0.3338869,1.30037,0.3739853,-0.9473801,0.04414706,1,2.5,-0.04123965,-0.03241885,0.0564075,-0.382562,-3.631076,-0.1442187,0.4301057,1.517402,0.3376715,-0.01477607,-0.005834034,-0.04941538,-0.7284763,0.6185108,-0.06890476,0.5764233,1.553797,0.2279627,0.07201386,1.194448,0.1588733,281.9307,244.2411,345.8232,True
1,2.277779,-0.02659347,0.03476166,-0.02508224,-1.393829,-4.241742,-2.554454,0.3340989,1.30043,0.3741851,-0.9468805,0.04511072,1.6,1,-0.03287578,-0.06437194,0.05288973,-0.3820709,-3.635566,-0.1400343,0.4303635,1.517416,0.3378,-0.02213937,0.002691532,-0.03870447,-0.7285988,0.6190424,-0.06871381,0.5767033,1.553801,0.2280035,0.07190582,1.194445,0.1591414,281.9162,245.683,344.4324,True
1,2.28889,-0.04676703,0.01132337,-0.01846992,-1.393494,-4.241041,-2.553236,0.3343093,1.300516,0.3745413,-0.9465109,0.03329281,1.6,1,-0.02562362,-0.06424266,0.03257626,-0.3825002,-3.636941,-0.1386948,0.4305819,1.517478,0.3378611,-0.02732787,0.01123249,-0.02374886,-0.7282798,0.6198766,-0.06879451,0.5770376,1.553799,0.2280407,0.07181362,1.194385,0.1595499,281.8762,247.8838,342.3864,True
1,2.300001,-0.04676703,0.01132337,-0.01846992,-1.393494,-4.241041,-2.553236,0.3343093,1.300516,0.3745413,-0.9460049,0.04586381,1.6,1,-0.02562362,-0.06424266,0.03257626,-0.3825002,-3.636941,-0.1386948,0.4305819,1.517478,0.3378611,-0.02732787,0.01123249,-0.02374886,-0.7282798,0.6198766,-0.06879451,0.5770376,1.553799,0.2280407,0.07182642,1.194361,0.1598248,281.7969,249.0692,341.2525,True
1,2.311112,-0.06905994,-0.009967661,-0.009744791,-1.393011,-4.240315,-2.551244,0.3347268,1.30063,0.3747413,-0.9464368,-0.03993256,1.6,1,-0.0009383732,0.0199227,0.01909206,-0.3828885,-3.6285,-0.1472209,0.4311923,1.51752,0.338028,-0.01333783,0.001697549,-0.01215693,-0.7280592,0.6196229,-0.06877614,0.5777661,1.553684,0.2282414,0.07187434,1.194276,0.1599899,281.7109,249.7711,340.58,True
1,2.322223,-0.06051061,-0.0162856,-0.003318481,-1.392985,-4.239906,-2.551006,0.334948,1.300667,0.3747914,-0.9441471,0.2096542,1.6,1,0.005487921,0.03162389,0.01804682,-0.3828299,-3.626361,-0.1494984,0.431569,1.517547,0.3381605,-0.01244798,-0.003658439,-0.0302701,-0.7291138,0.6191784,-0.06841049,0.5781441,1.553658,0.2283399,0.07190953,1.194286,0.1600658,281.6737,250.0162,340.3547,True
1,2.333334,-0.05731017,-0.01733435,-0.002250507,-1.39286,-4.2397,-2.550518,0.3351664,1.300798,0.3748958,-0.9449332,-0.07373364,1.2,0.6,0.003336872,0.02417365,0.01907603,-0.3825913,-3.62645,-0.1492888,0.4319246,1.517584,0.3383222,-0.01257075,-0.01006955,-0.04304211,-0.7300689,0.6186414,-0.06785974,0.5785631,1.553605,0.2283499,0.07199208,1.194412,0.1600683,281.6339,249.7722,340.6191,True
1,2.344445,-0.04667772,-0.01094949,-0.006581671,-1.3927,-4.23994,-2.550392,0.3355225,1.300807,0.3746192,-0.945949,-0.09202167,1.2,0.6,-0.008537992,-0.003440386,0.01367106,-0.382448,-3.629432,-0.1459961,0.4323961,1.517699,0.3385549,-0.007201634,-0.02177374,-0.04094073,-0.7302553,0.6176244,-0.06717957,0.5789909,1.553571,0.2283955,0.07204331,1.194555,0.1599694,281.6416,249.3206,341.1226,True
1,2.355556,-0.04778418,0.0007156259,-0.01306307,-1.392636,-4.240529,-2.54974,0.335862,1.300943,0.3747094,-0.9457588,0.01804008,1.2,0.6,-0.01498512,-0.04824122,0.02407629,-0.38137,-3.635326,-0.1402695,0.4329122,1.51762,0.3381243,-0.009263098,-0.02389589,-0.03452275,-0.7303661,0.6171235,-0.06657929,0.5793763,1.553535,0.2284291,0.07211325,1.194646,0.1598666,281.6325,248.898,341.6118,True
1,2.366668,-0.05203706,0.001734233,-0.01624971,-1.392463,-4.240516,-2.549214,0.336068,1.301048,0.3744733,-0.9460576,-0.02764837,1.2,0.6,-0.02463654,-0.09941362,0.03659406,-0.3800885,-3.642058,-0.1335019,0.4333073,1.517632,0.3381143,-0.006089836,-0.02176086,-0.03668442,-0.7307506,0.6169067,-0.06650925,0.5796901,1.553542,0.2284787,0.07218707,1.194707,0.1598019,281.6099,248.6567,341.9294,True
1,2.377779,-0.06164327,0.001626392,-0.02688544,-1.391864,-4.240963,-2.548089,0.3365155,1.301107,0.3746097,-0.9455255,0.04883695,1.3,0,-0.03965615,-0.1185059,0.03340848,-0.3796171,-3.647265,-0.127701,0.4337335,1.517656,0.3381569,-0.007181995,-0.01856749,-0.03880822,-0.731262,0.6167919,-0.06631697,0.5800921,1.553526,0.2284944,0.07228334,1.194739,0.1597646,281.5631,248.5383,342.1415,True
1,2.38889,-0.07443759,0.003694031,-0.03008201,-1.391417,-4.241304,-2.546695,0.3370087,1.301103,0.3743,-0.9454024,0.01073441,1.3,0,-0.05130388,-0.09609295,0.03154977,-0.3793561,-3.648163,-0.1259393,0.4341407,1.517709,0.3381991,-0.0093114,-0.0185737,-0.03878653,-0.7316912,0.6163897,-0.06583308,0.580525,1.553518,0.2285106,0.07234985,1.194795,0.159766,281.5281,248.4728,342.2554,True
1,2.400001,-0.07125543,0.007972991,-0.02906407,-1.391241,-4.241731,-2.545913,0.3374856,1.301212,0.3743482,-0.9448416,0.05119194,1.3,0,-0.0574703,-0.04068539,0.03414427,-0.3790163,-3.643324,-0.1294315,0.4346278,1.51774,0.3381963,-0.001818974,-0.02388938,-0.03672527,-0.7320012,0.6154965,-0.06544185,0.5809699,1.553464,0.2286263,0.0724706,1.194864,0.1598975,281.5975,247.8687,342.9846,True
1,2.411112,-0.06803828,0.00699921,-0.0184087,-1.391439,-4.241651,-2.545292,0.3379967,1.301224,0.3745494,-0.9445034,0.03052483,1.3,0,-0.04553117,-0.005646653,0.0427985,-0.3783436,-3.640235,-0.1322979,0.4350461,1.517701,0.3382382,0.003409132,-0.01963262,-0.04531054,-0.7328082,0.6153241,-0.06555078,0.5813766,1.553461,0.2286694,0.07255893,1.194947,0.1599244,281.5518,247.899,343.0389,True
1,2.422223,-0.06163461,0.008145199,-0.009907747,-1.39162,-4.241625,-2.544857,0.3384678,1.301169,0.3744919,-0.9451308,-0.05752642,1.3,0,-0.03396981,0.009376151,0.02149044,-0.3788842,-3.638744,-0.1336736,0.4355236,1.517798,0.3382978,0.003433932,-0.0206877,-0.04317647,-0.733164,0.6150463,-0.06536756,0.581709,1.553509,0.2288067,0.07264859,1.195051,0.1598781,281.5244,247.7489,343.3029,True
1,2.433334,-0.04991988,0.01246952,-0.00570075,-1.391851,-4.241799,-2.544711,0.3390358,1.301157,0.3747354,-0.9452752,-0.01265151,3.6,0.3,-0.02551195,0.01685972,0.01187012,-0.3791697,-3.638065,-0.1343469,0.4359826,1.517764,0.3383765,0.001370538,-0.02280933,-0.03782632,-0.7333972,0.6145957,-0.06506502,0.5820825,1.553556,0.2287953,0.07286441,1.195176,0.1600212,281.5697,246.6557,344.5096,True
1,2.444445,-0.03714143,0.01461898,-0.007864853,-1.391913,-4.242093,-2.544761,0.339496,1.300971,0.3745551,-0.945444,-0.0154356,3.6,0.3,-0.005515588,0.01055255,-0.009678239,-0.3800597,-3.638401,-0.1346231,0.4365387,1.517715,0.3385372,0.0143119,-0.02382275,-0.02304889,-0.7331459,0.6141905,-0.06536037,0.5824754,1.553503,0.2288377,0.07300032,1.195197,0.1602231,281.5165,247.0724,344.3065,True
1,2.455556,-0.03714143,0.01461898,-0.007864853,-1.391913,-4.242093,-2.544761,0.339496,1.300971,0.3745551,-0.9457269,-0.02580186,3.6,0.3,-0.005515588,0.01055255,-0.009678239,-0.3800597,-3.638401,-0.1346231,0.4365387,1.517715,0.3385372,0.0143119,-0.02382275,-0.02304889,-0.7331459,0.6141905,-0.06536037,0.5824754,1.553503,0.2288377,0.07327823,1.195231,0.1606927,281.4591,247.0476,344.4853,True
1,2.466667,-0.0158903,0.02843293,-0.01973216,-1.391795,-4.243503,-2.544828,0.3406739,1.300739,0.3746548,-0.9457897,-0.005595139,3.6,0.3,0.02183731,-0.03950749,-0.02521902,-0.3807053,-3.645288,-0.1295929,0.4375408,1.517631,0.3387761,0.03132049,-0.02912684,-0.02747659,-0.7338558,0.612814,-0.06559712,0.583444,1.553478,0.228847,0.07367085,1.195216,0.1612109,281.4495,246.0313,345.4837,True
1,2.477778,-0.01169219,0.04863361,-0.02628987,-1.392098,-4.244937,-2.544604,0.3413655,1.300674,0.3750064,-0.9459548,-0.01512754,5.1,0.5,0.02706939,-0.05655157,-0.02859184,-0.380978,-3.648891,-0.1266951,0.4381049,1.517586,0.3389828,0.03553609,-0.03232035,-0.03284328,-0.7343848,0.6121446,-0.065689,0.5839823,1.55342,0.2289183,0.07402086,1.195225,0.1616388,281.3655,245.7494,345.9628,True
1,2.488889,-0.007508542,0.07202426,-0.03393712,-1.392533,-4.246771,-2.544246,0.3421354,1.300606,0.3753276,-0.9457614,0.01770665,5.1,0.5,0.04742396,-0.04068989,-0.02335159,-0.3810376,-3.648562,-0.128306,0.4387335,1.517586,0.3391678,0.04396918,-0.04191354,-0.04357131,-0.735254,0.6107194,-0.06551376,0.5845061,1.553362,0.2289119,0.07442676,1.195233,0.1620171,281.2712,245.0312,346.8719,True
