loc,t,aDotUA,bDotUA,gDotUA,aUA,bUA,gUA,xUA,yUA,zUA,qE,qDotE,emgA,emgB,aDotSH,bDotSH,gDotSH,aSH,bSH,gSH,xSH,ySH,zSH,aDotUB,bDotUB,gDotUB,aUB,bUB,gUB,xUB,yUB,zUB,xHand,yHand,zHand,aHand,bHand,gHand,enable
2,0,-0.3427674,-0.8960263,-0.1434631,-1.354269,-3.864665,2.954539,0.5325339,1.302024,0.5083411,-1.359762,0.03987833,0,0,-0.3992517,0.1869774,-0.05006471,-0.3797753,-4.010691,-0.2034431,0.5464693,1.524066,0.4050133,-0.1361748,0.2432639,0.08243987,-0.7700914,0.2477003,-0.02860235,0.6426439,1.555565,0.2516129,0.4110987,1.066301,0.3074245,318.2794,218.479,356.1918,True
2,0.01111111,-0.3427674,-0.8960263,-0.1434631,-1.354269,-3.864665,2.954539,0.5325339,1.302024,0.5083411,-1.359165,0.05419306,0,0,-0.3992517,0.1869774,-0.05006471,-0.3797753,-4.010691,-0.2034431,0.5464693,1.524066,0.4050133,-0.1361748,0.2432639,0.08243987,-0.7700914,0.2477003,-0.02860235,0.6426439,1.555565,0.2516129,0.4100029,1.066281,0.3055083,318.2902,217.6828,356.6058,True
2,0.02222222,-0.3620456,-0.8545156,-0.1394754,-1.354468,-3.855849,2.957336,0.5302349,1.301843,0.5077822,-1.363258,-0.3747072,0,0,-0.3780839,0.1560125,-0.05157062,-0.3804395,-4.008743,-0.2016519,0.5454568,1.523951,0.4050252,-0.1384084,0.2528394,0.07393023,-0.7696557,0.2522317,-0.0302378,0.6422316,1.555563,0.2519751,0.4093201,1.066491,0.3033838,318.1768,217.1723,356.614,True
2,0.03333334,-0.3941492,-0.79489,-0.1324228,-1.354485,-3.848494,2.961267,0.528126,1.301695,0.5072563,-1.354551,0.7993835,0,0,-0.3729104,0.1347365,-0.05817566,-0.381501,-4.006967,-0.1992156,0.5444868,1.523825,0.4049814,-0.1482481,0.2730466,0.05269738,-0.7699667,0.2577134,-0.03211373,0.6418419,1.555531,0.25246,0.4090941,1.066952,0.3014686,317.8353,216.837,356.4222,True
2,0.04444445,-0.4154822,-0.7747,-0.1272177,-1.354884,-3.830621,2.967138,0.5235962,1.301219,0.5061054,-1.35749,-0.2757555,0,0,-0.392033,0.09953567,-0.04012282,-0.3820171,-4.003851,-0.192741,0.5425723,1.523623,0.404985,-0.1558529,0.2804726,0.03998978,-0.7695801,0.2668993,-0.03500912,0.6411173,1.555465,0.2532716,0.4084082,1.066927,0.2986558,317.9343,216.0569,356.394,True
2,0.05555556,-0.4197336,-0.7693189,-0.1155284,-1.355623,-3.821686,2.970046,0.5213356,1.30102,0.505532,-1.359322,-0.1640764,0,0,-0.4037267,0.08568147,-0.03265096,-0.3822637,-4.00262,-0.1888823,0.5417082,1.523618,0.4049227,-0.1655234,0.2698044,0.03052314,-0.7695481,0.2707664,-0.03556465,0.6406818,1.555535,0.2537096,0.4077666,1.067205,0.2956353,317.9236,215.3157,356.2676,True
2,0.06666667,-0.4229634,-0.7511193,-0.1028715,-1.356283,-3.81381,2.973261,0.5190641,1.300801,0.5048509,-1.358878,0.04179478,0,0,-0.386637,0.08131394,-0.02647176,-0.3825189,-4.000583,-0.1870716,0.5407499,1.523573,0.4048874,-0.1644534,0.2698107,0.03051024,-0.7693499,0.275189,-0.03701421,0.6402855,1.555495,0.2540686,0.4072664,1.067866,0.2927088,317.6619,214.6816,356.1221,True
2,0.07777778,-0.4219342,-0.7297912,-0.09662898,-1.356766,-3.80598,2.976252,0.5168954,1.300562,0.5041871,-1.359334,-0.04214832,0,0,-0.363048,0.08006069,-0.01181193,-0.3822861,-3.997683,-0.1866919,0.5396304,1.523336,0.4048724,-0.1632747,0.2719634,0.04221821,-0.7684711,0.2799514,-0.03858095,0.6397829,1.555444,0.2544801,0.4068354,1.06879,0.2899416,317.2959,214.1028,356.0016,True
2,0.08888889,-0.4306572,-0.6562719,-0.09288588,-1.356691,-3.801483,2.980562,0.5147814,1.300492,0.5036111,-1.359413,-0.006667465,0.1,0,-0.3747967,0.06197244,-0.007565036,-0.3822808,-3.99744,-0.1822654,0.5386399,1.523298,0.404804,-0.1708473,0.2676802,0.0305828,-0.7686762,0.2840083,-0.03929201,0.6394787,1.555349,0.2547913,0.4064093,1.069829,0.2873194,316.9117,213.5505,355.9163,True
2,0.1,-0.4403804,-0.6051474,-0.09003481,-1.35675,-3.796297,2.984867,0.5127439,1.300244,0.5029948,-1.35972,-0.02802753,0.1,0,-0.4024275,0.05775747,0.001221709,-0.3819357,-3.995872,-0.1779791,0.5375554,1.523219,0.4047244,-0.1785883,0.2740327,0.005090769,-0.7697441,0.2886427,-0.04020441,0.639132,1.555233,0.2551732,0.4058619,1.070822,0.2847828,316.5625,213.0396,355.845,True
2,0.1111111,-0.4447596,-0.5731568,-0.08807479,-1.356919,-3.791217,2.989327,0.5106873,1.300104,0.5023301,-1.359207,0.04713909,0.1,0,-0.4364697,0.06426889,0.003747657,-0.3820203,-3.993115,-0.1742043,0.5365757,1.523174,0.4046602,-0.1819859,0.2729714,-0.01298429,-0.7706725,0.2934887,-0.04133066,0.6385846,1.55525,0.2556677,0.4051609,1.071714,0.2823826,316.2669,212.547,355.7629,True
2,0.1222222,-0.4428008,-0.5071138,-0.08643669,-1.356555,-3.78754,2.993486,0.5088192,1.29992,0.5012836,-1.359089,0.01044916,0.1,0,-0.4590766,0.03889096,-0.008996204,-0.382652,-3.994648,-0.1668148,0.5356094,1.523075,0.4045196,-0.19157,0.2708271,-0.01288162,-0.770999,0.2976607,-0.04180098,0.6382841,1.555156,0.2560668,0.4041326,1.072519,0.2801708,316.0502,212.1523,355.6304,True
2,0.1333333,-0.4461345,-0.4570816,-0.09107472,-1.35571,-3.784284,2.997862,0.5070183,1.299471,0.5001783,-1.359061,0.002571882,0.1,0,-0.4656597,0.03798234,-0.02704611,-0.3837418,-3.994167,-0.1618155,0.5346041,1.522931,0.4043894,-0.2010681,0.2836202,-0.002147302,-0.770763,0.3031688,-0.04309687,0.6380947,1.55493,0.2564662,0.4027824,1.073272,0.2781557,315.8495,211.819,355.623,True
2,0.1444445,-0.4518661,-0.3037581,-0.09861675,-1.353945,-3.786537,3.003518,0.5055363,1.298909,0.499181,-1.35975,-0.06290779,2.2,0,-0.4540184,0.08606076,-0.05238591,-0.3858558,-3.987088,-0.163831,0.5336589,1.522649,0.4042084,-0.2180596,0.309172,0.006525923,-0.7705153,0.3096131,-0.04462739,0.6377838,1.554823,0.2568605,0.4011684,1.074019,0.2762558,315.6898,211.5545,355.7351,True
2,0.1555556,-0.4627726,-0.2111924,-0.1088912,-1.352219,-3.787299,3.009254,0.5038939,1.29849,0.4983995,-1.359754,0.0002568409,2.2,0,-0.3969203,0.1523596,-0.1185451,-0.3903491,-3.977828,-0.1702261,0.5327371,1.522295,0.4040346,-0.2277381,0.3230152,0.0002281293,-0.7708924,0.3157565,-0.04606603,0.637766,1.554687,0.2572186,0.3993085,1.074732,0.2743293,315.4958,211.3211,355.9555,True
2,0.1666667,-0.4811922,-0.09949239,-0.1235709,-1.349742,-3.79038,3.015973,0.5023292,1.297991,0.4975603,-1.359674,0.007197881,2.2,0,-0.3768809,0.1780634,-0.1473367,-0.3936381,-3.971386,-0.1726631,0.5317105,1.522018,0.4039223,-0.2310424,0.3368521,-0.008274511,-0.7715369,0.3218656,-0.04778004,0.6375,1.554563,0.2575984,0.3972189,1.07537,0.272337,315.229,211.084,356.151,True
2,0.1777778,-0.5229651,-0.02199312,-0.1422201,-1.347087,-3.792422,3.023858,0.5007504,1.297586,0.49687,-1.359319,0.03249122,2.2,0,-0.3800409,0.2058353,-0.1545597,-0.3961447,-3.963548,-0.1754901,0.5306482,1.521709,0.40379,-0.2214608,0.3379423,-0.008367609,-0.7717249,0.327562,-0.04969112,0.6372234,1.554498,0.2579448,0.3947881,1.075993,0.2704313,314.9242,210.9454,356.1932,True
2,0.1888889,-0.5550966,0.03532637,-0.1585901,-1.344409,-3.79472,3.031734,0.4990672,1.297432,0.4962945,-1.358889,0.03908542,4,0,-0.3990185,0.2111116,-0.1372824,-0.3974416,-3.957437,-0.1758842,0.5298606,1.52156,0.4037499,-0.2139591,0.3230432,-0.006299604,-0.771847,0.3318534,-0.05070179,0.6369287,1.554381,0.2583113,0.3920562,1.076703,0.268764,314.6289,210.8102,356.2805,True
2,0.2,-0.579746,0.08304776,-0.1759686,-1.341595,-3.796776,3.039479,0.4972699,1.297346,0.4956543,-1.357623,0.1156104,4,0,-0.3819232,0.1608031,-0.1133208,-0.3977639,-3.95786,-0.1718138,0.5292844,1.521476,0.4037414,-0.1980986,0.2985553,-0.02028493,-0.7727119,0.3352747,-0.05146718,0.636644,1.554402,0.2586076,0.3889435,1.077526,0.2673281,314.3414,210.6891,356.4748,True
2,0.2111111,-0.5947286,0.1053144,-0.1846441,-1.339003,-3.798535,3.046923,0.4954722,1.297303,0.4949679,-1.357803,-0.01733818,4,0,-0.3657491,0.09330741,-0.0692352,-0.3965639,-3.961447,-0.1651304,0.5286736,1.521528,0.4037395,-0.1831101,0.2804683,-0.0161668,-0.7729287,0.3386035,-0.0524933,0.6363716,1.55432,0.258863,0.3855322,1.078579,0.2661082,314.0982,210.5772,356.7989,True
2,0.2222222,-0.6161221,0.1286059,-0.195451,-1.336222,-3.800424,3.055094,0.4937315,1.29748,0.4943764,-1.358187,-0.03460699,4,0,-0.3623697,-0.008313209,-0.01354026,-0.39384,-3.970867,-0.1526031,0.5281492,1.521679,0.4036818,-0.1671211,0.2559855,-0.01842995,-0.7731753,0.3412544,-0.05318732,0.6360594,1.554261,0.2591388,0.3818958,1.079974,0.2650273,313.8541,210.4709,357.1994,True
2,0.2333333,-0.6321849,0.1561963,-0.2041622,-1.333385,-3.803072,3.063274,0.4919681,1.297598,0.4937313,-1.358688,-0.04539607,4,0,-0.3751117,-0.06490859,0.01174837,-0.3921968,-3.978266,-0.141123,0.527667,1.521818,0.4035983,-0.1660962,0.2485315,-0.02374564,-0.7736419,0.3449591,-0.05404779,0.6357945,1.554198,0.2594583,0.3780868,1.081708,0.2639409,313.5287,210.3629,357.6693,True
2,0.2444444,-0.6559471,0.2667204,-0.230544,-1.329123,-3.810033,3.072934,0.4903375,1.297827,0.4931407,-1.358242,0.04127927,1.9,0,-0.3760064,-0.1494026,0.06014674,-0.389188,-3.989504,-0.1264304,0.5271489,1.521873,0.4033709,-0.1715543,0.2314633,-0.03858526,-0.7747668,0.3475492,-0.0537623,0.6355467,1.554156,0.2596798,0.3742504,1.083754,0.2627782,313.0895,210.2447,358.1736,True
2,0.2555556,-0.6689442,0.3357879,-0.2470402,-1.325151,-3.815953,3.08225,0.4888161,1.297912,0.4925737,-1.358552,-0.02862794,1.9,0,-0.3599734,-0.1623012,0.0694724,-0.3879586,-3.99424,-0.1188508,0.5263261,1.521878,0.4032297,-0.1758882,0.2271966,-0.0459706,-0.7754204,0.3510823,-0.05417109,0.6352532,1.554144,0.2598615,0.3704865,1.086072,0.2614869,312.5945,210.0909,358.6524,True
2,0.2666667,-0.682067,0.4473661,-0.2798225,-1.320197,-3.825292,3.092554,0.487197,1.298087,0.492002,-1.358344,0.0195121,1.9,0,-0.3309524,-0.102776,0.07173488,-0.3872502,-3.991145,-0.1191714,0.5254575,1.521845,0.4030125,-0.188792,0.233559,-0.05649545,-0.7766193,0.3550221,-0.05433754,0.635018,1.55408,0.260062,0.3667195,1.088562,0.2600094,312.0473,209.8767,359.0345,True
2,0.2777778,-0.7026523,0.5599712,-0.3147309,-1.314921,-3.835742,3.103676,0.48554,1.298152,0.4915226,-1.358629,-0.02608704,1.9,0,-0.3202229,-0.04090929,0.05608786,-0.3875816,-3.986021,-0.1206676,0.5246556,1.521726,0.4028823,-0.1930372,0.2356884,-0.05536777,-0.7770982,0.3589696,-0.05497563,0.6347957,1.553957,0.2602484,0.3627215,1.091192,0.2584639,311.4642,209.6443,359.3265,True
2,0.2888889,-0.7295536,0.6491877,-0.340948,-1.309751,-3.846413,3.115444,0.483792,1.298173,0.4908524,-1.358715,-0.007511077,1.9,0,-0.3179815,0.07009661,0.02490763,-0.3891837,-3.973414,-0.128889,0.5238125,1.521656,0.4027255,-0.1888532,0.2207735,-0.06498536,-0.7782832,0.3615434,-0.05493223,0.6345018,1.553853,0.2604027,0.3584464,1.093929,0.2570094,310.8248,209.396,359.6785,True
2,0.3,-0.7499765,0.705409,-0.3658417,-1.304656,-3.856228,3.126873,0.4820088,1.29823,0.4903643,-1.358403,0.02868407,0.8,0.9,-0.3178524,0.1383668,0.01262497,-0.3899677,-3.963161,-0.1347075,0.5232223,1.521617,0.4025321,-0.1706275,0.1952438,-0.05768328,-0.7786417,0.3633091,-0.05503316,0.6341859,1.553764,0.2605526,0.3536677,1.096722,0.2557558,310.1869,209.1601,0.05341087,True
2,0.3111111,-0.7660394,0.7254399,-0.3883395,-1.299455,-3.86519,3.138305,0.4801393,1.298373,0.4898393,-1.358029,0.03407253,0.8,0.9,-0.3144787,0.1446386,0.02754713,-0.3893723,-3.95832,-0.1358122,0.5226294,1.52157,0.40242,-0.1695652,0.1888521,-0.05875351,-0.7794268,0.3659006,-0.05502677,0.6339293,1.553648,0.2606926,0.3482586,1.099555,0.2548186,309.5535,208.9978,0.5362049,True
2,0.3222222,-0.7884951,0.7411416,-0.413999,-1.293857,-3.87389,-3.133012,0.478225,1.298485,0.4892428,-1.358382,-0.03236179,0.8,0.9,-0.3027292,0.0997104,0.04734369,-0.3878905,-3.959847,-0.1315362,0.5223331,1.521507,0.4022827,-0.15897,0.1728775,-0.06629975,-0.7804015,0.3675927,-0.05486858,0.633499,1.553526,0.2608078,0.3422639,1.102448,0.2542121,308.9446,208.9311,1.2097,True
2,0.3333333,-0.8045143,0.745201,-0.435312,-1.28837,-3.882626,-3.121103,0.4762515,1.298668,0.4886844,-1.358453,-0.006095089,0.8,0.9,-0.2879359,0.02923965,0.06266277,-0.3863011,-3.96527,-0.1238066,0.5220397,1.521563,0.4021549,-0.1558227,0.1739443,-0.07059468,-0.7814562,0.3704099,-0.05520706,0.6331758,1.553418,0.2609649,0.3359924,1.105462,0.2539976,308.3364,208.8868,2.088395,True
2,0.3444445,-0.8376264,0.7608405,-0.4673478,-1.282285,-3.892056,-3.108069,0.4742867,1.298976,0.4881115,-1.3582,0.02331895,0.4,3,-0.2710716,-0.04868519,0.07470039,-0.3846446,-3.973877,-0.1134477,0.5217953,1.521545,0.4020934,-0.1441316,0.1611729,-0.07496576,-0.7825294,0.3721638,-0.05532131,0.6328135,1.553299,0.2610157,0.329672,1.108567,0.2540373,307.7466,208.821,3.103714,True
2,0.3555556,-0.851566,0.774484,-0.483402,-1.27689,-3.901405,-3.095345,0.4724871,1.299116,0.4876912,-1.358395,-0.01789386,0.4,3,-0.2615416,-0.1149056,0.0943711,-0.3824486,-3.982391,-0.1029498,0.5214529,1.52164,0.4018996,-0.1366638,0.1494696,-0.07502545,-0.7833241,0.3738747,-0.05524621,0.6324873,1.553159,0.2610278,0.3234293,1.111718,0.2541213,307.1911,208.7024,4.148177,True
2,0.3666667,-0.871901,0.7945552,-0.5016036,-1.27156,-3.911917,-3.081602,0.4704704,1.299641,0.487339,-1.357767,0.05779887,0.4,3,-0.2519869,-0.1555155,0.1067549,-0.3805561,-3.990391,-0.09305803,0.521094,1.521648,0.4017677,-0.1184971,0.1281924,-0.07306786,-0.7841683,0.3746451,-0.05525846,0.6320242,1.553034,0.2608576,0.317361,1.114919,0.2541203,306.6666,208.53,5.122405,True
2,0.3777778,-0.8858821,0.8381343,-0.5093829,-1.266337,-3.923668,-3.067863,0.4685726,1.300114,0.4866695,-1.358271,-0.04647532,0.4,3,-0.2307627,-0.1918625,0.1126622,-0.3788352,-3.999132,-0.08317931,0.520714,1.521722,0.401582,-0.1033046,0.1122697,-0.04869942,-0.7837662,0.3758736,-0.05550507,0.6316403,1.552985,0.260761,0.3114819,1.118218,0.2539584,306.1657,208.2838,6.031586,True
2,0.3888889,-0.8934366,0.8711089,-0.513877,-1.261455,-3.935569,-3.054143,0.466647,1.300491,0.4861012,-1.357949,0.0301148,0.4,3,-0.2052549,-0.2058114,0.1122907,-0.3774759,-4.006342,-0.07514296,0.5201976,1.521782,0.4013751,-0.0967456,0.1080406,-0.03384092,-0.7836159,0.3775585,-0.05592452,0.6313228,1.552973,0.2607188,0.3058692,1.121677,0.2536821,305.6268,207.9968,6.845655,True
2,0.4,-0.9021424,0.938176,-0.5175788,-1.256704,-3.949602,-3.039616,0.464761,1.300953,0.4853776,-1.358556,-0.05564992,1.1,1.6,-0.1914748,-0.1705666,0.09216089,-0.3771915,-4.007821,-0.07216714,0.5196618,1.521793,0.4010956,-0.09024432,0.1016675,-0.02431463,-0.7835712,0.3788102,-0.05607206,0.630837,1.552934,0.2605665,0.3003457,1.125356,0.2532456,305.1288,207.7187,7.531693,True
2,0.4111111,-0.9086313,0.9765189,-0.5157514,-1.252268,-3.962868,-3.025236,0.4628521,1.301172,0.4845603,-1.358937,-0.0341054,1.1,1.6,-0.195637,-0.1204155,0.08297312,-0.3767734,-4.006323,-0.07117032,0.51906,1.521909,0.4008858,-0.0720474,0.08573734,-0.01809068,-0.7835537,0.3796864,-0.0564971,0.6303163,1.552954,0.2604449,0.2947529,1.129285,0.25265,304.5607,207.3902,8.264758,True
2,0.4222222,-0.9066038,1.015956,-0.5139204,-1.248186,-3.977072,-3.010705,0.4607997,1.301547,0.4837689,-1.359015,-0.006896215,1.1,1.6,-0.2029665,-0.05531226,0.07074228,-0.3765348,-4.001057,-0.07344146,0.5183877,1.521928,0.4005406,-0.05290668,0.06977928,-0.02360273,-0.7840245,0.379897,-0.05673226,0.6297935,1.552951,0.2602503,0.2890458,1.133456,0.2520141,303.8847,207.0034,9.060736,True
2,0.4333333,-0.8981432,1.041541,-0.5152075,-1.243901,-3.991165,-2.996444,0.4588891,1.30175,0.4828675,-1.359113,-0.008794366,1.1,1.6,-0.2093142,-0.02221225,0.06252927,-0.3761151,-3.999208,-0.07256075,0.5177006,1.521963,0.4001586,-0.04550275,0.06659215,-0.03005725,-0.7845188,0.3809264,-0.0573296,0.6293445,1.552883,0.2599525,0.2831075,1.137838,0.2514212,303.1289,206.6143,9.92561,True
2,0.4444444,-0.9078171,1.079941,-0.5058951,-1.240561,-4.006236,-2.980985,0.4569522,1.302039,0.4821284,-1.359424,-0.02827504,0.6,2.8,-0.2175359,0.02781667,0.07255995,-0.3751419,-3.993486,-0.0751339,0.5169168,1.52193,0.3997259,-0.04549748,0.07085442,-0.02899622,-0.7848852,0.3822343,-0.05774799,0.628697,1.552886,0.2597177,0.2769643,1.142351,0.2509445,302.3142,206.2029,10.91603,True
2,0.4555556,-0.9228412,1.121541,-0.4870342,-1.237976,-4.021315,-2.965263,0.455352,1.302191,0.4813237,-1.35982,-0.03587785,0.6,2.8,-0.2227095,0.08221129,0.06662105,-0.3748325,-3.985327,-0.08004956,0.5162287,1.521916,0.3993437,-0.04735005,0.06980958,-0.002332122,-0.7837625,0.3833512,-0.05783613,0.6281113,1.552907,0.2594287,0.2706582,1.14694,0.2506613,301.4995,205.7971,11.97937,True
2,0.4666667,-0.9314259,1.151432,-0.4765883,-1.235602,-4.036859,-2.949465,0.4535088,1.302503,0.4806292,-1.359085,0.06749612,0.6,2.8,-0.2118395,0.1535895,0.0606349,-0.3748665,-3.973109,-0.0893954,0.5155121,1.521932,0.3989494,-0.04304085,0.06555908,0.001894515,-0.7835925,0.3841893,-0.05808807,0.6274323,1.552942,0.2592194,0.264309,1.151526,0.2506452,300.6918,205.3717,13.1372,True
2,0.4777778,-0.9443036,1.192014,-0.4555962,-1.234039,-4.053,-2.933045,0.4517573,1.302675,0.4797246,-1.358879,0.01837063,0.6,2.8,-0.1978878,0.1267605,0.08053853,-0.3733091,-3.971552,-0.08914213,0.5148529,1.521938,0.3985837,-0.04304383,0.06768965,0.001892448,-0.7836335,0.3853707,-0.05847503,0.6267481,1.552981,0.2590477,0.2579838,1.1561,0.2509163,299.9404,205.1104,14.20358,True
2,0.4888889,-0.9506829,1.204933,-0.4386436,-1.23258,-4.068559,-2.917052,0.4497623,1.303049,0.478919,-1.359103,-0.0205241,0.5,2.1,-0.1916087,0.08515111,0.08549348,-0.3721352,-3.972954,-0.08588242,0.5141616,1.521947,0.3982904,-0.04739677,0.07087724,-0.006583561,-0.7840016,0.386748,-0.05878262,0.6259864,1.552877,0.2588995,0.2517913,1.160676,0.2514125,299.2366,204.9736,15.22959,True
2,0.5,-0.9506906,1.213544,-0.4269896,-1.231535,-4.083959,-2.901325,0.4478008,1.303294,0.478107,-1.358858,0.02267396,0.5,2.1,-0.1877142,0.01488271,0.07748709,-0.3712963,-3.979609,-0.0775888,0.5133682,1.521812,0.3980637,-0.0527512,0.07512381,-0.008664123,-0.7842594,0.3880394,-0.05893229,0.6251984,1.552823,0.2586787,0.2456598,1.165268,0.252,298.5809,204.8466,16.21887,True
2,0.5111111,-0.9442539,1.211594,-0.4077931,-1.23102,-4.098835,-2.88619,0.4456861,1.303618,0.4774334,-1.35921,-0.03226164,0.5,2.1,-0.1817778,-0.04037307,0.05465134,-0.3713618,-3.98602,-0.06974446,0.5124121,1.521723,0.3978324,-0.05582512,0.06980371,0.002025432,-0.7838833,0.3889074,-0.05885053,0.6243761,1.552881,0.2584541,0.2395241,1.169911,0.2525454,297.9382,204.756,17.16012,True
2,0.5222223,-0.9367214,1.193639,-0.3906136,-1.230659,-4.112956,-2.871293,0.4433256,1.303927,0.4767196,-1.359579,-0.03345881,0.5,2.1,-0.1799607,-0.04870792,0.02793564,-0.3719594,-3.988251,-0.06565251,0.5113236,1.521721,0.3975964,-0.04806634,0.06238431,0.02965031,-0.7825262,0.3896227,-0.05911419,0.6234484,1.552875,0.2581749,0.2334224,1.174656,0.253022,297.2852,204.564,18.14014,True
2,0.5333334,-0.9291792,1.164937,-0.3850738,-1.230032,-4.126176,-2.856994,0.4411284,1.304222,0.4759073,-1.360094,-0.04671844,0.5,2.1,-0.1640314,-0.0006637871,0.004685242,-0.372793,-3.98371,-0.06863526,0.510143,1.521714,0.3973184,-0.02866766,0.02194915,0.04546849,-0.7813832,0.3880838,-0.05840366,0.6224536,1.552873,0.2578208,0.2274448,1.179501,0.2534616,296.5721,204.2492,19.18241,True
2,0.5444446,-0.9097927,1.096937,-0.3686077,-1.229462,-4.136869,-2.844193,0.4385528,1.30464,0.4750307,-1.360144,-0.004246468,7.7,3.3,-0.1533883,0.02493888,-0.005893799,-0.3733187,-3.980447,-0.07036231,0.5090464,1.521673,0.3969235,-0.02509473,0.04223393,0.08376282,-0.7791946,0.3901223,-0.05970381,0.6215094,1.552871,0.2574513,0.2216194,1.184408,0.2538889,295.8117,203.827,20.25662,True
2,0.5555557,-0.8850435,0.9989769,-0.3700464,-1.227785,-4.145808,-2.832285,0.4361151,1.305106,0.4740136,-1.360424,-0.02553195,7.7,3.3,-0.1723711,0.05372357,0.001975294,-0.3730695,-3.976197,-0.07182465,0.5077388,1.521757,0.3963499,-0.02299704,0.02517928,0.07843361,-0.7784718,0.3896534,-0.05918662,0.6206275,1.55301,0.2571414,0.2159123,1.189299,0.254267,295.0393,203.3087,21.41327,True
2,0.5666668,-0.8710932,0.9649319,-0.369827,-1.226732,-4.157037,-2.81936,0.4338639,1.305533,0.473084,-1.361048,-0.05697251,7.7,3.3,-0.2125621,0.07397443,0.02278006,-0.3722082,-3.972156,-0.07182812,0.5065527,1.521767,0.3958559,-0.0294925,0.03048909,0.06997609,-0.7780734,0.3903704,-0.0590556,0.6194979,1.552887,0.256958,0.2104192,1.194094,0.254579,294.2997,202.6886,22.69282,True
2,0.577778,-0.850796,0.9404294,-0.3771271,-1.225593,-4.168086,-2.806923,0.4313245,1.305897,0.4720631,-1.361315,-0.02401502,7.7,3.3,-0.2699876,0.09015584,0.02668857,-0.3718561,-3.96771,-0.07094608,0.5051047,1.521765,0.3953042,-0.04219003,0.03367563,0.07862957,-0.7769315,0.3911575,-0.05871844,0.6184061,1.55292,0.2566786,0.2051969,1.198682,0.2547066,293.6155,201.9657,24.06956,True
2,0.5888891,-0.8284618,0.9447666,-0.3750402,-1.225394,-4.180486,-2.794012,0.4290076,1.306092,0.4713421,-1.360958,0.03264772,7.7,3.3,-0.2931644,0.1295895,0.03679811,-0.3714742,-3.960469,-0.07379886,0.503551,1.52175,0.3948646,-0.06117918,0.05390792,0.09906099,-0.7750555,0.3931378,-0.05879407,0.6172656,1.553049,0.2562969,0.2003841,1.202961,0.2546082,293.0362,201.0789,25.4956,True
2,0.6000003,-0.8072079,0.9555552,-0.369749,-1.226071,-4.193266,-2.781163,0.4264745,1.306623,0.4706626,-1.361218,-0.02412554,26.7,3.7,-0.27614,0.202179,0.007321123,-0.3727147,-3.948003,-0.08292844,0.5019366,1.521711,0.3943276,-0.05138011,0.07098784,0.1213135,-0.7730075,0.3953347,-0.0601182,0.616021,1.553181,0.2559578,0.1958231,1.206959,0.2543267,292.5573,200.2118,26.67755,True
2,0.6111114,-0.79017,0.9631143,-0.3634364,-1.226408,-4.205537,-2.768874,0.4240109,1.307054,0.4698086,-1.361103,0.01068971,26.7,3.7,-0.2366254,0.2457547,-0.0002244711,-0.3733507,-3.936879,-0.09210729,0.500456,1.521734,0.3937824,-0.03869476,0.07738204,0.1126558,-0.7721122,0.3967151,-0.06116908,0.6148989,1.553237,0.2554972,0.1912933,1.210724,0.2539569,292.1254,199.3116,27.72943,True
2,0.6222225,-0.7687741,0.9313037,-0.352553,-1.226703,-4.216272,-2.757273,0.4213004,1.307654,0.468977,-1.361132,-0.002850336,26.7,3.7,-0.1917465,0.2390707,0.01524188,-0.3728116,-3.930063,-0.09787969,0.4987679,1.521789,0.3931258,-0.03762722,0.08377631,0.1137036,-0.7708834,0.3984996,-0.06206976,0.6136429,1.553349,0.2551043,0.1867315,1.214363,0.2537629,291.7285,198.5856,28.53726,True
2,0.6333337,-0.7473642,0.896228,-0.3512564,-1.226435,-4.226627,-2.746066,0.4186331,1.308264,0.4680543,-1.361374,-0.02218037,26.7,3.7,-0.1855132,0.19002,0.01801112,-0.3725805,-3.929078,-0.09694093,0.4971002,1.521933,0.3924353,-0.0567117,0.07523472,0.1213705,-0.7692717,0.3994168,-0.06133766,0.6123298,1.5535,0.2546,0.1819541,1.218034,0.2538503,291.3691,198.1283,29.19261,True
2,0.6444448,-0.7162547,0.8164244,-0.34964,-1.225325,-4.234364,-2.736515,0.4157405,1.309,0.4671164,-1.3614,-0.002366662,65.4,6,-0.2300205,0.165457,0.05025268,-0.3710859,-3.925703,-0.09594384,0.4953222,1.522231,0.3918052,-0.08223303,0.07733163,0.1258968,-0.767809,0.4008421,-0.06059224,0.6109163,1.553596,0.254076,0.1769684,1.221804,0.2542454,290.9987,197.6771,30.07704,True
2,0.655556,-0.7162547,0.8164244,-0.34964,-1.225325,-4.234364,-2.736515,0.4157405,1.309,0.4671164,-1.361489,-0.008229752,65.4,6,-0.2300205,0.165457,0.05025268,-0.3710859,-3.925703,-0.09594384,0.4953222,1.522231,0.3918052,-0.08223303,0.07733163,0.1258968,-0.767809,0.4008421,-0.06059224,0.6109163,1.553596,0.254076,0.1718401,1.22569,0.2548626,290.6074,197.177,31.18613,True
2,0.6666671,-0.6594732,0.6951079,-0.3530729,-1.222856,-4.249653,-2.718103,0.4099717,1.310573,0.4653697,-1.368794,-0.6681808,65.4,6,-0.2895665,0.1143441,0.08032025,-0.3687221,-3.921773,-0.09143564,0.4915136,1.522664,0.3903787,-0.1000857,0.06668375,0.1495309,-0.7638745,0.4030557,-0.05937384,0.6077348,1.553783,0.2531123,0.1674241,1.229601,0.2558776,290.0986,196.6382,32.64177,True
2,0.6777782,-0.6380909,0.669639,-0.3475847,-1.222231,-4.257595,-2.709034,0.4068945,1.311374,0.4646146,-1.355955,1.17929,65.4,6,-0.2965459,0.08732858,0.1366599,-0.365195,-3.920735,-0.08885957,0.4893122,1.522977,0.3895094,-0.1359632,0.05601075,0.1808149,-0.7608017,0.4037168,-0.05709897,0.6059076,1.553908,0.2525513,0.1643777,1.232934,0.2570835,289.4548,195.2404,34.80753,True
2,0.6888894,-0.6092725,0.6494602,-0.3517334,-1.221388,-4.266007,-2.700298,0.4037613,1.312095,0.463928,-1.360646,-0.4396148,65.4,6,-0.32209,0.09277087,0.1359004,-0.363905,-3.916693,-0.08840496,0.4868224,1.523239,0.3885014,-0.1568675,0.05601916,0.2193972,-0.757093,0.4049942,-0.05562092,0.6042006,1.554154,0.2519901,0.1588917,1.236207,0.2568143,289.4965,194.6801,35.43044,True
2,0.7000005,-0.5932527,0.6345896,-0.3516439,-1.220685,-4.274124,-2.691442,0.4005197,1.312874,0.4631474,-1.36194,-0.1132925,74.4,4.9,-0.3524573,0.1961466,0.1476252,-0.3624679,-3.900243,-0.09880088,0.4841889,1.52352,0.3874447,-0.1693845,0.06668016,0.2461527,-0.7534999,0.4068958,-0.05467789,0.6024288,1.554314,0.2514067,0.1532061,1.239682,0.2564678,289.4461,194.1205,36.12881,True
2,0.7111117,-0.5654218,0.5899385,-0.3513408,-1.219461,-4.280864,-2.683866,0.397117,1.313648,0.4623218,-1.362796,-0.07714488,74.4,4.9,-0.3639313,0.2782739,0.1398165,-0.3618698,-3.883465,-0.110118,0.4816212,1.523711,0.3864644,-0.1699503,0.07205397,0.2940941,-0.74876,0.4088313,-0.0542414,0.6006782,1.554445,0.250726,0.1479195,1.243302,0.2563673,289.1963,193.3665,37.18169,True
2,0.7222228,-0.5449808,0.513252,-0.3561244,-1.217073,-4.285686,-2.676812,0.3935875,1.314589,0.4615297,-1.363331,-0.04757665,74.4,4.9,-0.3614284,0.4136784,0.1237481,-0.3621452,-3.856877,-0.1311066,0.4787945,1.523978,0.3852725,-0.1730884,0.07098946,0.299455,-0.7452574,0.4102247,-0.05321608,0.5988638,1.554641,0.2501311,0.1431159,1.246987,0.2565503,288.8589,192.2709,38.63437,True
2,0.7333339,-0.5181209,0.4280575,-0.3629748,-1.214193,-4.28964,-2.670599,0.3900059,1.315583,0.4606829,-1.365364,-0.1842678,74.4,4.9,-0.3566012,0.5542735,0.1236553,-0.3624402,-3.826248,-0.1561563,0.4761466,1.524201,0.3840516,-0.191337,0.07094529,0.2857972,-0.7427557,0.4114363,-0.05144775,0.5970171,1.554815,0.2494471,0.1385736,1.250721,0.2568602,288.5282,191.0964,40.19273,True
2,0.7444451,-0.4817565,0.3684135,-0.3753527,-1.211238,-4.294028,-2.664948,0.3866073,1.316574,0.4597661,-1.367175,-0.1622729,66.3,3.6,-0.3497317,0.635111,0.1369687,-0.3620344,-3.799212,-0.1780526,0.4735281,1.524529,0.3828487,-0.2009771,0.0719876,0.2805794,-0.739742,0.4128291,-0.05001976,0.5951998,1.555037,0.2488282,0.1341571,1.254459,0.2571168,288.237,189.7832,41.90767,True
2,0.7555562,-0.4476314,0.3449512,-0.3901376,-1.208371,-4.299311,-2.659165,0.3832,1.317528,0.4588494,-1.370099,-0.2640257,66.3,3.6,-0.3662392,0.6337302,0.1893332,-0.3595971,-3.777344,-0.1939034,0.4708884,1.524803,0.3816369,-0.2159295,0.06770164,0.2764798,-0.7368253,0.4139422,-0.04789456,0.5932401,1.55523,0.2482312,0.1298333,1.258159,0.2571384,288.0408,188.3953,43.67274,True
2,0.7666674,-0.4263512,0.351329,-0.4008653,-1.20617,-4.30583,-2.652794,0.3798335,1.318386,0.4581363,-1.373849,-0.3381598,66.3,3.6,-0.4237543,0.5410281,0.2244001,-0.3566346,-3.767318,-0.1969671,0.468082,1.525032,0.3803725,-0.2202102,0.07193297,0.2743962,-0.7338111,0.4151832,-0.04639653,0.5911242,1.555423,0.2477112,0.1256561,1.261805,0.2568309,287.9143,186.9465,45.41558,True
2,0.7777785,-0.4114858,0.3640722,-0.4116341,-1.203936,-4.312562,-2.646364,0.3763055,1.319211,0.4573231,-1.377705,-0.3468158,66.3,3.6,-0.4813691,0.4494474,0.2509606,-0.353353,-3.759883,-0.1966867,0.4653081,1.525355,0.3791933,-0.2541635,0.08042115,0.2885962,-0.7302042,0.4171561,-0.04394349,0.5889428,1.55563,0.2471631,0.121701,1.265396,0.2562367,287.8281,185.4054,47.11614,True
2,0.7888896,-0.4008188,0.3512832,-0.4168804,-1.201422,-4.318377,-2.639972,0.372635,1.320131,0.4566772,-1.381743,-0.362981,66.3,3.6,-0.5549034,0.3376063,0.2892482,-0.3490424,-3.757473,-0.1905899,0.4622393,1.525578,0.3779819,-0.2805215,0.1155328,0.319725,-0.7258754,0.4203944,-0.04240099,0.5866128,1.555972,0.2464962,0.1178967,1.26897,0.255469,287.7753,183.7401,48.76651,True
2,0.8000008,-0.391131,0.319447,-0.4038671,-1.199147,-4.32279,-2.634339,0.3688369,1.320938,0.4559879,-1.386569,-0.4344555,65.6,3.2,-0.5434627,0.3238708,0.2677217,-0.3474807,-3.746798,-0.1949764,0.4590124,1.525734,0.3767045,-0.2876967,0.1549685,0.3517244,-0.7210205,0.4253244,-0.04265052,0.5843011,1.55617,0.2459056,0.1141119,1.272622,0.2547038,287.7266,182.0279,50.36402,True
2,0.8111119,-0.391131,0.319447,-0.4038671,-1.199147,-4.32279,-2.634339,0.3688369,1.320938,0.4559879,-1.391706,-0.4618895,65.6,3.2,-0.5434627,0.3238708,0.2677217,-0.3474807,-3.746798,-0.1949764,0.4590124,1.525734,0.3767045,-0.2876967,0.1549685,0.3517244,-0.7210205,0.4253244,-0.04265052,0.5843011,1.55617,0.2459056,0.1101873,1.276444,0.2540301,287.681,180.2597,52.06393,True
2,0.8222231,-0.3622105,0.2717149,-0.3875787,-1.194275,-4.331438,-2.623986,0.3613304,1.322498,0.4543722,-1.4019,-0.9237618,65.6,3.2,-0.4436392,0.46363,0.185671,-0.3486589,-3.704848,-0.2273645,0.452145,1.526263,0.3737433,-0.2942617,0.1976345,0.4370821,-0.7081169,0.4346846,-0.04356878,0.579348,1.556533,0.2446215,0.1069475,1.280367,0.2538179,287.5283,178.7562,53.80976,True
2,0.8333342,-0.3334422,0.2793655,-0.3738267,-1.192822,-4.336698,-2.619468,0.3577103,1.323215,0.4534874,-1.400909,0.1032739,65.6,3.2,-0.4201332,0.6023638,0.1395641,-0.3515649,-3.672563,-0.2539359,0.4486844,1.526286,0.3723233,-0.2963364,0.2061598,0.4434885,-0.7031507,0.4389603,-0.04351445,0.5769067,1.556757,0.2440205,0.1048091,1.284084,0.2538989,287.2809,176.5836,56.31113,True
2,0.8444453,-0.3121843,0.3029526,-0.3623212,-1.191683,-4.34267,-2.614382,0.3539573,1.323856,0.4525986,-1.411853,-0.9967095,59.6,3.2,-0.3968102,0.6835216,0.09943855,-0.3541413,-3.644627,-0.2762164,0.4452994,1.526281,0.3707225,-0.2835951,0.1944768,0.4390692,-0.698928,0.4422008,-0.04324574,0.5740083,1.556794,0.2434642,0.09989066,1.288437,0.2526548,287.4582,174.446,58.27399,True
2,0.8555565,-0.2877203,0.3233448,-0.3507881,-1.190782,-4.348464,-2.609891,0.3502016,1.324393,0.4516068,-1.420631,-0.788063,59.6,3.2,-0.397809,0.6973663,0.1006155,-0.3554153,-3.62115,-0.2938343,0.4418611,1.526284,0.3692257,-0.2846297,0.1806274,0.4401585,-0.6941093,0.4448471,-0.0421131,0.5713422,1.55693,0.242732,0.09489863,1.293097,0.2515177,287.4736,172.3225,60.39922,True
2,0.8666676,-0.2792339,0.3351124,-0.3476852,-1.189657,-4.354357,-2.604734,0.3463925,1.32499,0.4506149,-1.428145,-0.6752167,59.6,3.2,-0.4093053,0.7036632,0.1210283,-0.3556236,-3.597527,-0.3108234,0.4384167,1.526346,0.3677313,-0.2899603,0.1817179,0.4402111,-0.6893188,0.448956,-0.04176582,0.5685833,1.556941,0.2419808,0.09047098,1.297848,0.2507652,287.3259,170.0937,62.8446,True
2,0.8777788,-0.2718074,0.3501014,-0.3403485,-1.188901,-4.360368,-2.599725,0.3426193,1.3254,0.4494734,-1.436623,-0.7639194,59.6,3.2,-0.4199386,0.6620308,0.1389422,-0.3554958,-3.579025,-0.3231016,0.4349846,1.526385,0.3661819,-0.2971371,0.1668168,0.4648044,-0.6833927,0.4515274,-0.04021133,0.5657648,1.557056,0.2412062,0.08657447,1.302593,0.2503217,287.1707,167.6285,65.61149,True
2,0.8888899,-0.2686045,0.347958,-0.3456566,-1.187508,-4.366223,-2.594742,0.3387942,1.325874,0.4484763,-1.444309,-0.6905997,59.6,3.2,-0.4165841,0.6298664,0.1663756,-0.3548971,-3.560115,-0.3363764,0.4314352,1.526425,0.3646109,-0.3001415,0.1625545,0.4829421,-0.6776312,0.4543008,-0.03890399,0.5631489,1.557323,0.2403836,0.08301871,1.307271,0.2500184,287.0616,164.9648,68.57449,True
2,0.900001,-0.2685895,0.3394046,-0.3498514,-1.185949,-4.371599,-2.589728,0.3350658,1.326232,0.4473712,-1.452945,-0.777857,50.9,1.4,-0.4249698,0.5838692,0.1970226,-0.3534798,-3.543555,-0.3470269,0.4280592,1.526274,0.3630841,-0.3054256,0.1774716,0.4883054,-0.6723155,0.4586217,-0.03880732,0.5603028,1.557478,0.2397802,0.07953501,1.31189,0.249665,287.0208,162.3675,71.43402,True
2,0.9111122,-0.2653885,0.341575,-0.3466714,-1.184874,-4.377236,-2.584893,0.3314152,1.326587,0.446238,-1.461677,-0.78568,50.9,1.4,-0.4763578,0.5586005,0.1845869,-0.353786,-3.527087,-0.3553762,0.4245216,1.526128,0.3614471,-0.3054202,0.1775028,0.4925187,-0.6673881,0.4623734,-0.03801263,0.5578126,1.557765,0.2390218,0.07602303,1.316441,0.2491672,287.0314,159.8055,74.22731,True
2,0.9222233,-0.2473468,0.371523,-0.337326,-1.184761,-4.383887,-2.580311,0.3276356,1.326787,0.4450855,-1.470388,-0.7837559,50.9,1.4,-0.529839,0.571786,0.1596721,-0.3552178,-3.507539,-0.3660816,0.4211085,1.525908,0.3598876,-0.2925205,0.1977841,0.5062133,-0.6614525,0.467429,-0.03915859,0.5548742,1.557885,0.2384217,0.07251522,1.320891,0.2485276,287.1205,157.318,76.90472,True
2,0.9333345,-0.230373,0.411114,-0.3205997,-1.185396,-4.391005,-2.575783,0.3237042,1.326966,0.4439006,-1.479726,-0.8409796,50.9,1.4,-0.5076582,0.6230985,0.1225275,-0.3581355,-3.484962,-0.3821503,0.417504,1.525563,0.3583932,-0.2840503,0.2127042,0.503974,-0.656132,0.4723233,-0.04013277,0.5518734,1.557901,0.237745,0.06910746,1.325215,0.2477491,287.2496,154.9953,79.40552,True
2,0.9444456,-0.2186957,0.4390295,-0.2952518,-1.186399,-4.397499,-2.571254,0.3197651,1.327088,0.4427786,-1.489574,-0.8869391,48.5,0.7,-0.4630345,0.6432927,0.1051644,-0.360437,-3.463774,-0.3982409,0.4138512,1.525373,0.3568347,-0.2829196,0.2062779,0.5061344,-0.6502252,0.4754758,-0.03987445,0.5486107,1.557945,0.2370224,0.06581982,1.329439,0.2468523,287.3986,152.7815,81.73603,True
2,0.9555568,-0.2122969,0.4520517,-0.2655284,-1.187724,-4.403631,-2.566828,0.3158227,1.327148,0.441613,-1.499109,-0.8579857,48.5,0.7,-0.4067222,0.6260823,0.09699863,-0.3622538,-3.446254,-0.412035,0.4102853,1.524973,0.3553143,-0.2713866,0.1934925,0.4868484,-0.6455657,0.4786081,-0.03977005,0.5455707,1.557928,0.2362437,0.06252488,1.33361,0.2458981,287.5555,150.4853,84.06199,True
2,0.9666679,-0.2122969,0.4520517,-0.2655284,-1.187724,-4.403631,-2.566828,0.3158227,1.327148,0.441613,-1.508196,-0.8173087,48.5,0.7,-0.4067222,0.6260823,0.09699863,-0.3622538,-3.446254,-0.412035,0.4102853,1.524973,0.3553143,-0.2713866,0.1934925,0.4868484,-0.6455657,0.4786081,-0.03977005,0.5455707,1.557928,0.2362437,0.05912139,1.337758,0.2449803,287.7068,148.1642,86.39281,True
2,0.977779,-0.2292491,0.4341506,-0.2323496,-1.189169,-4.414384,-2.557259,0.3080336,1.327369,0.4393666,-1.519468,-1.017594,48.5,0.7,-0.4057846,0.5243458,0.02273719,-0.3669463,-3.42518,-0.4224058,0.4030358,1.524113,0.3522003,-0.2721264,0.1636567,0.5135167,-0.633777,0.4834508,-0.03774365,0.5394113,1.558011,0.2346029,0.05649756,1.341622,0.2445044,287.7226,146.3997,88.3805,True
2,0.9888902,-0.2515724,0.4203231,-0.2226278,-1.189692,-4.419746,-2.551655,0.3038678,1.327384,0.4380717,-1.524074,-0.4063152,48.5,0.7,-0.4132764,0.5115798,0.02591784,-0.3687871,-3.410297,-0.431129,0.3991514,1.523674,0.350667,-0.2768618,0.1988682,0.5763839,-0.6252932,0.4901116,-0.03957457,0.5361621,1.55798,0.2336695,0.05499104,1.345047,0.2443123,287.8639,144.4067,90.60606,True
2,1.000001,-0.2590053,0.4150328,-0.2151209,-1.190395,-4.424992,-2.546568,0.2997363,1.327433,0.4367857,-1.534843,-0.9751708,62.1,1,-0.3996565,0.5437326,-0.008084938,-0.3728713,-3.393884,-0.4424019,0.3952788,1.523255,0.3491242,-0.2679101,0.2127686,0.6188909,-0.6170086,0.4956716,-0.0414521,0.5329051,1.557999,0.2327931,0.05072346,1.349395,0.2429298,288.22,141.7199,93.14226,True
2,1.011112,-0.2535822,0.3852957,-0.2053042,-1.190839,-4.429115,-2.542606,0.2955792,1.327403,0.4353445,-1.543696,-0.794585,62.1,1,-0.379416,0.5639365,-0.01347384,-0.3762056,-3.37687,-0.4544922,0.391382,1.522957,0.3473835,-0.256993,0.1893749,0.6411542,-0.6094639,0.4982804,-0.04113545,0.5297834,1.557911,0.231838,0.04622399,1.353815,0.2416614,288.4912,139.4689,95.44238,True
2,1.022224,-0.2494966,0.4502719,-0.2079187,-1.192931,-4.436957,-2.537117,0.2915347,1.327379,0.4338648,-1.55341,-0.8753107,62.1,1,-0.3580377,0.577686,-0.01147056,-0.3792629,-3.360278,-0.4666878,0.3875454,1.522639,0.3456433,-0.2570761,0.1627389,0.6294605,-0.603084,0.5002676,-0.03993091,0.5265966,1.557834,0.2308872,0.042051,1.358108,0.2406493,288.7058,137.6577,97.50305,True
2,1.033335,-0.2156325,0.5528103,-0.1852919,-1.197349,-4.446393,-2.532513,0.2874674,1.327308,0.4322515,-1.563414,-0.9010038,62.1,1,-0.3749878,0.5787377,-0.0006245077,-0.381705,-3.344309,-0.4765242,0.3836812,1.522163,0.3438706,-0.2602352,0.1350402,0.6305745,-0.5962093,0.5016699,-0.03801023,0.5235182,1.557689,0.2299883,0.03844052,1.362222,0.2398536,288.9174,135.9303,99.56828,True
2,1.044446,-0.1646869,0.6307975,-0.1742209,-1.201346,-4.455533,-2.529039,0.2833504,1.327251,0.4306707,-1.572491,-0.8162202,62.1,1,-0.4264037,0.6200553,0.05986947,-0.3830291,-3.320719,-0.4917953,0.3799809,1.521776,0.3420188,-0.2679468,0.14567,0.6093316,-0.5903179,0.505747,-0.03805577,0.5203845,1.557517,0.2290642,0.03529212,1.366174,0.2390938,289.183,134.0664,101.7101,True
2,1.055557,-0.1487074,0.6330013,-0.1699979,-1.204023,-4.46285,-2.525323,0.2792196,1.32717,0.429014,-1.582976,-0.9457415,35.6,0,-0.4770243,0.6498011,0.1000316,-0.3849056,-3.297537,-0.5061132,0.3763059,1.521321,0.3399127,-0.2682598,0.119022,0.5773818,-0.5851721,0.5070538,-0.03606719,0.5172852,1.557319,0.2282569,0.03219938,1.370185,0.2383358,289.4965,132.2428,103.6196,True
2,1.066668,-0.2051658,0.6338943,-0.1741861,-1.206252,-4.470067,-2.518543,0.2752861,1.32693,0.4274967,-1.593051,-0.9070586,35.6,0,-0.5014541,0.6081766,0.1234159,-0.3856635,-3.282836,-0.5134923,0.3724924,1.520806,0.3379049,-0.2632089,0.1073772,0.5559582,-0.580462,0.5096759,-0.03499021,0.5145194,1.557357,0.2273464,0.02889589,1.374385,0.2377237,289.8023,130.2331,105.6706,True
2,1.077779,-0.3712873,0.6089602,-0.1737751,-1.208249,-4.47636,-2.506554,0.2714186,1.32668,0.4258699,-1.601064,-0.719139,35.6,0,-0.5365185,0.563385,0.1490211,-0.3857429,-3.26878,-0.5193875,0.3687111,1.520349,0.3359399,-0.2763199,0.1520761,0.5304805,-0.5756593,0.5158911,-0.03664803,0.5114078,1.55709,0.226506,0.02537272,1.378634,0.2373853,290.1412,128.0485,108.0632,True
2,1.08889,-0.438229,0.5426935,-0.1795925,-1.208788,-4.481103,-2.49788,0.2671092,1.326452,0.4241424,-1.606787,-0.5113783,35.6,0,-0.5451505,0.5506641,0.1458174,-0.3874239,-3.253023,-0.5273796,0.3650009,1.519544,0.3339033,-0.2878812,0.1765849,0.5497723,-0.5686946,0.5216544,-0.03801476,0.5076085,1.556812,0.2255881,0.02176815,1.382716,0.2372641,290.4974,126.0109,110.5201,True
2,1.100002,-0.4040165,0.4894319,-0.1909615,-1.208973,-4.485857,-2.492787,0.2628264,1.326306,0.4223785,-1.610128,-0.2949658,42.2,0,-0.5292307,0.5581216,0.1371843,-0.389654,-3.236619,-0.5371675,0.3612249,1.518876,0.3319392,-0.3239057,0.2053218,0.5724905,-0.561576,0.5283753,-0.03873541,0.5043352,1.55653,0.2246895,0.01823597,1.38661,0.2372095,290.8019,124.4469,112.6088,True
2,1.111113,-0.3239774,0.4309748,-0.2012921,-1.208557,-4.490081,-2.490858,0.2586988,1.32617,0.4206231,-1.621766,-1.055087,42.2,0,-0.4887618,0.6231302,0.1127366,-0.3942192,-3.215154,-0.5528552,0.357623,1.518187,0.3300726,-0.3345402,0.2266594,0.5800497,-0.5547066,0.5356345,-0.04035009,0.5011907,1.556104,0.2236185,0.01480247,1.390704,0.2368427,290.9989,123.4492,114.1966,True
2,1.122224,-0.3239774,0.4309748,-0.2012921,-1.208557,-4.490081,-2.490858,0.2586988,1.32617,0.4206231,-1.634963,-1.191058,42.2,0,-0.4887618,0.6231302,0.1127366,-0.3942192,-3.215154,-0.5528552,0.357623,1.518187,0.3300726,-0.3345402,0.2266594,0.5800497,-0.5547066,0.5356345,-0.04035009,0.5011907,1.556104,0.2236185,0.01170623,1.395096,0.2359465,291.3745,122.2298,115.8998,True
2,1.133335,-0.2675675,0.4621632,-0.1824108,-1.21257,-4.501808,-2.482692,0.2505653,1.325462,0.417284,-1.64749,-1.129661,42.2,0,-0.4550797,0.618992,0.07613052,-0.4014071,-3.182903,-0.5732249,0.3501799,1.516801,0.3265467,-0.2546135,0.1575768,0.5761107,-0.5415123,0.5404179,-0.04099936,0.4950316,1.55531,0.2218773,0.009954872,1.399163,0.2349228,291.7638,120.9693,117.397,True
2,1.144446,-0.2580433,0.4921087,-0.1709339,-1.215355,-4.508465,-2.477586,0.2460655,1.325343,0.4155788,-1.654627,-0.6379503,42.2,0,-0.4648724,0.4984282,0.1041019,-0.40032,-3.176527,-0.5733149,0.346347,1.516221,0.3245296,-0.2815883,0.1382945,0.5444139,-0.5370264,0.5415681,-0.03779079,0.4915094,1.554768,0.2209411,0.009702079,1.402609,0.2338527,292.4866,119.1122,119.2305,True
2,1.155557,-0.1035284,0.4927705,-0.135992,-1.218537,-4.51314,-2.480946,0.242083,1.324682,0.4139318,-1.661091,-0.5805002,23.4,0,-0.4728944,0.4123329,0.08118626,-0.4011376,-3.172657,-0.5712914,0.3426982,1.51551,0.322684,-0.3229901,0.1712819,0.5629178,-0.5302125,0.5480769,-0.03831836,0.4882676,1.55428,0.2200546,0.007098408,1.406873,0.2314799,293.8602,116.2013,121.7525,True
2,1.166668,-0.1013739,0.4885588,-0.1306327,-1.220716,-4.518558,-2.477737,0.2380262,1.32409,0.4124122,-1.669372,-0.7465135,23.4,0,-0.4759305,0.3940793,0.1045177,-0.4019158,-3.160487,-0.5769251,0.3389199,1.51492,0.3206244,-0.3111959,0.1808406,0.5755436,-0.5235892,0.5524771,-0.0389988,0.4847897,1.553946,0.2192502,0.00390681,1.410762,0.229181,294.7586,114.3339,123.1566,True
2,1.17778,-0.1150973,0.4481535,-0.1153997,-1.222344,-4.522095,-2.474774,0.234127,1.323419,0.4108019,-1.685188,-1.434226,23.4,0,-0.4611351,0.4005147,0.0905619,-0.4039659,-3.149712,-0.5821404,0.3352609,1.513976,0.3187797,-0.2920254,0.1915209,0.5764009,-0.5171939,0.558084,-0.04125157,0.4814814,1.553507,0.21842,0.0004510451,1.414157,0.2273284,295.2352,113.398,123.8908,True
2,1.188891,-0.1214673,0.4276654,-0.1461402,-1.222692,-4.527267,-2.471575,0.2304734,1.322802,0.4090219,-1.687342,-0.1796983,23.4,0,-0.4221411,0.4508576,0.03299769,-0.4091958,-3.137261,-0.589945,0.331517,1.512982,0.3168528,-0.2836308,0.194688,0.5656403,-0.5116737,0.5628096,-0.04252003,0.4782543,1.553208,0.2177696,-0.002653064,1.416431,0.2263139,295.6651,112.4861,124.8837,True
2,1.200002,-0.1310427,0.4212253,-0.1492755,-1.224095,-4.532156,-2.468119,0.2267289,1.322185,0.4073982,-1.69379,-0.5838617,19.7,0,-0.3864366,0.4724412,-0.02474894,-0.4143719,-3.127975,-0.5953031,0.3278842,1.511987,0.3150766,-0.2867769,0.1904764,0.5709742,-0.5054531,0.5676067,-0.04314827,0.4750955,1.552895,0.2166369,-0.0058325,1.417899,0.2258438,295.8729,112.004,125.6588,True
2,1.211113,-0.1309922,0.4019915,-0.1576503,-1.224983,-4.536769,-2.465288,0.2230524,1.321686,0.4057806,-1.701789,-0.7208419,19.7,0,-0.3847069,0.4598913,-0.0578891,-0.4183623,-3.120741,-0.5974671,0.3242273,1.511043,0.3131554,-0.2719839,0.1904842,0.5591034,-0.4997022,0.5725261,-0.04491688,0.4719708,1.552336,0.215734,-0.009114596,1.418949,0.2255657,295.9059,111.9011,126.2376,True
2,1.222224,-0.1127922,0.3625063,-0.1733647,-1.224682,-4.540579,-2.463514,0.2195475,1.321185,0.4041243,-1.709038,-0.6516399,19.7,0,-0.3860131,0.4579238,-0.08026689,-0.4225052,-3.113201,-0.5999553,0.320893,1.510033,0.3114612,-0.2667386,0.1915599,0.550521,-0.4941351,0.5777761,-0.04682077,0.4688911,1.551844,0.2148635,-0.01247105,1.419921,0.2252273,295.9352,112.1168,126.5095,True
2,1.233335,-0.09449001,0.3095903,-0.132514,-1.225548,-4.542079,-2.462613,0.2161897,1.320614,0.4026322,-1.716881,-0.7067918,19.7,0,-0.3468046,0.4429569,-0.09249617,-0.4262421,-3.105165,-0.6043487,0.3178542,1.508893,0.3097074,-0.2582416,0.1510812,0.5451375,-0.4883683,0.5788581,-0.04501115,0.466049,1.551144,0.2139828,-0.01583363,1.421114,0.224727,295.9733,112.2621,126.7283,True
2,1.244446,-0.0913793,0.3361053,-0.1497581,-1.226897,-4.547345,-2.459921,0.2128788,1.319722,0.4011233,-1.724842,-0.7171878,19.7,0,-0.3425766,0.4173266,-0.08633451,-0.4290033,-3.098683,-0.6065615,0.3144903,1.507919,0.30794,-0.236936,0.1297989,0.5438711,-0.4823895,0.5809681,-0.04483405,0.4630833,1.550486,0.213109,-0.0189933,1.422593,0.2240333,296.1044,112.1718,127.1354,True
2,1.255558,-0.1064609,0.4042912,-0.143852,-1.230106,-4.55375,-2.456095,0.2097101,1.318749,0.3996861,-1.731902,-0.6350455,25.3,8.7,-0.3527247,0.3337082,-0.005862355,-0.4272339,-3.093153,-0.607123,0.3115175,1.506743,0.3062139,-0.2243503,0.1543014,0.5277363,-0.4772086,0.5869275,-0.0480602,0.4601244,1.549804,0.2122262,-0.02167856,1.424196,0.2231417,296.3619,111.8149,127.7523,True
2,1.266669,-0.109762,0.4555264,-0.129319,-1.2335,-4.559966,-2.452774,0.2064263,1.317676,0.3984003,-1.737995,-0.5475717,25.3,8.7,-0.3515716,0.3282955,0.005793609,-0.4291013,-3.085443,-0.6100841,0.3082644,1.50549,0.304662,-0.219099,0.1937096,0.5255356,-0.4714046,0.5952532,-0.05308319,0.4572273,1.549044,0.2113626,-0.0238071,1.425791,0.2220401,296.7283,111.1224,128.5534,True
2,1.27778,-0.109762,0.4555264,-0.129319,-1.2335,-4.559966,-2.452774,0.2064263,1.317676,0.3984003,-1.743592,-0.503042,25.3,8.7,-0.3515716,0.3282955,0.005793609,-0.4291013,-3.085443,-0.6100841,0.3082644,1.50549,0.304662,-0.219099,0.1937096,0.5255356,-0.4714046,0.5952532,-0.05308319,0.4572273,1.549044,0.2113626,-0.02562708,1.427408,0.2208483,297.3023,110.4294,129.1733,True
2,1.288891,-0.1022428,0.4472449,-0.1005054,-1.238537,-4.568881,-2.447845,0.2001852,1.31576,0.3956974,-1.751425,-0.7078036,25.3,8.7,-0.3003434,0.4006628,-0.009133115,-0.4359701,-3.064634,-0.6234031,0.3024294,1.503026,0.301605,-0.1967237,0.2097066,0.5210743,-0.4596525,0.6077037,-0.06078159,0.4515076,1.54772,0.2095776,-0.02684941,1.42891,0.2199624,297.5943,110.0716,129.3963,True
2,1.300002,-0.09791256,0.4238675,-0.09394564,-1.24041,-4.572584,-2.445702,0.197117,1.314844,0.3944242,-1.755408,-0.3541193,25.3,8.7,-0.2698548,0.390148,-0.04468244,-0.4396911,-3.059407,-0.6261014,0.299486,1.501829,0.3003325,-0.1978859,0.2097414,0.5189137,-0.4543619,0.6140845,-0.06384449,0.4484038,1.546879,0.2086251,-0.02737574,1.430327,0.2194063,298.0959,109.6103,129.7862,True
2,1.311113,-0.1041165,0.3524915,-0.09233715,-1.240682,-4.574509,-2.443739,0.1945474,1.313914,0.3932509,-1.762278,-0.6216232,27.7,18.2,-0.2481251,0.3221708,-0.08268578,-0.4422648,-3.05955,-0.6238545,0.2966228,1.500669,0.2988756,-0.1924878,0.1969708,0.5241988,-0.448503,0.6189791,-0.0662685,0.4456297,1.546161,0.207664,-0.02965517,1.432807,0.218581,299.2228,108.0532,131.3118,True
2,1.322224,-0.1008634,0.3247335,-0.1027877,-1.241426,-4.577949,-2.441604,0.1918671,1.312949,0.3920908,-1.768044,-0.5181591,27.7,18.2,-0.2366988,0.2657056,-0.08962014,-0.4439037,-3.059569,-0.6214108,0.2937016,1.499661,0.2976806,-0.1881082,0.1831268,0.5348319,-0.4421561,0.6233654,-0.068223,0.4428197,1.545509,0.2065909,-0.0322054,1.435026,0.2181046,299.8529,106.8527,132.7165,True
2,1.333336,-0.09450113,0.3289081,-0.1166764,-1.242512,-4.582182,-2.439389,0.1894463,1.311977,0.3908849,-1.772973,-0.4430115,27.7,18.2,-0.2349287,0.2242972,-0.1080523,-0.4460853,-3.05948,-0.6186771,0.2910534,1.49845,0.296077,-0.1828568,0.1820609,0.5273218,-0.4366513,0.6290588,-0.07151706,0.4402459,1.544779,0.2054501,-0.0346326,1.436587,0.2179224,300.1193,106.2579,133.717,True
2,1.344447,-0.07964668,0.3458243,-0.1370573,-1.24371,-4.587041,-2.437567,0.186875,1.311008,0.389998,-1.778263,-0.4768344,27.7,18.2,-0.2304847,0.2348325,-0.0941718,-0.4483107,-3.054352,-0.6209109,0.2883568,1.497194,0.2943826,-0.1744201,0.1575752,0.5166019,-0.4314055,0.6323968,-0.07282521,0.4374582,1.544059,0.204324,-0.0366715,1.437395,0.2178349,300.22,106.0946,134.3398,True
2,1.355558,-0.06158249,0.3575017,-0.1488866,-1.244939,-4.591913,-2.435906,0.1844536,1.309992,0.3889351,-1.782827,-0.410718,26.3,42.2,-0.2004315,0.2281655,-0.06895776,-0.4497712,-3.04879,-0.624532,0.2856343,1.49595,0.2926025,-0.1736314,0.1106678,0.4836197,-0.4270847,0.6323524,-0.07090773,0.4348204,1.543323,0.2033014,-0.03852038,1.437748,0.2176523,300.3629,106.0915,134.6579,True
2,1.366669,-0.04348799,0.3553237,-0.1637995,-1.245909,-4.596698,-2.434469,0.1818607,1.308951,0.3879046,-1.787141,-0.3889383,26.3,42.2,-0.1925955,0.232153,-0.03277303,-0.4507549,-3.042301,-0.6283556,0.2829884,1.494573,0.2908564,-0.1940148,0.1127707,0.4667903,-0.4225148,0.6367069,-0.07217566,0.4321179,1.54248,0.2023466,-0.04035145,1.437892,0.2173469,300.5727,106.1249,134.7652,True
2,1.37778,-0.01787421,0.3394418,-0.1594548,-1.246758,-4.600419,-2.433971,0.1792433,1.307912,0.3868887,-1.790491,-0.301342,26.3,42.2,-0.1923449,0.2661569,-0.02081116,-0.4530266,-3.034494,-0.6332443,0.2802096,1.493266,0.2892058,-0.2066518,0.1340782,0.4839422,-0.4167107,0.6432314,-0.07537252,0.429319,1.541731,0.2014172,-0.04233836,1.437976,0.2170106,300.8475,106.1167,134.7979,True
2,1.388891,-0.00180468,0.3000593,-0.1634168,-1.247033,-4.603398,-2.433487,0.1766391,1.306829,0.3860481,-1.793334,-0.2560344,26.3,42.2,-0.190088,0.3013028,-0.02058438,-0.4560711,-3.0264,-0.6383035,0.2772388,1.491879,0.287545,-0.1730702,0.2109001,0.5485072,-0.4085694,0.6579175,-0.0880212,0.4264922,1.540998,0.2005668,-0.04454735,1.438033,0.2167123,301.1118,106.0581,134.9323,True
2,1.400002,-0.0006384552,0.2606972,-0.1588436,-1.247235,-4.605862,-2.432668,0.1742081,1.305735,0.3850508,-1.796164,-0.2554313,26.3,42.2,-0.1868816,0.3621621,-0.04148845,-0.4605101,-3.017339,-0.6444346,0.2744346,1.490394,0.2860296,-0.1836318,0.2428509,0.5624252,-0.4023365,0.6684861,-0.09527779,0.423865,1.54024,0.1996751,-0.04701179,1.438028,0.2164849,301.3454,105.977,135.1663,True
2,1.411114,-0.01553077,0.251056,-0.1608831,-1.247425,-4.609096,-2.430979,0.1717898,1.304487,0.384084,-1.797865,-0.1523988,23.2,53.4,-0.1763484,0.4294789,-0.07520856,-0.4663499,-3.007498,-0.6513661,0.2717581,1.488906,0.2844791,-0.1822145,0.2214688,0.4899899,-0.3995818,0.6735072,-0.097905,0.4213652,1.539448,0.1989179,-0.04964607,1.437826,0.2163386,301.5097,105.8733,135.4796,True
2,1.422225,-0.02832653,0.2520604,-0.1672541,-1.247968,-4.612996,-2.429042,0.1695204,1.303158,0.3828325,-1.798932,-0.09539767,23.2,53.4,-0.142308,0.4571548,-0.09027278,-0.4712527,-2.999003,-0.6585928,0.2690871,1.487585,0.2831621,-0.1528465,0.2267839,0.4449454,-0.3962975,0.6810328,-0.1041046,0.418995,1.538673,0.1980033,-0.05235362,1.437316,0.2162384,301.5777,105.8298,135.7684,True
2,1.433336,-0.02832653,0.2520604,-0.1672541,-1.247968,-4.612996,-2.429042,0.1695204,1.303158,0.3828325,-1.799674,-0.06628194,23.2,53.4,-0.142308,0.4571548,-0.09027278,-0.4712527,-2.999003,-0.6585928,0.2690871,1.487585,0.2831621,-0.1528465,0.2267839,0.4449454,-0.3962975,0.6810328,-0.1041046,0.418995,1.538673,0.1980033,-0.05506841,1.436526,0.2160861,301.5603,105.907,135.9643,True
2,1.444447,-0.01130049,0.2681722,-0.1556822,-1.249631,-4.620263,-2.427058,0.1650986,1.300711,0.380507,-1.801532,-0.1685273,23.2,53.4,-0.1348642,0.3909324,-0.0663206,-0.4761817,-2.987789,-0.6656834,0.2645001,1.48487,0.2804573,-0.1306254,0.2076183,0.4287566,-0.3875278,0.6941136,-0.1138075,0.4139773,1.537184,0.1963415,-0.05747431,1.435471,0.2159281,301.2345,106.3588,135.7001,True
2,1.455558,0.01208365,0.2960308,-0.1420697,-1.251498,-4.62436,-2.426677,0.1629233,1.299517,0.3795035,-1.801978,-0.03873993,18.9,58.2,-0.1735148,0.3229218,-0.06961605,-0.4777322,-2.986656,-0.6633676,0.2621804,1.48358,0.2793102,-0.1327146,0.2012272,0.4319811,-0.3829242,0.7009216,-0.1185863,0.4115449,1.536374,0.195586,-0.05935585,1.43442,0.2157359,301.0587,106.8213,135.4432,True
2,1.466669,0.03012605,0.3313603,-0.1253094,-1.253954,-4.628774,-2.426161,0.1607603,1.298154,0.3783784,-1.803912,-0.176036,18.9,58.2,-0.195017,0.2376845,-0.0561758,-0.4781258,-2.986974,-0.6600418,0.2597893,1.482304,0.2782226,-0.1349462,0.1905569,0.4224213,-0.3788027,0.7069606,-0.1225081,0.4090164,1.535501,0.1948431,-0.06200546,1.43392,0.2151404,301.6248,106.5121,135.9968,True
2,1.47778,0.03650098,0.344246,-0.1136942,-1.256052,-4.632689,-2.425565,0.1586007,1.296886,0.377449,-1.805338,-0.1283516,18.9,58.2,-0.1930484,0.2036111,-0.05963688,-0.4793892,-2.986142,-0.6587196,0.2575164,1.480883,0.2771335,-0.1179341,0.1980343,0.4201086,-0.374645,0.7150213,-0.1292839,0.4066305,1.534682,0.1941333,-0.06475908,1.433391,0.2145103,301.8704,106.3052,136.2984,True
2,1.488891,0.03440761,0.340101,-0.09661365,-1.257946,-4.635797,-2.424909,0.1564372,1.295527,0.376555,-1.805916,-0.05159583,18.9,58.2,-0.1776195,0.2050065,-0.1130678,-0.4835555,-2.985895,-0.6574503,0.2550872,1.479356,0.2761211,-0.08564055,0.2236895,0.4549149,-0.3687423,0.7269172,-0.1406338,0.4042322,1.533848,0.1934142,-0.06746858,1.432694,0.214039,301.8928,106.3405,136.3002,True
2,1.500003,0.01742412,0.323107,-0.08368167,-1.259566,-4.638555,-2.4237,0.1545202,1.294108,0.3756933,-1.806119,-0.01790751,18.9,58.2,-0.1449307,0.20939,-0.1474636,-0.4873707,-2.985235,-0.6574972,0.2528009,1.477889,0.2751114,-0.08168471,0.2332535,0.4250304,-0.365587,0.7360703,-0.1483517,0.4020243,1.533151,0.1926618,-0.0701102,1.431846,0.2138312,301.8523,106.4661,136.2824,True
2,1.511114,-0.008109383,0.3156233,-0.07826529,-1.261118,-4.64163,-2.421893,0.1528529,1.292762,0.3750403,-1.806181,-0.00529988,17.2,54.2,-0.1176575,0.2085202,-0.1871729,-0.4914331,-2.985339,-0.6567472,0.2506936,1.476433,0.2740259,-0.08847234,0.2683616,0.3909692,-0.3630868,0.748937,-0.1591683,0.3999048,1.53246,0.1919594,-0.07269858,1.430915,0.2138991,301.8066,106.56,136.3783,True
2,1.522225,-0.01981251,0.3081512,-0.07713652,-1.262604,-4.644895,-2.420269,0.1510583,1.291533,0.3741481,-1.805514,0.06077695,17.2,54.2,-0.1070235,0.2394666,-0.1987801,-0.4957671,-2.982109,-0.6584461,0.2485566,1.475099,0.2729187,-0.1013691,0.2619396,0.379392,-0.3596306,0.7582638,-0.1662934,0.3977676,1.53172,0.19119,-0.07522137,1.429905,0.2141741,301.7551,106.537,136.6762,True
2,1.533336,-0.01342349,0.3092328,-0.07715315,-1.264259,-4.648224,-2.419306,0.1495641,1.290427,0.3732312,-1.804496,0.09184129,17.2,54.2,-0.1044729,0.2637308,-0.1666709,-0.4986924,-2.976659,-0.6621838,0.2466653,1.473995,0.2718925,-0.07720259,0.2011987,0.3397858,-0.3572545,0.7594811,-0.1673112,0.3958605,1.531083,0.1905265,-0.07761667,1.428798,0.214564,301.6679,106.5251,137.0033,True
2,1.544447,0.01423641,0.3209665,-0.08473499,-1.265967,-4.652185,-2.41925,0.1480943,1.289498,0.3724687,-1.8038,0.06199392,17.2,54.2,-0.1226138,0.2275149,-0.1560948,-0.5006402,-2.97611,-0.6606174,0.244899,1.473008,0.2708964,-0.0528819,0.1830962,0.3203836,-0.3545344,0.765318,-0.1729742,0.3938156,1.530432,0.1897576,-0.07990304,1.427701,0.2149851,301.5688,106.6005,137.235,True
2,1.555558,0.05148394,0.3392182,-0.07852796,-1.268283,-4.65605,-2.419895,0.1467097,1.288508,0.3716311,-1.803054,0.06627014,13.8,58.3,-0.1553252,0.2295564,-0.1259168,-0.5026141,-2.972486,-0.6609691,0.2432238,1.472093,0.2698271,-0.04552224,0.1660483,0.3086084,-0.351794,0.7704033,-0.1775074,0.3919713,1.529809,0.1890395,-0.08218355,1.426748,0.2153312,301.486,106.6756,137.4686,True
2,1.566669,0.06956936,0.3563788,-0.06909138,-1.270921,-4.659904,-2.420117,0.1453594,1.287346,0.3708253,-1.802191,0.07654915,13.8,58.3,-0.166997,0.2434562,-0.125696,-0.5057859,-2.96876,-0.6619462,0.2415628,1.470991,0.268908,-0.03895482,0.1468938,0.3234749,-0.3479058,0.7754989,-0.1819783,0.3901291,1.529128,0.1882601,-0.08441298,1.425886,0.2156081,301.4193,106.7607,137.6489,True
2,1.577781,0.08224956,0.408774,-0.04712227,-1.275258,-4.664673,-2.420075,0.1441814,1.286248,0.3700705,-1.800399,0.1611028,13.8,58.3,-0.143606,0.2519449,-0.1333326,-0.5091043,-2.965968,-0.6635716,0.2400099,1.470107,0.2681615,-0.01221517,0.1298967,0.3317449,-0.3441731,0.7803466,-0.1872274,0.3883695,1.528548,0.1875987,-0.08663376,1.425038,0.2158943,301.4094,106.8347,137.7669,True
2,1.588892,0.08224956,0.408774,-0.04712227,-1.275258,-4.664673,-2.420075,0.1441814,1.286248,0.3700705,-1.796903,0.3157119,13.8,58.3,-0.143606,0.2519449,-0.1333326,-0.5091043,-2.965968,-0.6635716,0.2400099,1.470107,0.2681615,-0.01221517,0.1298967,0.3317449,-0.3441731,0.7803466,-0.1872274,0.3883695,1.528548,0.1875987,-0.08889008,1.42405,0.2162852,301.4196,106.793,137.9859,True
2,1.600003,0.07151173,0.4547378,-0.02292532,-1.28311,-4.67342,-2.418741,0.1418885,1.284205,0.3690495,-1.791974,0.4452827,13.8,58.3,-0.1230153,0.1284603,-0.1568067,-0.511866,-2.972618,-0.655621,0.2368769,1.468296,0.266845,-0.02201301,0.1479874,0.3158561,-0.3383115,0.7953007,-0.200295,0.3847609,1.527444,0.1861873,-0.09109277,1.422762,0.2168453,301.1958,106.8452,138.1284,True
2,1.611114,0.05775715,0.4130795,-0.03324795,-1.28473,-4.676378,-2.418107,0.1409743,1.283165,0.3687372,-1.789867,0.1861005,10,64.3,-0.1061338,0.07190172,-0.1520692,-0.51265,-2.975837,-0.6519826,0.2352076,1.467461,0.2661095,-0.01990184,0.1522386,0.3168998,-0.3351306,0.8024874,-0.2067106,0.3831451,1.526971,0.1855807,-0.09319873,1.421344,0.2175029,300.9106,107.1488,137.9878,True
2,1.622225,0.0525118,0.3767844,-0.0414969,-1.286143,-4.679174,-2.417724,0.1399083,1.28226,0.3682671,-1.78473,0.4651588,10,64.3,-0.06575763,0.07075337,-0.1620803,-0.5147619,-2.977196,-0.6513932,0.233619,1.466555,0.2653275,-0.02434701,0.164985,0.3041503,-0.3326608,0.8104402,-0.2134968,0.3815425,1.526762,0.185008,-0.09595563,1.420132,0.2184746,300.9763,106.9789,138.3259,True
2,1.633336,0.04516897,0.3255538,-0.05174798,-1.286817,-4.681124,-2.41746,0.1389742,1.281689,0.3678999,-1.779737,0.4492757,10,64.3,-0.03883249,0.1687136,-0.1680442,-0.519637,-2.971142,-0.6570879,0.2322439,1.465856,0.2645438,-0.00822708,0.1405162,0.3146669,-0.3291214,0.8154286,-0.2186037,0.3800876,1.526393,0.1844282,-0.09894596,1.418756,0.2198391,300.7377,106.8755,138.8043,True
2,1.644447,0.04630027,0.2978159,-0.05793826,-1.287862,-4.683686,-2.417372,0.1380492,1.280947,0.3675244,-1.775206,0.40718,10,64.3,-0.03215057,0.2229553,-0.1592039,-0.5235407,-2.965892,-0.6614448,0.2308366,1.465148,0.2638948,-0.0009845197,0.1095787,0.289042,-0.3270436,0.8169265,-0.2204892,0.3784853,1.526112,0.1842618,-0.1018922,1.417039,0.2213966,300.3091,107.0893,139.1392,True
2,1.655559,0.0623984,0.2477351,-0.06504908,-1.287864,-4.685236,-2.418227,0.1373041,1.280504,0.3673737,-1.770126,0.4574755,10,64.3,-0.02218857,0.2483002,-0.1314259,-0.5262592,-2.960438,-0.6661162,0.2297774,1.464509,0.2633173,0.009094641,0.08822617,0.2293023,-0.3265222,0.818095,-0.2220323,0.3771931,1.525752,0.1839263,-0.104798,1.415137,0.2228861,299.7915,107.4758,139.3247,True
2,1.66667,0.0667007,0.227518,-0.06384264,-1.288732,-4.687332,-2.41835,0.1365574,1.27969,0.3671837,-1.765183,0.4443331,7.7,58.3,-0.01022631,0.2235344,-0.09762377,-0.5272292,-2.957542,-0.6687115,0.2287563,1.46398,0.2632463,0.01525536,0.08607697,0.2015207,-0.3257158,0.8220308,-0.2266331,0.3758396,1.525341,0.1836989,-0.1076079,1.413175,0.224132,299.2616,107.9401,139.335,True
2,1.677781,0.06890894,0.196623,-0.0646845,-1.288915,-4.688725,-2.418819,0.1357247,1.279066,0.3670957,-1.760325,0.4365229,7.7,58.3,-0.009522825,0.103082,-0.08891058,-0.5259823,-2.96325,-0.6636105,0.2276885,1.463492,0.2630486,0.0214428,0.1009809,0.1833314,-0.3247597,0.8280404,-0.2327941,0.3745711,1.525049,0.1835117,-0.110259,1.411182,0.2250966,298.8087,108.4022,139.1981,True
2,1.688892,0.0636567,0.1699837,-0.06341872,-1.289121,-4.690015,-2.419023,0.1348931,1.278588,0.3669708,-1.754016,0.5690547,7.7,58.3,-0.01748941,-0.01186574,-0.09603254,-0.5246273,-2.970421,-0.6568596,0.2265657,1.462739,0.262958,0.008591816,0.1339512,0.1780779,-0.3236774,0.8357549,-0.2400723,0.3733344,1.524724,0.1828201,-0.1126793,1.409118,0.2258016,298.4498,108.8536,138.9194,True
2,1.700003,0.06155146,0.1560872,-0.06970656,-1.289295,-4.691808,-2.419116,0.1341171,1.277949,0.3668621,-1.748001,0.5407851,7.7,58.3,0.00473202,0.00631357,-0.117435,-0.5266699,-2.971588,-0.6566104,0.2254921,1.46184,0.2626007,0.008699939,0.1371532,0.1865673,-0.3221072,0.842005,-0.2463541,0.3721828,1.524263,0.1823654,-0.1149328,1.406979,0.2263221,298.1754,109.215,138.6227,True
2,1.711114,0.04882552,0.1261257,-0.08331896,-1.288495,-4.693053,-2.418895,0.1334167,1.27741,0.3668475,-1.741379,0.5964851,3.9,45.3,0.04607363,0.03516605,-0.1474771,-0.5298593,-2.971567,-0.6584559,0.2243562,1.461162,0.2624085,0.01640621,0.1222775,0.2067414,-0.3194984,0.8468772,-0.2517294,0.3711053,1.523728,0.1821833,-0.1171634,1.404837,0.2266943,297.9214,109.5676,138.2825,True
2,1.722225,0.0435066,0.1185928,-0.09177916,-1.288231,-4.694764,-2.418741,0.132731,1.276849,0.3667667,-1.734811,0.5908889,3.9,45.3,0.04610104,0.04262051,-0.1474245,-0.5315558,-2.972425,-0.6581981,0.2233204,1.460474,0.2620595,0.01847751,0.1254753,0.1981582,-0.318529,0.8528445,-0.257986,0.3700551,1.523262,0.1818712,-0.1194494,1.402723,0.2269803,297.6537,109.9798,137.871,True
2,1.733337,0.04030397,0.1217882,-0.09073292,-1.288445,-4.696561,-2.418569,0.1321941,1.276351,0.3667102,-1.727607,0.6489795,3.9,45.3,0.02076409,0.05219498,-0.1279097,-0.5328144,-2.971115,-0.6585305,0.2225503,1.460189,0.2614672,0.006386474,0.1264836,0.1620592,-0.3183926,0.8577809,-0.2623214,0.3691761,1.522875,0.1817205,-0.1217493,1.400553,0.2272958,297.3947,110.4547,137.4136,True
2,1.744448,0.04030397,0.1217882,-0.09073292,-1.288445,-4.696561,-2.418569,0.1321941,1.276351,0.3667102,-1.720856,0.6070112,3.9,45.3,0.02076409,0.05219498,-0.1279097,-0.5328144,-2.971115,-0.6585305,0.2225503,1.460189,0.2614672,0.006386474,0.1264836,0.1620592,-0.3183926,0.8577809,-0.2623214,0.3691761,1.522875,0.1817205,-0.1240459,1.398306,0.2276916,297.1045,111.0198,136.8922,True
2,1.755559,0.04666273,0.1411123,-0.07598107,-1.29005,-4.700703,-2.418577,0.1314803,1.275358,0.366612,-1.713526,0.6602384,3.9,45.3,0.01479683,0.08077971,-0.09674588,-0.5355116,-2.968147,-0.6612131,0.2209587,1.459349,0.2608082,0.01025778,0.1083226,0.1183401,-0.3179569,0.8644564,-0.2694261,0.3673715,1.522318,0.1810794,-0.1262903,1.396017,0.2282179,296.6715,111.6597,136.3186,True
2,1.76667,0.04558343,0.1539311,-0.06969234,-1.290844,-4.70277,-2.418609,0.1309857,1.274435,0.3654215,-1.707179,0.5698192,3.3,59.4,0.02872697,0.07639802,-0.08733183,-0.5364261,-2.967858,-0.6623005,0.2201497,1.458962,0.260488,0.01039015,0.1008744,0.1279184,-0.3166499,0.8684822,-0.2736944,0.3663796,1.522177,0.180968,-0.128383,1.393772,0.2288742,296.2001,112.3336,135.7554,True
2,1.777781,0.0456124,0.1594717,-0.03990564,-1.292495,-4.70386,-2.418814,0.1306395,1.274073,0.3654022,-1.699701,0.6739629,3.3,59.4,0.0394302,0.07525987,-0.08105035,-0.53742,-2.96711,-0.6636792,0.2194084,1.458627,0.2602165,0.004192412,0.1040849,0.1471549,-0.3147867,0.8744825,-0.2792463,0.365523,1.521993,0.1806092,-0.1305539,1.391586,0.229776,295.9739,112.8043,135.4042,True
2,1.788892,0.05099855,0.1425268,-0.0280704,-1.293232,-4.704571,-2.419371,0.1301895,1.273748,0.3653061,-1.692209,0.6741849,3.3,59.4,0.03177207,0.08718486,-0.1043223,-0.5400033,-2.967118,-0.6636171,0.2186195,1.458494,0.2600739,-0.002012774,0.08065399,0.1610813,-0.3128266,0.8763632,-0.2809526,0.364543,1.521972,0.1802187,-0.132793,1.389418,0.2308823,295.6428,113.0149,135.5061,True
2,1.800003,0.0628148,0.105289,-0.02568141,-1.29295,-4.704607,-2.420486,0.1297886,1.273585,0.3650291,-1.68459,0.6858148,3.3,59.4,0.01682307,0.08405711,-0.1063242,-0.541491,-2.967534,-0.6628776,0.2179706,1.458353,0.2597647,0.005151354,0.04013149,0.1269574,-0.3124042,0.8727081,-0.2778985,0.363829,1.521792,0.1798911,-0.1351041,1.387186,0.231948,295.2105,113.2212,135.7749,True
2,1.811115,0.08101249,0.06584077,-0.03713923,-1.291944,-4.70478,-2.42203,0.1293819,1.273505,0.3647668,-1.677239,0.6611555,1.6,52.1,0.00426878,0.1021105,-0.09008076,-0.5429764,-2.965003,-0.6646046,0.2174364,1.458228,0.2594147,0.0188838,0.04440773,0.1150809,-0.3119414,0.8761277,-0.2819558,0.3631002,1.521653,0.1796699,-0.1373893,1.384904,0.2329596,294.6754,113.6804,135.5891,True
2,1.822226,0.08635677,0.05083158,-0.05195133,-1.291114,-4.705573,-2.422977,0.1289562,1.273308,0.3645136,-1.669973,0.6535187,1.6,52.1,0.004601501,0.08905415,-0.05289212,-0.5427837,-2.963415,-0.6660339,0.2169856,1.458094,0.2592237,0.04425803,0.02736958,0.09352258,-0.3116591,0.8754784,-0.2828381,0.3625087,1.521316,0.1793256,-0.1396325,1.382604,0.2338536,294.1494,114.2518,135.2393,True
2,1.833337,0.07244805,0.06667389,-0.06589745,-1.291007,-4.707472,-2.422822,0.1285464,1.272991,0.3643954,-1.662717,0.6527076,1.6,52.1,0.02175704,0.06863237,-0.03510465,-0.5427799,-2.962862,-0.6673921,0.2166176,1.457907,0.2591069,0.05991295,0.0465341,0.06350151,-0.3124117,0.8790854,-0.2875934,0.361992,1.521107,0.1793175,-0.1418005,1.380268,0.2345372,293.6749,114.9124,134.8067,True
2,1.844448,0.05539545,0.0752241,-0.05742393,-1.291636,-4.708892,-2.4224,0.1283279,1.272716,0.3643327,-1.654508,0.7397165,1.6,52.1,0.02702925,0.046216,-0.03212593,-0.5428427,-2.96372,-0.6671221,0.2160995,1.457759,0.2590785,0.06745851,0.0540115,0.07299773,-0.3115377,0.8829398,-0.292194,0.3615169,1.520766,0.1789336,-0.1438942,1.377844,0.2349867,293.2954,115.6535,134.2204,True
2,1.855559,0.03199938,0.07322087,-0.03180948,-1.292562,-4.709135,-2.421849,0.1279714,1.27252,0.3644469,-1.645831,0.7817727,1.6,52.1,0.04912128,0.0004002266,-0.04227404,-0.5425914,-2.967152,-0.6654571,0.2155841,1.457589,0.2590399,0.06121762,0.04337461,0.08478699,-0.3103627,0.8849178,-0.2947531,0.3610201,1.520555,0.178756,-0.1459632,1.375322,0.235286,292.9772,116.4498,133.4432,True
2,1.86667,0.02894872,0.02971608,-0.006984568,-1.292362,-4.707669,-2.422483,0.1276872,1.272462,0.3645673,-1.637564,0.7440481,1.3,48.8,0.07113405,-0.004776157,-0.07450417,-0.544185,-2.969852,-0.6645474,0.2151637,1.457478,0.259171,0.06880569,0.01888928,0.09217272,-0.3093176,0.8838912,-0.2950897,0.3604918,1.520693,0.1785738,-0.1480332,1.372767,0.2356144,292.6212,117.3187,132.4899,True
2,1.877781,0.03014996,-0.008428147,0.0209913,-1.292323,-4.705706,-2.423394,0.1274994,1.27244,0.3646011,-1.629341,0.7404817,1.3,48.8,0.08399551,0.01861937,-0.07553278,-0.5455219,-2.969281,-0.6664518,0.2148243,1.457328,0.2592063,0.07724799,0.01143136,0.08357178,-0.3086731,0.8841162,-0.2964634,0.360063,1.520613,0.1783745,-0.150044,1.370271,0.2361025,292.1593,118.1795,131.5612,True
2,1.888893,0.02484735,-0.01369091,0.03061665,-1.292535,-4.705257,-2.423669,0.1274068,1.272282,0.3645821,-1.622276,0.6345472,1.3,48.8,0.08597479,0.0368762,-0.09673323,-0.5477153,-2.969643,-0.6670982,0.2146997,1.457229,0.259299,0.08038331,-0.01308619,0.07396915,-0.3081496,0.8811808,-0.2947938,0.3597105,1.52069,0.1782665,-0.1519758,1.367936,0.2367433,291.6279,118.9291,130.8563,True
2,1.900004,0.02484735,-0.01369091,0.03061665,-1.292535,-4.705257,-2.423669,0.1274068,1.272282,0.3645821,-1.614707,0.681486,1.3,48.8,0.08597479,0.0368762,-0.09673323,-0.5477153,-2.969643,-0.6670982,0.2146997,1.457229,0.259299,0.08038331,-0.01308619,0.07396915,-0.3081496,0.8811808,-0.2947938,0.3597105,1.52069,0.1782665,-0.1536958,1.3657,0.2374092,291.1166,119.573,130.3849,True
2,1.911115,0.01301776,0.0342596,0.03667755,-1.294893,-4.706411,-2.423252,0.1272316,1.272335,0.3644273,-1.606503,0.7389309,1.3,48.8,0.04648588,-0.04410457,-0.07347749,-0.5463417,-2.975811,-0.6615002,0.2143052,1.4576,0.2593565,0.07886118,-0.03018606,0.02712322,-0.3088063,0.8768473,-0.2925341,0.3589523,1.520611,0.1780684,-0.1551792,1.363519,0.2379803,290.6696,120.1814,129.9543,True
2,1.922226,0.01833897,0.02668238,0.01860837,-1.294421,-4.706666,-2.423577,0.1271231,1.272588,0.364321,-1.598554,0.7151963,0.6,45.7,0.02635729,-0.07508646,-0.05112571,-0.5450745,-2.978561,-0.6587875,0.2141232,1.457834,0.2593558,0.06819861,-0.02913404,0.02616344,-0.3084835,0.8763391,-0.2924375,0.3586481,1.520587,0.1779437,-0.1565193,1.361434,0.2384775,290.3232,120.8554,129.3521,True
2,1.933337,0.02038121,0.05426801,0.002424959,-1.295027,-4.708206,-2.423514,0.1271007,1.272635,0.3640571,-1.590836,0.6944795,0.6,45.7,0.01576357,-0.09324798,-0.03836123,-0.54403,-2.980996,-0.6564684,0.2139407,1.457976,0.2592168,0.04884773,-0.01638992,0.01142651,-0.3090433,0.8768892,-0.2927408,0.3582556,1.52059,0.1779196,-0.1578706,1.359517,0.2389694,289.9885,121.3294,128.8815,True
2,1.944448,0.006367529,0.1148909,-0.00757752,-1.297058,-4.710984,-2.422418,0.1270932,1.272583,0.3641131,-1.583252,0.6822367,0.6,45.7,0.01816564,-0.05926775,-0.02429004,-0.5442335,-2.979967,-0.657657,0.2138189,1.457964,0.2591805,0.04684298,-0.01424726,0.02207505,-0.3087221,0.8769034,-0.2934393,0.358032,1.520691,0.1781561,-0.159305,1.357778,0.2394819,289.6609,121.8909,128.3734,True
2,1.955559,-0.01077547,0.1575128,-0.0004086941,-1.299343,1.569857,-2.421086,0.1269194,1.272571,0.3640895,-1.575312,0.7147982,0.6,45.7,0.03657835,-0.01148333,-0.01241572,-0.5449499,-2.977379,-0.6609026,0.2136039,1.457985,0.2591214,0.05647458,0.003882952,0.02834243,-0.3084068,0.8792766,-0.296637,0.3578279,1.52066,0.178175,-0.1607593,1.356102,0.2400274,289.3904,122.597,127.7705,True
2,1.966671,-0.03422316,0.1768609,0.0293265,-1.302353,1.568836,-2.419639,0.1267186,1.272795,0.364352,-1.566674,0.7783874,1.8,46.9,0.05297849,0.04796736,0.007016385,-0.5459917,-2.972709,-0.6660204,0.2135676,1.458047,0.2592199,0.06287903,-0.000386022,0.02720097,-0.3082651,0.8783757,-0.2969877,0.3576344,1.520653,0.1781836,-0.1622059,1.354405,0.2407082,289.1391,123.2764,127.1443,True
2,1.977782,-0.04365934,0.13448,0.06268317,-1.303911,1.57001,-2.419184,0.1263454,1.273091,0.3644643,-1.558349,0.7493703,1.8,46.9,0.0498767,0.03722627,0.0208193,-0.5454175,-2.972203,-0.6667671,0.2135179,1.458292,0.2592645,0.06054564,-0.006807748,0.006992185,-0.3087477,0.8768599,-0.2961518,0.3575303,1.520667,0.17821,-0.1637204,1.352736,0.2416901,288.8312,123.8614,126.5732,True
2,1.988893,-0.04995887,0.1079498,0.07886823,-1.305186,1.570776,-2.418697,0.1260706,1.27332,0.3643641,-1.550001,0.7516525,1.8,46.9,0.03830944,0.03930117,0.03480291,-0.5450276,-2.970381,-0.6683253,0.2134912,1.458499,0.2593184,0.04871549,-0.004710611,-0.004626822,-0.3095168,0.8760599,-0.295649,0.3574478,1.520784,0.1780791,-0.16538,1.351179,0.2429957,288.414,124.3901,126.1541,True
2,2.000004,-0.06269723,0.09304262,0.08432095,-1.306381,-4.712004,-2.417671,0.1258942,1.27358,0.3641882,-1.542544,0.6702439,1.8,46.9,0.03750646,0.03377653,0.06246965,-0.5438638,-2.968129,-0.6705896,0.2135289,1.458892,0.2594907,0.05506893,-0.04094759,-0.0131723,-0.3094401,0.8700894,-0.2908992,0.3574898,1.520742,0.177906,-0.1671236,1.349782,0.2445276,287.8719,124.8531,125.9626,True
2,2.011115,-0.08614638,0.09185584,0.07477122,-1.307479,1.570485,-2.415705,0.1258384,1.274,0.3640335,-1.534827,0.6947495,1.8,46.9,0.03251256,-0.07998488,0.03293899,-0.5413253,-2.975738,-0.6643615,0.2135755,1.459244,0.2595937,0.05480155,-0.09212163,-0.04399033,-0.3101171,0.860434,-0.2822671,0.3573029,1.520881,0.1777496,-0.1688233,1.34845,0.245998,287.3479,125.2065,126.0684,True
2,2.022226,-0.09788176,0.09495386,0.06517921,-1.3086,1.569867,-2.414196,0.1257367,1.274254,0.3639042,-1.526523,0.7480177,1.1,38.9,-0.01361476,-0.1105695,0.01401622,-0.5404172,-2.979631,-0.659323,0.2135824,1.459533,0.2596862,0.0494345,-0.0985381,-0.04926009,-0.3105592,0.8552958,-0.2778617,0.357191,1.520856,0.1775885,-0.1703677,1.347067,0.2471818,286.9053,125.6095,126.1179,True
2,2.033337,-0.1106476,0.07989889,0.05039185,-1.308923,1.569606,-2.412488,0.12564,1.274669,0.3637714,-1.517976,0.7698786,1.1,38.9,-0.02222537,-0.1136797,0.006624565,-0.5397205,-2.981888,-0.6568537,0.213542,1.459765,0.2597244,0.04759528,-0.08463877,-0.01942579,-0.3096361,0.8555185,-0.2784742,0.3569989,1.520958,0.1775038,-0.171749,1.345629,0.2479804,286.5133,126.2536,125.7506,True
2,2.044448,-0.1202042,0.05630927,0.03141605,-1.308912,1.569569,-2.410869,0.1254352,1.27505,0.3636596,-1.510518,0.6701558,1.1,38.9,-4.853308E-05,-0.1349909,-0.004413746,-0.5388603,-2.985482,-0.6545696,0.2135258,1.459987,0.2596877,0.06062387,-0.08139609,0.00492966,-0.3086369,0.8535534,-0.2776465,0.3568897,1.521041,0.177402,-0.1730113,1.344234,0.24844,286.1739,127.1847,124.8888,True
2,2.055559,-0.1202042,0.05630927,0.03141605,-1.308912,1.569569,-2.410869,0.1254352,1.27505,0.3636596,-1.502451,0.7267159,1.1,38.9,-4.853308E-05,-0.1349909,-0.004413746,-0.5388603,-2.985482,-0.6545696,0.2135258,1.459987,0.2596877,0.06062387,-0.08139609,0.00492966,-0.3086369,0.8535534,-0.2776465,0.3568897,1.521041,0.177402,-0.1741584,1.342895,0.2486675,285.9092,128.0268,124.0004,True
2,2.06667,-0.1479134,0.05403721,0.01976336,-1.310025,1.568726,-2.406683,0.1249499,1.27576,0.3633778,-1.496161,0.5636159,1.6,38.9,-0.002633326,-0.0777273,0.03438063,-0.537151,-2.983468,-0.6561834,0.2135471,1.460353,0.2595243,0.03597756,-0.01645787,-0.0002402158,-0.3093294,0.8574554,-0.2813651,0.3569302,1.52118,0.1773026,-0.1751857,1.341578,0.248744,285.7161,128.7792,123.174,True
2,2.077781,-0.168172,0.06580399,0.03037668,-1.311682,1.56824,-2.40405,0.1247055,1.276094,0.3633962,-1.48538,0.9758024,1.6,38.9,-0.006339341,-0.02683222,0.06994059,-0.5364757,-2.979128,-0.6596815,0.2135409,1.460603,0.2594151,0.008197164,0.01652379,-0.004256146,-0.3097246,0.8610285,-0.2839305,0.3571494,1.521245,0.1774693,-0.1761239,1.340146,0.2487702,285.5994,129.3112,122.5422,True
2,2.088892,-0.1703091,0.07008286,0.03354443,-1.31266,1.56787,-2.401993,0.1244488,1.276531,0.3633726,-1.478232,0.6401342,1.6,38.9,-0.001731832,0.01029101,0.09040171,-0.5359697,-2.974936,-0.6633924,0.2136295,1.460818,0.2593608,0.006877197,0.01968995,-0.02768398,-0.3108399,0.8612887,-0.2841705,0.357171,1.521435,0.1774538,-0.1774323,1.338916,0.2487345,285.3347,130.3095,121.4589,True
2,2.100003,-0.1724048,0.06272291,0.04638798,-1.313754,1.568107,-2.400087,0.1241911,1.276855,0.3630543,-1.470811,0.6685644,1.6,38.9,-0.006669126,0.03781056,0.1183436,-0.5351366,-2.970143,-0.6672752,0.2139438,1.461148,0.2594464,0.002151381,0.005763035,-0.07341868,-0.3128932,0.8576717,-0.2805992,0.3574434,1.521526,0.1776488,-0.1788244,1.337861,0.2487743,285.0446,131.3531,120.3393,True
2,2.111114,-0.1766284,0.05213573,0.0571299,-1.314687,1.568705,-2.39808,0.1239898,1.277288,0.3629992,-1.463987,0.613318,1.6,38.9,-0.02274976,0.01123908,0.1183178,-0.5336522,-2.969728,-0.6668438,0.2141454,1.461454,0.2595179,-0.001255348,-0.008115001,-0.09466587,-0.3144144,0.854757,-0.2776529,0.3575908,1.521554,0.1776972,-0.1801468,1.336956,0.2489972,284.7555,132.1768,119.4708,True
2,2.122225,-0.1915295,0.04352926,0.050821,-1.315072,1.568811,-2.395466,0.1237755,1.277806,0.362874,-1.4567,0.6562009,1.9,35.6,-0.03129149,-0.01328302,0.1256852,-0.5318029,-2.969301,-0.6665373,0.2144217,1.461835,0.2596059,0.003990129,-0.02836724,-0.1042715,-0.315428,0.8502003,-0.2735314,0.3578584,1.521586,0.1778007,-0.1813421,1.33615,0.2494015,284.5091,132.734,118.9915,True
2,2.133336,-0.2063814,0.01360393,0.0425291,-1.314587,1.569437,-2.392771,0.1235495,1.278432,0.3626864,-1.449194,0.6757676,1.9,35.6,-0.01460056,-0.09641471,0.1217225,-0.5284138,-2.973814,-0.6630136,0.2146851,1.462123,0.2597728,0.01064148,-0.03364408,-0.07876245,-0.3152416,0.8487328,-0.2722976,0.3580259,1.521618,0.1777973,-0.1823987,1.335366,0.2498865,284.2674,133.0621,118.8435,True
2,2.144447,-0.2211917,-0.02797433,0.04391547,-1.313848,-4.712122,-2.390255,0.123238,1.278942,0.362633,-1.441443,0.6981816,1.9,35.6,-0.005394444,-0.1410447,0.1010679,-0.5262358,-2.977807,-0.6598104,0.2149421,1.462283,0.2598107,-0.001859505,-0.02828842,-0.05094857,-0.3150088,0.8489046,-0.2720068,0.3582917,1.521427,0.1776166,-0.183358,1.334576,0.2503673,284.0305,133.4712,118.5974,True
2,2.155558,-0.2339141,-0.05359648,0.04092318,-1.313099,-4.710754,-2.387533,0.1230271,1.279489,0.3624859,-1.434011,0.6687811,1.9,35.6,-0.03535222,-0.1461849,0.09068294,-0.5246864,-2.979656,-0.6567965,0.2151365,1.462675,0.259891,0.006858818,-0.05382077,-0.03501931,-0.3144772,0.8445344,-0.2682109,0.3585581,1.521432,0.1776242,-0.1843265,1.333825,0.2507684,283.8142,134.1596,118.0548,True
2,2.166669,-0.2349813,-0.05898678,0.03138357,-1.312762,-4.710206,-2.385006,0.1229193,1.280002,0.362236,-1.426811,0.6479571,2.5,39.9,-0.05435175,-0.1408893,0.1058288,-0.5225383,-2.9797,-0.6555464,0.2153258,1.463017,0.2599285,0.01212747,-0.06234777,-0.04145501,-0.3149438,0.840619,-0.2648013,0.3588321,1.521514,0.1778119,-0.1853025,1.333117,0.2510124,283.6367,135.006,117.3316,True
2,2.17778,-0.2297608,-0.02282383,0.02152603,-1.313363,-4.711001,-2.3824,0.1228551,1.280535,0.3620429,-1.419724,0.6379998,2.5,39.9,-0.04765162,-0.1315194,0.1324607,-0.5198799,-2.978567,-0.6562594,0.2155913,1.463346,0.2598975,-0.01602045,-0.04220077,-0.08274996,-0.3174083,0.8393393,-0.2625781,0.3592557,1.521569,0.178019,-0.1862286,1.332409,0.2510357,283.4797,135.7667,116.6377,True
2,2.188891,-0.2255857,0.01020263,0.02021545,-1.314369,-4.711844,-2.379809,0.1227128,1.28102,0.3619118,-1.413307,0.5768846,2.5,39.9,-0.02362971,-0.05724898,0.1625778,-0.5187294,-2.972533,-0.6619894,0.2159825,1.463605,0.2598715,-0.03311986,-0.02729631,-0.08578714,-0.3184832,0.8397538,-0.2619491,0.3594911,1.521612,0.1781309,-0.1870659,1.331694,0.2508185,283.3282,136.5973,115.8093,True
2,2.200002,-0.2224485,0.04124277,0.03704684,-1.316481,-4.712242,-2.377307,0.1225462,1.281593,0.3619049,-1.406901,0.5763886,2.5,39.9,-0.02774402,-0.02208528,0.1639381,-0.5177851,-2.969139,-0.6644654,0.2163345,1.46385,0.2598987,-0.02349471,-0.02088287,-0.08163684,-0.3191719,0.8391888,-0.2615171,0.3598307,1.521751,0.1783621,-0.1878094,1.330993,0.2504459,283.2065,137.5165,114.787,True
2,2.211113,-0.2224485,0.04124277,0.03704684,-1.316481,-4.712242,-2.377307,0.1225462,1.281593,0.3619049,-1.400306,0.593733,2.5,39.9,-0.02774402,-0.02208528,0.1639381,-0.5177851,-2.969139,-0.6644654,0.2163345,1.46385,0.2598987,-0.02349471,-0.02088287,-0.08163684,-0.3191719,0.8391888,-0.2615171,0.3598307,1.521751,0.1783621,-0.1885346,1.330367,0.2501093,283.1044,138.3824,113.7184,True
2,2.222224,-0.2126963,0.004311275,0.08098285,-1.318195,-4.709571,-2.373515,0.1219905,1.282591,0.3616674,-1.396034,0.3811272,2.1,38.1,-0.03108965,-0.0177005,0.148027,-0.515229,-2.965891,-0.6664348,0.2168757,1.464605,0.2599382,-0.02789465,-0.03689816,-0.09648632,-0.3213754,0.8326662,-0.2546749,0.3605104,1.521828,0.1784809,-0.1892338,1.329782,0.2499709,283.0295,138.8778,113.0592,True
2,2.233335,-0.1998559,-0.020188,0.07688109,-1.318008,-4.708222,-2.372013,0.1220316,1.283167,0.3614357,-1.384924,1.008345,2.1,38.1,-0.03359918,-0.04519877,0.1212214,-0.5139933,-2.967681,-0.6644424,0.2171057,1.464962,0.2599182,-0.04580446,-0.04434524,-0.07816835,-0.3213359,0.8303128,-0.2512783,0.3607097,1.522006,0.1785827,-0.1898592,1.329031,0.2501068,282.9429,138.9808,112.8518,True
2,2.244446,-0.1956379,-0.008523438,0.06825824,-1.318453,-4.70827,-2.369895,0.1220837,1.283646,0.3610003,-1.380761,0.3675565,2.1,38.1,-0.05519612,-0.05666466,0.09686081,-0.5130425,-2.968891,-0.6621505,0.2174751,1.465184,0.2599194,-0.04551173,-0.03897116,-0.04941425,-0.3208539,0.8299281,-0.2504312,0.3609844,1.52208,0.1786914,-0.190934,1.328545,0.2503636,282.5061,139.8855,112.008,True
2,2.255557,-0.196774,0.01377505,0.05851052,-1.319278,-4.708689,-2.367576,0.1221201,1.284143,0.3607707,-1.374984,0.5214363,2.1,38.1,-0.08670164,0.02111318,0.1126553,-0.5133664,-2.962216,-0.6659194,0.2178325,1.465537,0.2599909,-0.02840685,-0.01977271,-0.04216862,-0.3212571,0.8305221,-0.2513153,0.3613349,1.522191,0.1788726,-0.1919377,1.328124,0.2506036,282.2115,140.7721,111.383,True
2,2.266668,-0.1999793,0.01803566,0.05954941,-1.320025,-4.708432,-2.365308,0.1221054,1.284644,0.3605824,-1.368394,0.5936845,2.1,38.1,-0.07806677,0.04023473,0.115905,-0.5128849,-2.958339,-0.6688755,0.2182104,1.465952,0.260083,-0.01248756,-0.0165673,-0.04766677,-0.3218696,0.8298494,-0.2510655,0.3617863,1.522343,0.1790984,-0.1926194,1.327597,0.2507367,282.0565,141.5849,110.7974,True
2,2.277779,-0.201048,0.02880394,0.07650492,-1.321367,-4.707924,-2.363117,0.1222004,1.284993,0.3601871,-1.36194,0.5808329,1.5,52.9,-0.05463848,0.01558436,0.1240116,-0.5111645,-2.957279,-0.6700279,0.2186486,1.466475,0.2602105,-0.01057789,-0.03577552,-0.07109651,-0.3231895,0.8252152,-0.246609,0.362238,1.522558,0.179384,-0.1931307,1.327,0.2507603,281.9404,142.2993,110.1518,True
2,2.28889,-0.1946609,0.03851146,0.09134181,-1.322952,-4.707262,-2.361316,0.1222835,1.285547,0.3600144,-1.35556,0.5742443,1.5,52.9,-0.04836129,-0.0516431,0.137317,-0.5078371,-2.959529,-0.6677815,0.2190884,1.46698,0.2603359,-0.02392005,-0.04333095,-0.1252724,-0.3261318,0.8204611,-0.2413956,0.3626746,1.522946,0.17945,-0.1936139,1.326395,0.2507522,281.8101,142.9901,109.404,True
2,2.300001,-0.1818667,0.04611597,0.1083237,-1.324706,-4.706382,-2.360023,0.1224139,1.286025,0.3598652,-1.349361,0.5578092,1.5,52.9,-0.03180379,-0.1207994,0.1153439,-0.5051074,-2.964887,-0.6632342,0.2195989,1.467392,0.2604589,-0.03128504,-0.04334151,-0.11561,-0.3269542,0.8179306,-0.2383196,0.3632149,1.522894,0.1792636,-0.1941212,1.325805,0.2507303,281.637,143.6374,108.7284,True
2,2.311112,-0.16484,0.05901983,0.1188597,-1.326662,-4.705948,-2.358894,0.1225247,1.286535,0.3597131,-1.34354,0.5234303,1.5,52.9,-0.03400682,-0.1132447,0.1047687,-0.5039968,-2.964998,-0.6628342,0.2200051,1.467797,0.2606344,-0.01928077,-0.06033207,-0.09013971,-0.326837,0.81416,-0.23491,0.3636912,1.52308,0.1793413,-0.1946122,1.325214,0.2506633,281.4129,144.3123,108.0832,True
2,2.322223,-0.1584322,0.05264703,0.118885,-1.327727,-4.705422,-2.357434,0.1226106,1.287088,0.3596342,-1.337848,0.511866,1.5,43.2,-0.06397638,-0.1076782,0.08913806,-0.5031564,-2.965242,-0.6608956,0.2203618,1.468179,0.2607999,-0.006390639,-0.08586703,-0.08171381,-0.3270665,0.8083951,-0.2297232,0.364009,1.52324,0.1793213,-0.1950718,1.324633,0.2505574,281.182,145.1177,107.2777,True
2,2.333334,-0.1605159,0.03021699,0.1115929,-1.328164,-4.704408,-2.355827,0.1226807,1.287632,0.3594856,-1.331954,0.5303674,1.5,43.2,-0.06735367,-0.106471,0.07106987,-0.5022679,-2.966848,-0.6586008,0.2207874,1.468586,0.2608755,-0.01600076,-0.07522628,-0.08269592,-0.3279108,0.8061883,-0.22717,0.3645518,1.523467,0.1794245,-0.1954681,1.324026,0.2504401,280.969,145.841,106.5199,True
2,2.344445,-0.1678924,-0.008244231,0.09909797,-1.327666,-4.702896,-2.354086,0.1228004,1.28821,0.3593121,-1.32529,0.6004614,1.5,43.2,-0.04488754,-0.08098742,0.07101919,-0.5016037,-2.966051,-0.6595795,0.2212803,1.469326,0.2607727,-0.02661577,-0.06670246,-0.07834116,-0.3286597,0.8047769,-0.2251673,0.3650509,1.523599,0.1795428,-0.1958655,1.323376,0.2503602,280.7863,146.5051,105.7999,True
2,2.355556,-0.1678731,-0.02001601,0.09171243,-1.327581,-4.701996,-2.352438,0.1230503,1.288887,0.3590317,-1.318566,0.6053355,1.5,43.2,-0.01155693,-0.05782866,0.09215102,-0.5003126,-2.963585,-0.6627457,0.2217136,1.46976,0.2607558,-0.0416249,-0.05075152,-0.08566763,-0.3298208,0.8038731,-0.2233407,0.3656093,1.523783,0.1797016,-0.1963098,1.322657,0.2503412,280.6379,147.3264,104.9487,True
2,2.366668,-0.1678731,-0.02001601,0.09171243,-1.327581,-4.701996,-2.352438,0.1230503,1.288887,0.3590317,-1.311819,0.6073985,1.5,43.2,-0.01155693,-0.05782866,0.09215102,-0.5003126,-2.963585,-0.6627457,0.2217136,1.46976,0.2607558,-0.0416249,-0.05075152,-0.08566763,-0.3298208,0.8038731,-0.2233407,0.3656093,1.523783,0.1797016,-0.196787,1.321846,0.2503417,280.4958,148.3883,103.926,True
2,2.377779,-0.1552784,0.0567403,0.09433404,-1.331434,-4.702874,-2.349204,0.1235246,1.290006,0.3586419,-1.307321,0.4016714,1,37,-0.03150953,-0.006669525,0.1012559,-0.4990918,-2.957691,-0.6667258,0.2228772,1.470566,0.2608485,-0.02581877,-0.04331081,-0.1028991,-0.3323929,0.8002186,-0.2199015,0.366776,1.52444,0.1800234,-0.1972556,1.320905,0.2503096,280.4114,149.5238,102.8302,True
2,2.38889,-0.147913,0.09621075,0.09936413,-1.334078,-4.703673,-2.347663,0.123663,1.290647,0.3584599,-1.297445,0.8951223,1,37,-0.06756165,-0.08782054,0.1479234,-0.4945368,-2.959258,-0.663322,0.2233754,1.471328,0.2610657,-0.03072852,-0.08284748,-0.1699071,-0.3359322,0.7899333,-0.2099333,0.3674346,1.524697,0.1801045,-0.1976708,1.319727,0.2503372,280.286,150.6531,101.6722,True
2,2.400001,-0.1468601,0.1004669,0.09826659,-1.335707,-4.703824,-2.346058,0.1237185,1.291245,0.3583083,-1.292464,0.4431656,1,37,-0.06983559,-0.1389877,0.1528952,-0.4913202,-2.962511,-0.659723,0.2238517,1.471957,0.2610438,-0.05641015,-0.06158996,-0.1792628,-0.338116,0.7888136,-0.2075167,0.3680319,1.524951,0.1800852,-0.1981615,1.318652,0.2503505,279.9297,153.6473,98.69579,True
2,2.411112,-0.154178,0.03745392,0.08060482,-1.334367,-4.702362,-2.344491,0.1236053,1.291951,0.3580675,-1.286087,0.5750529,1,37,-0.06882264,-0.1581817,0.1548781,-0.4884211,-2.964257,-0.6574612,0.2242731,1.472443,0.2610247,-0.07327692,-0.06051487,-0.1620424,-0.3392175,0.7862766,-0.2036804,0.3686477,1.525196,0.1801326,-0.1987307,1.317805,0.2504539,279.6477,156.1014,96.21818,True
2,2.422223,-0.1668315,-0.0255916,0.05870765,-1.332738,-4.700734,-2.342616,0.1235832,1.292645,0.3578503,-1.279097,0.6295252,1.2,32.1,-0.06779259,-0.1325212,0.1411986,-0.4872775,-2.963673,-0.6573792,0.2246532,1.472849,0.2608244,-0.0677015,-0.07112944,-0.1386414,-0.339618,0.7820989,-0.1991775,0.369047,1.525545,0.1799939,-0.1993508,1.317164,0.2507176,279.4221,157.5578,94.77231,True
2,2.433334,-0.1742345,-0.05448683,0.04398732,-1.331344,-4.699795,-2.34065,0.1236075,1.293332,0.357702,-1.271921,0.6461719,1.2,32.1,-0.06563567,-0.09729939,0.1307747,-0.4864509,-2.962124,-0.6580884,0.2250155,1.473281,0.2607579,-0.06642511,-0.06043976,-0.1173655,-0.3401879,0.7807035,-0.1971687,0.3695471,1.525764,0.1800203,-0.1999925,1.316616,0.2510845,279.275,158.2914,94.17879,True
2,2.444445,-0.1859313,-0.07057452,0.0323913,-1.330517,-4.699127,-2.338324,0.1237133,1.293989,0.3575282,-1.264738,0.6467033,1.2,32.1,-0.05256277,-0.04521359,0.1395356,-0.4857116,-2.957775,-0.6617873,0.225398,1.473573,0.2605443,-0.06518051,-0.04870148,-0.09928773,-0.340728,0.7795625,-0.1954483,0.3700669,1.525862,0.1799135,-0.200616,1.316015,0.2513601,279.2455,159.0438,93.66275,True
2,2.455556,-0.1806293,-0.06097362,0.03231421,-1.330459,-4.698597,-2.336619,0.1237546,1.294664,0.357367,-1.257982,0.6077045,1.2,32.1,-0.04618879,-0.0185224,0.127942,-0.4853062,-2.955211,-0.6637561,0.2258338,1.47399,0.2604315,-0.07157774,-0.04338183,-0.09922979,-0.3417091,0.7781066,-0.1931013,0.3706653,1.526043,0.1800201,-0.2011546,1.315285,0.2514313,279.2503,160.2777,92.58217,True
2,2.466667,-0.1700342,-0.03426069,0.03956285,-1.331306,-4.698462,-2.335125,0.123852,1.295278,0.357199,-1.2509,0.6378309,1.2,32.1,-0.04187272,-0.01430753,0.1311201,-0.4839486,-2.953715,-0.6648172,0.2263216,1.474372,0.2603755,-0.07615793,-0.03811599,-0.1290212,-0.3441177,0.7756626,-0.1897936,0.3712437,1.526281,0.1800752,-0.2016126,1.314434,0.2513156,279.2494,161.932,90.92892,True
2,2.477778,-0.1819363,0.03815523,0.04011865,-1.333713,-4.700092,-2.332353,0.1240387,1.295705,0.3570743,-1.2447,0.5568741,3.1,36.7,-0.04709164,-0.03679772,0.1491262,-0.4812556,-2.952906,-0.6649338,0.2269647,1.474814,0.2604144,-0.08373793,-0.0477332,-0.1417099,-0.3459505,0.7720549,-0.1851912,0.3718436,1.526483,0.1802127,-0.2020339,1.313528,0.2510779,279.2168,163.9195,88.84787,True
2,2.488889,-0.19157,0.0562425,0.03999764,-1.334883,-4.700657,-2.329736,0.1241312,1.296296,0.3569481,-1.238318,0.574376,3.1,36.7,-0.05142012,-0.07411905,0.1563613,-0.4783655,-2.95376,-0.6634773,0.2274166,1.475181,0.2603917,-0.0836991,-0.03492602,-0.1374696,-0.3473098,0.772061,-0.1843981,0.3724471,1.526672,0.1804357,-0.2024669,1.312624,0.2508027,279.1566,165.8793,86.75721,True
2,2.5,-0.2076286,0.09463442,0.05146047,-1.337255,-4.701543,-2.326674,0.1240908,1.296839,0.3568752,-1.230814,0.676827,3.1,36.7,-0.06663534,-0.1091055,0.1402837,-0.4761167,-2.956644,-0.6596456,0.2277862,1.475669,0.2604191,-0.09324946,-0.03280521,-0.1352471,-0.3487042,0.7703902,-0.1817251,0.3730867,1.526788,0.1805167,-0.2029076,1.311734,0.2506102,279.0673,167.635,84.84966,True
2,2.511111,-0.2097633,0.09353139,0.04721142,-1.338228,-4.701915,-2.324171,0.1240643,1.297477,0.3567283,-1.224076,0.6059919,3.1,36.7,-0.07194106,-0.1176424,0.144541,-0.4736991,-2.957085,-0.6584051,0.2282092,1.476126,0.2603574,-0.09730311,-0.0423533,-0.1160095,-0.3492203,0.7682931,-0.1784757,0.3734683,1.526922,0.1804903,-0.2034196,1.310935,0.2506545,278.9362,169.4597,82.90802,True
2,2.522222,-0.2097633,0.09353139,0.04721142,-1.338228,-4.701915,-2.324171,0.1240643,1.297477,0.3567283,-1.217283,0.6117182,3.1,36.7,-0.07194106,-0.1176424,0.144541,-0.4736991,-2.957085,-0.6584051,0.2282092,1.476126,0.2603574,-0.09730311,-0.0423533,-0.1160095,-0.3492203,0.7682931,-0.1784757,0.3734683,1.526922,0.1804903,-0.2040274,1.310289,0.2509478,278.8238,171.3773,80.9901,True
2,2.533333,-0.1936497,0.01869348,0.004049469,-1.33628,-4.701783,-2.320514,0.1237262,1.299011,0.3566957,-1.213693,0.3188672,4.4,36.4,-0.002400577,-0.09782004,0.1652741,-0.4692351,-2.953922,-0.6632369,0.2286907,1.476847,0.2601366,-0.1139771,-0.05509987,-0.0827933,-0.3499047,0.7629509,-0.170694,0.3742593,1.527266,0.1802864,-0.2046987,1.309807,0.2514692,278.7002,172.7434,79.74475,True
2,2.544444,-0.2115522,-0.07418555,-0.01655754,-1.332775,-4.699658,-2.318076,0.1235037,1.299701,0.3566854,-1.203469,0.927995,4.4,36.4,-0.01070286,-0.06161419,0.1730749,-0.4679872,-2.949944,-0.6663573,0.2288717,1.477066,0.2599716,-0.1138198,-0.02737005,-0.06472902,-0.3501705,0.7650509,-0.1714144,0.3745292,1.527357,0.1801994,-0.2052633,1.30923,0.2521541,278.6246,173.2742,79.39673,True
2,2.555555,-0.2306076,-0.128668,-0.03000576,-1.329634,-4.698061,-2.315211,0.1235883,1.300316,0.3567705,-1.198961,0.399822,4.4,36.4,-0.03849531,-0.04114715,0.1564601,-0.4672047,-2.94793,-0.6667985,0.229019,1.477175,0.2597926,-0.1075653,-0.03484413,-0.0786313,-0.3513578,0.7626918,-0.1682412,0.3748314,1.52744,0.180289,-0.2061141,1.308855,0.2528566,278.5567,176.0015,76.89285,True
2,2.566666,-0.262449,-0.1810478,-0.04342991,-1.326326,-4.696181,-2.311701,0.1234975,1.300871,0.3567107,-1.19205,0.624742,4.4,36.4,-0.04923768,-0.02929613,0.1438652,-0.4663568,-2.946497,-0.6670843,0.2292926,1.477337,0.2596991,-0.1013331,-0.04657508,-0.09464524,-0.3527277,0.7594926,-0.1643104,0.3750937,1.527471,0.1802752,-0.2068901,1.308534,0.2534552,278.6565,177.4808,75.68826,True
2,2.577777,-0.2773765,-0.1822361,-0.05511948,-1.324076,-4.69552,-2.308248,0.1233584,1.301376,0.3566577,-1.185496,0.5896693,7.6,42.2,-0.04820111,0.01130934,0.1260336,-0.4667552,-2.942819,-0.6698686,0.2294467,1.477375,0.2595227,-0.1001355,-0.02417706,-0.07978139,-0.3531895,0.760785,-0.1644696,0.3752277,1.527418,0.1803622,-0.2074236,1.308108,0.2537814,278.8124,178.1601,75.2255,True
2,2.588888,-0.2838081,-0.1598764,-0.05104974,-1.322629,-4.695392,-2.305164,0.1231237,1.301731,0.3563244,-1.1787,0.612398,7.6,42.2,-0.04036151,0.04839181,0.149654,-0.4658572,-2.936259,-0.6756317,0.2297783,1.47748,0.2593999,-0.08577806,0.01427947,-0.02779878,-0.3519469,0.7662459,-0.1691352,0.3754611,1.527276,0.1803515,-0.2076853,1.307535,0.2537768,278.9672,178.7968,74.65759,True
2,2.599999,-0.2871556,-0.08942977,-0.03131641,-1.324058,-4.696199,-2.301661,0.1229175,1.302115,0.3561528,-1.173114,0.5018001,7.6,42.2,-0.03482268,0.07492232,0.1604435,-0.46516,-2.930189,-0.6809223,0.2300665,1.477525,0.2593298,-0.05140663,0.02713378,-0.001564429,-0.3514696,0.7677156,-0.1713875,0.3756806,1.52728,0.180429,-0.2079313,1.306904,0.2534054,279.1341,179.761,73.63026,True
2,2.61111,-0.279957,0.02689895,-0.004476996,-1.327894,-4.698522,-2.298354,0.1228287,1.302543,0.3559589,-1.167918,0.467206,7.6,42.2,-0.04006628,0.07381539,0.1690126,-0.4639637,-2.926054,-0.6839842,0.2303759,1.477774,0.2591934,-0.03655445,0.01968712,-0.008098532,-0.3517684,0.7677449,-0.1715198,0.3760133,1.527269,0.1804409,-0.2083146,1.306314,0.2527751,279.2973,180.784,72.42311,True
2,2.622221,-0.2727595,0.1453856,0.0255448,-1.332825,-4.701307,-2.294956,0.122798,1.30291,0.3556845,-1.162119,0.522486,7.6,42.2,-0.03360676,0.04917122,0.1847536,-0.4616723,-2.92304,-0.6865062,0.2306449,1.478113,0.2592337,-0.03134628,0.004756473,-0.02091157,-0.3522787,0.7662321,-0.1699177,0.3763552,1.527266,0.1804855,-0.2088763,1.305808,0.2520417,279.4017,181.7385,71.21623,True
2,2.633332,-0.2696635,0.1966891,0.04753929,-1.33667,-4.703049,-2.291686,0.1227508,1.303266,0.3554287,-1.156931,0.4659987,11,46.6,-0.02114442,-0.02435555,0.1808989,-0.4585868,-2.925298,-0.6846713,0.2309788,1.478502,0.2592714,-0.03261782,-0.009128856,-0.04325741,-0.3535879,0.7640664,-0.1675554,0.3764713,1.527407,0.1803637,-0.2095871,1.305472,0.2514473,279.3657,183.1355,69.50401,True
2,2.644443,-0.2728432,0.1924649,0.05396444,-1.338378,-4.703591,-2.288395,0.1227128,1.303655,0.3551416,-1.151205,0.5156677,11,46.6,-0.03779379,-0.1242346,0.1526507,-0.4551332,-2.932466,-0.6772983,0.2311381,1.478774,0.2592642,-0.03084865,-0.03048547,-0.07838885,-0.3553163,0.7606248,-0.1638289,0.3766206,1.527494,0.1803398,-0.2103549,1.305374,0.2512427,279.1962,184.7059,67.6918,True
2,2.655554,-0.2770542,0.1722063,0.05305228,-1.339632,-4.703951,-2.285165,0.1226644,1.304061,0.3548527,-1.145232,0.5378054,11,46.6,-0.06187047,-0.1909904,0.1151315,-0.4524396,-2.940347,-0.6687152,0.2313199,1.479006,0.2592406,-0.03737601,-0.04969335,-0.0932021,-0.3566308,0.7565273,-0.159387,0.3767442,1.527548,0.18028,-0.2110929,1.3055,0.2515468,278.9454,185.9822,66.39821,True
2,2.666665,-0.2790945,0.125198,0.03528532,-1.339255,-4.703941,-2.282007,0.1224763,1.30451,0.3545108,-1.139056,0.5561525,11,46.6,-0.07606903,-0.2323469,0.09579939,-0.4497967,-2.946599,-0.661811,0.2312289,1.479081,0.2591758,-0.04040221,-0.04967508,-0.07611,-0.3564859,0.7549458,-0.1572634,0.3767026,1.527744,0.1799459,-0.2117212,1.305741,0.2522656,278.7053,186.6355,65.99941,True
2,2.677776,-0.2790945,0.125198,0.03528532,-1.339255,-4.703941,-2.282007,0.1224763,1.30451,0.3545108,-1.133187,0.5279955,11,46.6,-0.07606903,-0.2323469,0.09579939,-0.4497967,-2.946599,-0.661811,0.2312289,1.479081,0.2591758,-0.04040221,-0.04967508,-0.07611,-0.3564859,0.7549458,-0.1572634,0.3767026,1.527744,0.1799459,-0.2122187,1.305973,0.2531621,278.5387,186.8881,66.16318,True
2,2.688887,-0.2918097,0.08017519,0.001537859,-1.338982,-4.704926,-2.27505,0.1218421,1.305103,0.3538039,-1.130378,0.2483687,11.1,47.7,-0.07193808,-0.1724578,0.06103222,-0.4480651,-2.950014,-0.6574128,0.231082,1.478914,0.2584651,-0.05143464,0.0026327,-0.003629591,-0.3545653,0.7597138,-0.1600517,0.3763478,1.527403,0.179667,-0.212603,1.306084,0.2540352,278.4244,186.811,66.63153,True
2,2.699998,-0.3057078,0.09715319,-0.002828039,-1.340124,-4.706165,-2.270895,0.1215061,1.305337,0.3534696,-1.118431,1.086266,11.1,47.7,-0.07589326,-0.1074987,0.06686406,-0.4479357,-2.946792,-0.6593356,0.2309232,1.478807,0.258075,-0.0532505,0.03251681,0.02936296,-0.3533237,0.7644507,-0.1638393,0.3762247,1.527279,0.1795688,-0.212909,1.305801,0.2547818,278.3336,185.9707,67.77583,True
2,2.711109,-0.3335634,0.1545852,-0.006407663,-1.342829,-4.708801,-2.265542,0.1210386,1.305459,0.3530869,-1.114694,0.3282871,11.1,47.7,-0.06653565,0.01578694,0.1028037,-0.4487607,-2.935369,-0.6691666,0.2309296,1.478506,0.257647,-0.05276287,0.05391008,0.07725763,-0.351141,0.7695373,-0.1681621,0.3761279,1.526775,0.1794703,-0.213784,1.305426,0.2551563,278.3499,188.0069,66.0182,True
2,2.72222,-0.3421256,0.1759465,0.004101768,-1.345112,-4.710246,-2.261108,0.1205684,1.305712,0.352757,-1.108965,0.5177094,11.1,47.7,-0.02820513,0.1420236,0.1576435,-0.4495581,-2.919774,-0.684233,0.2309082,1.478205,0.2573009,-0.03575798,0.07308757,0.07382756,-0.351101,0.7732403,-0.1720871,0.376196,1.526584,0.1795638,-0.2148659,1.305018,0.2552128,278.418,189.9438,64.16655,True
2,2.733331,-0.3495671,0.1824896,0.02750138,-1.347554,-4.710858,-2.256866,0.1199752,1.306023,0.3524613,-1.102265,0.6041614,12.2,43.3,-0.008763634,0.2026477,0.1610755,-0.4507906,-2.909417,-0.6941268,0.2310154,1.478168,0.2569904,-0.03289903,0.07516536,0.04183328,-0.3518536,0.7756158,-0.1740605,0.3762268,1.526409,0.1795907,-0.2159942,1.304621,0.2550887,278.4261,191.6855,62.34914,True
2,2.744442,-0.352717,0.1719296,0.04143182,-1.349355,-4.711089,-2.252821,0.1194359,1.306411,0.3521562,-1.097022,0.4702971,12.2,43.3,-0.03859145,0.1675073,0.1749776,-0.4493232,-2.905509,-0.6960779,0.2310973,1.478127,0.2568288,-0.03225635,0.05377655,-0.0007680841,-0.3534739,0.7739172,-0.1721028,0.3762606,1.526315,0.1796932,-0.2171963,1.304363,0.2549472,278.3758,193.4778,60.43649,True
2,2.755553,-0.3472309,0.1123271,0.04718497,-1.349131,-4.709898,-2.249486,0.1187999,1.306943,0.3518167,-1.091284,0.5168507,12.2,43.3,-0.07091129,0.05999941,0.179868,-0.4458835,-2.907181,-0.6927665,0.2311273,1.478149,0.2567732,-0.02268121,0.03354032,-0.004028888,-0.3536119,0.7729392,-0.1712482,0.3762054,1.526178,0.1796162,-0.2183304,1.304277,0.2548538,278.3079,194.9348,58.93448,True
2,2.766664,-0.3374914,0.05053511,0.04336,-1.347971,-4.708479,-2.246486,0.1181831,1.307453,0.3514829,-1.085529,0.5177808,12.2,43.3,-0.07015515,-0.002809517,0.1730199,-0.4432352,-2.908464,-0.6908594,0.2311216,1.478158,0.2567215,-0.02781398,0.02822258,0.01414367,-0.3527373,0.7732338,-0.1710271,0.3758955,1.526008,0.1790993,-0.2193737,1.304357,0.2547833,278.2117,196.0363,57.87675,True
2,2.777775,-0.3289076,0.02820948,0.04670691,-1.347984,-4.707633,-2.243331,0.1176611,1.307914,0.3511102,-1.080027,0.4947723,11.9,46.8,-0.04835801,-0.05483413,0.136203,-0.4415255,-2.91249,-0.6874245,0.2310638,1.478267,0.2567434,-0.02421627,0.03788358,0.0535071,-0.3509269,0.7763461,-0.1738077,0.3756351,1.525864,0.1789398,-0.2202914,1.30455,0.2546699,278.1319,196.6352,57.39064,True
2,2.788886,-0.3257662,0.05708935,0.06033493,-1.350009,-4.708099,-2.239698,0.1175701,1.308381,0.3507326,-1.074392,0.5070387,11.9,46.8,-0.01873639,-0.07190207,0.1229905,-0.4400208,-2.91377,-0.6870335,0.2309063,1.478327,0.2567089,-0.00995449,0.06033368,0.0948616,-0.3488762,0.7812287,-0.178766,0.3752179,1.525598,0.1783972,-0.2210939,1.304745,0.2543939,278.1263,196.487,57.66703,True
2,2.799997,-0.3119726,0.09030269,0.08138094,-1.352678,-4.708151,-2.236691,0.1172635,1.30884,0.3503025,-1.068386,0.5407521,11.9,46.8,0.001729846,-0.05291076,0.1378321,-0.4384596,-2.910747,-0.6905795,0.2309788,1.478491,0.2566745,0.01165997,0.06253965,0.1244616,-0.346636,0.7847858,-0.1829932,0.3750526,1.525414,0.178256,-0.2218016,1.304825,0.2539091,278.1645,196.0443,58.13736,True
2,2.811108,-0.2982196,0.1481335,0.118228,-1.357171,-4.708425,-2.233792,0.117148,1.309253,0.349844,-1.062176,0.5591585,11.9,46.8,-0.02960958,0.04291466,0.1622714,-0.4391174,-2.899327,-0.6996369,0.2312286,1.478797,0.256706,0.09417364,-0.006732419,0.06193331,-0.347468,0.7773833,-0.1799013,0.3750677,1.525278,0.1782157,-0.2224157,1.30475,0.2532884,278.1647,196.3747,57.69217,True
2,2.822219,-0.2918721,0.1770669,0.1393153,-1.360949,-4.708473,-2.23079,0.1170083,1.309573,0.3493981,-1.056667,0.4949463,11.9,46.8,-0.05356141,0.08214742,0.2011471,-0.4379179,-2.889375,-0.7071276,0.2315381,1.479222,0.2568426,0.1181607,-0.0419511,0.009548723,-0.3488581,0.771882,-0.1767721,0.3748899,1.52519,0.178129,-0.2229169,1.304579,0.2526822,278.1105,197.8308,56.06001,True
2,2.83333,-0.2918721,0.1770669,0.1393153,-1.360949,-4.708473,-2.23079,0.1170083,1.309573,0.3493981,-1.050835,0.5249934,10.9,40.6,-0.05356141,0.08214742,0.2011471,-0.4379179,-2.889375,-0.7071276,0.2315381,1.479222,0.2568426,0.1181607,-0.0419511,0.009548723,-0.3488581,0.771882,-0.1767721,0.3748899,1.52519,0.178129,-0.2234394,1.304382,0.2521582,278.0093,199.7595,54.00812,True
2,2.844441,-0.2844539,0.2297876,0.2081679,-1.370295,-4.707267,-2.224856,0.1172373,1.310028,0.3485429,-1.047527,0.2938384,10.9,40.6,-0.05710144,-0.001987591,0.1984532,-0.4329363,-2.887352,-0.7079026,0.2323372,1.480314,0.2571616,0.08605954,-0.06438343,-0.006055668,-0.3494121,0.7648977,-0.17129,0.3747406,1.524866,0.1778057,-0.2238722,1.304124,0.25177,277.8871,201.1923,52.52139,True
2,2.855552,-0.2332783,0.236619,0.2506617,-1.374995,-4.705648,-2.224216,0.1178379,1.310499,0.3480954,-1.035497,1.093248,10.9,40.6,-0.07833783,-0.007293671,0.2071545,-0.4308041,-2.883766,-0.7095851,0.2328165,1.48073,0.2573705,0.1302169,-0.08982753,0.03720853,-0.3473103,0.7608303,-0.1702399,0.3746029,1.524696,0.1775339,-0.224076,1.303549,0.2515916,277.7658,201.6522,52.01367,True
2,2.866663,-0.207705,0.2388765,0.2591331,-1.379043,-4.704789,-2.222875,0.1183241,1.310953,0.3475947,-1.03207,0.2998439,10.9,40.6,-0.1072382,-0.01916346,0.09444103,-0.4325954,-2.888847,-0.702789,0.2336292,1.481068,0.2575634,0.1877096,-0.1579657,0.02714272,-0.3464549,0.7497735,-0.1636816,0.3745068,1.524529,0.177319,-0.2245099,1.303081,0.2514298,277.4926,206.8562,46.97248,True
2,2.877774,-0.169349,0.2282049,0.2431788,-1.382153,-4.704398,-2.222354,0.1189891,1.31133,0.3469694,-1.028471,0.3230864,9.7,47.8,-0.1480578,-0.02518044,0.06391958,-0.4326294,-2.890433,-0.6983165,0.2343825,1.481422,0.2577665,0.2575656,-0.2187053,-0.02248383,-0.3476794,0.7353652,-0.1554876,0.3745579,1.524427,0.1771078,-0.2247795,1.302741,0.2511559,277.4053,210.9785,43.06104,True
2,2.888885,-0.1544593,0.2129957,0.1974601,-1.383847,-4.705066,-2.220884,0.1195393,1.31137,0.3463972,-1.021971,0.5872233,9.7,47.8,-0.1662636,-0.05281635,0.06497542,-0.4309953,-2.891896,-0.6945676,0.2349434,1.481844,0.2579215,0.2425225,-0.1931716,-0.03195719,-0.3480917,0.7312503,-0.1539312,0.3746371,1.524295,0.1769338,-0.2245208,1.302395,0.2507195,277.3271,213.4712,40.67743,True
2,2.899997,-0.1619404,0.2074489,0.1698122,-1.386115,-4.705597,-2.218722,0.1199281,1.31132,0.3458779,-1.016544,0.4868575,9.7,47.8,-0.1405272,-0.2157205,0.03798084,-0.4261771,-2.90788,-0.6793426,0.2352162,1.48223,0.2578852,0.1766765,-0.1484538,-0.007912058,-0.3472948,0.7313972,-0.153711,0.3746347,1.52416,0.1766818,-0.224015,1.301992,0.2501212,277.2264,215.1196,39.01461,True
2,2.911108,-0.1779096,0.198724,0.1485924,-1.388155,-4.705925,-2.216288,0.1200051,1.311334,0.3454759,-1.009623,0.6244534,9.7,47.8,-0.09218788,-0.2955463,0.001753785,-0.4232077,-2.921299,-0.6680353,0.2351786,1.482395,0.2577934,0.1224325,-0.09947972,0.006413125,-0.3469588,0.7342237,-0.1553142,0.3744963,1.524017,0.176358,-0.2234097,1.301407,0.2494366,277.127,215.6351,38.39983,True
2,2.922219,-0.1896587,0.2147003,0.1527673,-1.391841,-4.705908,-2.213852,0.1201024,1.310323,0.344842,-1.002618,0.630969,9.7,47.8,-0.03638729,-0.1625225,-0.008528456,-0.4255103,-2.916224,-0.6741465,0.2351014,1.482629,0.2577951,0.09708516,-0.0738962,0.03006954,-0.3457481,0.7352549,-0.1563838,0.3743494,1.523944,0.1760466,-0.2229965,1.300546,0.248804,277.0873,215.7656,38.09681,True
2,2.93333,-0.1673029,0.2373533,0.183466,-1.396372,-4.705515,-2.212792,0.1208175,1.310155,0.3444865,-0.9961378,0.5831755,8.1,49.4,0.01383933,0.09385911,0.01516262,-0.4308068,-2.897042,-0.6934341,0.2351807,1.482911,0.2576327,0.08865366,-0.05364501,0.04077464,-0.3448842,0.7360666,-0.1577574,0.3742284,1.523863,0.1757209,-0.2229854,1.299442,0.248325,277.1139,217.1096,36.59817,True
2,2.944441,-0.140685,0.2611203,0.2194695,-1.40145,-4.704837,-2.212229,0.1215979,1.310024,0.343842,-0.9900253,0.5499948,8.1,49.4,0.0460294,0.3128815,0.0590076,-0.4361342,-2.874156,-0.7156798,0.2355575,1.48353,0.2578876,0.1257895,-0.104776,0.02130252,-0.3448911,0.7269132,-0.151985,0.3742366,1.523769,0.1754222,-0.2233806,1.298136,0.2480309,277.1504,219.151,34.52784,True
2,2.955552,-0.08318999,0.2967398,0.2628096,-1.407751,-4.703969,-2.213507,0.1228599,1.309536,0.3431609,-0.985303,0.4231132,8.1,49.4,0.1490439,0.4842687,0.1710413,-0.4396453,-2.843888,-0.7484167,0.2361124,1.483978,0.257998,0.2155205,-0.243338,-0.07100546,-0.3477588,0.7028854,-0.1351805,0.3744854,1.523815,0.1750698,-0.2237749,1.296553,0.2478712,277.1256,222.3794,31.40677,True
2,2.966663,0.02515496,0.4389288,0.2935826,-1.417968,-4.706473,-2.217122,0.1241733,1.308688,0.3421848,-0.9797887,0.4965383,8.1,49.4,0.1230289,0.2059711,-0.08104163,-0.441224,-2.873488,-0.7222155,0.2369883,1.483803,0.2571206,0.2098191,-0.3094482,-0.1123533,-0.3494536,0.6866951,-0.1218617,0.3739986,1.523843,0.1747155,-0.2237067,1.29477,0.2477786,277.2408,227.1915,26.75273,True
2,2.977774,0.07678531,0.6692761,0.3078109,-1.432682,1.570508,-2.218797,0.1255119,1.30774,0.341507,-0.9754067,0.3921385,7.2,53.4,-0.05530866,0.08412183,-0.07689008,-0.4398168,-2.881391,-0.7083899,0.2374051,1.484181,0.2573073,0.1866458,-0.3158193,-0.08759691,-0.3492208,0.6753044,-0.1124078,0.3738918,1.523785,0.1742237,-0.2231174,1.292877,0.2476173,277.4243,232.1703,21.98755,True
2,2.988885,0.1073286,0.7981758,0.297234,-1.444513,1.564922,-2.219916,0.1263323,1.306719,0.3407204,-0.9720325,0.3008284,7.2,53.4,-0.1389609,-0.05189237,-0.08020629,-0.4372793,-2.889948,-0.6960523,0.2375872,1.484304,0.2574842,0.1685287,-0.2581174,0.02117942,-0.3447696,0.6751777,-0.1132762,0.373476,1.523774,0.1733508,-0.2219678,1.29084,0.2473228,277.4867,236.8467,17.45587,True
2,2.999996,0.1200702,0.8077026,0.2843633,-1.453534,1.561436,-2.221245,0.1269607,1.306015,0.340214,-0.9642875,0.7008569,7.2,53.4,-0.09007075,-0.2114859,-0.1361762,-0.4349613,-2.909468,-0.6789892,0.2375945,1.484503,0.257463,0.1477486,-0.2388679,0.07356329,-0.3419094,0.6702236,-0.1094905,0.3731831,1.523654,0.1730044,-0.2206798,1.288573,0.2470813,277.3761,242.2658,11.93945,True
2,3.011107,0.1565088,0.6954962,0.2254768,-1.456691,1.5598,-2.224109,0.126854,1.305521,0.339226,-0.956821,0.6718797,7.2,53.4,0.0344853,-0.2898869,-0.1156403,-0.4317991,-2.921786,-0.6730455,0.2373183,1.484471,0.2573152,0.1255337,-0.1802584,0.09607285,-0.3400383,0.6705427,-0.1101609,0.372896,1.523546,0.1727045,-0.2198429,1.286126,0.2472663,277.3702,249.3261,4.677522,True
2,3.022218,0.1652487,0.5951566,0.1963646,-1.459954,1.558837,-2.226025,0.1271829,1.30495,0.3382056,-0.9502244,0.5933126,7.2,53.4,0.106401,-0.09827022,-0.1331075,-0.4370146,-2.912637,-0.6847147,0.2373247,1.484291,0.257545,0.1218432,-0.1302707,0.05340554,-0.3410593,0.6714578,-0.1122496,0.3727654,1.523465,0.1725345,-0.2197294,1.283531,0.2479891,277.6064,255.3273,358.7245,True
2,3.033329,0.1591924,0.4457468,0.1623066,-1.46022,1.559395,-2.22766,0.1273745,1.304679,0.3377063,-0.945174,0.4527018,5,60.2,0.1364427,0.09727082,-0.08194903,-0.4414072,-2.897357,-0.7011096,0.2372273,1.484118,0.2573926,0.09374805,-0.05791113,0.02479976,-0.3422162,0.676972,-0.117222,0.3728673,1.523074,0.1721663,-0.2201689,1.28081,0.2490945,278.021,259.3694,355.1059,True
2,3.04444,0.1582997,0.3721175,0.1468756,-1.462627,1.559334,-2.229407,0.127923,1.304227,0.3373351,-0.9378332,0.6629273,5,60.2,0.1160721,0.1540447,-0.1154291,-0.4453194,-2.89512,-0.7035723,0.2372914,1.483852,0.2572145,0.08368488,-0.07077736,-0.01980473,-0.3435254,0.6728625,-0.113677,0.372806,1.522965,0.1718264,-0.2209038,1.277853,0.2502088,278.4274,261.3692,353.801,True
2,3.055551,0.1466179,0.3452851,0.1236499,-1.465206,1.558009,-2.230505,0.128473,1.303706,0.3368318,-0.9307562,0.6369146,5,60.2,0.04286984,0.1487826,-0.08382322,-0.4461679,-2.89278,-0.7038351,0.2374145,1.483948,0.2569458,0.09750351,-0.09740633,-0.02522637,-0.3437811,0.6667612,-0.1094977,0.3726327,1.522895,0.171586,-0.2213881,1.274609,0.2510412,278.9279,263.0956,352.6965,True
2,3.066662,0.1102602,0.3801343,0.09361254,-1.469791,1.554404,-2.229952,0.1290666,1.303055,0.3364644,-0.9243656,0.5745849,5,60.2,-0.009193152,0.09656097,-0.05063035,-0.4451325,-2.893331,-0.7015001,0.2373996,1.483851,0.2568853,0.09334342,-0.07500976,-0.01135065,-0.3429661,0.6670104,-0.1103388,0.3723124,1.522626,0.171262,-0.2214838,1.271161,0.2514258,279.5633,264.0407,352.0715,True
2,3.077773,0.08140979,0.4087532,0.083856,-1.474537,1.551464,-2.22954,0.1292267,1.302583,0.3361523,-0.9173189,0.6350107,5,60.2,-0.04492399,-0.003309503,-0.06908651,-0.443917,-2.901562,-0.6922834,0.2372577,1.483734,0.2567613,0.05359448,-0.03549565,0.062501,-0.3398875,0.6711182,-0.1134235,0.3719461,1.522451,0.1709464,-0.2211473,1.267641,0.2514011,280.2369,265.1392,351.0116,True
2,3.088884,0.09102096,0.3938391,0.07968345,-1.47815,1.549649,-2.230632,0.1292485,1.302206,0.336122,-0.9092991,0.7233985,2.5,55.5,-0.01620516,-0.03435756,-0.06214437,-0.4436347,-2.904781,-0.6903979,0.2369379,1.483575,0.2565956,0.02639383,-0.0215726,0.1128409,-0.3367684,0.673269,-0.1145575,0.3716372,1.522344,0.1706038,-0.22069,1.264202,0.2511329,280.9003,266.2071,349.7853,True
2,3.099995,0.09002544,0.3585739,0.06502725,-1.480459,1.548128,-2.231456,0.1291424,1.301889,0.3358452,-0.9025826,0.6034462,2.5,55.5,0.02339689,-0.02823141,-0.04652501,-0.4435463,-2.904946,-0.6918727,0.2366542,1.483418,0.2564394,0.02194132,-0.01947995,0.09477246,-0.3363594,0.6729681,-0.1143591,0.3714329,1.522287,0.1703694,-0.2204778,1.261066,0.2509258,281.5813,267.4536,348.2708,True
2,3.111106,0.08805592,0.2827418,0.03894451,-1.480486,1.547442,-2.23242,0.1287621,1.30159,0.3354597,-0.8971955,0.4829195,2.5,55.5,0.05634444,-0.02402179,-0.05641887,-0.4443937,-2.905851,-0.6930408,0.2363131,1.483055,0.2561114,0.01854941,-0.01418684,0.07668587,-0.3363743,0.672916,-0.1145181,0.3713204,1.522195,0.1701326,-0.2206995,1.258384,0.2509553,282.1808,268.64,346.9131,True
2,3.122217,0.06797183,0.2025453,0.005469359,-1.479543,1.546905,-2.232423,0.1283545,1.301469,0.3355024,-0.8900311,0.6461348,2.5,55.5,0.05461729,0.0248495,-0.0358084,-0.4454563,-2.901966,-0.6969727,0.2359177,1.482771,0.2557778,-0.02129954,0.003818318,0.03766222,-0.337153,0.6747642,-0.1146789,0.3714524,1.52219,0.1698916,-0.2211344,1.25607,0.2512628,282.5438,269.519,346.0448,True
2,3.133328,0.04363843,0.1202801,-0.01733823,-1.477786,1.547024,-2.231959,0.127871,1.301252,0.3349822,-0.8828517,0.6459094,3.4,71,0.07549845,0.06598429,0.01114685,-0.4455405,-2.895498,-0.7043475,0.2354674,1.482415,0.2555149,-0.0393117,0.03045545,0.04951984,-0.3363498,0.6787414,-0.1173964,0.3712806,1.522066,0.1696584,-0.2216842,1.253946,0.2517622,282.7297,270.155,345.6233,True
2,3.144439,0.04363843,0.1202801,-0.01733823,-1.477786,1.547024,-2.231959,0.127871,1.301252,0.3349822,-0.874588,0.7451307,3.4,71,0.07549845,0.06598429,0.01114685,-0.4455405,-2.895498,-0.7043475,0.2354674,1.482415,0.2555149,-0.0393117,0.03045545,0.04951984,-0.3363498,0.6787414,-0.1173964,0.3712806,1.522066,0.1696584,-0.2223064,1.251809,0.2523293,282.8436,270.2432,345.7834,True
2,3.15555,0.01505703,0.03372565,-0.04330477,-1.475487,1.546733,-2.231361,0.126953,1.300889,0.3342814,-0.8670965,0.6736711,3.4,71,0.0659707,0.138613,-0.01061483,-0.449426,-2.888695,-0.7118899,0.234845,1.481683,0.2550228,-0.01561503,0.02627613,0.0748454,-0.3342123,0.6820371,-0.1205451,0.3708084,1.521577,0.1691761,-0.2228459,1.249572,0.2529416,283.0995,270.1188,346.0427,True
2,3.166661,0.01717887,0.03583518,-0.0465153,-1.475699,1.545908,-2.231647,0.1265649,1.30052,0.3338256,-0.8587794,0.7496259,3.4,71,0.06298373,0.1310125,0.01173927,-0.4494947,-2.885232,-0.7157043,0.2345346,1.481492,0.2547619,-0.007127322,0.008173365,0.07053651,-0.3334347,0.680765,-0.1194971,0.3705932,1.521477,0.1690788,-0.2232616,1.247208,0.253496,283.3983,270.3015,346.1317,True
2,3.177772,0.02458946,0.05395628,-0.04879211,-1.476396,1.544513,-2.232084,0.1262846,1.300566,0.3341081,-0.8516757,0.6378841,3.4,71,0.05532963,0.08631536,0.009369679,-0.4490825,-2.886209,-0.7151927,0.2342879,1.481382,0.2544746,-0.0210237,-0.01102715,0.06432596,-0.33286,0.6783669,-0.1165229,0.3704612,1.521372,0.1688895,-0.2239993,1.244641,0.2537637,283.7058,270.1364,346.6447,True
2,3.188883,-0.009638098,0.106044,-0.05232093,-1.478206,1.542211,-2.230907,0.1262627,1.30065,0.3339584,-0.8444713,0.6480143,3.5,77.9,0.04231192,0.04807497,0.0007019285,-0.4488044,-2.888511,-0.7131886,0.2340077,1.481349,0.2542133,-0.04219549,-0.006750472,0.07840115,-0.3313814,0.6797777,-0.1164267,0.3700806,1.521431,0.1686168,-0.2247257,1.241906,0.2538051,284.1414,269.8499,346.9977,True
2,3.199994,-0.09065632,0.1195307,-0.07360627,-1.478743,1.540069,-2.227266,0.1260827,1.300619,0.3338699,-0.8366646,0.7027267,3.5,77.9,0.02236381,0.0223147,0.03907665,-0.4469173,-2.887101,-0.7139527,0.233842,1.481392,0.2538359,-0.03369426,0.01457312,0.07827213,-0.330656,0.6834641,-0.1198364,0.3698505,1.521423,0.1683395,-0.2252762,1.239009,0.2537361,284.6467,269.9325,346.7913,True
2,3.211105,-0.1363651,0.0605522,-0.110399,-1.476356,1.538841,-2.224007,0.1257993,1.300923,0.3338351,-0.8268268,0.8876897,3.5,77.9,0.02601995,0.04761776,0.07436754,-0.4464289,-2.881283,-0.7196181,0.2336375,1.481331,0.2534013,-0.02326206,0.01134706,0.05686174,-0.3307065,0.6834566,-0.1199482,0.369725,1.521445,0.1681297,-0.2255942,1.236026,0.2537963,285.2665,270.1293,346.349,True
2,3.222216,-0.09568428,-0.02042496,-0.1247685,-1.47281,1.539448,-2.224798,0.1251635,1.301069,0.3336313,-0.8157678,0.9977506,3.5,77.9,0.03897333,0.06347375,0.08499308,-0.4464859,-2.877434,-0.7239867,0.2333646,1.481131,0.253089,-0.03628352,0.007026061,0.03570797,-0.3308514,0.6827253,-0.1180824,0.3696167,1.521344,0.1680067,-0.2258025,1.233101,0.2541148,285.9577,270.4797,345.9052,True
2,3.233327,-0.02824059,-0.1642664,-0.1515087,-1.465826,1.541547,-2.227073,0.1245261,1.301386,0.3337076,-0.8073825,0.7525226,3.5,77.9,0.04654876,0.09647571,0.08408462,-0.4472758,-2.872096,-0.7295834,0.2330486,1.480974,0.2527215,-0.05445432,0.00167042,0.0295161,-0.3307422,0.6822429,-0.1163567,0.3695383,1.521341,0.1677415,-0.2261856,1.230442,0.2547145,286.6731,270.4834,345.983,True
2,3.244438,-0.03232428,-0.2400113,-0.1647972,-1.460479,1.542893,-2.226719,0.1239843,1.301874,0.3342211,-0.8026581,0.4198628,3,92.9,0.05290993,0.1050185,0.07768217,-0.4478398,-2.868937,-0.7332218,0.2326606,1.480762,0.2524292,-0.05317562,0.004918374,0.04973241,-0.3295294,0.6837681,-0.1173913,0.3693172,1.521273,0.1673579,-0.2267618,1.228194,0.2555185,287.2418,269.9138,346.781,True
2,3.255549,-0.04702881,-0.3242365,-0.1684223,-1.453864,1.545453,-2.225908,0.1234939,1.302269,0.3343089,-0.7951896,0.6728903,3,92.9,0.06458547,0.1359794,0.06180213,-0.4494968,-2.86438,-0.7384757,0.2323309,1.480557,0.2520766,-0.04884271,0.01132826,0.05713241,-0.3285803,0.685525,-0.1186539,0.3690787,1.521204,0.1670909,-0.2273338,1.22612,0.256342,287.3839,269.0713,347.9415,True
2,3.26666,-0.05232232,-0.3391896,-0.1714977,-1.4496,1.546358,-2.225107,0.1230703,1.302587,0.3343282,-0.7831041,1.09226,3,92.9,0.04558639,0.171184,0.06543997,-0.4509776,-2.857799,-0.7442872,0.2320473,1.480458,0.2517006,-0.03813888,0.000697799,0.06130014,-0.3278266,0.6847532,-0.1178403,0.3688465,1.521031,0.1667359,-0.2276772,1.223794,0.2570723,287.3572,267.8503,349.3147,True
2,3.277771,-0.072647,-0.3105337,-0.1791368,-1.446342,1.545988,-2.223535,0.1228826,1.302806,0.3343298,-0.7724302,0.9598082,3,92.9,0.03405847,0.1668243,0.08577271,-0.4508236,-2.852398,-0.7490764,0.2318567,1.480368,0.2514541,-0.02237737,-0.01743964,0.03879686,-0.3280317,0.682003,-0.1155716,0.368711,1.520969,0.1666038,-0.2279045,1.221082,0.2577458,287.6159,266.9195,350.256,True
2,3.288882,-0.1538325,-0.2254982,-0.1764463,-1.445843,1.544102,-2.218577,0.1227441,1.302619,0.3339396,-0.76261,0.8830249,4.8,99.9,0.04471551,0.1411412,0.0961353,-0.4502207,-2.848969,-0.7530003,0.2317164,1.480241,0.2513311,-0.02248031,-0.004666384,0.03026027,-0.3279566,0.6835498,-0.1167405,0.3686002,1.5209,0.1664741,-0.2280638,1.217995,0.2582853,288.1437,266.1028,351.1465,True
2,3.299993,-0.1538325,-0.2254982,-0.1764463,-1.445843,1.544102,-2.218577,0.1227441,1.302619,0.3339396,-0.7518455,0.9698169,4.8,99.9,0.04471551,0.1411412,0.0961353,-0.4502207,-2.848969,-0.7530003,0.2317164,1.480241,0.2513311,-0.02248031,-0.004666384,0.03026027,-0.3279566,0.6835498,-0.1167405,0.3686002,1.5209,0.1664741,-0.2281778,1.214634,0.2587192,288.8391,265.6416,351.6501,True
2,3.311104,-0.09099754,-0.196265,-0.1341321,-1.442086,1.544745,-2.218167,0.1219364,1.30286,0.3338807,-0.7428669,0.8055522,4.8,99.9,0.02141168,0.02545398,0.04867914,-0.448798,-2.853912,-0.748573,0.2314456,1.480032,0.2509651,-0.02673642,0.003866255,0.03028376,-0.3273382,0.6856535,-0.1181083,0.3683757,1.520743,0.1660397,-0.2281657,1.211146,0.2591392,289.6169,265.572,351.714,True
2,3.322215,-0.09307958,-0.2133081,-0.1318712,-1.43874,1.545589,-2.217275,0.1215533,1.303022,0.3336055,-0.7260928,1.519484,4.8,99.9,0.01608615,0.008392245,0.05501045,-0.4479309,-2.852656,-0.7497329,0.2312967,1.479973,0.2507498,-0.01705236,0.01668365,0.03973859,-0.3267571,0.688141,-0.1207784,0.3682308,1.52064,0.1658213,-0.228075,1.207559,0.2595617,290.2571,265.872,351.4872,True
2,3.333326,-0.09726287,-0.2366614,-0.1189107,-1.435464,1.546966,-2.216229,0.121214,1.303345,0.3335986,-0.7218817,0.364474,4.8,99.9,0.0265694,-0.009690341,0.04518677,-0.4472928,-2.853708,-0.749445,0.2311585,1.479877,0.2505291,-0.03302377,0.02093202,0.04096357,-0.3263283,0.6895356,-0.1211672,0.3681906,1.520552,0.1656759,-0.2284766,1.204096,0.2599932,291.143,265.9581,351.512,True
2,3.344437,-0.1036155,-0.2483567,-0.1134887,-1.432298,1.547953,-2.214899,0.1208397,1.303824,0.3338842,-0.7093266,1.137607,5.6,99.9,0.03426174,0.02430924,0.05493777,-0.4477477,-2.849385,-0.7540927,0.2310121,1.479798,0.2502401,-0.03091503,0.01880258,0.03773655,-0.3262436,0.6901216,-0.1215573,0.3681911,1.520503,0.1655571,-0.2287586,1.201819,0.2603425,291.3349,266.7783,350.6847,True
2,3.355548,-0.1163333,-0.2750368,-0.1154066,-1.428228,1.549319,-2.213336,0.1205168,1.304193,0.3338635,-0.6970579,1.103311,5.6,99.9,0.04107227,0.08381099,0.07340137,-0.448814,-2.841684,-0.7617472,0.2309518,1.479772,0.2500331,-0.02809916,-0.005770346,-0.0005984465,-0.3274,0.6869169,-0.1183064,0.3681451,1.520513,0.165468,-0.2285563,1.200894,0.2606029,291.0999,267.4425,349.9519,True
2,3.366659,-0.121611,-0.2963808,-0.1194991,-1.424234,1.550492,-2.211957,0.120093,1.304689,0.3342752,-0.6847232,1.110205,5.6,99.9,0.0165263,0.04655609,0.08297679,-0.4474185,-2.840771,-0.761982,0.2307525,1.479706,0.2497754,-0.03246307,-0.01005431,-0.01118988,-0.3277467,0.68603,-0.1170302,0.3678784,1.520602,0.1653936,-0.2282131,1.20037,0.2607908,290.7224,267.489,349.7783,True
2,3.37777,-0.1364451,-0.3262414,-0.1192583,-1.419817,1.552167,-2.210228,0.1196676,1.305215,0.3347726,-0.6721153,1.134979,5.6,99.9,0.001558073,0.02850013,0.08406724,-0.446577,-2.839712,-0.7625546,0.2305948,1.479695,0.2495887,-0.04093299,0.005929537,-0.004739617,-0.3276663,0.6879873,-0.1181309,0.3676735,1.520608,0.165334,-0.2279031,1.199943,0.2610506,290.3629,267.5836,349.5141,True
2,3.388881,-0.1522937,-0.3741803,-0.1135588,-1.414521,1.554771,-2.208371,0.1190902,1.305605,0.3347909,-0.65978,1.109651,5.8,99.9,0.01228072,0.02413762,0.09244982,-0.4457024,-2.837384,-0.7651296,0.2303306,1.479567,0.2494121,-0.04058575,0.03902342,0.03141689,-0.3261605,0.6937018,-0.1230684,0.3674864,1.520426,0.1652524,-0.2276411,1.199482,0.2613895,290.042,267.9739,348.9453,True
2,3.399992,-0.155393,-0.4039183,-0.09949216,-1.409687,1.557476,-2.207003,0.1185149,1.306006,0.3347058,-0.6465495,1.191499,5.8,99.9,0.02176596,0.0530175,0.07125359,-0.4467474,-2.834399,-0.7684724,0.2301548,1.479352,0.249299,-0.02454075,0.04757447,0.03869153,-0.3255368,0.6964757,-0.1259172,0.3672078,1.520425,0.1652887,-0.2274565,1.198977,0.2618161,289.7041,268.7509,347.8741,True
2,3.411103,-0.1660123,-0.4026853,-0.07285352,-1.406119,1.560195,-2.205266,0.1179434,1.306368,0.3346889,-0.6331218,1.208587,5.8,99.9,0.0263101,0.09446328,0.08321995,-0.4475341,-2.828144,-0.774562,0.2299615,1.479208,0.2491829,-0.008649785,0.04970479,0.02999084,-0.3257217,0.6982897,-0.1281372,0.3670831,1.520323,0.1651769,-0.2272654,1.198437,0.2623535,289.432,269.6435,346.7321,True
2,3.422215,-0.1734887,-0.386592,-0.05592641,-1.403111,1.562102,-2.20341,0.1174825,1.306778,0.3348305,-0.6202023,1.161863,5.8,99.9,0.02963865,0.1050495,0.09179093,-0.4475969,-2.82302,-0.7796292,0.2299564,1.479056,0.2491302,0.004001293,0.04861909,0.01707384,-0.3260881,0.6993469,-0.1296286,0.3670309,1.520281,0.1650701,-0.2270576,1.197848,0.2627644,289.1785,270.7159,345.5252,True
2,3.433326,-0.1853119,-0.3310252,-0.02861881,-1.402076,1.563675,-2.201211,0.1169483,1.307041,0.3346953,-0.6062889,1.252996,5.8,99.9,0.02180697,0.03483885,0.08178565,-0.4457823,-2.825476,-0.7774169,0.2299063,1.478945,0.2490864,-0.004594855,0.05605584,0.0107576,-0.3262734,0.7020076,-0.1318001,0.3670164,1.520177,0.1650968,-0.2267983,1.197246,0.2630059,288.8848,271.477,344.6842,True
2,3.444437,-0.1918462,-0.2710998,-0.00670211,-1.402498,1.563062,-2.198555,0.1167613,1.309005,0.3395202,-0.5924756,1.242956,7.3,99.9,-0.002942964,-0.03431451,0.08368701,-0.4431894,-2.828129,-0.774195,0.2298671,1.478861,0.2490215,-0.01645355,0.05388977,-0.00295236,-0.3266782,0.7035514,-0.1326608,0.36677,1.520255,0.165071,-0.2265338,1.196662,0.2631817,288.5823,272.0219,344.0624,True
2,3.455548,-0.1918462,-0.2710998,-0.00670211,-1.402498,1.563062,-2.198555,0.1167613,1.309005,0.3395202,-0.578258,1.279955,7.3,99.9,-0.002942964,-0.03431451,0.08368701,-0.4431894,-2.828129,-0.774195,0.2298671,1.478861,0.2490215,-0.01645355,0.05388977,-0.00295236,-0.3266782,0.7035514,-0.1326608,0.36677,1.520255,0.165071,-0.2262989,1.196088,0.2634239,288.3116,272.7447,343.246,True
2,3.466659,-0.2090809,-0.1922693,-0.001937337,-1.400674,1.564319,-2.193846,0.1158486,1.309628,0.3391659,-0.5664299,1.060901,7.3,99.9,-0.02633519,-0.07910821,0.1049148,-0.4391308,-2.828376,-0.7726669,0.229673,1.478784,0.2488015,-0.01738396,0.07414934,0.01192601,-0.3263778,0.7100809,-0.1384681,0.3664638,1.520114,0.1647966,-0.2260588,1.195477,0.2637273,288.0657,273.9559,341.9812,True
2,3.47777,-0.2155354,-0.1677659,0.00108964,-1.399744,1.565183,-2.191369,0.1154145,1.309988,0.3389676,-0.5474575,1.715811,7.3,99.9,-0.01966447,-0.008830756,0.1053468,-0.4398764,-2.822535,-0.7780412,0.2296364,1.478855,0.2486324,-0.02351657,0.05075162,0.03440747,-0.3252029,0.7097982,-0.1377464,0.3664783,1.520083,0.1647089,-0.2259167,1.194816,0.2642909,287.6339,276.1732,339.2448,True
2,3.488881,-0.2102382,-0.1484675,0.01585462,-1.399365,1.566311,-2.189402,0.1150789,1.310437,0.338727,-0.5343654,1.172341,6.9,100,-0.02773653,0.06139507,0.1229764,-0.44075,-2.813927,-0.7852141,0.2296421,1.47895,0.2484829,-0.01417141,0.01023176,0.007738525,-0.3260732,0.7056562,-0.1340207,0.3665621,1.519949,0.164808,-0.2262386,1.194523,0.2660116,287.7954,278.2483,336.2301,True
2,3.499992,-0.1985524,-0.1313162,0.02632498,-1.398507,1.566881,-2.187626,0.1147093,1.310672,0.338016,-0.5199785,1.295916,6.9,100,-0.04168668,0.02199221,0.1281712,-0.4386834,-2.813305,-0.7848881,0.2297398,1.479088,0.2483938,-0.02328319,-0.02291415,-0.05177949,-0.3287736,0.7005466,-0.1287889,0.366568,1.519913,0.1647067,-0.2264288,1.193928,0.2673196,288.1743,282.2842,331.8978,True
