loc,t,aDotUA,bDotUA,gDotUA,aUA,bUA,gUA,xUA,yUA,zUA,qE,qDotE,emgA,emgB,aDotSH,bDotSH,gDotSH,aSH,bSH,gSH,xSH,ySH,zSH,aDotUB,bDotUB,gDotUB,aUB,bUB,gUB,xUB,yUB,zUB,xHand,yHand,zHand,aHand,bHand,gHand,enable
2,0,-0.3817653,-1.238108,-0.001637198,-1.379459,-4.018087,-3.095375,0.5640944,1.300636,0.4903293,-1.145788,-0.0107309,0,0,-0.5331175,0.02255276,0.1330524,-0.2902297,-4.327819,-0.01031948,0.5986962,1.53442,0.4101241,-0.1576634,0.175562,0.02832596,-0.8235559,0.1012085,-0.009904296,0.6583732,1.555583,0.2529829,0.4037757,1.063351,0.2951162,316.6961,227.5814,354.1631,True
2,0.01111111,-0.3817653,-1.238108,-0.001637198,-1.379459,-4.018087,-3.095375,0.5640944,1.300636,0.4903293,-1.145385,0.03696812,0,0,-0.5331175,0.02255276,0.1330524,-0.2902297,-4.327819,-0.01031948,0.5986962,1.53442,0.4101241,-0.1576634,0.175562,0.02832596,-0.8235559,0.1012085,-0.009904296,0.6583732,1.555583,0.2529829,0.4037073,1.063825,0.2926818,316.5843,227.126,354.1011,True
2,0.02222222,-0.3543394,-1.135724,0.01062083,-1.379065,-3.994902,-3.092552,0.5600972,1.30096,0.4888618,-1.149373,-0.3651334,0,0,-0.5486706,0.1545095,0.009488073,-0.2937504,-4.304763,-0.01988795,0.5968192,1.534704,0.4098902,-0.1700478,0.2320584,0.0688813,-0.8209295,0.1103879,-0.01211099,0.6579401,1.555537,0.2534986,0.4037242,1.064365,0.2904734,316.4875,226.6814,353.9527,True
2,0.03333334,-0.3245481,-1.122871,0.007320795,-1.377916,-3.969927,-3.091078,0.5558636,1.301503,0.487478,-1.142057,0.6718204,0,0,-0.5280765,0.2161497,0.01716796,-0.2933221,-4.281245,-0.03130466,0.5952331,1.535002,0.4095495,-0.1735311,0.2373658,0.0358831,-0.8212757,0.1179807,-0.01332699,0.6577116,1.55559,0.253937,0.4037991,1.064902,0.2888012,316.2323,226.3782,353.8493,True
2,0.04444445,-0.2988877,-1.159071,0.001060271,-1.376922,-3.95488,-3.091625,0.5537083,1.301722,0.4866409,-1.142014,-0.002087294,0.1,0,-0.5277959,0.1796246,0.06166111,-0.290846,-4.279176,-0.02745852,0.5944964,1.535252,0.4091809,-0.183554,0.2107106,-0.01088931,-0.8233498,0.119506,-0.01182151,0.657519,1.555542,0.2540352,0.4033243,1.064799,0.2862559,316.573,225.375,354.5889,True
2,0.05555556,-0.2732605,-1.18785,-0.01588421,-1.37537,-3.940122,-3.092409,0.5515826,1.302041,0.4859416,-1.146273,-0.3887504,0.1,0,-0.5519441,0.1452925,0.1117395,-0.2876693,-4.27804,-0.02151834,0.593771,1.535274,0.4090219,-0.1857284,0.2096437,-0.01512673,-0.8235245,0.1227556,-0.01181751,0.6574011,1.555622,0.2542763,0.4029022,1.064655,0.2826547,317.0187,224.045,355.2811,True
2,0.06666667,-0.2540771,-1.201739,-0.03287752,-1.37375,-3.925652,-3.092997,0.5493904,1.30242,0.4853861,-1.147303,-0.09067224,0.1,0,-0.5488427,0.1314522,0.1084164,-0.2864943,-4.274558,-0.01874067,0.5928456,1.53525,0.4088566,-0.2078846,0.2501533,0.006349242,-0.822676,0.1286397,-0.01263404,0.6571445,1.555557,0.2545123,0.4031373,1.06508,0.2788334,316.9735,223.0856,355.2531,True
2,0.07777778,-0.2434273,-1.208176,-0.04671406,-1.37203,-3.911647,-3.093367,0.5472312,1.30272,0.4847221,-1.147386,-0.007388189,0.1,0,-0.5193841,0.1476116,0.06348358,-0.2878137,-4.266288,-0.0221354,0.5917947,1.535199,0.4087617,-0.2173501,0.2821237,0.01813876,-0.8219873,0.1345256,-0.01386388,0.6570423,1.555622,0.2545693,0.4040624,1.065918,0.2751444,316.5947,222.1528,355.0509,True
2,0.08888889,-0.2340085,-1.16033,-0.07146084,-1.369728,-3.900545,-3.093415,0.5449615,1.302842,0.4843528,-1.146946,0.04007219,1.5,0,-0.4643722,0.1903754,0.00570289,-0.2901945,-4.253329,-0.03162264,0.5906219,1.535133,0.4087446,-0.2246567,0.2821395,0.03524857,-0.8209609,0.1388865,-0.01406282,0.6568428,1.555541,0.2546926,0.4054695,1.066856,0.2717493,316.1848,221.0564,354.8749,True
2,0.1,-0.2267019,-1.11991,-0.08445754,-1.367761,-3.889293,-3.093239,0.5428716,1.302887,0.4838297,-1.146503,0.03997387,1.5,0,-0.4506838,0.2246126,-0.02510008,-0.2918372,-4.240345,-0.03947843,0.5894104,1.535119,0.4086056,-0.2236521,0.2629511,0.02993206,-0.8208236,0.1414538,-0.01342526,0.6566557,1.555432,0.2548358,0.4070002,1.067605,0.2686906,315.9255,219.9453,354.7029,True
2,0.1111111,-0.2267019,-1.11991,-0.08445754,-1.367761,-3.889293,-3.093239,0.5428716,1.302887,0.4838297,-1.146483,0.001269392,1.5,0,-0.4506838,0.2246126,-0.02510008,-0.2918372,-4.240345,-0.03947843,0.5894104,1.535119,0.4086056,-0.2236521,0.2629511,0.02993206,-0.8208236,0.1414538,-0.01342526,0.6566557,1.555432,0.2548358,0.4082853,1.067968,0.2659542,315.8376,218.8992,354.5315,True
2,0.1222222,-0.2218712,-0.9806139,-0.1383873,-1.362114,-3.871832,-3.091797,0.538357,1.303361,0.4830456,-1.148397,-0.1750501,1.5,0,-0.4862106,0.2196903,-0.05992784,-0.2946447,-4.223083,-0.04395015,0.586769,1.535024,0.4082036,-0.2089945,0.2543922,0.001049271,-0.8219021,0.1484851,-0.01419891,0.6561068,1.55519,0.2552335,0.4091133,1.068033,0.2638244,315.8263,218.1438,354.2253,True
2,0.1333333,-0.2232741,-0.8753042,-0.1697906,-1.358592,-3.866446,-3.090445,0.5361522,1.3036,0.4826338,-1.143675,0.4330429,1.5,0,-0.5062239,0.2238908,-0.03944997,-0.2942607,-4.214154,-0.04620052,0.5855787,1.534932,0.4080729,-0.2270325,0.2991575,0.00651139,-0.8215783,0.1556427,-0.01572996,0.6556044,1.555042,0.2555656,0.4093698,1.067872,0.262582,315.7978,217.7872,353.9922,True
2,0.1444445,-0.2377613,-0.6816987,-0.2185955,-1.354707,-3.866493,-3.08691,0.5341025,1.304042,0.4825997,-1.145088,-0.1331445,0.4,0,-0.5292219,0.2407875,-0.002880953,-0.2929882,-4.202329,-0.05078648,0.5843818,1.534851,0.4078217,-0.229002,0.301301,0.02463813,-0.8206643,0.1604098,-0.01639762,0.6553316,1.554971,0.2557461,0.4085694,1.067089,0.261344,316.2215,216.7517,354.4694,True
2,0.1555556,-0.2508644,-0.5913549,-0.2508942,-1.351236,-3.86314,-3.084006,0.5316523,1.30462,0.4823112,-1.145575,-0.04284886,0.4,0,-0.5463492,0.2301996,-0.004900593,-0.2930761,-4.195862,-0.05021763,0.5831591,1.53476,0.4076061,-0.2311357,0.2906307,0.02465536,-0.82057,0.1636387,-0.01606605,0.6551675,1.554887,0.2557938,0.4072123,1.066428,0.260506,316.6536,215.9669,354.8436,True
2,0.1666667,-0.2703869,-0.4947515,-0.3088717,-1.345442,-3.8618,-3.080634,0.5291982,1.305089,0.4820294,-1.144541,0.0947923,0.4,0,-0.5764744,0.201688,-0.02184481,-0.2940348,-4.192563,-0.04576216,0.5819521,1.534738,0.4074011,-0.2335572,0.2906111,-0.00834878,-0.8219458,0.1679014,-0.0162847,0.6549265,1.55478,0.2558458,0.4052069,1.066121,0.26013,316.9551,215.6056,354.9683,True
2,0.1777778,-0.2865424,-0.4513063,-0.345292,-1.339964,-3.858293,-3.077655,0.5267254,1.305424,0.4813025,-1.144345,0.0170967,0.4,0,-0.5646536,0.2122531,-0.01656883,-0.2942596,-4.182966,-0.04927088,0.5809028,1.534606,0.4072609,-0.2337022,0.2895292,-0.02643814,-0.8227149,0.1722007,-0.01684529,0.6546982,1.554463,0.2559197,0.4023975,1.066362,0.260245,317.1622,215.4796,355.0837,True
2,0.1888889,-0.346385,-0.429548,-0.4358688,-1.331291,-3.854939,-3.07232,0.5236952,1.306295,0.4810872,-1.144363,-0.001745906,0.4,0,-0.4942057,0.2054053,0.0007944219,-0.2935959,-4.176414,-0.05273272,0.5796443,1.534713,0.4070561,-0.2348774,0.293783,-0.03921451,-0.823712,0.1768404,-0.01736115,0.6544119,1.554327,0.2560167,0.3988411,1.067149,0.2605774,317.2173,215.2576,355.6012,True
2,0.2,-0.4007213,-0.458813,-0.5027593,-1.32311,-3.84878,-3.067542,0.5205468,1.306931,0.4805353,-1.144349,0.001447374,0.3,0,-0.4399288,0.177417,0.007517652,-0.2932971,-4.173428,-0.05287653,0.5785757,1.534748,0.4068072,-0.2498207,0.2937983,-0.04334232,-0.8243256,0.1813823,-0.01723305,0.6537888,1.554101,0.2560952,0.394594,1.068352,0.26089,317.0507,214.8949,356.438,True
2,0.2111111,-0.4358771,-0.476129,-0.5377802,-1.315414,-3.843258,-3.062781,0.5175343,1.307734,0.4802082,-1.142147,0.2013469,0.3,0,-0.4452142,0.169932,0.01497587,-0.2929371,-4.167894,-0.05307494,0.5775244,1.5348,0.4065406,-0.2443995,0.2810186,-0.03166337,-0.8242718,0.1849708,-0.01717446,0.6534783,1.553951,0.2561605,0.3899498,1.069846,0.2610012,316.7301,214.4054,357.442,True
2,0.2222222,-0.4935293,-0.4563312,-0.591087,-1.306449,-3.839216,-3.056382,0.5146059,1.30847,0.4797192,-1.142047,0.007691555,0.3,0,-0.4981199,0.1400029,0.06430307,-0.2903847,-4.165653,-0.04751053,0.5767659,1.534956,0.4060752,-0.2347597,0.2661215,-0.02321012,-0.8241184,0.1884623,-0.01720802,0.6530265,1.553938,0.2562742,0.3850424,1.07162,0.2608759,316.4494,213.6633,358.4546,True
2,0.2333333,-0.5256928,-0.3979821,-0.6222259,-1.298129,-3.837783,-3.049718,0.5115489,1.309397,0.4794266,-1.142527,-0.0436494,0.3,0,-0.5181317,0.1153693,0.09842974,-0.2880614,-4.163247,-0.04334774,0.5758283,1.535099,0.4056749,-0.245531,0.2543996,-0.03587026,-0.8248337,0.1917299,-0.01633636,0.6530319,1.55395,0.2563639,0.3801155,1.07365,0.2604187,316.1186,212.8407,359.5037,True
2,0.2444444,-0.5794981,-0.2301005,-0.6773152,-1.289015,-3.842623,-3.040158,0.5085777,1.310466,0.4789596,-1.141633,0.08234702,0,0,-0.5399461,0.1065317,0.1582465,-0.2841044,-4.159815,-0.03982598,0.5748997,1.535372,0.4052525,-0.2542552,0.2469343,-0.05816076,-0.826364,0.194994,-0.01541118,0.6527957,1.553869,0.2564361,0.3754666,1.075939,0.2596932,315.7026,212.0393,0.4640283,True
2,0.2555556,-0.604315,-0.1366243,-0.7160898,-1.279995,-3.845342,-3.031901,0.5056108,1.311484,0.4786,-1.142294,-0.06072499,0,0,-0.5430316,0.108621,0.1678663,-0.2822711,-4.154303,-0.03915166,0.5739052,1.535484,0.4049187,-0.2565168,0.2405278,-0.07304649,-0.8276689,0.1981722,-0.01473847,0.6526559,1.553913,0.2564754,0.3710096,1.078366,0.2586383,315.3157,211.2016,1.256267,True
2,0.2666667,-0.604315,-0.1366243,-0.7160898,-1.279995,-3.845342,-3.031901,0.5056108,1.311484,0.4786,-1.141568,0.06728289,0,0,-0.5430316,0.108621,0.1678663,-0.2822711,-4.154303,-0.03915166,0.5739052,1.535484,0.4049187,-0.2565168,0.2405278,-0.07304649,-0.8276689,0.1981722,-0.01473847,0.6526559,1.553913,0.2564754,0.3665026,1.080951,0.2573767,314.9831,210.4207,1.725598,True
2,0.2777778,-0.6775392,0.08198622,-0.8385288,-1.2581,-3.856757,-3.010976,0.4992323,1.31376,0.4778249,-1.149849,-0.7574168,0,0,-0.5962906,0.08856922,0.1778443,-0.2779807,-4.148211,-0.02967081,0.5717896,1.535717,0.4041388,-0.2289683,0.2053483,-0.08818497,-0.8302906,0.2028302,-0.01367001,0.651981,1.553694,0.2565317,0.3618772,1.083907,0.2562397,314.5171,210.0518,2.147238,True
2,0.2888889,-0.7086264,0.1317735,-0.8781492,-1.247132,-3.862017,-3.000121,0.4958968,1.314907,0.477468,-1.13507,1.357814,0,0,-0.5955056,0.07593673,0.1553758,-0.2770966,-4.146796,-0.02429629,0.5707202,1.535781,0.4038546,-0.2256941,0.2117434,-0.07969304,-0.8308743,0.2064433,-0.01364204,0.6515764,1.553645,0.2565758,0.3578537,1.08694,0.2555865,313.6413,209.5857,2.76528,True
2,0.3,-0.7504033,0.1921241,-0.9231375,-1.235804,-3.867952,-2.988217,0.4924461,1.316158,0.4771099,-1.140569,-0.5148878,0,0,-0.5553491,0.03965902,0.1387348,-0.2762838,-4.149809,-0.01676726,0.5695705,1.535905,0.4036558,-0.2266484,0.2170821,-0.06797051,-0.8312216,0.2101325,-0.01358399,0.6511186,1.553626,0.256732,0.3515222,1.089392,0.2542143,313.933,208.2822,3.05937,True
2,0.3111111,-0.7953542,0.2568234,-0.947909,-1.225049,-3.875044,-2.975282,0.4890307,1.317446,0.4767745,-1.142024,-0.1267679,0,0,-0.5298249,0.02568233,0.1405147,-0.27463,-4.150708,-0.01094825,0.5684528,1.536016,0.4033778,-0.2264019,0.2288195,-0.04028154,-0.8306271,0.2143171,-0.01377999,0.6506079,1.553641,0.256825,0.3438453,1.092537,0.2533671,313.9089,207.2632,3.820628,True
2,0.3222222,-0.8297392,0.3504369,-0.9568177,-1.215775,-3.885148,-2.96104,0.4857764,1.318667,0.476845,-1.141754,0.02564317,0,0,-0.5118207,-0.007459581,0.1454232,-0.2727871,-4.155863,-0.0008700547,0.5673061,1.53618,0.4031241,-0.2295301,0.2362851,-0.03280354,-0.8307662,0.2183069,-0.01374457,0.6500219,1.553539,0.256881,0.3354207,1.096513,0.2532643,313.4168,206.7045,5.089188,True
2,0.3333333,-0.8523675,0.4387411,-0.9668113,-1.206309,-3.896133,-2.946891,0.4824461,1.319939,0.4765747,-1.141533,0.02013179,0,0,-0.5290187,-0.02863282,0.1390508,-0.2715375,-4.15953,0.009282448,0.5658786,1.536317,0.402638,-0.235975,0.2522643,-0.03915543,-0.8316439,0.2228954,-0.0138266,0.6496205,1.553576,0.25688,0.326659,1.101178,0.2537315,312.7253,206.2501,6.739135,True
2,0.3444445,-0.8880542,0.621896,-0.9655147,-1.198946,-3.913535,-2.929229,0.479173,1.32148,0.4766114,-1.141724,-0.01722688,0,0,-0.5664308,-0.02410251,0.1245388,-0.2707146,-4.160149,0.01760429,0.5644683,1.536334,0.4022539,-0.2423686,0.2778344,-0.04124559,-0.8322341,0.2283625,-0.01458107,0.6491157,1.55356,0.2569935,0.3178267,1.106369,0.2545207,311.9823,205.8122,8.42193,True
2,0.3555556,-0.9042473,0.7017501,-0.9552674,-1.190976,-3.926358,-2.913998,0.4760505,1.322503,0.4760165,-1.142632,-0.08239564,0,0,-0.5941347,-0.00365293,0.1142923,-0.2699737,-4.156745,0.02185869,0.5630641,1.5364,0.4019198,-0.2477402,0.2938094,-0.04868376,-0.833351,0.2334041,-0.01515605,0.6487345,1.553469,0.2570055,0.3090231,1.111934,0.255427,311.1985,205.4793,9.907782,True
2,0.3666667,-0.9364429,0.7965671,-0.9365199,-1.184526,-3.942067,-2.896618,0.4726122,1.323562,0.4757335,-1.141949,0.06327175,0,0,-0.618628,0.06378025,0.08517306,-0.2701745,-4.144365,0.0176714,0.5612918,1.536309,0.4015424,-0.2530491,0.3044662,-0.04757468,-0.8338591,0.238479,-0.01556724,0.6480743,1.553403,0.2570498,0.3001827,1.1177,0.2562218,310.4488,205.1695,11.20028,True
2,0.3777778,-0.9653685,0.8615022,-0.9272223,-1.177848,-3.957037,-2.879317,0.4691165,1.324786,0.4751344,-1.143079,-0.1033841,0,0,-0.6028962,0.1221311,0.04552666,-0.2703242,-4.134004,0.01394058,0.5595891,1.536416,0.4013448,-0.2518937,0.314055,-0.03906855,-0.834052,0.2435629,-0.0163622,0.6475258,1.553587,0.2571752,0.2911746,1.123687,0.2568654,309.687,205.0481,12.2919,True
2,0.3888889,-0.9867752,0.8998144,-0.9231228,-1.17117,-3.972096,-2.861678,0.4655785,1.325924,0.4747269,-1.142497,0.05400351,0,0,-0.5933201,0.1557577,0.01737493,-0.2718933,-4.120525,0.006973487,0.5577493,1.536368,0.40098,-0.25489,0.317267,-0.016672,-0.8333798,0.2485399,-0.01674782,0.6468586,1.553591,0.2572432,0.2822214,1.129715,0.2572496,308.8008,204.7014,13.71447,True
2,0.4,-1.01461,0.9551663,-0.9169842,-1.164969,-3.988322,-2.843249,0.4619935,1.327149,0.4739904,-1.142615,-0.01098462,0,0,-0.589079,0.1985095,-0.003682304,-0.2728057,-4.105843,-0.0007558051,0.555947,1.536384,0.4005256,-0.2642048,0.3226098,0.01324505,-0.8319758,0.2535222,-0.01689243,0.6462068,1.553683,0.2572734,0.2733942,1.13571,0.2573618,307.9319,204.3391,15.00947,True
2,0.4111111,-1.022089,0.9625947,-0.9180752,-1.158418,-4.002949,-2.82601,0.4585905,1.328424,0.4734559,-1.142716,-0.008967696,0,0,-0.5977035,0.1986204,-0.01317319,-0.2731157,-4.097939,-0.001230913,0.5543807,1.536337,0.4001479,-0.2608915,0.3204837,0.02601508,-0.8311204,0.2582338,-0.01741974,0.6455069,1.55371,0.257391,0.2647966,1.141677,0.2572368,307.1406,203.8855,16.2514,True
2,0.4222222,-1.022089,0.9625947,-0.9180752,-1.158418,-4.002949,-2.82601,0.4585905,1.328424,0.4734559,-1.142767,-0.004351853,0,0,-0.5977035,0.1986204,-0.01317319,-0.2731157,-4.097939,-0.001230913,0.5543807,1.536337,0.4001479,-0.2608915,0.3204837,0.02601508,-0.8311204,0.2582338,-0.01741974,0.6455069,1.55371,0.257391,0.2564591,1.147639,0.2569777,306.4128,203.3275,17.43275,True
2,0.4333333,-1.031852,1.023306,-0.908775,-1.147678,-4.035477,-2.789422,0.4514305,1.330753,0.471998,-1.154737,-1.094415,0,0,-0.6658895,0.156197,0.005309067,-0.2724403,-4.090337,0.00852611,0.5506286,1.53638,0.3991897,-0.2736032,0.3535135,0.03146949,-0.8300322,0.2703991,-0.01916198,0.6436177,1.553733,0.2576866,0.2490901,1.153746,0.256933,305.5035,202.9398,18.88413,True
2,0.4444444,-1.037287,1.068089,-0.8993998,-1.14337,-4.053311,-2.770361,0.4477505,1.331806,0.4713445,-1.132758,2.018505,0,0,-0.6796184,0.1144992,0.03605024,-0.2708094,-4.0913,0.017526,0.5486451,1.53626,0.3986998,-0.2735993,0.3737535,0.03039195,-0.829841,0.2771012,-0.0206102,0.6425961,1.553767,0.2578452,0.2437837,1.15921,0.2572393,304.2641,201.9464,20.62826,True
2,0.4555556,-1.039519,1.119354,-0.8740849,-1.140352,-4.071627,-2.751168,0.4441146,1.332827,0.4707394,-1.142241,-0.8850756,0,0,-0.6777251,0.09009075,0.02307724,-0.2710645,-4.090331,0.02407657,0.5465549,1.536227,0.3982303,-0.2797222,0.3993379,0.05814562,-0.8280993,0.2844141,-0.02229732,0.6416197,1.553698,0.2579167,0.2355481,1.16399,0.2559488,304.5654,201.484,20.41111,True
2,0.4666667,-1.043844,1.159987,-0.8401895,-1.138413,-4.089545,-2.7321,0.4404767,1.333824,0.4701121,-1.144091,-0.1589235,0,0,-0.6758214,0.07313508,0.008027185,-0.2715444,-4.089554,0.03075232,0.54432,1.536372,0.3978753,-0.2891195,0.4174662,0.07847188,-0.826511,0.2916566,-0.02367018,0.640407,1.553816,0.2580471,0.2265817,1.169518,0.2550022,304.468,200.954,20.85823,True
2,0.4777778,-1.040761,1.200702,-0.8019569,-1.138314,-4.108146,-2.712472,0.4368446,1.335378,0.4700396,-1.144451,-0.03218934,0,0,-0.6653881,0.07858396,-0.01654219,-0.2725815,-4.085573,0.03389379,0.5419431,1.53642,0.3974411,-0.3036449,0.4409412,0.1201394,-0.8238404,0.299598,-0.02526621,0.6391636,1.553981,0.2582021,0.217533,1.175851,0.2547916,303.7783,200.5144,21.99103,True
2,0.4888889,-1.03863,1.214696,-0.7732685,-1.137324,-4.125602,-2.693703,0.4331181,1.336488,0.4694669,-1.144556,-0.009418229,0,0,-0.6581386,0.09366167,-0.04421772,-0.2741176,-4.079214,0.03482163,0.5394595,1.536428,0.3969944,-0.3141333,0.4452192,0.1383538,-0.8216411,0.3066497,-0.02624572,0.6379604,1.554062,0.2583051,0.2087724,1.182815,0.2553267,302.7551,200.0591,23.57558,True
2,0.5,-1.032192,1.218134,-0.7317328,-1.137563,-4.14239,-2.67551,0.4292759,1.337628,0.468698,-1.14437,0.01708658,0,0,-0.6677074,0.1396442,-0.06298018,-0.2754779,-4.067284,0.03104793,0.5367349,1.536504,0.3964074,-0.3258025,0.4409584,0.1448679,-0.8198137,0.3129192,-0.02645238,0.6366198,1.554235,0.2583823,0.2004094,1.190176,0.2564194,301.692,199.6069,25.19765,True
2,0.5111111,-1.024671,1.205503,-0.7039922,-1.137273,-4.158435,-2.657662,0.4255941,1.338542,0.4677351,-1.144801,-0.03944641,0,0,-0.6773263,0.193148,-0.09021304,-0.277234,-4.052848,0.0249698,0.5341707,1.536537,0.3957634,-0.3299713,0.4399036,0.1566287,-0.8177747,0.3196392,-0.02716983,0.635074,1.554443,0.2584624,0.1923458,1.197796,0.2578493,300.6867,199.2116,26.6789,True
2,0.5222223,-1.019267,1.184277,-0.6911101,-1.136813,-4.174153,-2.640002,0.4216119,1.339644,0.466881,-1.145167,-0.0332989,0,0,-0.6770825,0.2303804,-0.08249915,-0.2778263,-4.038665,0.01882163,0.5315629,1.536573,0.3951411,-0.3243502,0.4580284,0.1885287,-0.8147286,0.3276374,-0.02928758,0.6336184,1.55462,0.2584612,0.1842985,1.205395,0.2591979,299.6866,198.6293,28.38508,True
2,0.5333334,-1.005314,1.150261,-0.683498,-1.136076,-4.189279,-2.62299,0.4177776,1.340614,0.4658737,-1.145235,-0.005828103,0,0,-0.6743858,0.267372,-0.04178347,-0.276688,-4.023467,0.01161831,0.528827,1.536487,0.3944476,-0.3060935,0.4495098,0.2054383,-0.8118678,0.3343874,-0.03119707,0.6322222,1.554863,0.2585039,0.176303,1.21277,0.2602323,298.6829,197.9701,30.17985,True
2,0.5444446,-0.98599,1.105644,-0.6694496,-1.135537,-4.203473,-2.606725,0.4137622,1.341654,0.4648476,-1.145263,-0.002595189,0,3.2,-0.6817372,0.2812243,-0.03736036,-0.2770337,-4.01063,0.007118363,0.5261429,1.536515,0.3936884,-0.2899919,0.4441833,0.2202044,-0.8091834,0.3410412,-0.03307699,0.6305911,1.555055,0.2584014,0.1685561,1.219734,0.2608664,297.7592,197.1431,32.00888,True
2,0.5555557,-0.9709778,1.067343,-0.6671433,-1.134768,-4.217642,-2.590381,0.4097574,1.342829,0.4638746,-1.145628,-0.03351176,0,3.2,-0.6900573,0.2736475,-0.01388453,-0.2763536,-4.000287,0.005073588,0.5234411,1.536681,0.3928163,-0.2952681,0.4463207,0.2255796,-0.8066683,0.3481773,-0.03453374,0.629064,1.555243,0.2582881,0.1611349,1.226232,0.2611209,297.0002,196.2158,33.66447,True
2,0.5666668,-0.9709778,1.067343,-0.6671433,-1.134768,-4.217642,-2.590381,0.4097574,1.342829,0.4638746,-1.145956,-0.0297384,0,3.2,-0.6900573,0.2736475,-0.01388453,-0.2763536,-4.000287,0.005073588,0.5234411,1.536681,0.3928163,-0.2952681,0.4463207,0.2255796,-0.8066683,0.3481773,-0.03453374,0.629064,1.555243,0.2582881,0.1541266,1.232258,0.2610917,296.3779,195.253,35.15588,True
2,0.577778,-0.9441738,1.019589,-0.648825,-1.134425,-4.230515,-2.575587,0.4057346,1.343941,0.4629681,-1.155847,-0.9043534,0,3.2,-0.6995158,0.2554349,0.006333044,-0.2755413,-3.992315,0.005181979,0.5205582,1.536746,0.3920639,-0.2941419,0.425018,0.2341146,-0.8038784,0.3536958,-0.0351476,0.6274003,1.555385,0.2581031,0.1484843,1.237814,0.2612189,295.7131,194.3509,36.7895,True
2,0.5888891,-0.9163725,0.9909838,-0.6327422,-1.134381,-4.243426,-2.56107,0.4017752,1.345001,0.4618945,-1.145893,0.9173272,0,3.2,-0.7101087,0.2265874,0.02541455,-0.2746103,-3.986531,0.007759386,0.5176607,1.536871,0.3912308,-0.2971969,0.4058677,0.251183,-0.8008748,0.3592286,-0.03567091,0.6253791,1.555499,0.2580159,0.1458535,1.242137,0.2618861,294.8261,192.7025,39.15058,True
2,0.6000003,-0.8982261,0.9911587,-0.6135909,-1.135433,-4.257522,-2.545835,0.3979413,1.346111,0.4610877,-1.145242,0.05049821,0,3.2,-0.7101454,0.2127209,0.02638524,-0.2743626,-3.979805,0.008799351,0.5146284,1.536975,0.3905392,-0.3035538,0.4058745,0.2555064,-0.7980381,0.3656802,-0.03657825,0.6236303,1.555696,0.2578955,0.1422928,1.245319,0.2614563,294.6876,192.0612,39.56288,True
2,0.6111114,-0.8631033,1.028791,-0.5637598,-1.138822,-4.271767,-2.531647,0.3940795,1.346917,0.4601119,-1.145535,-0.02641629,0.1,3,-0.7038726,0.2309423,0.006207405,-0.2749298,-3.968208,0.005138303,0.5114927,1.536964,0.3896565,-0.3414382,0.4123187,0.3080473,-0.7928971,0.372668,-0.03639822,0.6215457,1.555941,0.2576561,0.1372585,1.248116,0.2602966,294.9355,192.0453,38.99204,True
2,0.6222225,-0.8460907,1.056677,-0.5383418,-1.141962,-4.28645,-2.516751,0.3902119,1.347877,0.4591956,-1.14529,0.02264367,0.1,3,-0.6974183,0.2714837,-0.00848655,-0.2755386,-3.952659,-0.002747051,0.5082343,1.536989,0.3887203,-0.3519575,0.4155287,0.3230785,-0.7888746,0.3795937,-0.03706907,0.61958,1.556096,0.257498,0.131087,1.251143,0.2590487,295.1748,192.219,38.42662,True
2,0.6333337,-0.8247991,1.083575,-0.4969598,-1.146279,-4.300602,-2.502563,0.3861263,1.348614,0.4581637,-1.146267,-0.08950638,0.1,3,-0.6865258,0.3396574,-0.01450466,-0.2758753,-3.93075,-0.01648603,0.5048649,1.537034,0.3877439,-0.3441637,0.4251317,0.3602909,-0.7837608,0.3869637,-0.03873568,0.6173614,1.556291,0.2572639,0.124392,1.254845,0.2583146,295.1663,192.3856,38.2493,True
2,0.6444448,-0.8098677,1.091198,-0.4714584,-1.150034,-4.314234,-2.488484,0.3821367,1.349416,0.4571729,-1.145711,0.05170868,0.1,3,-0.6660534,0.3714709,-0.005971611,-0.275813,-3.911688,-0.028156,0.501514,1.537232,0.3865869,-0.3247177,0.4198139,0.3910292,-0.778589,0.3938181,-0.04073438,0.6151528,1.556599,0.257045,0.1175878,1.259371,0.2583472,294.7749,192.3564,38.7001,True
2,0.655556,-0.784254,1.095732,-0.4310359,-1.154963,-4.327119,-2.475535,0.3778084,1.350154,0.4559727,-1.145951,-0.02275536,1.2,3.5,-0.6413565,0.3829752,0.008786038,-0.2752361,-3.894949,-0.03792794,0.498003,1.537363,0.3854363,-0.323467,0.3995847,0.4134011,-0.7733692,0.3994318,-0.04123399,0.6129313,1.556809,0.2567666,0.1107925,1.264702,0.2591137,294.1634,192.0274,39.75405,True
2,0.6666671,-0.7575014,1.071468,-0.3989999,-1.159118,-4.338837,-2.463372,0.3733896,1.351111,0.4546149,-1.145731,0.02039867,1.2,3.5,-0.6646672,0.4203913,0.005020395,-0.2755131,-3.873549,-0.05034546,0.4944561,1.537543,0.3841112,-0.3444703,0.3921747,0.4487378,-0.7675641,0.4057964,-0.04118579,0.6104553,1.557151,0.2563312,0.1039887,1.270675,0.2603931,293.3556,191.3358,41.38623,True
2,0.6777782,-0.7275004,1.01943,-0.3849278,-1.16226,-4.349646,-2.451996,0.3689116,1.352034,0.4531791,-1.146352,-0.05719888,1.2,3.5,-0.7114695,0.4590375,-0.004899845,-0.27632,-3.850029,-0.06344715,0.4908076,1.53755,0.3827846,-0.3540536,0.392182,0.4498881,-0.7627187,0.4124916,-0.04168779,0.6081086,1.557384,0.2559826,0.09720721,1.277046,0.2619231,292.467,190.3531,43.42282,True
2,0.6888894,-0.7081015,0.9374409,-0.3888018,-1.163806,-4.359317,-2.440838,0.3644177,1.353167,0.451781,-1.146541,-0.01670042,1.2,3.5,-0.7483679,0.5016817,0.01493977,-0.2760388,-3.824307,-0.07860053,0.4871415,1.537556,0.3814204,-0.3658084,0.3794017,0.4468155,-0.7579175,0.4183469,-0.04144145,0.605698,1.557701,0.2555118,0.09036665,1.283536,0.2633589,291.5206,189.1934,45.67482,True
2,0.7000005,-0.700493,0.8820277,-0.3970697,-1.165406,-4.36949,-2.429157,0.3599649,1.354275,0.4504976,-1.146743,-0.01862245,1.2,3.5,-0.7534206,0.5389033,0.02696739,-0.275945,-3.797894,-0.09535528,0.4834683,1.537611,0.3801272,-0.3636185,0.3836644,0.4531866,-0.7528032,0.4251954,-0.04242442,0.6033146,1.557884,0.2551234,0.08359267,1.289843,0.2644562,290.6599,187.8312,48.07745,True
2,0.7111117,-0.7089307,0.8435796,-0.4117807,-1.166934,-4.37987,-2.416787,0.3554187,1.355146,0.4489887,-1.146311,0.03943342,0.8,2.9,-0.7318223,0.5706624,0.04188851,-0.2757938,-3.769868,-0.1147889,0.4796448,1.537674,0.3787386,-0.3668178,0.4017669,0.4510822,-0.7479142,0.4330096,-0.04391792,0.6006852,1.55817,0.2546208,0.07706713,1.295691,0.2650892,289.9793,186.2285,50.53321,True
2,0.7222228,-0.6789249,0.7915598,-0.3955777,-1.169035,-4.38875,-2.406724,0.3508984,1.355925,0.4475374,-1.14576,0.04983913,0.8,2.9,-0.712711,0.5716838,0.03530557,-0.2764867,-3.747134,-0.129334,0.4757454,1.537788,0.3773685,-0.3709876,0.4102588,0.4628136,-0.7428025,0.4397507,-0.04458904,0.5978907,1.558496,0.2541349,0.07090306,1.300938,0.265232,289.5417,184.652,52.66461,True
2,0.7333339,-0.6522818,0.7948978,-0.3817835,-1.172222,-4.398635,-2.396563,0.3464459,1.35666,0.4461079,-1.144996,0.06950954,0.8,2.9,-0.7116793,0.5759771,0.02999823,-0.2772478,-3.723509,-0.1442586,0.4719647,1.537771,0.375994,-0.3802747,0.4220006,0.4959154,-0.7364621,0.4476802,-0.04594938,0.5951521,1.558729,0.2536619,0.06501985,1.305614,0.2649541,289.2549,183.2968,54.298,True
2,0.7444451,-0.6288765,0.8303171,-0.3468235,-1.177574,-4.409103,-2.386487,0.3420274,1.357281,0.4448009,-1.146544,-0.1421336,0.8,2.9,-0.6977164,0.6025528,0.03004625,-0.2781214,-3.695727,-0.1635868,0.468111,1.537473,0.3746002,-0.3755692,0.4444,0.541687,-0.7290803,0.4568433,-0.04893026,0.5921093,1.558587,0.2532606,0.05925155,1.309844,0.2643219,289.0342,182.2161,55.53917,True
2,0.7555562,-0.6225375,0.8634906,-0.3203645,-1.183053,-4.419436,-2.375951,0.337525,1.357943,0.4434381,-1.146849,-0.02670238,3.3,6.9,-0.6573323,0.6035025,0.02114643,-0.2791818,-3.671396,-0.1809373,0.4642263,1.537158,0.3730195,-0.3551984,0.4273508,0.5574951,-0.7225976,0.463558,-0.05077823,0.5892391,1.558743,0.2527666,0.05368544,1.313681,0.2635047,288.7988,181.2086,56.64209,True
2,0.7666674,-0.6107799,0.8733206,-0.2799504,-1.188759,-4.428587,-2.366147,0.3329077,1.358361,0.4418995,-1.146912,-0.005780957,3.3,6.9,-0.6764894,0.5886157,0.02975677,-0.2799062,-3.64944,-0.1941173,0.4602253,1.536851,0.3714156,-0.3284041,0.4028969,0.5848889,-0.7160692,0.4696016,-0.05215668,0.5858164,1.559013,0.2521815,0.04822554,1.317231,0.2626838,288.5356,180.4155,57.4484,True
2,0.7777785,-0.5926045,0.8531513,-0.2766939,-1.19258,-4.437638,-2.356791,0.3284182,1.35897,0.440316,-1.146147,0.06991979,3.3,6.9,-0.6997612,0.5875417,0.04703081,-0.280057,-3.625583,-0.2084105,0.4564578,1.536569,0.3699045,-0.3327176,0.416745,0.580658,-0.7100562,0.4780036,-0.05443048,0.5829978,1.559074,0.2515671,0.04272535,1.320654,0.2620483,288.2045,179.8816,57.99036,True
2,0.7888896,-0.5765293,0.8309457,-0.2521044,-1.197159,-4.445533,-2.348045,0.323761,1.359361,0.4385993,-1.146123,0.00138918,3.3,6.9,-0.7282808,0.6195614,0.05818333,-0.280727,-3.596603,-0.2268784,0.4524933,1.536339,0.3681259,-0.346695,0.3986409,0.5680052,-0.7044759,0.4846409,-0.05504807,0.5801975,1.559233,0.2508233,0.03701438,1.324116,0.2616537,287.8491,179.4847,58.55062,True
2,0.8000008,-0.5679929,0.8342306,-0.2393446,-1.202394,-4.45434,-2.338865,0.3193388,1.359668,0.4368868,-1.146356,-0.02128946,3.3,6.9,-0.6843463,0.6469589,0.07286292,-0.2814508,-3.56693,-0.2492634,0.4485485,1.536136,0.3664966,-0.3510095,0.3720109,0.562731,-0.6985812,0.4901822,-0.05534528,0.5774465,1.559239,0.2501752,0.0311341,1.327669,0.2614688,287.4704,178.95,59.47193,True
2,0.8111119,-0.5989138,0.8437285,-0.240413,-1.207304,-4.463363,-2.327999,0.3153129,1.359715,0.4352272,-1.146362,-0.0006477857,5,18.7,-0.5964981,0.6814848,0.1063204,-0.2815654,-3.534274,-0.277079,0.4447826,1.535804,0.3648129,-0.341763,0.3528082,0.5253738,-0.6941854,0.4956166,-0.05600894,0.5746142,1.559245,0.249505,0.02523584,1.331294,0.2614538,287.1422,178.1552,60.77753,True
2,0.8222231,-0.6000251,0.8790565,-0.207554,-1.214564,-4.47269,-2.317925,0.3111882,1.35999,0.4336586,-1.146068,0.02681012,5,18.7,-0.554662,0.6928449,0.1315563,-0.2816948,-3.503521,-0.3014645,0.4410134,1.535347,0.3630321,-0.3301833,0.3474802,0.5114067,-0.6892213,0.5022591,-0.05765824,0.5718122,1.55928,0.248759,0.01938295,1.334941,0.2614985,286.743,177.1912,62.29544,True
2,0.8333342,-0.5851303,0.8951611,-0.1906102,-1.221268,-4.481558,-2.308808,0.3070093,1.360261,0.4320083,-1.144297,0.1615701,5,18.7,-0.5750446,0.6876922,0.1200097,-0.283078,-3.476744,-0.3198981,0.4374933,1.534896,0.3613608,-0.33031,0.3400151,0.4975628,-0.6843083,0.5083539,-0.05866598,0.5689217,1.559257,0.2481029,0.01375205,1.338548,0.2615943,286.2994,176.1015,63.9213,True
2,0.8444453,-0.5530486,0.8633764,-0.1755705,-1.226608,-4.488819,-2.301404,0.3028225,1.360483,0.430388,-1.144954,-0.06140665,5,18.7,-0.6162127,0.6320434,0.1839433,-0.2810599,-3.453536,-0.3338866,0.4338262,1.534553,0.3597083,-0.3260949,0.321906,0.4943424,-0.6789932,0.5137066,-0.0591829,0.5659419,1.559279,0.2473948,0.008418016,1.342154,0.2617066,285.884,175.2189,65.27583,True
2,0.8555565,-0.5391503,0.8463803,-0.1733755,-1.231978,-4.496535,-2.293266,0.2987552,1.360554,0.4286685,-1.145793,-0.07589063,5,18.7,-0.6302686,0.5403277,0.2068788,-0.2792239,-3.439082,-0.3401379,0.4300696,1.534189,0.3580375,-0.3173985,0.3261745,0.5145058,-0.6727321,0.5204775,-0.06116056,0.5628994,1.559297,0.2467453,0.003230156,1.345918,0.2617849,285.4206,174.4161,66.47228,True
2,0.8666676,-0.5519382,0.8538219,-0.171257,-1.238222,-4.504941,-2.283899,0.2947279,1.360384,0.4270463,-1.146885,-0.09937604,5.2,30.1,-0.6446968,0.4072169,0.2082306,-0.2768825,-3.436257,-0.3351468,0.4263837,1.533861,0.3564482,-0.3269077,0.3379105,0.5241598,-0.6668593,0.527886,-0.06289028,0.5598968,1.559365,0.2459998,-0.001846431,1.349808,0.2617969,284.9621,173.0501,68.25412,True
2,0.8777788,-0.5754367,0.8825454,-0.1671074,-1.245394,-4.513894,-2.273806,0.2907763,1.360017,0.4254425,-1.146203,0.06300529,5.2,30.1,-0.6398501,0.340196,0.1906841,-0.2759354,-3.427998,-0.3360505,0.4225537,1.533478,0.3548236,-0.3418519,0.3432438,0.5210926,-0.6613641,0.5350276,-0.06408738,0.5569687,1.559336,0.2452767,-0.006730034,1.353617,0.2617137,284.563,170.8642,70.86519,True
2,0.8888899,-0.5892802,0.8879029,-0.1532652,-1.252298,-4.521645,-2.264371,0.2868537,1.359785,0.4239991,-1.144938,0.1148747,5.2,30.1,-0.5933993,0.3402605,0.1497289,-0.2769517,-3.414452,-0.3438804,0.4187494,1.532836,0.3532231,-0.3590815,0.3208781,0.5020664,-0.6568442,0.5400648,-0.06343676,0.5541493,1.559224,0.2445469,-0.01148747,1.357204,0.2615217,284.2073,168.4342,73.64521,True
2,0.900001,-0.5710278,0.8539843,-0.1296912,-1.258199,-4.527737,-2.256969,0.2828196,1.359702,0.4225321,-1.144194,0.06715395,5.2,30.1,-0.5551875,0.3658339,0.1260826,-0.2782295,-3.395557,-0.3569054,0.4149426,1.532238,0.3515368,-0.3569877,0.2974398,0.5009907,-0.6514529,0.54479,-0.06330866,0.5511276,1.559119,0.2438147,-0.0162295,1.360563,0.2612834,283.8572,166.2462,76.0764,True
2,0.9111122,-0.5282415,0.7944909,-0.1198692,-1.262922,-4.533166,-2.250798,0.278671,1.359701,0.4209778,-1.14441,-0.0202118,2.9,30.7,-0.5369768,0.407358,0.1176659,-0.279437,-3.373979,-0.3723251,0.4111437,1.531681,0.3498554,-0.3518007,0.2835787,0.486039,-0.6467369,0.5496671,-0.06347325,0.5483654,1.559065,0.2431064,-0.02098192,1.36377,0.2610947,283.4992,164.49,78.04514,True
2,0.9222233,-0.4758137,0.7147514,-0.1163598,-1.266296,-4.537721,-2.24585,0.2747437,1.359884,0.4195035,-1.145945,-0.1400633,2.9,30.7,-0.5327187,0.4661017,0.09352796,-0.281772,-3.349627,-0.3895853,0.4074644,1.531133,0.348105,-0.3518647,0.2931634,0.478583,-0.6418895,0.5563498,-0.06484291,0.5456786,1.559,0.2423329,-0.02567435,1.366892,0.2609824,283.1627,163.0338,79.77618,True
2,0.9333345,-0.4437644,0.6796674,-0.1194268,-1.270402,-4.543056,-2.24038,0.2707054,1.359857,0.4178686,-1.147011,-0.09631956,2.9,30.7,-0.5081996,0.4820095,0.08806723,-0.2833284,-3.328989,-0.4046394,0.4037904,1.530612,0.3464222,-0.3467386,0.2867548,0.4561698,-0.6378372,0.5617732,-0.06553054,0.5430021,1.558912,0.2415907,-0.03027072,1.369901,0.2608621,282.8835,161.3457,81.82764,True
2,0.9444456,-0.4159663,0.6402557,-0.1363126,-1.273861,-4.548752,-2.235046,0.2669534,1.359485,0.4162092,-1.14781,-0.07255112,2.9,30.7,-0.4916671,0.3732774,0.08607849,-0.2827787,-3.326896,-0.4016744,0.4002144,1.530026,0.344578,-0.3299482,0.2505407,0.4336366,-0.6342435,0.5649646,-0.06479471,0.5405594,1.558921,0.2408452,-0.03475121,1.372689,0.2606455,282.6868,159.42,84.12869,True
2,0.9555568,-0.4191029,0.6114212,-0.148949,-1.277154,-4.554197,-2.228665,0.2630437,1.359149,0.4146163,-1.147277,0.04907124,2.9,30.7,-0.4900509,0.3421355,0.1474905,-0.2805875,-3.313461,-0.4088317,0.3965284,1.529277,0.3428395,-0.3777802,0.289993,0.4414999,-0.6292059,0.5733243,-0.06583387,0.5376339,1.558969,0.2401128,-0.03905643,1.375132,0.2603023,282.5693,157.4897,86.35902,True
2,0.9666679,-0.4520892,0.5899559,-0.1626479,-1.280421,-4.559808,-2.220774,0.2593138,1.358289,0.4131896,-1.147137,0.01206178,2.5,23.7,-0.4891867,0.3601871,0.1285807,-0.2815803,-3.295564,-0.4206479,0.3928195,1.528336,0.3410754,-0.420245,0.323014,0.456787,-0.6236846,0.5816336,-0.06648874,0.5346714,1.55835,0.2392688,-0.04334525,1.377213,0.2598283,282.4577,155.6674,88.40231,True
2,0.977779,-0.4616447,0.5867764,-0.15624,-1.284739,-4.565316,-2.213846,0.2554763,1.357753,0.4117572,-1.145763,0.1254337,2.5,23.7,-0.4693105,0.3913417,0.07959971,-0.2847404,-3.278261,-0.4324712,0.3891636,1.527498,0.3392789,-0.406128,0.3379486,0.4854361,-0.6175817,0.5897259,-0.06911995,0.5321921,1.558161,0.2386413,-0.04757877,1.378877,0.259306,282.3871,154.0449,90.1963,True
2,0.9888902,-0.4413362,0.5698652,-0.1402048,-1.28878,-4.569816,-2.208228,0.251823,1.357296,0.4102623,-1.144045,0.1559222,2.5,23.7,-0.4331627,0.4350428,0.05290785,-0.2876374,-3.258561,-0.4476731,0.3856686,1.526576,0.337553,-0.3878845,0.3592519,0.4991125,-0.6118746,0.5986882,-0.07267074,0.5293787,1.557852,0.2380145,-0.05187684,1.380223,0.2587634,282.3365,152.8987,91.47704,True
2,1.000001,-0.4146304,0.5529331,-0.1327052,-1.292582,-4.574451,-2.203321,0.2481596,1.356947,0.4088085,-1.144447,-0.0384457,2.5,23.7,-0.4141489,0.4703372,0.02206611,-0.2911048,-3.239141,-0.4620883,0.3821739,1.525796,0.3357944,-0.3921915,0.3645729,0.49703,-0.6065466,0.6069204,-0.07459567,0.5267867,1.557453,0.2373536,-0.05620345,1.381386,0.2582667,282.2526,152.2603,92.23237,True
2,1.011112,-0.3793932,0.5242853,-0.1283508,-1.295773,-4.578541,-2.199197,0.244538,1.356705,0.4072993,-1.144713,-0.02474564,3.5,32.5,-0.4151575,0.4735083,0.02635957,-0.2932385,-3.221611,-0.474187,0.3789039,1.524945,0.334147,-0.4024134,0.4221735,0.5397091,-0.5996171,0.6203497,-0.08062454,0.524361,1.557353,0.2369788,-0.06057102,1.382568,0.2578489,282.0867,151.9255,92.72149,True
2,1.022224,-0.3345079,0.4775804,-0.1186,-1.298113,-4.581692,-2.196147,0.2410834,1.356568,0.4057758,-1.144155,0.04989039,3.5,32.5,-0.4225339,0.4510421,0.04545118,-0.294006,-3.206733,-0.4832119,0.3756189,1.524095,0.3325555,-0.3949835,0.4285564,0.5375091,-0.5940894,0.6299269,-0.08434391,0.5214101,1.55726,0.2364419,-0.06481931,1.383775,0.2575164,281.9085,151.3653,93.52223,True
2,1.033335,-0.2949231,0.4126698,-0.1268559,-1.29924,-4.584772,-2.19337,0.2377772,1.356329,0.4042244,-1.142957,0.1074182,3.5,32.5,-0.4676753,0.3916823,0.03271648,-0.2952689,-3.199481,-0.4832268,0.3728743,1.523293,0.3311069,-0.3668105,0.3976062,0.472295,-0.5914002,0.6363335,-0.0865522,0.5189613,1.556921,0.2359631,-0.06895906,1.384979,0.2572489,281.7767,150.4095,94.74342,True
2,1.044446,-0.2853568,0.4244824,-0.1141332,-1.30315,-4.588635,-2.189354,0.2344724,1.356081,0.402848,-1.14153,0.1277014,3.5,32.5,-0.4888481,0.3446605,0.06774786,-0.2946745,-3.189123,-0.4868863,0.3698097,1.522561,0.3295236,-0.3460965,0.3879339,0.4081513,-0.5898561,0.6427659,-0.08864811,0.5161967,1.556519,0.2351632,-0.07297786,1.386088,0.2570059,281.6788,149.2227,96.22026,True
2,1.055557,-0.2661545,0.4149506,-0.1141145,-1.305993,-4.59241,-2.186041,0.2314244,1.355776,0.4014032,-1.139222,0.2079662,3.5,32.5,-0.4817074,0.248673,0.07873228,-0.2933898,-3.188391,-0.4824985,0.3670211,1.522019,0.328073,-0.3579399,0.3762164,0.3922746,-0.586427,0.6502085,-0.09063003,0.5136766,1.556249,0.2344925,-0.07680422,1.38694,0.256723,281.6268,147.9665,97.79034,True
2,1.066668,-0.2565309,0.3968644,-0.1161609,-1.308417,-4.59584,-2.18252,0.228308,1.355449,0.4002116,-1.13534,0.3510536,3.4,31.9,-0.4149995,0.1545534,0.0786497,-0.2918649,-3.189132,-0.4788555,0.3643602,1.521383,0.3266397,-0.3674429,0.3666435,0.4008654,-0.5822075,0.6575506,-0.092478,0.5110596,1.556045,0.2337704,-0.08049683,1.387424,0.2563546,281.6063,146.9908,98.98901,True
2,1.077779,-0.2479399,0.3691714,-0.120275,-1.310328,-4.598805,-2.179314,0.2253769,1.355257,0.3991289,-1.132888,0.2189953,3.4,31.9,-0.4133309,0.1271569,0.04631042,-0.2928609,-3.189247,-0.4744509,0.3615604,1.520653,0.3250868,-0.3523737,0.3581244,0.4177777,-0.5773935,0.6650497,-0.0955417,0.5086252,1.555787,0.2330325,-0.08423693,1.387653,0.2559489,281.4436,146.6572,99.43322,True
2,1.08889,-0.2222892,0.3394271,-0.1169678,-1.311963,-4.601477,-2.177023,0.2226429,1.354938,0.3977611,-1.12952,0.3040334,3.4,31.9,-0.427206,0.1283045,0.04326026,-0.2931991,-3.184434,-0.4738299,0.3587942,1.520057,0.3236618,-0.3459963,0.3527769,0.4198152,-0.5734398,0.6722631,-0.09785945,0.5063303,1.555465,0.2325051,-0.08794566,1.387638,0.255573,281.3009,146.6877,99.51762,True
2,1.100002,-0.2147882,0.3288311,-0.1105336,-1.314183,-4.604339,-2.174236,0.2196245,1.354683,0.3963912,-1.126409,0.2795043,3.4,31.9,-0.4121456,0.1505708,0.0507054,-0.2938116,-3.174738,-0.4786212,0.3559248,1.519295,0.3221703,-0.3428666,0.3431776,0.4122958,-0.5699074,0.6790524,-0.09991648,0.5041825,1.555253,0.2318332,-0.09163382,1.387432,0.2552722,281.1889,147.0865,99.2215,True
2,1.111113,-0.1922915,0.284198,-0.1017896,-1.315379,-4.605797,-2.172531,0.2169266,1.35448,0.3950341,-1.123867,0.2277588,2.1,39.3,-0.3579814,0.1857097,0.0184486,-0.2961802,-3.166102,-0.4848058,0.3533371,1.518573,0.3207424,-0.3197617,0.3165076,0.3758906,-0.5672054,0.6844763,-0.1016859,0.5019588,1.55492,0.2312162,-0.09520955,1.387088,0.2550601,281.0597,147.7354,98.73825,True
2,1.122224,-0.1773157,0.271545,-0.08363863,-1.317379,-4.607697,-2.170537,0.2144112,1.354236,0.3937147,-1.119979,0.3511566,2.1,39.3,-0.3253165,0.2189404,-0.03064633,-0.2996653,-3.158041,-0.4897886,0.3508646,1.517802,0.3192656,-0.3009002,0.2930234,0.3437458,-0.5650429,0.6891334,-0.1027826,0.4997966,1.554425,0.2306483,-0.09868065,1.386626,0.2548654,280.9182,148.2101,98.51125,True
2,1.133335,-0.167707,0.2716439,-0.06873834,-1.319722,-4.609686,-2.1685,0.2118281,1.35394,0.392354,-1.117018,0.2651619,2.1,39.3,-0.3472254,0.2336754,0.01016807,-0.2997175,-3.146188,-0.4963837,0.3485291,1.517134,0.317939,-0.2733549,0.2866043,0.3264659,-0.5624143,0.6952191,-0.1058785,0.4976182,1.554093,0.2300947,-0.1022055,1.386133,0.2546017,280.7347,148.7229,98.25907,True
2,1.144446,-0.1443582,0.3068985,-0.06362431,-1.323299,-4.61302,-2.166765,0.2096608,1.353493,0.3910396,-1.113081,0.3549878,2.1,39.3,-0.3845206,0.2092634,0.0210093,-0.299939,-3.140412,-0.4962321,0.3462541,1.516455,0.316613,-0.2477353,0.2801946,0.3347552,-0.5586987,0.7014503,-0.1091142,0.4954802,1.55389,0.2294264,-0.1055392,1.38553,0.2542187,280.5656,149.2845,97.95183,True
2,1.155557,-0.1358671,0.3239967,-0.05732088,-1.326501,-4.615784,-2.164866,0.2071325,1.353108,0.3896985,-1.109018,0.3656263,2.1,39.3,-0.3858114,0.164548,0.01965072,-0.300134,-3.139324,-0.4926859,0.3438962,1.515899,0.3154619,-0.2445947,0.2642098,0.3294117,-0.5555024,0.7066346,-0.1108975,0.4933183,1.553581,0.2288141,-0.1086859,1.384831,0.2536984,280.3911,149.9005,97.50425,True
2,1.166668,-0.130553,0.3228931,-0.06797606,-1.328813,-4.618774,-2.162871,0.2046887,1.352771,0.3886545,-1.10547,0.3184072,1.1,45.7,-0.3515525,0.1140598,0.05837904,-0.2980578,-3.137589,-0.4916723,0.3416662,1.515353,0.314214,-0.2445286,0.2631516,0.3379334,-0.5518277,0.7127902,-0.1132831,0.491317,1.55334,0.2280269,-0.1117194,1.384086,0.2530766,280.2102,150.4927,96.98325,True
2,1.17778,-0.1475638,0.3175862,-0.05514398,-1.331426,-4.620648,-2.16021,0.202467,1.352377,0.3873398,-1.100907,0.4115678,1.1,45.7,-0.3164583,0.1160962,0.05165552,-0.2985159,-3.131828,-0.4948249,0.3394339,1.514792,0.3128278,-0.2444489,0.268489,0.349631,-0.5480791,0.7197199,-0.116272,0.4891577,1.553096,0.2272732,-0.1146327,1.383295,0.2525063,280.0257,150.8757,96.60343,True
2,1.188891,-0.1752217,0.3036749,-0.05290586,-1.333495,-4.622626,-2.156805,0.2002347,1.351948,0.3862166,-1.096398,0.405627,1.1,45.7,-0.2768061,0.1627746,0.05478012,-0.2995295,-3.120875,-0.5035449,0.3371732,1.514332,0.3116233,-0.2433641,0.2706204,0.3517509,-0.5445126,0.7265091,-0.1194161,0.4872106,1.552858,0.2265639,-0.117676,1.382513,0.2520301,279.8657,151.1927,96.29907,True
2,1.200002,-0.1858217,0.2898349,-0.04536361,-1.335627,-4.624478,-2.154005,0.1978588,1.35168,0.3854504,-1.090988,0.4881745,1.1,45.7,-0.2479409,0.1903713,0.0536159,-0.3006123,-3.110041,-0.5119832,0.3349575,1.513853,0.3101501,-0.2370608,0.2439664,0.3453261,-0.5411021,0.7304438,-0.1202689,0.4852328,1.552373,0.2258747,-0.1207734,1.381702,0.2517336,279.7244,151.6819,95.88337,True
2,1.211113,-0.1750788,0.2632667,-0.0356671,-1.337112,-4.625529,-2.152285,0.1960881,1.351147,0.383184,-1.085707,0.4757147,1.1,45.7,-0.2161122,0.221309,0.02687891,-0.3029271,-3.100798,-0.5195425,0.3329339,1.513511,0.3089607,-0.228803,0.1970707,0.3175863,-0.5386872,0.7319583,-0.1193568,0.4835361,1.552135,0.2251806,-0.1238099,1.380863,0.2515523,279.511,152.4686,95.31535,True
2,1.222224,-0.1600784,0.243144,-0.02067097,-1.33902,-4.626461,-2.151002,0.1941485,1.350987,0.3820529,-1.08162,0.3664529,0.6,59.1,-0.2096948,0.2287437,0.02579982,-0.3040707,-3.092954,-0.5248196,0.3309333,1.513247,0.3078673,-0.2300149,0.1715202,0.3037511,-0.536032,0.7351829,-0.1193032,0.4816499,1.551958,0.2243102,-0.1267979,1.38007,0.2514159,279.3234,153.5449,94.44613,True
2,1.233335,-0.1333642,0.221998,-0.002492487,-1.340815,-4.626922,-2.150332,0.1924654,1.350894,0.3810227,-1.077779,0.3448482,0.6,59.1,-0.2029146,0.2231033,0.06724329,-0.3032264,-3.08257,-0.53276,0.3292857,1.512938,0.3067586,-0.2271211,0.1555161,0.2696462,-0.5344362,0.7377866,-0.1191408,0.4800445,1.551706,0.2236125,-0.1296935,1.379353,0.2512746,279.1028,154.3809,93.9145,True
2,1.244446,-0.1024491,0.2243042,0.01662757,-1.343401,-4.627636,-2.150119,0.1908008,1.350823,0.3799975,-1.073231,0.4093363,0.6,59.1,-0.2126494,0.2029447,0.06293404,-0.3036132,-3.077234,-0.5348544,0.3278677,1.512607,0.3057282,-0.2112745,0.12146,0.2588677,-0.5321049,0.7397918,-0.1186662,0.4783943,1.551434,0.2226787,-0.1322599,1.378561,0.2508809,278.8739,154.8565,93.90321,True
2,1.255558,-0.1002954,0.2190107,0.02197712,-1.345564,-4.628589,-2.148833,0.1892582,1.350654,0.3790035,-1.0685,0.4253733,0.6,59.1,-0.2227226,0.2068728,0.1195173,-0.3022134,-3.064594,-0.5440375,0.3265067,1.512376,0.3047698,-0.1942855,0.1054665,0.2534067,-0.5295909,0.7415534,-0.1186478,0.4767876,1.551136,0.221961,-0.1345396,1.377652,0.2502345,278.7162,155.5373,93.37416,True
2,1.266669,-0.121594,0.2103801,0.01139681,-1.347159,-4.629912,-2.146514,0.1877133,1.35043,0.3780117,-1.063484,0.4510421,0.1,49.5,-0.198176,0.1661225,0.1424171,-0.3005148,-3.059162,-0.5477968,0.3251153,1.512149,0.3039579,-0.1593311,0.09159485,0.2339305,-0.5278295,0.7434247,-0.1193323,0.4753424,1.551097,0.2214432,-0.1365683,1.376588,0.2494174,278.577,156.3784,92.46275,True
2,1.27778,-0.1396874,0.2017849,0.006136835,-1.348701,-4.631151,-2.144046,0.1862385,1.350291,0.3769951,-1.056705,0.6119176,0.1,49.5,-0.1730694,0.1011531,0.1246617,-0.2995864,-3.061196,-0.5447645,0.3237143,1.511937,0.3031409,-0.1390814,0.0958319,0.2337672,-0.5252404,0.7464941,-0.1211469,0.4739085,1.550717,0.221031,-0.13852,1.375358,0.2485456,278.4304,157.2016,91.49,True
2,1.288891,-0.1578191,0.1995125,-0.01300167,-1.350075,-4.633001,-2.141237,0.1849157,1.350169,0.3761277,-1.04972,0.6292627,0.1,49.5,-0.1417817,0.050189,0.0792557,-0.2995012,-3.065325,-0.5402563,0.3223249,1.511656,0.3023632,-0.1060468,0.1000748,0.2345468,-0.5227764,0.7496396,-0.1238586,0.4725206,1.550522,0.2203538,-0.1405248,1.373969,0.2477212,278.303,158.3889,90.18376,True
2,1.300002,-0.1546077,0.1952665,-0.01192297,-1.351756,-4.634234,-2.139463,0.1835285,1.350074,0.3751845,-1.043482,0.5610638,0.1,49.5,-0.1232094,0.004577935,0.03932539,-0.2997825,-3.070573,-0.5342589,0.3207853,1.511379,0.3014731,-0.09341849,0.09471557,0.2163474,-0.5209149,0.7516141,-0.1249198,0.4711024,1.550211,0.2196887,-0.1426761,1.372506,0.2470124,278.1964,160.3115,88.20893,True
2,1.311113,-0.1375841,0.1963137,-0.0247362,-1.353257,-4.636074,-2.138104,0.1821906,1.350086,0.3743136,-1.037098,0.5746498,0.1,49.5,-0.105525,-0.02939904,0.01121733,-0.2997515,-3.07675,-0.527822,0.3194178,1.511201,0.300627,-0.0807613,0.0819155,0.2023981,-0.5192344,0.7528715,-0.1255513,0.4699249,1.550087,0.218915,-0.1449016,1.371051,0.2464759,278.0921,162.8091,85.71954,True
2,1.322224,-0.1279708,0.187817,-0.02470218,-1.354708,-4.637235,-2.136842,0.1807628,1.349988,0.3734879,-1.031561,0.4969607,0,43.9,-0.1043249,-0.01667769,0.01980693,-0.2994789,-3.074385,-0.5287659,0.3181238,1.511121,0.2995636,-0.07332976,0.06806028,0.2012842,-0.5169345,0.7541057,-0.1259377,0.4684058,1.549844,0.2181952,-0.1471049,1.369669,0.2461777,277.9879,165.4769,83.10791,True
2,1.333336,-0.1247045,0.1622691,-0.02245077,-1.355387,-4.637881,-2.135423,0.1794627,1.350013,0.3727076,-1.025511,0.5443442,0,43.9,-0.08576512,0.01605501,0.05074386,-0.2986959,-3.067456,-0.53509,0.3168972,1.511121,0.2986531,-0.07252719,0.03821222,0.172533,-0.5159198,0.7530794,-0.1242767,0.4672811,1.549732,0.2174959,-0.1492615,1.368372,0.2461004,277.8541,167.6956,81.02592,True
2,1.344447,-0.1288548,0.1217967,-0.01905514,-1.355325,-4.638007,-2.133758,0.1783088,1.350077,0.3719487,-1.018562,0.6258941,0,43.9,-0.06506032,0.06799142,0.07538603,-0.2985121,-3.057357,-0.5447099,0.3158574,1.511165,0.2977269,-0.06954138,-0.004421026,0.1501722,-0.5147118,0.7502905,-0.1212172,0.4661472,1.549617,0.2168326,-0.1513788,1.367099,0.2462295,277.7238,169.3598,79.54328,True
2,1.355558,-0.1298437,0.09410448,-0.01785147,-1.355413,-4.638269,-2.132233,0.1771935,1.350102,0.3710907,-1.011158,0.6666812,0,43.9,-0.08204795,0.0893773,0.07248051,-0.298885,-3.052967,-0.5472887,0.3147263,1.511242,0.2966554,-0.0685695,-0.02466858,0.1405892,-0.5133669,0.7485629,-0.1189906,0.4649752,1.549488,0.2162409,-0.1534762,1.365759,0.2464909,277.5778,170.8038,78.33692,True
2,1.366669,-0.1223877,0.09627031,-0.01467684,-1.356344,-4.638931,-2.130941,0.1761206,1.350185,0.370275,-1.003542,0.6857535,1.2,46.6,-0.1042176,0.1064309,0.08559908,-0.2985915,-3.045252,-0.5527018,0.3136313,1.511227,0.29582,-0.08027845,0.0008904934,0.1385704,-0.5115927,0.7506579,-0.1196596,0.4640074,1.549445,0.2155113,-0.1554825,1.364278,0.2467664,277.463,172.7573,76.66967,True
2,1.37778,-0.1181783,0.1219055,-0.005226299,-1.358492,-4.640131,-2.129525,0.1750763,1.350239,0.3694837,-0.9963636,0.6455998,1.2,46.6,-0.1042425,0.117128,0.07927607,-0.2989276,-3.039644,-0.5568177,0.3126448,1.510879,0.2952518,-0.0769197,0.02220061,0.1545231,-0.5092188,0.7532018,-0.1213083,0.4628596,1.549459,0.2147868,-0.1573485,1.36264,0.2469238,277.4063,175.3725,74.34244,True
2,1.388891,-0.1193228,0.1614017,0.01162636,-1.361543,-4.641228,-2.127936,0.1739966,1.350441,0.368865,-0.9892935,0.6359385,1.2,46.6,-0.08909364,0.1874216,0.07214879,-0.3010022,-3.025943,-0.5693982,0.3118529,1.510808,0.2947304,-0.04191247,0.02323464,0.1371754,-0.5081775,0.7541035,-0.1227366,0.4619604,1.549336,0.2143183,-0.1591173,1.360884,0.2468779,277.3795,178.4074,71.51588,True
2,1.400002,-0.1246521,0.1646161,0.01800434,-1.36329,-4.641969,-2.126124,0.1729663,1.350602,0.3680561,-0.9818036,0.6743305,1.2,46.6,-0.07389088,0.176472,0.1070794,-0.2998496,-3.017051,-0.5774114,0.3111167,1.510875,0.294297,-0.01889228,0.005081125,0.08904605,-0.5086691,0.7529133,-0.1222663,0.4609093,1.549186,0.2139294,-0.1608448,1.359071,0.2466512,277.3488,181.73,68.26304,True
2,1.411114,-0.1245097,0.1092374,0.02039629,-1.362819,-4.641482,-2.124739,0.1719165,1.350979,0.3675871,-0.9740117,0.70157,1.2,46.6,-0.06032829,0.08792239,0.1169959,-0.2972807,-3.019868,-0.5745365,0.3103934,1.511032,0.2938519,-0.02556447,-0.004523531,0.05714959,-0.509002,0.7521147,-0.1210756,0.4600215,1.549127,0.2134333,-0.162594,1.357276,0.24634,277.2982,185.3748,64.57162,True
2,1.422225,-0.1232236,0.01863382,0.009121238,-1.36032,-4.640247,-2.123664,0.1709624,1.351332,0.3669837,-0.966058,0.7161308,1,46.1,-0.05434437,-0.003714912,0.1173769,-0.2945946,-3.026474,-0.5675689,0.309689,1.511177,0.2934909,-0.05221182,-0.02582483,0.05527712,-0.5079826,0.7501888,-0.1180979,0.4592751,1.549024,0.2128422,-0.1643869,1.355578,0.2460365,277.2495,189.1661,60.73804,True
2,1.433336,-0.1178085,-0.02296614,-0.005598529,-1.358803,-4.640002,-2.122591,0.1700971,1.351534,0.3663263,-0.9585366,0.6764673,1,46.1,-0.05500878,-0.04706376,0.06914596,-0.294274,-3.03415,-0.5596042,0.3089083,1.511234,0.2930365,-0.05661812,-0.03861609,0.03934324,-0.5079788,0.7484153,-0.1157663,0.4583569,1.548966,0.2122931,-0.1661353,1.353972,0.2457429,277.2982,192.3744,57.57911,True
2,1.444447,-0.1199547,-0.03162476,-0.03218567,-1.357483,-4.6407,-2.121049,0.1694224,1.3517,0.3657978,-0.9510015,0.6780363,1,46.1,-0.05123075,-0.1076516,0.04738953,-0.2931176,-3.043172,-0.5504264,0.3079283,1.511441,0.292582,-0.04156087,-0.0716317,0.05736572,-0.5062068,0.7451638,-0.113105,0.4574835,1.548939,0.2118886,-0.1677109,1.352396,0.2454301,277.4768,194.5561,55.48256,True
2,1.455558,-0.1253395,-0.01354349,-0.03546045,-1.35782,-4.641405,-2.119243,0.1685354,1.351836,0.3653064,-0.9434541,0.6790819,1,46.1,-0.06326951,-0.1266074,0.02394021,-0.2924577,-3.049539,-0.5431509,0.3070404,1.511321,0.2920141,-0.02968397,-0.06736589,0.07537104,-0.5046552,0.7442757,-0.1124363,0.456584,1.548827,0.2114313,-0.1690616,1.350756,0.2450332,277.7096,195.9171,54.20707,True
2,1.466669,-0.1349891,0.007716093,-0.0398124,-1.358207,-4.642361,-2.117243,0.1676303,1.351995,0.3648248,-0.9353911,0.7261995,1,53.1,-0.07399623,-0.0816273,-0.003351793,-0.293801,-3.049446,-0.5420132,0.3061767,1.511249,0.2913392,-0.03408241,-0.002405513,0.05407197,-0.5047798,0.7487581,-0.1159397,0.4557928,1.548663,0.2110729,-0.1702569,1.349007,0.2445981,277.9063,197.2364,52.87062,True
2,1.47778,-0.1382268,0.02154432,-0.04200689,-1.358479,-4.643147,-2.115393,0.1666708,1.352123,0.3640292,-0.9272685,0.7312424,1,53.1,-0.04970355,-0.01392657,0.053331,-0.2927911,-3.038119,-0.5531852,0.3054529,1.511156,0.2906656,-0.03308493,-0.000282377,0.04553319,-0.5047042,0.7488838,-0.1157572,0.4549891,1.548613,0.2107232,-0.1714194,1.347162,0.2442504,278.0942,199.0308,50.96022,True
2,1.488891,-0.1308185,0.03429485,-0.05273325,-1.358701,-4.644454,-2.113904,0.1656202,1.352372,0.3634939,-0.9192753,0.719398,1,53.1,-0.0567826,0.01683167,0.0781137,-0.2919869,-3.031566,-0.5586002,0.304676,1.511155,0.2900126,-0.03418242,0.02100586,0.04021459,-0.5042312,0.7500764,-0.116419,0.4543152,1.548567,0.2102554,-0.1727786,1.345316,0.2440673,278.2455,201.5255,48.37112,True
2,1.500003,-0.1361374,0.02464445,-0.0622699,-1.35805,-4.645308,-2.111968,0.1645932,1.352681,0.3629043,-0.9115478,0.6952075,1,53.1,-0.04760525,0.05802226,0.1262466,-0.2906377,-3.020805,-0.5685812,0.3039851,1.5112,0.2894957,-0.03103877,0.04122608,0.03166542,-0.5040256,0.7520278,-0.1180377,0.4534936,1.548442,0.2098672,-0.1743567,1.343521,0.2440699,278.3994,204.2634,45.68465,True
2,1.511114,-0.1381736,-0.01269183,-0.07060285,-1.356312,-4.645429,-2.110464,0.1636014,1.352994,0.3624549,-0.9041682,0.6635609,1.8,50.4,-0.01771587,0.05784819,0.1323439,-0.2895623,-3.015663,-0.5742955,0.3032588,1.511163,0.2889433,-0.03743835,0.04335967,0.03065431,-0.503787,0.7533085,-0.1185357,0.4527785,1.548413,0.2094584,-0.1760984,1.341789,0.2441962,278.5747,206.8418,43.28491,True
2,1.522225,-0.1359144,-0.06813841,-0.0820521,-1.353432,-4.645215,-2.109052,0.162663,1.353467,0.3621233,-0.8957803,0.7560151,1.8,50.4,0.004370026,0.03016607,0.1159593,-0.2886936,-3.016458,-0.5742976,0.3025326,1.511319,0.2884245,-0.04179762,0.04120953,0.01897867,-0.5038387,0.753464,-0.1181333,0.4520306,1.548386,0.2089069,-0.1779057,1.340104,0.2444534,278.775,209.0206,41.27567,True
2,1.533336,-0.1336931,-0.1043793,-0.08720437,-1.350906,-4.644997,-2.10776,0.1618065,1.353928,0.3615773,-0.8880848,0.6918349,1.8,50.4,0.0008563176,-0.005929956,0.09976721,-0.2875149,-3.019432,-0.5713359,0.301815,1.511318,0.2879195,-0.04614651,0.0326839,0.009433346,-0.5040565,0.7535605,-0.1175639,0.4512857,1.548341,0.208415,-0.1796574,1.33844,0.2447992,279.0118,210.9078,39.58155,True
2,1.544447,-0.1431632,-0.1609689,-0.1082191,-1.346737,-4.644696,-2.105982,0.1610456,1.354355,0.3611519,-0.8802168,0.7082857,1.8,50.4,-0.01816007,-0.07360842,0.03876849,-0.2872874,-3.031645,-0.5585658,0.3011762,1.511365,0.2873812,-0.05339205,0.01457416,0.03401068,-0.5027787,0.7523736,-0.1158323,0.4505347,1.548355,0.2079861,-0.1812304,1.33675,0.2451673,279.2917,212.2905,38.39151,True
2,1.555558,-0.1538252,-0.1674474,-0.1209621,-1.344239,-4.645326,-2.103699,0.1603372,1.354705,0.3607755,-0.8723909,0.7041617,1.8,50.4,-0.02229963,-0.07153463,0.0505434,-0.2861236,-3.031544,-0.5582476,0.3004804,1.511361,0.2868474,-0.04155809,0.02521983,0.04563341,-0.501755,0.753826,-0.1171881,0.4498994,1.548156,0.2074878,-0.1826128,1.335012,0.2454881,279.6183,213.4806,37.37916,True
2,1.566669,-0.1741199,-0.1515629,-0.1295334,-1.342377,-4.64624,-2.10092,0.1595456,1.354886,0.3603404,-0.8639513,0.7603396,1.8,50.4,-0.0112946,-0.03549121,0.0698526,-0.2853945,-3.025804,-0.5640423,0.2998091,1.511418,0.2861912,-0.03179109,0.01563877,0.06686074,-0.5003244,0.7539158,-0.1172616,0.4491682,1.548057,0.2070374,-0.1838375,1.333217,0.2456899,279.9495,214.5523,36.47873,True
2,1.577781,-0.1880537,-0.1239142,-0.1339152,-1.341351,-4.647604,-2.098028,0.1586942,1.355009,0.3599057,-0.8556758,0.7448447,1.5,55.4,-0.01769442,-0.03438109,0.06885698,-0.2847036,-3.025531,-0.5638578,0.2989487,1.511352,0.2855844,-0.03712969,0.01245531,0.06584319,-0.4997123,0.7544,-0.1170353,0.4483044,1.547944,0.2066562,-0.1849482,1.331355,0.2457593,280.3415,215.3207,35.78669,True
2,1.588892,-0.1849617,-0.08126843,-0.1288026,-1.341294,-4.648984,-2.095787,0.1577689,1.355199,0.3593867,-0.8473374,0.750897,1.5,55.4,-0.03018916,-0.01208506,0.08830832,-0.2836687,-3.020818,-0.5676496,0.2981377,1.511361,0.2849352,-0.05005705,0.03588866,0.04783139,-0.499951,0.7568413,-0.1181759,0.4475663,1.547776,0.2062626,-0.1860789,1.329505,0.2457718,280.7106,216.3215,34.75692,True
2,1.600003,-0.1797189,-0.04070221,-0.1140992,-1.34161,-4.650091,-2.093831,0.1567817,1.355387,0.358779,-0.8394347,0.7109592,1.5,55.4,-0.02456217,0.01226638,0.1075981,-0.2826636,-3.014165,-0.5740098,0.2974049,1.511295,0.284363,-0.05540321,0.04546808,0.04363549,-0.4994018,0.7584935,-0.1190284,0.4469984,1.547765,0.2059174,-0.1873538,1.327737,0.2457971,281.0271,217.4974,33.54319,True
2,1.611114,-0.1574052,-0.0106282,-0.09301355,-1.341887,-4.653009,-2.090126,0.1548511,1.356789,0.3602545,-0.8322272,0.6477462,1,50.7,-0.02261424,0.04016994,0.07687503,-0.2827814,-3.007198,-0.5804317,0.2958945,1.510893,0.2831523,-0.05862733,0.04121309,0.04046952,-0.4985352,0.7604023,-0.1193328,0.4454947,1.547404,0.2052166,-0.1887998,1.326105,0.2459005,281.3004,218.8163,32.22957,True
2,1.622225,-0.1574052,-0.0106282,-0.09301355,-1.341887,-4.653009,-2.090126,0.1548511,1.356789,0.3602545,-0.8231708,0.8172497,1,50.7,-0.02261424,0.04016994,0.07687503,-0.2827814,-3.007198,-0.5804317,0.2958945,1.510893,0.2831523,-0.05862733,0.04121309,0.04046952,-0.4985352,0.7604023,-0.1193328,0.4454947,1.547404,0.2052166,-0.1906299,1.32466,0.2460651,281.5096,220.3306,30.83371,True
2,1.633336,-0.1540823,-0.06709691,-0.1012779,-1.338046,-4.65402,-2.086451,0.1526428,1.357321,0.3590913,-0.8182632,0.4364278,1,50.7,-0.0832918,-0.06249982,0.01923753,-0.281478,-3.020606,-0.5640637,0.2942642,1.510653,0.2819378,-0.09714746,0.03163917,0.02269598,-0.4986838,0.7613944,-0.1170033,0.4437408,1.547141,0.2042732,-0.192829,1.323453,0.2462471,281.7276,221.93,29.42066,True
2,1.644447,-0.1604601,-0.07029793,-0.09912081,-1.336803,-4.654613,-2.084336,0.1515877,1.357609,0.358351,-0.8075194,0.9733371,1,50.7,-0.08968897,-0.07207625,0.023494,-0.2806865,-3.022028,-0.5615137,0.2932952,1.510473,0.2811663,-0.1285236,0.07113695,0.09214573,-0.4963195,0.767033,-0.1189528,0.4424563,1.546844,0.203681,-0.194218,1.322183,0.2466885,281.9513,222.2986,28.91197,True
2,1.655559,-0.1604601,-0.07029793,-0.09912081,-1.336803,-4.654613,-2.084336,0.1515877,1.357609,0.358351,-0.8003576,0.6409871,1,50.7,-0.08968897,-0.07207625,0.023494,-0.2806865,-3.022028,-0.5615137,0.2932952,1.510473,0.2811663,-0.1285236,0.07113695,0.09214573,-0.4963195,0.767033,-0.1189528,0.4424563,1.546844,0.203681,-0.1959884,1.321106,0.2475835,282.3434,222.7586,28.18408,True
2,1.66667,-0.1670396,-0.006476386,-0.1154061,-1.337639,-4.65729,-2.081609,0.1505816,1.357823,0.3575499,-0.7944007,0.5340521,1.1,56.2,-0.08229493,-0.06031144,0.01178242,-0.28071,-3.023121,-0.5597437,0.2922605,1.510359,0.280221,-0.1279243,0.1063307,0.1592364,-0.492663,0.7729669,-0.1227587,0.4413024,1.546592,0.2031024,-0.1974666,1.320044,0.2488094,282.5004,223.3074,27.94473,True
2,1.677781,-0.1713803,0.09048906,-0.1150393,-1.339326,-4.660002,-2.078978,0.1495917,1.358076,0.3566878,-0.7845438,0.8912706,1.1,56.2,-0.0874807,-0.04968756,0.02149247,-0.2802546,-3.02247,-0.5591911,0.2912306,1.510143,0.2793212,-0.1255336,0.1244786,0.1911266,-0.4904664,0.7779769,-0.1255377,0.4401419,1.546595,0.202507,-0.1982399,1.318712,0.2501599,282.4424,224.1497,27.67326,True
2,1.688892,-0.179195,0.1596447,-0.1226011,-1.343358,-4.664037,-2.075767,0.148506,1.35818,0.355787,-0.7761405,0.7551917,1.1,56.2,-0.1132285,0.03957815,0.07136112,-0.2799813,-3.007626,-0.571346,0.2902465,1.509899,0.2783957,-0.09071867,0.1105867,0.1524825,-0.4900903,0.7798337,-0.1273132,0.439122,1.546418,0.2020676,-0.1993301,1.317133,0.2512253,282.548,225.5651,26.85882,True
2,1.700003,-0.1954084,0.2544515,-0.1155908,-1.348014,-4.667897,-2.072212,0.147216,1.358348,0.3548386,-0.7682596,0.7089927,1.1,56.2,-0.1213597,0.0810241,0.09303431,-0.2797875,-2.99703,-0.5798604,0.2893468,1.509721,0.2774887,-0.04679658,0.09133182,0.06048289,-0.4928505,0.7796836,-0.127861,0.4383759,1.546271,0.2018371,-0.2008704,1.315433,0.2519459,282.8373,227.4633,25.32741,True
2,1.711114,-0.2072316,0.3002756,-0.1062125,-1.351989,-4.671126,-2.068771,0.1458571,1.358473,0.3539495,-0.7600438,0.7399123,1.1,56.2,-0.1341446,0.07360205,0.09630544,-0.2791318,-2.992885,-0.5818855,0.2882714,1.509494,0.2766128,-0.04568063,0.1446002,0.06258054,-0.4923929,0.7870743,-0.1339075,0.4374761,1.546023,0.2015617,-0.2027153,1.313745,0.252384,283.1835,229.6188,23.34274,True
2,1.722225,-0.2254156,0.3504898,-0.06916066,-1.356884,-4.673461,-2.065217,0.1442314,1.358701,0.3529696,-0.7515669,0.7633051,0.4,49,-0.146782,0.0660747,0.1144813,-0.2778082,-2.988882,-0.5837092,0.2872541,1.509317,0.275984,-0.07195209,0.2074967,0.1011141,-0.4906517,0.7971896,-0.1409854,0.4366502,1.54591,0.2012925,-0.2047918,1.312209,0.2526654,283.4724,231.9839,21.05364,True
2,1.733337,-0.2391883,0.3313922,-0.04774477,-1.359764,-4.674947,-2.061752,0.1427161,1.359098,0.3521008,-0.7433447,0.7397688,0.4,49,-0.1458535,0.03731765,0.1142737,-0.2765762,-2.987379,-0.5834703,0.2862909,1.509021,0.275167,-0.09327783,0.2160298,0.09809827,-0.4900051,0.8031421,-0.1445279,0.4357724,1.54568,0.2010448,-0.2070028,1.310914,0.252867,283.6946,234.1788,18.9609,True
2,1.744448,-0.2676842,0.2215502,-0.05675264,-1.3585,-4.675405,-2.057779,0.1413414,1.359538,0.3512003,-0.734796,0.7697414,0.4,49,-0.1557417,-0.03188914,0.1149647,-0.274067,-2.992805,-0.5761938,0.285379,1.508783,0.2744701,-0.1115134,0.2277484,0.08439181,-0.4900382,0.8090355,-0.1477373,0.4350759,1.545566,0.2006791,-0.2092239,1.309865,0.2530069,283.8441,235.9746,17.32335,True
2,1.755559,-0.3399927,0.1627392,-0.06274545,-1.35818,-4.676136,-2.051402,0.1401601,1.359991,0.3504715,-0.7263601,0.7591763,0.4,49,-0.1632042,-0.06177273,0.1286789,-0.2717229,-2.993692,-0.5731592,0.2844398,1.508501,0.2737508,-0.1211358,0.2256256,0.07915953,-0.4896009,0.8145623,-0.1511256,0.4342709,1.545372,0.200398,-0.2114361,1.309057,0.2530223,283.9416,237.676,15.83622,True
2,1.76667,-0.3942136,0.1221343,-0.05927301,-1.357867,-4.676565,-2.044974,0.1388945,1.36048,0.3496547,-0.7172665,0.8193849,0.4,49,-0.1641566,-0.04368031,0.1320076,-0.2704397,-2.990224,-0.57465,0.283704,1.508285,0.2731638,-0.1299666,0.187261,0.04729395,-0.4903141,0.8159689,-0.1504571,0.4335983,1.545149,0.2000897,-0.2134356,1.308397,0.2528591,284.0327,238.5377,15.18687,True
2,1.777781,-0.3918922,0.05616973,-0.04402913,-1.35667,-4.675723,-2.041138,0.1377164,1.361062,0.3490801,-0.7065191,0.9700845,0.4,51,-0.1552006,0.01582438,0.1493734,-0.2698368,-2.97827,-0.5847383,0.2830803,1.508323,0.272649,-0.091832,0.1424861,0.02568548,-0.4906773,0.8162213,-0.1509131,0.4328509,1.544951,0.1997361,-0.2151238,1.307771,0.2524914,284.1818,238.3694,15.46233,True
2,1.788892,-0.3715589,0.02322452,-0.0385687,-1.355728,-4.675473,-2.037879,0.1367,1.361682,0.3485181,-0.6979213,0.7723813,0.4,51,-0.1305647,0.003867313,0.1682268,-0.2676093,-2.973897,-0.5883703,0.2825482,1.508364,0.2721786,-0.04395595,0.05190778,0.02426015,-0.4901005,0.8107811,-0.1473602,0.4321811,1.544872,0.1993151,-0.2166488,1.307279,0.2519625,284.428,238.5218,15.2906,True
2,1.800003,-0.364032,0.001976702,-0.03101555,-1.355202,-4.67531,-2.03422,0.1357305,1.362357,0.3480234,-0.6919569,0.5333945,0.4,51,-0.125376,-0.03880843,0.1742751,-0.2647965,-2.976058,-0.5849255,0.2818489,1.50829,0.2716229,-0.05771152,0.03914216,0.03611869,-0.4890666,0.8115219,-0.14677,0.4314367,1.544695,0.1988869,-0.2181335,1.307029,0.2512901,284.6706,238.826,14.94351,True
2,1.811115,-0.3565275,-0.01288646,-0.02456101,-1.354583,-4.675027,-2.030587,0.1347425,1.363027,0.34747,-0.6844015,0.6805688,0.4,51,-0.1244218,-0.06117643,0.173048,-0.2623773,-2.976776,-0.5828959,0.2813595,1.508356,0.2712507,-0.05130897,0.04233503,0.03712673,-0.4887039,0.8128941,-0.1476321,0.4307826,1.544579,0.1984732,-0.2194149,1.306902,0.2505224,284.7663,238.6354,15.05643,True
2,1.822226,-0.3287743,-0.03411485,-0.02343255,-1.353541,-4.674804,-2.027902,0.1337004,1.36372,0.347048,-0.6753697,0.8139165,0,32.6,-0.1191382,-0.07505826,0.1750328,-0.2601099,-2.976051,-0.5823979,0.2807063,1.508342,0.2707419,-0.01084493,0.01994857,0.03786513,-0.488109,0.8123,-0.1482411,0.4300056,1.544521,0.1980591,-0.2204954,1.306711,0.2497625,284.7665,238.3157,15.2399,True
2,1.833337,-0.296726,-0.08421673,-0.04773463,-1.350537,-4.674931,-2.025617,0.1328337,1.364321,0.346663,-0.6665242,0.7958547,0,32.6,-0.09605644,-0.130483,0.1637749,-0.2569663,-2.984579,-0.5739447,0.2801584,1.50837,0.270287,0.001880115,0.001829243,0.03244225,-0.4877686,0.8111456,-0.1476675,0.4293696,1.544492,0.1976168,-0.2215196,1.306341,0.2491058,284.8058,238.264,15.15244,True
2,1.844448,-0.2753286,-0.1300636,-0.06671377,-1.347092,-4.674841,-2.023396,0.1319532,1.364881,0.3463027,-0.6587563,0.6977195,0,32.6,-0.06738017,-0.1412427,0.1602282,-0.2544512,-2.987336,-0.5714619,0.2796886,1.508381,0.269872,-0.002395106,-0.008815642,0.0324818,-0.4874426,0.810545,-0.1467673,0.4287707,1.54434,0.1971323,-0.2226077,1.305739,0.2485952,284.9505,238.4029,14.92882,True
2,1.855559,-0.2495017,-0.2451641,-0.08961241,-1.340379,-4.6734,-2.021759,0.1312415,1.365346,0.3462927,-0.6506369,0.7307444,0,32.6,-0.02140899,-0.09454782,0.1569005,-0.2534008,-2.9814,-0.5783243,0.2792042,1.508129,0.2693377,-0.009839747,-0.01520184,0.03468161,-0.4869089,0.8099055,-0.1457708,0.4282207,1.544201,0.1966486,-0.223739,1.304839,0.2482915,285.1641,238.3646,14.91284,True
2,1.86667,-0.2471975,-0.3187208,-0.1009706,-1.334354,-4.672122,-2.019422,0.1306355,1.365755,0.3461359,-0.6420258,0.775315,0,32.6,0.019205,-0.0157455,0.1346658,-0.2542371,-2.971385,-0.5896395,0.2786908,1.507972,0.2688303,-0.001101023,-0.01092679,0.06016879,-0.4854144,0.8106593,-0.1466675,0.4276764,1.543988,0.1962004,-0.2248089,1.303551,0.2482725,285.448,238.0294,15.21932,True
2,1.877781,-0.2332619,-0.3495655,-0.09764054,-1.329685,-4.670829,-2.017643,0.1299958,1.366218,0.3459306,-0.6336794,0.7507797,0,34.2,0.03415834,0.05789362,0.1051845,-0.2557476,-2.961554,-0.5999433,0.2783816,1.507793,0.2684202,0.0201009,-0.03969176,0.05256902,-0.484576,0.8083394,-0.145277,0.4272307,1.543695,0.1955478,-0.2257752,1.301836,0.2485654,285.8186,237.61,15.6603,True
2,1.888893,-0.2129867,-0.359069,-0.09015916,-1.325684,-4.669537,-2.016328,0.1295504,1.366359,0.3457992,-0.6244937,0.827812,0,34.2,0.04077048,0.1068673,0.105453,-0.2564326,-2.949605,-0.6121747,0.2779495,1.507639,0.2679818,0.0252349,-0.0397112,0.0301566,-0.4849531,0.807087,-0.1446509,0.4267237,1.543641,0.1950116,-0.226509,1.299648,0.2491424,286.3032,236.9772,16.37541,True
2,1.900004,-0.1938037,-0.3525732,-0.07849507,-1.32226,-4.668296,-2.015231,0.1290706,1.366608,0.3457177,-0.6166363,0.7059176,0,34.2,0.05243226,0.1346328,0.08741243,-0.2574297,-2.941742,-0.6206875,0.2776921,1.507631,0.2675459,0.01794717,-0.0269064,0.04724535,-0.4839965,0.8080773,-0.1456046,0.4262894,1.543629,0.1948519,-0.2271207,1.297109,0.2498932,286.9376,237.0179,16.51734,True
2,1.911115,-0.1565693,-0.3150387,-0.04677244,-1.316814,-4.665732,-2.013368,0.1282652,1.366954,0.3451331,-0.6089914,0.6877643,0,34.2,0.03169422,0.06668089,0.06796823,-0.2566371,-2.94031,-0.6222162,0.2770137,1.507666,0.2667954,0.00461439,-0.02686464,0.1070119,-0.4799038,0.8084907,-0.1456027,0.4253273,1.543493,0.1938791,-0.2276713,1.294397,0.2506818,287.6184,237.5835,16.19716,True
2,1.922226,-0.1023803,-0.2616405,-0.04817711,-1.315642,-4.665811,-2.014103,0.1280839,1.367032,0.3447518,-0.5996171,0.8459421,0,19.5,-0.01013254,0.01576898,0.06270492,-0.2553023,-2.944339,-0.6167601,0.2767012,1.507743,0.2663383,-0.001946222,-0.06096024,0.08897853,-0.479287,0.8045533,-0.1419446,0.4250663,1.543401,0.1934495,-0.2281874,1.291599,0.2513775,288.2593,238.0567,15.98103,True
2,1.933337,-0.05037594,-0.1869293,-0.04755582,-1.315796,-4.666526,-2.015017,0.1280008,1.3671,0.3444471,-0.5937832,0.5210559,0,19.5,-0.04081491,0.01896716,0.08326933,-0.2542328,-2.939829,-0.6194939,0.2765018,1.507887,0.2659147,-0.005301247,-0.05457374,0.07088982,-0.4791464,0.8038852,-0.1411025,0.424821,1.543356,0.1931076,-0.2288423,1.288876,0.2517963,288.9951,238.3551,15.91314,True
2,1.944448,0.02518432,-0.1515314,-0.03824976,-1.31531,-4.666436,-2.017702,0.1277489,1.367081,0.3440783,-0.5877655,0.540767,0,19.5,-0.02897955,0.0380681,0.08647943,-0.2540027,-2.93388,-0.6253417,0.2762099,1.507868,0.2654748,-0.01717477,-0.03220374,0.0507444,-0.4792342,0.8049894,-0.1415894,0.4245375,1.543359,0.1927955,-0.2292553,1.286352,0.2519408,289.5446,238.9233,15.45162,True
2,1.955559,0.09340514,-0.1630339,-0.02973426,-1.313362,-4.664935,-2.02132,0.1276544,1.36722,0.3440046,-0.580453,0.6587812,0,19.5,-0.001251418,0.1191394,0.05372769,-0.2571506,-2.921177,-0.6386644,0.2761332,1.5078,0.2650678,-0.02066186,-0.005587224,0.01560096,-0.4803879,0.8066922,-0.1426954,0.4244311,1.543261,0.1925631,-0.2293308,1.28397,0.2519422,289.8791,239.4866,14.8271,True
2,1.966671,0.06675673,-0.1567085,-0.02757136,-1.311899,-4.664058,-2.021133,0.1276375,1.367198,0.3438981,-0.5743117,0.5507494,0,27,-0.01402976,0.1459083,0.04231935,-0.2585626,-2.912911,-0.6459897,0.2760518,1.507661,0.2646859,-0.001886677,-0.009884587,-0.03036561,-0.4821616,0.8055411,-0.1422935,0.4242279,1.543164,0.1922934,-0.229201,1.281636,0.2519497,290.1189,239.996,14.19207,True
2,1.977782,0.06675673,-0.1567085,-0.02757136,-1.311899,-4.664058,-2.021133,0.1276375,1.367198,0.3438981,-0.5674035,0.6219901,0,27,-0.01402976,0.1459083,0.04231935,-0.2585626,-2.912911,-0.6459897,0.2760518,1.507661,0.2646859,-0.001886677,-0.009884587,-0.03036561,-0.4821616,0.8055411,-0.1422935,0.4242279,1.543164,0.1922934,-0.2289655,1.279153,0.2520415,290.3157,240.1845,13.91657,True
2,1.988893,0.004983879,-0.1546697,-0.0136447,-1.310548,-4.663026,-2.019268,0.1277505,1.366989,0.3436511,-0.5567903,0.9601426,0,27,-0.04009332,0.12179,0.00298471,-0.2599314,-2.914668,-0.6428,0.2760929,1.50736,0.2645328,0.01182459,-0.01096794,-0.04646961,-0.4832732,0.8048451,-0.1422994,0.4240694,1.543257,0.191855,-0.2285631,1.276335,0.2522793,290.5885,240.2542,13.76536,True
2,2.000004,0.01882503,-0.1353654,0.008634232,-1.308631,-4.660611,-2.020816,0.1276375,1.366644,0.3432088,-0.5490799,0.6923876,0,27,0.007660598,-0.001515571,-0.06863792,-0.2608177,-2.931041,-0.6285092,0.2757261,1.506931,0.2638948,0.04086235,-0.03652467,-0.01368659,-0.4825339,0.8019127,-0.1415225,0.423499,1.543152,0.19087,-0.2282278,1.273285,0.2526953,291.1087,240.9407,13.05426,True
2,2.011115,0.08807807,-0.139473,0.004309967,-1.307126,-4.65975,-2.024555,0.127286,1.366584,0.3430619,-0.5406984,0.7566343,0,27,0.004675077,-0.1462359,-0.08983551,-0.2585461,-2.955025,-0.6051786,0.2753399,1.506725,0.2635465,0.03378861,-0.02689936,0.03004285,-0.480805,0.8027622,-0.142351,0.4231584,1.542999,0.1904061,-0.2279702,1.270186,0.2531993,291.7504,241.5764,12.57514,True
2,2.022226,0.1306823,-0.1469124,-0.01489048,-1.305073,-4.659665,-2.027572,0.1270392,1.366314,0.342865,-0.5377631,0.2580816,0,30.6,-0.0005484708,-0.1559008,-0.07493474,-0.2576225,-2.962525,-0.597739,0.2749519,1.506472,0.2631326,0.0202783,-0.0002351832,0.06742963,-0.4788678,0.8054695,-0.1444882,0.4228386,1.542901,0.1898582,-0.2277713,1.267234,0.2535611,292.4548,242.1504,12.28329,True
2,2.033337,0.0955276,-0.1556351,-0.03181617,-1.302764,-4.65904,-2.027483,0.1267942,1.365928,0.3425457,-0.5343633,0.3048571,0,30.6,0.004050367,-0.0663908,-0.0807627,-0.2600417,-2.955152,-0.6050137,0.2744741,1.506065,0.2626011,0.004742358,-0.007647593,0.1197663,-0.4757971,0.8059099,-0.1442879,0.4224653,1.542719,0.1894565,-0.2276329,1.264535,0.253735,292.9835,242.5977,11.95059,True
2,2.044448,0.0656791,-0.147192,-0.03288155,-1.301404,-4.65883,-2.027252,0.1265659,1.365545,0.3422751,-0.5278082,0.5923828,0,30.6,0.01999748,0.1027292,-0.05206203,-0.26367,-2.932343,-0.6277792,0.2739618,1.505799,0.2620316,0.007917784,-0.007649686,0.1176056,-0.474742,0.8060146,-0.1445873,0.4221958,1.542578,0.1890931,-0.2275274,1.261911,0.2538503,293.2559,242.6325,11.83214,True
2,2.055559,0.06562819,-0.1226467,-0.02126471,-1.300965,-4.658029,-2.028169,0.126326,1.365081,0.3418658,-0.5183657,0.8540991,0,30.6,0.06020215,0.2462727,-0.03763552,-0.2681164,-2.909101,-0.6522998,0.2735521,1.505469,0.2614279,-0.0115999,0.0200332,0.07620881,-0.4754025,0.8083361,-0.1459695,0.4219498,1.542454,0.1888847,-0.2274233,1.259163,0.2540755,293.442,242.5143,11.8197,True
2,2.06667,0.07516719,-0.09483612,-0.004371665,-1.301127,-4.657519,-2.02949,0.1261799,1.364621,0.3416238,-0.5121994,0.5528076,0,21.5,0.07742272,0.2898818,-0.03963368,-0.2711226,-2.898005,-0.6643658,0.2732003,1.505284,0.2609305,-0.03093876,0.02215961,0.05826608,-0.4752858,0.8088692,-0.1453228,0.4216458,1.542352,0.1885538,-0.2274177,1.256326,0.2544165,293.8331,242.718,11.60969,True
2,2.077781,0.08358607,-0.04257476,0.01452915,-1.30189,-4.657039,-2.030918,0.1261278,1.364046,0.3413572,-0.5076571,0.4072888,0,21.5,0.04217578,0.2484283,-0.0299819,-0.2719972,-2.893447,-0.6681426,0.2728811,1.505033,0.2605617,-0.023466,0.01789545,0.06033489,-0.4745977,0.8092123,-0.1455937,0.4213225,1.542186,0.1883004,-0.2274725,1.253567,0.2548203,294.3438,243.2038,11.247,True
2,2.088892,0.08358607,-0.04257476,0.01452915,-1.30189,-4.657039,-2.030918,0.1261278,1.364046,0.3413572,-0.5027569,0.4410451,0,21.5,0.04217578,0.2484283,-0.0299819,-0.2719972,-2.893447,-0.6681426,0.2728811,1.505033,0.2605617,-0.023466,0.01789545,0.06033489,-0.4745977,0.8092123,-0.1455937,0.4213225,1.542186,0.1883004,-0.227462,1.250951,0.2551809,294.7786,243.7651,10.88605,True
2,2.100003,0.046258,-0.01919029,0.02933971,-1.30198,-4.656941,-2.029943,0.1259859,1.363491,0.3408287,-0.4962881,0.5842304,0,21.5,0.01112649,0.203793,-0.02572343,-0.2725676,-2.892058,-0.6685509,0.2726676,1.50477,0.2603228,-0.0180252,0.0296177,0.07306412,-0.4734291,0.8111656,-0.1473269,0.4210028,1.541986,0.188015,-0.2272724,1.248487,0.2554734,295.1492,244.2654,10.48384,True
2,2.111114,0.05581414,-0.003149254,0.03670407,-1.302695,-4.65654,-2.030973,0.1258431,1.363052,0.3404131,-0.4923061,0.3557281,0,21.5,-0.002146751,0.1187015,-0.03682515,-0.2721879,-2.898463,-0.6618919,0.2724494,1.504466,0.2601216,-0.02631168,0.04987951,0.09975383,-0.4715526,0.8147109,-0.1498452,0.4207611,1.541773,0.1877947,-0.2269491,1.246264,0.2557381,295.5389,244.7152,10.04368,True
2,2.122225,0.06432661,0.002146276,0.0345149,-1.302237,-4.65629,-2.032202,0.1256036,1.362569,0.3399053,-0.485204,0.6432822,0,21.5,-0.03179987,0.03716776,-0.09036485,-0.2732131,-2.911328,-0.6483024,0.2722117,1.504098,0.2598979,-0.03287931,0.0221721,0.08172047,-0.4711185,0.8130503,-0.1476931,0.4205916,1.541586,0.1875491,-0.2266424,1.244179,0.2559376,295.7244,245.0605,9.79067,True
2,2.133336,0.07813645,0.01279932,0.02698554,-1.302723,-4.656487,-2.033488,0.1253701,1.362266,0.3393655,-0.4820955,0.2755634,0.1,34.1,-0.05541895,-0.02350979,-0.08095398,-0.2723945,-2.918936,-0.6395139,0.271935,1.50381,0.2596734,-0.03564336,0.0008219667,0.01038022,-0.4733737,0.8105178,-0.1448584,0.4203946,1.541442,0.1874044,-0.226521,1.242214,0.2559893,295.9575,245.4663,9.533973,True
2,2.144447,0.08664819,0.01599297,0.02484909,-1.303027,-4.656037,-2.034801,0.125021,1.361837,0.3389933,-0.4778515,0.3828343,0.1,34.1,-0.07500246,-0.09152595,-0.09188719,-0.2716579,-2.93112,-0.6264314,0.2715304,1.503462,0.259351,-0.04847156,0.02852203,0.004074765,-0.4738424,0.8131654,-0.1461657,0.420176,1.54131,0.1871972,-0.2264741,1.240349,0.2558732,296.1375,245.7192,9.371887,True
2,2.155558,0.08343878,0.02132859,0.02802196,-1.303581,-4.655859,-2.035599,0.1247445,1.361428,0.3385792,-0.4733641,0.4038363,0.1,34.1,-0.08121225,-0.07666329,-0.08000508,-0.2718731,-2.933164,-0.6233616,0.2710766,1.503244,0.2589736,-0.05978939,0.04773403,0.04784267,-0.4718967,0.8164404,-0.1481983,0.4198865,1.541138,0.1867588,-0.2264699,1.238481,0.2556334,296.2953,245.8429,9.251978,True
2,2.166669,0.0760195,0.01065845,0.03128134,-1.303384,-4.655217,-2.036401,0.1242195,1.361054,0.338069,-0.4686109,0.4281354,0.1,34.1,-0.0691437,-0.02246381,-0.06910289,-0.2731913,-2.928733,-0.6273406,0.2706023,1.502965,0.2584414,-0.063692,0.04563241,0.08942594,-0.4696628,0.8181773,-0.1488987,0.419542,1.541035,0.1864324,-0.2264643,1.236571,0.2553483,296.4713,246.0387,8.994457,True
2,2.17778,0.06335104,-0.0394783,0.02623512,-1.301643,-4.653579,-2.03779,0.1236213,1.360429,0.3372715,-0.4634987,0.4606491,0,15.7,-0.03175147,0.1421932,-0.02466328,-0.2771392,-2.905605,-0.6498371,0.269796,1.502403,0.2573407,-0.0582372,0.0520323,0.1032256,-0.4672649,0.821811,-0.1511269,0.4189555,1.540764,0.1859157,-0.2264569,1.234556,0.255076,296.6609,246.2606,8.702549,True
2,2.188891,0.06335104,-0.0394783,0.02623512,-1.301643,-4.653579,-2.03779,0.1236213,1.360429,0.3372715,-0.4593154,0.3753768,0,15.7,-0.03175147,0.1421932,-0.02466328,-0.2771392,-2.905605,-0.6498371,0.269796,1.502403,0.2573407,-0.0582372,0.0520323,0.1032256,-0.4672649,0.821811,-0.1511269,0.4189555,1.540764,0.1859157,-0.226531,1.232407,0.2548173,296.8849,246.5508,8.447076,True
2,2.200002,0.05815352,-0.08634727,0.03183115,-1.299782,-4.651461,-2.038828,0.1233718,1.360399,0.3370407,-0.4533733,0.5369892,0,15.7,-0.03380439,0.1827536,-0.03503036,-0.2797933,-2.898621,-0.6560279,0.2694561,1.502149,0.256953,-0.05510596,0.0573546,0.09468116,-0.4666125,0.8239884,-0.1526314,0.418782,1.540694,0.1857066,-0.2266966,1.230067,0.2545194,297.1671,246.7381,8.296642,True
2,2.211113,0.05388637,-0.07240827,0.05200832,-1.299366,-4.649261,-2.040492,0.122752,1.359773,0.3362586,-0.448945,0.3972868,0,15.7,-0.0498459,0.1657699,-0.03285636,-0.2824149,-2.889106,-0.6634589,0.2688284,1.50167,0.2564456,-0.04587886,0.03708076,0.05412518,-0.4665672,0.8245818,-0.1525312,0.4182326,1.540466,0.185571,-0.2265428,1.227762,0.2543244,297.6288,246.9459,7.965346,True
2,2.222224,0.04841664,-0.01057646,0.06449179,-1.301605,-4.649209,-2.040888,0.1224654,1.359308,0.3357344,-0.445149,0.3409148,0,6.8,-0.04606252,0.07311694,-0.03884802,-0.2816516,-2.896753,-0.6556399,0.26848,1.501389,0.2562909,-0.04919797,0.0434676,0.03924006,-0.4667414,0.8260822,-0.1532473,0.417894,1.540381,0.1854665,-0.226343,1.225507,0.2541894,298.069,246.9916,7.929097,True
2,2.233335,0.04302864,0.01392151,0.06650905,-1.302816,-4.648911,-2.041276,0.1221659,1.358912,0.3353226,-0.4404858,0.4205142,0,6.8,-0.06567262,0.01046024,-0.05506485,-0.2814706,-2.904102,-0.6473649,0.2681401,1.50113,0.2561209,-0.04152103,0.06691871,0.0625936,-0.4654774,0.8302273,-0.1567869,0.4175318,1.540263,0.1852369,-0.2261678,1.223256,0.2539581,298.4285,246.9699,8.07383,True
2,2.244446,0.03336682,0.0394332,0.06000432,-1.304123,-4.6491,-2.041306,0.1218165,1.358516,0.3348804,-0.4358316,0.41902,0,6.8,-0.08939993,-0.03518249,-0.06366386,-0.2811638,-2.911342,-0.6386215,0.2677739,1.500828,0.255919,-0.03709695,0.07864667,0.08065972,-0.4640878,0.8338184,-0.1597577,0.4171368,1.540152,0.1851482,-0.2259948,1.221063,0.2536313,298.741,247.3621,7.730133,True
2,2.255557,0.02483309,0.04256379,0.05147603,-1.304657,-4.649106,-2.041429,0.121419,1.358055,0.3343017,-0.4314305,0.396011,0,6.8,-0.07988763,-0.07791345,-0.05232945,-0.2800681,-2.918,-0.6316789,0.2673935,1.500591,0.2556453,-0.03198902,0.05838843,0.05719037,-0.4643035,0.8333883,-0.1591151,0.4167778,1.54004,0.1851194,-0.225876,1.218982,0.2532261,299.0278,247.9797,7.110481,True
2,2.266668,0.01205023,0.03715346,0.0408666,-1.304866,-4.649138,-2.041128,0.12095,1.357719,0.3338349,-0.4269644,0.4022212,0,6.8,-0.06597905,-0.08763561,-0.04187558,-0.2793581,-2.921865,-0.6277579,0.2669346,1.500288,0.2553427,-0.04276048,0.08182212,0.0423535,-0.4646327,0.8371252,-0.1615508,0.4164782,1.539894,0.1850703,-0.2258188,1.217042,0.2527892,299.3126,248.3705,6.657833,True
2,2.277779,0.003539609,0.03289109,0.04409227,-1.30536,-4.648744,-2.040944,0.1205331,1.357375,0.3334126,-0.4228029,0.3743097,0.2,2.8,-0.08200263,-0.0704354,-0.05438561,-0.2801587,-2.924362,-0.6239307,0.2664949,1.50008,0.2549579,-0.0660794,0.1074106,0.05425817,-0.4639935,0.8421548,-0.1645349,0.4161557,1.539778,0.1849506,-0.2258745,1.215264,0.2523767,299.5634,248.6188,6.348447,True
2,2.28889,0.003539609,0.03289109,0.04409227,-1.30536,-4.648744,-2.040944,0.1205331,1.357375,0.3334126,-0.4187554,0.364874,0.2,2.8,-0.08200263,-0.0704354,-0.05438561,-0.2801587,-2.924362,-0.6239307,0.2664949,1.50008,0.2549579,-0.0660794,0.1074106,0.05425817,-0.4639935,0.8421548,-0.1645349,0.4161557,1.539778,0.1849506,-0.2260493,1.213648,0.2520131,299.7746,248.7735,6.168418,True
2,2.300001,-0.002866977,0.03925973,0.04193768,-1.306203,-4.648729,-2.040815,0.1201617,1.356925,0.3329387,-0.4158899,0.2572343,0.2,2.8,-0.1075152,-0.01051559,-0.07610704,-0.2825715,-2.922789,-0.6233427,0.2659754,1.499777,0.2545094,-0.07664932,0.09890275,0.06395154,-0.4629724,0.844267,-0.1652957,0.415893,1.539651,0.184747,-0.2262142,1.212274,0.2517436,300.013,248.8749,5.996593,True
2,2.311112,-0.02101993,0.05841846,0.04612406,-1.308439,-4.648655,-2.039843,0.1195471,1.356247,0.3320754,-0.4129737,0.2630419,0.2,2.8,-0.06407215,0.1094669,-0.04588269,-0.2859489,-2.905902,-0.6393283,0.2651601,1.499201,0.2536926,-0.07357011,0.1138047,0.05006612,-0.4627077,0.8514117,-0.1700095,0.4152055,1.53947,0.1845074,-0.2261871,1.21123,0.2516434,300.2081,248.9615,5.841552,True
2,2.322223,-0.02102346,0.05733181,0.04186972,-1.309103,-4.64862,-2.039637,0.1191707,1.356049,0.3316071,-0.4102924,0.2416576,1.1,1.6,-0.08200587,0.09553431,-0.02129291,-0.285828,-2.903254,-0.640327,0.2648394,1.498998,0.2533379,-0.06518453,0.08822858,0.03510394,-0.4627424,0.851649,-0.1699304,0.414828,1.539411,0.1844356,-0.2264099,1.210386,0.2515853,300.264,249.2334,5.755493,True
2,2.333334,-0.01889268,0.05841321,0.04399202,-1.309949,-4.648425,-2.039554,0.1186952,1.355837,0.3311598,-0.4085593,0.1554349,1.1,1.6,-0.08923215,0.08899273,0.005361989,-0.285477,-2.899663,-0.642466,0.2644235,1.498767,0.253135,-0.06732148,0.1010129,0.03404563,-0.462704,0.8552587,-0.1722565,0.4144877,1.53929,0.1842968,-0.2269665,1.209657,0.2513591,300.2325,249.6395,5.666668,True
2,2.344445,-0.0199703,0.06803562,0.0514029,-1.311271,-4.64817,-2.039396,0.1181685,1.355622,0.3307443,-0.407176,0.1242654,1.1,1.6,-0.07889885,0.05817699,-0.01305741,-0.2858579,-2.90235,-0.6393611,0.2640236,1.49857,0.2529783,-0.06937643,0.1127407,0.04151557,-0.4622592,0.859456,-0.1752176,0.4141307,1.539154,0.1842866,-0.2274278,1.209105,0.2509381,300.2281,249.8378,5.592116,True
2,2.355556,-0.02956075,0.07229791,0.05672147,-1.312484,-4.647856,-2.038836,0.117607,1.35546,0.3303328,-0.4058535,0.1190875,1.1,1.6,-0.06644855,-0.008980505,-0.01577588,-0.2848719,-2.910161,-0.6315039,0.2635075,1.498492,0.2528822,-0.05028293,0.08502678,0.03391024,-0.462133,0.8593922,-0.1752525,0.4137536,1.539019,0.1841674,-0.2278086,1.208715,0.2503592,300.2464,249.873,5.513579,True
2,2.366668,-0.02953399,0.06163503,0.05464334,-1.313015,-4.647516,-2.038627,0.1170774,1.355345,0.3298874,-0.4045251,0.1197275,1.1,1.6,-0.06560178,-0.06867803,-0.01085954,-0.283085,-2.918155,-0.6231301,0.2630977,1.498246,0.25267,-0.05023157,0.09782006,0.03816477,-0.4618651,0.8632361,-0.1781913,0.4134111,1.53891,0.1840582,-0.2281923,1.208439,0.2496746,300.235,249.9015,5.380314,True
2,2.377779,-0.04443347,0.05089578,0.0451294,-1.313264,-4.64744,-2.037651,0.1165941,1.355264,0.329438,-0.4030423,0.1339773,0.4,1.6,-0.08258623,-0.08574234,0.00303385,-0.2818237,-2.921657,-0.6182408,0.2626962,1.498074,0.2524936,-0.05859254,0.1042286,0.05634399,-0.4608952,0.8667881,-0.1804473,0.41306,1.538796,0.1839373,-0.2286337,1.208236,0.2489171,300.1967,249.994,5.191576,True
2,2.38889,-0.06361717,0.04757787,0.03026152,-1.313589,-4.647752,-2.036313,0.1162037,1.355136,0.3289614,-0.4024521,0.05237669,0.4,1.6,-0.08794673,-0.06966764,-0.007454783,-0.2821592,-2.922522,-0.6162243,0.2624205,1.497773,0.2521598,-0.05969401,0.09783912,0.05316438,-0.460558,0.8689642,-0.1816318,0.4126924,1.538719,0.1838546,-0.229144,1.208091,0.2481072,300.1762,250.071,5.034284,True
2,2.400001,-0.08177914,0.05809905,0.01319019,-1.314282,-4.648589,-2.034588,0.1157947,1.354962,0.328511,-0.4010497,0.1274143,0.4,1.6,-0.1009632,-0.0694469,-0.03075613,-0.2826136,-2.926811,-0.6104953,0.262044,1.497454,0.2518182,-0.05474722,0.08182906,0.01051823,-0.4619626,0.8692176,-0.1814175,0.4123504,1.538628,0.1838193,-0.2296634,1.207997,0.2472885,300.1512,250.0247,4.984432,True
2,2.411112,-0.08927896,0.06974693,0.002487792,-1.315219,-4.649472,-2.033201,0.1154055,1.354809,0.3280993,-0.4001139,0.08412698,0.4,1.6,-0.09116508,-0.04612743,-0.02004528,-0.2826605,-2.926137,-0.6104402,0.2615796,1.497214,0.2515039,-0.05487972,0.07862201,-0.004406318,-0.4628462,0.8705394,-0.1819645,0.4120024,1.53859,0.183821,-0.2301776,1.207971,0.2465197,300.1489,249.9643,4.937579,True
2,2.422223,-0.1063363,0.07287258,-0.002831444,-1.315962,-4.650071,-2.031386,0.1148884,1.354727,0.3277187,-0.3993772,0.06644991,0.4,1.6,-0.06615287,-0.0113291,0.0161773,-0.2820596,-2.920101,-0.616281,0.2611085,1.497051,0.2511704,-0.06743301,0.113802,0.01912255,-0.4622182,0.8765211,-0.1862082,0.4117113,1.538398,0.1837242,-0.230698,1.208048,0.245854,300.1412,249.9547,4.856136,True
2,2.433334,-0.1063178,0.06756193,0.0003906395,-1.316521,-4.650239,-2.030166,0.1143545,1.354737,0.3273306,-0.3993341,0.003262143,0.1,1.4,-0.0457315,-0.005129382,0.03093112,-0.2815009,-2.918245,-0.6183349,0.2607575,1.496912,0.2508812,-0.07677257,0.1298051,0.04688789,-0.4611908,0.8815206,-0.1894866,0.4113287,1.538393,0.1836734,-0.2312784,1.208255,0.2453326,300.1135,250.027,4.72965,True
2,2.444445,-0.1063178,0.06756193,0.0003906395,-1.316521,-4.650239,-2.030166,0.1143545,1.354737,0.3273306,-0.3985698,0.06970356,0.1,1.4,-0.0457315,-0.005129382,0.03093112,-0.2815009,-2.918245,-0.6183349,0.2607575,1.496912,0.2508812,-0.07677257,0.1298051,0.04688789,-0.4611908,0.8815206,-0.1894866,0.4113287,1.538393,0.1836734,-0.2319179,1.208595,0.244965,300.0398,250.1242,4.634847,True
2,2.455556,-0.08804961,0.003644727,-0.008908757,-1.314953,-4.649881,-2.028937,0.1132819,1.355158,0.3265579,-0.3998837,-0.1209215,0.1,1.4,-0.07307265,0.02894914,0.05166933,-0.28142,-2.910949,-0.6229458,0.2600828,1.49669,0.2503197,-0.0491534,0.09888004,0.04027017,-0.4605575,0.8844401,-0.1917649,0.4107905,1.53828,0.1834936,-0.2325343,1.209078,0.2447291,299.9533,250.1504,4.635034,True
2,2.466667,-0.09866426,-0.01878393,-0.01624296,-1.314053,-4.64996,-2.027337,0.1128201,1.355224,0.3263335,-0.3978853,0.1836384,0.1,1.4,-0.06880058,-0.001002952,0.06634632,-0.2796564,-2.911296,-0.6220321,0.2597569,1.496561,0.2500699,-0.04846882,0.08499576,-0.002340212,-0.4620638,0.8846711,-0.1914011,0.4105141,1.538164,0.1834145,-0.233009,1.209627,0.244614,299.7994,250.1061,4.75518,True
2,2.477778,-0.1082283,-0.02947768,-0.01937278,-1.313318,-4.649948,-2.025841,0.1123116,1.35534,0.3259988,-0.3987519,-0.08108618,0,1.6,-0.05408426,-0.04046731,0.06379527,-0.2782125,-2.916026,-0.617533,0.2593088,1.496434,0.2497602,-0.06247266,0.08818831,-0.0203313,-0.4630992,0.8866774,-0.1920243,0.4102566,1.538137,0.183341,-0.2338851,1.210161,0.2444385,299.788,250.1947,4.876453,True
2,2.488889,-0.1284522,-0.03699493,-0.02143804,-1.312733,-4.649982,-2.023692,0.1118775,1.355455,0.3257496,-0.3977319,0.09403588,0,1.6,-0.04317579,-0.02039137,0.08087149,-0.2773272,-2.911302,-0.6218934,0.25904,1.496467,0.2495615,-0.05709198,0.08286149,-0.01505487,-0.4632276,0.8883694,-0.1932414,0.4100044,1.538027,0.1832929,-0.2347202,1.210723,0.2442035,299.7173,249.9501,5.195775,True
2,2.5,-0.1391312,-0.02421331,-0.01615951,-1.31283,-4.650033,-2.021788,0.1115675,1.355581,0.3253973,-0.3975647,0.01432596,0,1.6,-0.04748173,-3.724545E-05,0.06720716,-0.2774417,-2.908426,-0.6239579,0.2587793,1.496458,0.249372,-0.04103129,0.0647487,-0.004529454,-0.4629341,0.8886864,-0.1936329,0.4097653,1.538013,0.183171,-0.2354669,1.211295,0.243948,299.6203,249.7427,5.3818,True
2,2.511111,-0.1306605,-0.003939964,-0.01414266,-1.313396,-4.650433,-2.020578,0.1112225,1.355738,0.3251212,-0.3968659,0.06380809,0,1.6,-0.04957465,0.006353747,0.06833349,-0.2769656,-2.906302,-0.6253398,0.2585613,1.496464,0.2491567,-0.02930385,0.04662735,-0.003562926,-0.4630252,0.8881803,-0.1934227,0.4095128,1.538038,0.1830964,-0.236145,1.211878,0.243671,299.5311,249.6235,5.483417,True
2,2.522222,-0.1190244,0.03128184,-0.006875465,-1.314884,-4.650969,-2.019519,0.1110456,1.355938,0.3248527,-0.3970246,-0.0150373,0,1.6,-0.06795426,-0.02116382,0.05341655,-0.2761804,-2.90959,-0.6208308,0.2585739,1.496497,0.2489717,-0.02081235,0.02638024,-0.005754327,-0.463046,0.8870779,-0.1925356,0.4093557,1.538048,0.182981,-0.2367471,1.212507,0.2433604,299.4848,249.5829,5.535469,True
2,2.533333,-0.1126866,0.05260637,-0.0069925,-1.315996,-4.651678,-2.018366,0.1108428,1.35619,0.3245585,-0.3978102,-0.07166885,0,1.1,-0.07524183,-0.01376722,0.06738754,-0.2752425,-2.906775,-0.62247,0.2584822,1.496576,0.2487814,-0.02401046,0.01892095,-0.006797786,-0.463324,0.8868418,-0.1920214,0.4092056,1.538072,0.1828325,-0.2372608,1.21322,0.2429788,299.4364,249.6105,5.542758,True
2,2.544444,-0.09780201,0.06327507,-0.01239092,-1.316798,-4.652447,-2.017702,0.1105981,1.356412,0.3243306,-0.3980004,-0.01685505,0,1.1,-0.06954431,-0.005499758,0.1014798,-0.2735168,-2.901071,-0.6273494,0.2584961,1.496685,0.2486451,-0.01219586,0.008272664,0.004832922,-0.4627093,0.8867766,-0.1922328,0.4091643,1.538057,0.1827021,-0.2376989,1.214001,0.2425375,299.3327,249.6659,5.482038,True
2,2.555555,-0.08823656,0.06542844,-0.01987799,-1.31768,-4.653536,-2.016718,0.1105477,1.357027,0.3256786,-0.3978486,0.01385844,0,1.1,-0.04723414,-0.003419932,0.09382036,-0.2728579,-2.899039,-0.6296318,0.2584441,1.49672,0.2485335,0.005906858,-0.005599255,0.004682952,-0.4625384,0.8851821,-0.1915612,0.4090887,1.537981,0.182533,-0.2380286,1.214819,0.2420594,299.1916,249.783,5.334888,True
2,2.566666,-0.09141453,0.05365993,-0.02833724,-1.31755,-4.654183,-2.015363,0.1102542,1.357388,0.3256192,-0.3982123,-0.03347918,0,1.1,-0.009105347,-0.01519471,0.07632276,-0.2723322,-2.900285,-0.6297247,0.2584147,1.496811,0.2485116,0.01424771,-0.008813195,-0.01562544,-0.4633618,0.8843442,-0.1912299,0.4089917,1.538064,0.1824491,-0.238344,1.215624,0.2415818,299.0603,249.8321,5.225398,True
2,2.577777,-0.1040671,-0.003968547,-0.04295663,-1.315247,-4.654284,-2.013709,0.1100637,1.357756,0.3257177,-0.3978853,0.03012882,0,0.7,0.00666023,-0.05679193,0.07375888,-0.2706315,-2.905013,-0.6257691,0.2583593,1.496917,0.2485259,0.01388342,-0.02375717,-0.05609871,-0.4652926,0.8818327,-0.1890581,0.408959,1.53808,0.1822634,-0.238613,1.216388,0.2412465,298.9574,249.6638,5.101984,True
2,2.588888,-0.1071597,-0.04660078,-0.04701116,-1.31327,-4.654163,-2.012418,0.1099405,1.358165,0.325773,-0.3972621,0.05661786,0,0.7,0.02786496,-0.08780746,0.07760587,-0.2685308,-2.908695,-0.6231541,0.2583417,1.497045,0.2485132,0.009656318,-0.02163186,-0.05287041,-0.4656777,0.8809679,-0.1883001,0.4088281,1.538146,0.1820967,-0.23881,1.217159,0.2413667,298.9034,249.5138,4.847722,True
2,2.599999,-0.1071597,-0.04660078,-0.04701116,-1.31327,-4.654163,-2.012418,0.1099405,1.358165,0.325773,-0.3967242,0.0486857,0,0.7,0.02786496,-0.08780746,0.07760587,-0.2685308,-2.908695,-0.6231541,0.2583417,1.497045,0.2485132,0.009656318,-0.02163186,-0.05287041,-0.4656777,0.8809679,-0.1883001,0.4088281,1.538146,0.1820967,-0.2391859,1.217891,0.2418653,298.8619,249.4419,4.950417,True
2,2.61111,-0.09325603,-0.07754153,-0.06499046,-1.309691,-4.654606,-2.010525,0.1099224,1.358788,0.3259387,-0.3982661,-0.1413583,0,0.7,0.00447078,-0.04178272,0.06109889,-0.2680354,-2.907391,-0.623928,0.2581892,1.497262,0.2482524,0.0168593,-0.03010319,0.04081542,-0.4620494,0.8804724,-0.1883712,0.4085708,1.538215,0.1816096,-0.2396054,1.218591,0.2426111,298.8184,249.2616,5.405085,True
2,2.622221,-0.08799218,-0.05624726,-0.07043043,-1.309377,-4.655573,-2.009455,0.1098835,1.359105,0.3259871,-0.3959812,0.2101462,0,0.7,0.01357115,0.02617672,0.08916304,-0.2680615,-2.894678,-0.6366308,0.2581548,1.497522,0.2481167,0.02969091,-0.04182498,0.04710364,-0.4611189,0.8788152,-0.1876706,0.4085156,1.53827,0.1814306,-0.2399078,1.219188,0.2434192,298.6932,249.1471,5.864588,True
2,2.633332,-0.08807618,-0.02537216,-0.07378335,-1.309644,-4.656833,-2.008162,0.1099207,1.359302,0.3260193,-0.3974704,-0.1381216,0,0.7,0.05031896,0.09403894,0.1116367,-0.2685393,-2.879489,-0.6531346,0.258202,1.49782,0.2479744,0.03572338,-0.04825947,0.005506499,-0.4624079,0.8761852,-0.1860287,0.4087043,1.538383,0.1812768,-0.2401869,1.219741,0.2441861,298.8147,248.8451,6.379668,True
2,2.644443,-0.08385007,-0.01042083,-0.06960188,-1.309783,-4.657587,-2.007164,0.1099504,1.35948,0.3261249,-0.3975072,-0.001940397,0,0.7,0.07901539,0.1025035,0.1007603,-0.2688237,-2.873313,-0.6609737,0.258293,1.498032,0.2479224,0.02261222,-0.04614411,-0.03166272,-0.4638673,0.8746994,-0.1844082,0.4086862,1.538561,0.1811736,-0.2403523,1.22034,0.2449017,298.8447,248.8332,6.523959,True
2,2.655554,-0.07541189,0.02801371,-0.05808414,-1.311232,-4.658556,-2.006373,0.1102473,1.359556,0.3263292,-0.3972882,0.01990415,0,0.7,0.09241863,0.08885912,0.06111396,-0.2696584,-2.874718,-0.6610852,0.2583979,1.498292,0.2480257,0.007347539,-0.06107512,-0.07093789,-0.465805,0.8712168,-0.1808222,0.4087946,1.538699,0.1810699,-0.2405219,1.220961,0.2455226,298.7997,249.023,6.472297,True
2,2.666665,-0.05734768,0.04511512,-0.0560634,-1.311912,-4.659523,-2.006026,0.1104093,1.359838,0.326421,-0.3973825,-0.008829414,0,0.7,0.0974068,0.05594169,0.04166592,-0.2695162,-2.876706,-0.6604187,0.2584575,1.498447,0.2481065,0.006276548,-0.07066214,-0.0709223,-0.4663802,0.8684335,-0.1783596,0.4088389,1.538806,0.1809223,-0.2406991,1.221587,0.246008,298.7168,249.1721,6.451538,True
2,2.677776,-0.03498049,0.04838549,-0.0529148,-1.312307,-4.660272,-2.006212,0.1105941,1.360036,0.3265474,-0.3976046,-0.02027942,0,1,0.07730831,-0.02562064,-0.0151552,-0.269236,-2.891456,-0.6463162,0.2585719,1.49866,0.2483747,0.03212307,-0.09091581,-0.03704853,-0.4652276,0.8643817,-0.175954,0.4086129,1.538796,0.1807251,-0.2408058,1.222201,0.2463374,298.6075,249.2299,6.467784,True
2,2.688887,-0.02641829,0.02597647,-0.06453571,-1.311317,-4.661098,-2.005921,0.1106395,1.360268,0.3266723,-0.3979913,-0.03526755,0,1,0.03965875,-0.1032093,-0.01637838,-0.2672205,-2.903922,-0.6334035,0.2585475,1.498828,0.248502,0.03972414,-0.1100815,-0.01899444,-0.4645496,0.86062,-0.1732799,0.4087477,1.538912,0.1805713,-0.2407416,1.222795,0.2465235,298.4856,249.3591,6.35744,True
2,2.699998,-0.02425073,0.005683906,-0.07615702,-1.310212,-4.661996,-2.005492,0.110606,1.360499,0.3267903,-0.398386,-0.03586526,0,1,0.0374006,-0.1522631,-0.007105235,-0.2650239,-2.913387,-0.6246372,0.2585697,1.499094,0.2486277,0.03442645,-0.09303218,-0.01682894,-0.4645858,0.8595119,-0.172515,0.4086921,1.538993,0.1804199,-0.2406044,1.223321,0.2466022,298.3993,249.3997,6.282891,True
2,2.711109,-0.02313519,-0.02204821,-0.08669084,-1.308631,-4.663056,-2.00483,0.1105555,1.360574,0.3267527,-0.3978283,0.05117455,0,1,0.0432025,-0.1098568,0.02083266,-0.2642063,-2.909217,-0.6295567,0.2585599,1.499067,0.2475963,0.01222355,-0.06319238,0.0014576,-0.4640159,0.8602542,-0.1724458,0.4086756,1.538966,0.1801243,-0.2404541,1.22371,0.2466473,298.317,249.2816,6.312309,True
2,2.72222,-0.0231298,-0.03064217,-0.1015638,-1.307409,-4.66436,-2.004283,0.1104956,1.36084,0.3268511,-0.39753,0.02671092,0,1,0.05995078,0.00067994,0.04805143,-0.2652349,-2.894768,-0.6447806,0.2585285,1.499146,0.2474003,0.006963532,-0.06104597,0.008963589,-0.4635205,0.8591737,-0.1714024,0.4086136,1.538901,0.180063,-0.2404277,1.223925,0.2467554,298.3093,249.0558,6.415197,True
2,2.733331,-0.0167743,-0.01891663,-0.1048283,-1.307118,-4.665717,-2.003948,0.1104294,1.361057,0.3270738,-0.3972467,0.02566538,1.4,1.3,0.06570651,0.07409424,0.05807953,-0.2664498,-2.882444,-0.6576029,0.2584891,1.499199,0.247257,0.02291016,-0.02910327,0.002407308,-0.463888,0.8605606,-0.1735007,0.4086035,1.538848,0.1800606,-0.2405603,1.224,0.2470024,298.3544,248.864,6.530667,True
2,2.744442,-0.0167743,-0.01891663,-0.1048283,-1.307118,-4.665717,-2.003948,0.1104294,1.361057,0.3270738,-0.3973543,-0.01004878,1.4,1.3,0.06570651,0.07409424,0.05807953,-0.2664498,-2.882444,-0.6576029,0.2584891,1.499199,0.247257,0.02291016,-0.02910327,0.002407308,-0.463888,0.8605606,-0.1735007,0.4086035,1.538848,0.1800606,-0.2405392,1.224146,0.2474751,298.3536,248.5738,6.75625,True
2,2.755553,-0.02319347,-0.002901819,-0.09424923,-1.307303,-4.666636,-2.00321,0.1104331,1.361309,0.3272846,-0.3975311,-0.01613587,1.4,1.3,0.07775663,0.1389971,0.06159763,-0.2680136,-2.870378,-0.6705155,0.2584586,1.499371,0.2472913,0.03133747,-0.014196,-0.009394875,-0.4644777,0.8613384,-0.1748251,0.4086426,1.538885,0.1799958,-0.2409149,1.224056,0.2480087,298.5374,248.6245,6.851274,True
2,2.766664,-0.02319347,-0.002901819,-0.09424923,-1.307303,-4.666636,-2.00321,0.1104331,1.361309,0.3272846,-0.3970256,0.04635105,1.4,1.3,0.07775663,0.1389971,0.06159763,-0.2680136,-2.870378,-0.6705155,0.2584586,1.499371,0.2472913,0.03133747,-0.014196,-0.009394875,-0.4644777,0.8613384,-0.1748251,0.4086426,1.538885,0.1799958,-0.241159,1.224022,0.2486233,298.617,248.9137,6.705841,True
2,2.777775,-0.02522651,-0.04123971,-0.09192929,-1.304838,-4.667694,-2.002198,0.1106056,1.361786,0.3277416,-0.3974139,-0.03597962,1.4,1.3,0.09848686,0.06022004,0.03849269,-0.2671545,-2.873182,-0.6707472,0.2585826,1.499474,0.2473369,0.0299008,-0.04724639,-0.0498433,-0.4664654,0.8560196,-0.1707084,0.4087732,1.538875,0.1798003,-0.2413585,1.224143,0.2493494,298.7233,249.1331,6.5683,True
2,2.788886,-0.01547567,-0.1137448,-0.1107627,-1.299312,-4.668478,-2.001962,0.1108238,1.362401,0.3281972,-0.3970422,0.0343155,2.4,1.6,0.08305459,-0.04728722,0.03471754,-0.2638996,-2.884627,-0.6610062,0.2588893,1.499649,0.2475553,0.03315391,-0.1036934,-0.03811902,-0.4663994,0.8478849,-0.1640659,0.4089885,1.53886,0.1792233,-0.2414557,1.224383,0.2500659,298.7067,249.2048,6.681715,True
2,2.799997,-0.009028798,-0.1404129,-0.1212931,-1.296294,-4.669005,-2.001982,0.1108712,1.362762,0.3283572,-0.396957,0.007476562,2.4,1.6,0.07753924,-0.07491676,0.0281924,-0.2626585,-2.890481,-0.6560053,0.2589616,1.499743,0.2476034,0.04397395,-0.1079411,-0.01797517,-0.4657837,0.8454739,-0.1627119,0.4089863,1.538858,0.1790354,-0.2414465,1.22473,0.2507553,298.7067,249.0208,6.947898,True
2,2.811108,-0.002643019,-0.1382665,-0.1223779,-1.294569,-4.669742,-2.001984,0.1109006,1.362925,0.3285117,-0.3974097,-0.04144596,2.4,1.6,0.07448703,-0.06858768,0.03998122,-0.2618271,-2.889154,-0.6580346,0.2590127,1.499832,0.2476499,0.04961051,-0.07489577,0.0149715,-0.4645496,0.8469894,-0.164835,0.4089447,1.538868,0.1789577,-0.2413114,1.225188,0.2515175,298.7462,248.4663,7.458656,True
2,2.822219,-0.001675041,-0.09664931,-0.1119038,-1.295083,-4.670534,-2.001744,0.1108504,1.363175,0.3291504,-0.3975332,-0.01095382,2.4,1.6,0.09376661,-0.05699404,0.04519816,-0.2611592,-2.88798,-0.6609902,0.2589218,1.499899,0.2476199,0.04008847,-0.05996597,0.02250288,-0.4640649,0.8470072,-0.1647913,0.4089192,1.53897,0.1788521,-0.2412053,1.225681,0.2523774,298.7165,248.0045,7.945189,True
2,2.83333,-0.000793919,-0.01772165,-0.0931017,-1.297613,-4.671818,-2.001374,0.1108402,1.363167,0.3292928,-0.3975199,0.001221328,3.1,1.5,0.08949797,-0.006736577,0.02106822,-0.2628923,-2.884161,-0.6655934,0.2587004,1.499908,0.2475543,0.03147125,-0.049317,0.01085079,-0.4643456,0.8463897,-0.1642973,0.4089456,1.538998,0.1788161,-0.2412172,1.226129,0.2532948,298.6497,247.762,8.324576,True
2,2.844441,-0.002027063,0.05585494,-0.07748236,-1.300434,-4.673494,-2.000904,0.1108441,1.363078,0.3293631,-0.3972339,0.02607559,3.1,1.5,0.06289563,-0.001288213,0.02137244,-0.2626905,-2.882739,-0.6668076,0.2586537,1.499918,0.2474844,0.02057157,-0.05039039,-0.01675512,-0.4654928,0.8447144,-0.1625932,0.4090064,1.539007,0.1788003,-0.2413359,1.226478,0.2542141,298.5798,247.7532,8.483511,True
2,2.855552,-0.001036394,0.09209383,-0.06704303,-1.301665,-4.675031,-2.000591,0.1108364,1.362937,0.3293073,-0.39717,0.005639192,3.1,1.5,0.04152182,-0.01396923,0.02042943,-0.2620859,-2.884312,-0.6649919,0.2585797,1.499851,0.2473717,0.005758079,-0.03120061,-0.007049922,-0.4652841,0.8454174,-0.1628651,0.4089373,1.53895,0.1787126,-0.2415279,1.226754,0.2550935,298.538,248.0978,8.289965,True
2,2.866663,-0.004223527,0.0910265,-0.06490061,-1.302144,-4.675983,-2.000224,0.110827,1.362929,0.3294055,-0.3971444,0.002254707,3.1,1.5,0.02248258,0.01488929,0.02080931,-0.2627597,-2.879626,-0.6691504,0.2585337,1.499838,0.2472951,-0.0026048,-0.00987127,0.01005994,-0.4645506,0.8474029,-0.1642875,0.408889,1.538893,0.1786897,-0.2417585,1.226971,0.2557996,298.4786,248.701,7.941548,True
2,2.877774,-0.02117306,0.05684292,-0.06578473,-1.300595,-4.67627,-1.999321,0.1108407,1.362992,0.3296268,-0.3972366,-0.008429739,3.1,1.5,0.02380862,0.0467619,0.03273013,-0.2631837,-2.872523,-0.6763204,0.2584919,1.499742,0.2472689,0.002901899,0.009314749,0.02917629,-0.463634,0.8496631,-0.166557,0.4088554,1.538784,0.1787705,-0.2419821,1.227129,0.2562544,298.4099,249.177,7.684659,True
2,2.888885,-0.02540947,0.04831982,-0.06360485,-1.30053,-4.676931,-1.998704,0.1107919,1.363,0.3297477,-0.3970166,0.02016185,1.2,0.7,0.03027534,0.05417,0.03697699,-0.2633525,-2.868376,-0.6809301,0.2584629,1.49962,0.2472589,0.009231312,0.01144578,0.02166434,-0.4637448,0.850261,-0.1674756,0.4088335,1.538697,0.1788483,-0.2421549,1.227208,0.2564666,298.3582,249.2882,7.6408,True
2,2.899997,-0.03596781,0.01528088,-0.05810639,-1.299089,-4.676835,-1.997877,0.1107939,1.362784,0.3297687,-0.3962933,0.06592588,1.2,0.7,0.02483743,0.04572026,0.02951405,-0.2634591,-2.867971,-0.681398,0.2584573,1.499494,0.2474034,0.009839253,0.003957149,-0.03052953,-0.4658843,0.8489366,-0.1665117,0.4088898,1.538663,0.1789904,-0.2422364,1.227226,0.2565186,298.3569,249.1328,7.693856,True
2,2.911108,-0.02526348,0.005767604,-0.04317335,-1.298446,-4.676679,-1.998118,0.1108298,1.362823,0.3298962,-0.3966523,-0.03331992,1.2,0.7,0.005311008,0.01612884,0.007132242,-0.2634015,-2.872631,-0.6762198,0.2585874,1.499361,0.2474575,0.006566912,0.01247388,-0.04008862,-0.4666311,0.849677,-0.167136,0.4089439,1.538635,0.1790359,-0.2422732,1.227229,0.2565151,298.4285,248.8603,7.790809,True
2,2.922219,-0.02526348,0.005767604,-0.04317335,-1.298446,-4.676679,-1.998118,0.1108298,1.362823,0.3298962,-0.396354,0.02768123,1.2,0.7,0.005311008,0.01612884,0.007132242,-0.2634015,-2.872631,-0.6762198,0.2585874,1.499361,0.2474575,0.006566912,0.01247388,-0.04008862,-0.4666311,0.849677,-0.167136,0.4089439,1.538635,0.1790359,-0.2423389,1.227255,0.2565186,298.4478,248.7202,7.824388,True
2,2.93333,-0.00936169,0.03990691,-0.03698126,-1.299578,-4.67809,-1.998012,0.1112394,1.362725,0.3300805,-0.3972105,-0.07857335,1.2,0.7,-0.01951812,-0.01558918,-0.01201502,-0.2634047,-2.879108,-0.6687666,0.2588027,1.499372,0.2475312,0.01631052,-0.00989135,-0.01991474,-0.4662598,0.8477392,-0.1658838,0.4089628,1.538605,0.178865,-0.2424133,1.227288,0.256523,298.4386,248.5998,7.934876,True
2,2.944441,-0.01152781,0.04945154,-0.04448303,-1.300039,-4.679206,-1.997483,0.1115146,1.362655,0.3302248,-0.3973697,-0.01385573,0.3,0.5,0.0008720774,-0.008303284,-0.0004425324,-0.2631619,-2.877361,-0.6712947,0.2590072,1.49955,0.2475972,0.02504155,-0.01094885,0.004512018,-0.4652691,0.8477344,-0.1664414,0.4090163,1.538653,0.1787837,-0.2424148,1.227354,0.256517,298.4182,248.5726,7.954941,True
2,2.955552,-0.01155905,0.06010721,-0.04347876,-1.300735,-4.680161,-1.997022,0.1118071,1.362491,0.3302565,-0.3976749,-0.02789672,0.3,0.5,0.04249712,0.02030503,-0.005981652,-0.2641584,-2.873995,-0.6766352,0.2592097,1.499671,0.247714,0.03261362,-0.008810673,0.01722896,-0.4645799,0.8481387,-0.1674859,0.4090996,1.538724,0.178751,-0.2422728,1.227445,0.2565657,298.3796,248.5643,7.901803,True
2,2.966663,-0.01055542,0.08462825,-0.04040311,-1.302346,-4.681241,-1.99663,0.1121588,1.362481,0.3304877,-0.3970155,0.06046209,0.3,0.5,0.06049504,0.02778341,-0.02102416,-0.2652514,-2.874143,-0.6777721,0.2594094,1.499777,0.2478726,0.03784247,-0.01201553,0.006532002,-0.4648905,0.8474768,-0.1674321,0.4092996,1.538827,0.1787622,-0.242001,1.227522,0.2567199,298.3063,248.612,7.806188,True
2,2.977774,0.003294191,0.08574693,-0.03511969,-1.302911,-4.682004,-1.996945,0.1125297,1.362535,0.3307288,-0.3969415,0.006249222,0.3,0.5,0.0571892,0.01077225,-0.02430396,-0.2651491,-2.876916,-0.6755502,0.2596651,1.49983,0.2480438,0.04617064,-0.0120321,-0.0159117,-0.4658455,0.8469628,-0.1678207,0.4094882,1.53894,0.1788363,-0.2417073,1.227556,0.2570184,298.2814,248.6599,7.756299,True
2,2.988885,0.007571414,0.07830768,-0.03402704,-1.303243,-4.682606,-1.996946,0.1128715,1.362701,0.3309755,-0.3970438,-0.009342915,0,0.4,0.05516529,0.02460551,-0.01993015,-0.2657137,-2.874614,-0.6782653,0.2599347,1.500011,0.2483194,0.05457749,-0.009910934,-0.0287678,-0.4666071,0.8468084,-0.1685312,0.4096427,1.539031,0.1788387,-0.2411893,1.227505,0.2574296,298.3802,248.2057,8.191881,True
2,2.999996,0.01298648,0.04420901,-0.03705874,-1.302219,-4.682649,-1.99729,0.1132415,1.363141,0.3314869,-0.3976558,-0.05592441,0,0.4,0.077778,0.02540149,0.004357578,-0.2651507,-2.871138,-0.6833554,0.2603146,1.500236,0.2486222,0.07580271,-0.03336391,-0.03639093,-0.4670023,0.8438467,-0.1675498,0.4099346,1.539131,0.1788876,-0.2408043,1.227448,0.2577676,298.4561,248.3918,8.022903,True
2,3.011107,0.01086718,0.03886643,-0.03916008,-1.302199,-4.683229,-1.99717,0.1135818,1.363337,0.3317704,-0.3973154,0.03158399,0,0.4,0.09371372,0.001858123,0.01042932,-0.2644407,-2.872994,-0.6832715,0.260647,1.50043,0.2488351,0.08734191,-0.05255529,-0.05564892,-0.4680463,0.8405343,-0.1660326,0.4101585,1.539241,0.1789122,-0.2405002,1.227446,0.2580888,298.465,248.7029,7.718111,True
2,3.022218,0.02268309,-0.002718935,-0.05280294,-1.300148,-4.683348,-1.997997,0.1139801,1.363836,0.3322401,-0.3974118,-0.009205465,0,0.4,0.07759847,-0.02789817,0.0103853,-0.2634047,-2.877706,-0.6789092,0.2610472,1.500628,0.2490001,0.0776857,-0.05894496,-0.06301576,-0.4688985,0.8381676,-0.1643711,0.4104787,1.539362,0.1788957,-0.2402202,1.227515,0.2584513,298.5117,248.8242,7.579034,True
2,3.033329,0.03235722,-0.04325706,-0.06964436,-1.297799,-4.683588,-1.998718,0.1146233,1.364213,0.3327556,-0.3970688,0.0314637,0,0.4,0.0659462,-0.01080036,0.009559677,-0.2635683,-2.875483,-0.6812363,0.2616515,1.500827,0.2491968,0.05451399,-0.05251689,-0.0329855,-0.4680095,0.8379074,-0.1637985,0.4108108,1.539489,0.1788621,-0.2399168,1.227693,0.2589426,298.5518,248.848,7.536398,True
2,3.04444,0.03238396,-0.06141669,-0.08021091,-1.296117,-4.684267,-1.998761,0.1153039,1.364454,0.3332572,-0.3978102,-0.06811123,0,0.9,0.07676116,0.04140456,0.001289394,-0.2652881,-2.868911,-0.6889334,0.2621504,1.501103,0.2494299,0.0546734,-0.06102918,-0.01380979,-0.4673699,0.8357745,-0.1624981,0.4110893,1.539594,0.1788526,-0.2396019,1.227965,0.2595479,298.5705,248.7886,7.616686,True
2,3.055551,0.02602161,-0.07422045,-0.08013073,-1.294652,-4.684401,-1.998709,0.1160689,1.364675,0.3337388,-0.3977495,0.006123719,0,0.9,0.1091344,0.1093595,0.01208443,-0.2672099,-2.856918,-0.7028918,0.2627241,1.501447,0.2497709,0.06643061,-0.06529099,-0.008585883,-0.4671887,0.8339038,-0.1619487,0.4114603,1.539707,0.1789,-0.23918,1.22831,0.2603345,298.5423,248.6296,7.809518,True
