loc,t,aDotUA,bDotUA,gDotUA,aUA,bUA,gUA,xUA,yUA,zUA,qE,qDotE,emgA,emgB,aDotSH,bDotSH,gDotSH,aSH,bSH,gSH,xSH,ySH,zSH,aDotUB,bDotUB,gDotUB,aUB,bUB,gUB,xUB,yUB,zUB,xHand,yHand,zHand,aHand,bHand,gHand,enable
2,0,-0.2513792,-0.3438275,-0.1156903,-1.404598,-3.976115,2.962137,0.5370297,1.29164,0.4998794,-1.337225,-0.03589703,0,8.6,-0.1985675,-0.04508867,0.2879281,-0.4179826,-3.961343,-0.2596705,0.5346422,1.520411,0.4056132,-0.05518132,0.03586274,-0.03209426,-0.7049755,0.3005204,-0.06697877,0.626438,1.558774,0.2535152,0.4019128,1.053357,0.3040984,318.6113,227.3882,351.6943,True
2,0.01111111,-0.2513792,-0.3438275,-0.1156903,-1.404598,-3.976115,2.962137,0.5370297,1.29164,0.4998794,-1.336324,0.08277783,0,8.6,-0.1985675,-0.04508867,0.2879281,-0.4179826,-3.961343,-0.2596705,0.5346422,1.520411,0.4056132,-0.05518132,0.03586274,-0.03209426,-0.7049755,0.3005204,-0.06697877,0.626438,1.558774,0.2535152,0.4016394,1.053764,0.3028198,318.6621,226.4953,352.1728,True
2,0.02222222,-0.2779497,-0.3824415,-0.150603,-1.402731,-3.969975,2.965169,0.5359399,1.292166,0.4994991,-1.339836,-0.3217987,0,8.7,-0.1846759,-0.1242289,0.3266973,-0.4120421,-3.967852,-0.2520013,0.5348777,1.520679,0.4053862,-0.06270359,0.0177519,-0.03840693,-0.7055827,0.2998534,-0.0655135,0.6264976,1.558726,0.2534063,0.4014497,1.054314,0.3015148,318.6734,225.9991,352.2521,True
2,0.03333334,-0.2779497,-0.3824415,-0.150603,-1.402731,-3.969975,2.965169,0.5359399,1.292166,0.4994991,-1.333245,0.6055457,0,8.7,-0.1846759,-0.1242289,0.3266973,-0.4120421,-3.967852,-0.2520013,0.5348777,1.520679,0.4053862,-0.06270359,0.0177519,-0.03840693,-0.7055827,0.2998534,-0.0655135,0.6264976,1.558726,0.2534063,0.4013701,1.054976,0.3003935,318.4855,225.7831,352.1696,True
2,0.04444445,-0.3088043,-0.4103358,-0.1608965,-1.400378,-3.958759,2.971947,0.5337964,1.29304,0.4988961,-1.339721,-0.5975307,0,8.7,-0.1669701,-0.1477802,0.3198133,-0.4058918,-3.974414,-0.243773,0.5352082,1.521321,0.4050028,-0.06265584,0.01027224,-0.0341607,-0.7059215,0.2994877,-0.06371666,0.6266203,1.558667,0.2532439,0.4010028,1.055572,0.2989562,318.6187,225.2324,352.3229,True
2,0.05555556,-0.3530239,-0.6162702,-0.2089015,-1.397818,-3.937937,2.977355,0.5305092,1.293519,0.4981196,-1.332114,0.7014264,0,8.7,-0.1292938,-0.1215627,0.211124,-0.4037091,-3.977272,-0.2388331,0.5353266,1.521933,0.4044631,-0.07434347,-0.01419485,-0.02869761,-0.7065628,0.2980004,-0.06076481,0.6267778,1.558578,0.2529581,0.4006799,1.056417,0.297683,318.4327,224.8634,352.3431,True
2,0.06666667,-0.3592587,-0.6695256,-0.2022116,-1.397496,-3.928241,2.97978,0.529145,1.293875,0.4976528,-1.335345,-0.3017452,0,8.7,-0.1677205,-0.09891276,0.1935165,-0.4022076,-3.976803,-0.2358144,0.5353035,1.522311,0.4041095,-0.06899912,-0.02164906,-0.02660435,-0.7067145,0.2972862,-0.05977252,0.6268759,1.55854,0.2527707,0.4000034,1.05729,0.2960047,318.5311,224.2482,352.5814,True
2,0.07777778,-0.3697546,-0.7389427,-0.2284534,-1.395622,-3.916549,2.982321,0.5273743,1.294148,0.4971509,-1.336963,-0.1444237,0,8.7,-0.2206931,-0.04762068,0.2028717,-0.4000233,-3.971699,-0.2359734,0.5352795,1.522714,0.4037001,-0.06900446,-0.01419277,-0.02767519,-0.7070448,0.2974638,-0.0591536,0.6269383,1.558489,0.2526691,0.3992103,1.058414,0.2939899,318.3689,223.5087,352.906,True
2,0.08888889,-0.3760615,-0.7720259,-0.2357175,-1.394291,-3.906396,2.984985,0.5258348,1.294468,0.4965556,-1.337273,-0.02725478,0,11.1,-0.2534282,-0.01456648,0.2193753,-0.3971881,-3.966966,-0.2362826,0.5354109,1.523211,0.4032369,-0.07545203,-0.01099636,-0.03507411,-0.7076967,0.2975314,-0.05819673,0.6270254,1.558424,0.2525647,0.3986752,1.059792,0.2917666,317.9736,222.7883,353.194,True
2,0.1,-0.3845439,-0.7891226,-0.2409402,-1.392857,-3.896367,2.987891,0.5240631,1.294915,0.4958699,-1.336929,0.03155375,0,11.1,-0.2902064,0.02582672,0.256207,-0.3933958,-3.959281,-0.2385788,0.5354077,1.523764,0.4027331,-0.08937605,-0.009931669,-0.04347628,-0.708526,0.2973568,-0.05648112,0.6271526,1.558451,0.2525487,0.3985114,1.061298,0.2893931,317.5064,222.1529,353.3296,True
2,0.1111111,-0.3781181,-0.7986853,-0.2387542,-1.391876,-3.886752,2.990097,0.5222422,1.295342,0.4950712,-1.337138,-0.0191792,0,11.1,-0.3162891,0.04584986,0.3066619,-0.3883336,-3.952642,-0.2402078,0.5354142,1.524307,0.4022973,-0.09693751,-0.01419428,-0.05511923,-0.7094699,0.2968306,-0.05471731,0.6272746,1.55843,0.2524433,0.3986067,1.06269,0.2868371,317.0985,221.3542,353.4318,True
2,0.1222222,-0.390969,-0.7731544,-0.2378153,-1.390341,-3.878658,2.993553,0.5207187,1.295751,0.4942205,-1.337045,0.008654477,0,11.1,-0.3255758,0.0435414,0.3397601,-0.3833668,-3.948292,-0.2401868,0.5354212,1.524806,0.4018829,-0.101384,-0.02272666,-0.07531247,-0.7110384,0.2958412,-0.05262699,0.6273977,1.558551,0.2522478,0.398858,1.063917,0.2841854,316.8228,220.5662,353.4104,True
2,0.1333333,-0.4134702,-0.7263493,-0.2391084,-1.388566,-3.872058,2.997846,0.5191678,1.296056,0.4933712,-1.337883,-0.07652929,0,11.1,-0.3203706,-0.01407622,0.3510546,-0.3785918,-3.952099,-0.233519,0.5353799,1.525166,0.4015586,-0.1110581,-0.028055,-0.08481188,-0.7123466,0.2949146,-0.05028874,0.6274575,1.558541,0.2521293,0.3990866,1.064967,0.2814753,316.6935,219.8206,353.319,True
2,0.1444445,-0.4220159,-0.7092531,-0.2242716,-1.387783,-3.864457,3.001435,0.5177005,1.296284,0.4925609,-1.337055,0.07628419,0.1,6,-0.3185292,-0.05554557,0.3379861,-0.3749715,-3.956041,-0.226431,0.5353527,1.525522,0.4011734,-0.1226202,-0.01951207,-0.06767747,-0.71246,0.2951778,-0.0487252,0.6275403,1.558421,0.2519698,0.3992266,1.065888,0.2788077,316.5904,219.1274,353.2433,True
2,0.1555556,-0.4370877,-0.645296,-0.2096875,-1.386588,-3.859512,3.006004,0.5161669,1.296313,0.491636,-1.336483,0.05176277,0.1,6,-0.3268824,-0.08373198,0.2547807,-0.3747819,-3.96172,-0.2172354,0.535012,1.525423,0.4009409,-0.127809,-0.006714612,-0.05272675,-0.712517,0.2957954,-0.04757524,0.6274073,1.558384,0.2519097,0.3991756,1.066734,0.2762595,316.5021,218.4928,353.197,True
2,0.1666667,-0.4424611,-0.6196953,-0.1991544,-1.385768,-3.853104,3.009841,0.5144448,1.296415,0.4908166,-1.337094,-0.05610449,0.1,6,-0.3416483,-0.1076029,0.1674009,-0.3757821,-3.967793,-0.2072211,0.5346318,1.525536,0.4006882,-0.1318069,0.01035765,-0.02393578,-0.7116787,0.2971305,-0.04701172,0.6272945,1.558349,0.2520185,0.3988047,1.067576,0.2738636,316.4073,217.9336,353.1965,True
2,0.1777778,-0.4297883,-0.5813335,-0.2036406,-1.384019,-3.847805,3.013131,0.5127795,1.296341,0.4898453,-1.336804,0.02708424,0.1,6,-0.3756275,-0.09184211,0.05915533,-0.379313,-3.97132,-0.1984217,0.5339576,1.525512,0.4004452,-0.1463713,0.07004905,0.01236927,-0.7102134,0.3021117,-0.04857739,0.6271,1.558237,0.2520559,0.3981854,1.068484,0.2716388,316.2437,217.4538,353.2744,True
2,0.1888889,-0.4297883,-0.5813335,-0.2036406,-1.384019,-3.847805,3.013131,0.5127795,1.296341,0.4898453,-1.337348,-0.04988538,0.1,6,-0.3756275,-0.09184211,0.05915533,-0.379313,-3.97132,-0.1984217,0.5339576,1.525512,0.4004452,-0.1463713,0.07004905,0.01236927,-0.7102134,0.3021117,-0.04857739,0.6271,1.558237,0.2520559,0.3971949,1.069405,0.2694859,316.0533,217.0584,353.3582,True
2,0.2,-0.4247628,-0.4769008,-0.2010246,-1.380427,-3.839957,3.021039,0.5096114,1.296141,0.4882801,-1.342362,-0.4580479,0.2,4.6,-0.3253115,0.02957705,0.03284552,-0.3801306,-3.957702,-0.2055356,0.5325729,1.525558,0.3995731,-0.1529724,0.1275591,-0.015312,-0.7116829,0.3097605,-0.05071378,0.6270722,1.558012,0.2518213,0.3961183,1.070523,0.2676249,315.7709,216.7239,353.4723,True
2,0.2111111,-0.4281502,-0.4086939,-0.1949861,-1.378811,-3.83794,3.025752,0.5080652,1.295957,0.487556,-1.333889,0.7784344,0.2,4.6,-0.3229599,0.09672526,0.02686769,-0.38093,-3.947807,-0.2113181,0.5317109,1.525625,0.3989332,-0.1375435,0.1210208,-0.06872572,-0.7140648,0.3110691,-0.05047063,0.6270251,1.557909,0.2514985,0.3951653,1.071694,0.2663396,315.2339,216.4963,353.6189,True
2,0.2222222,-0.4422029,-0.3436509,-0.1803437,-1.37808,-3.836694,3.031628,0.5062377,1.296289,0.4872298,-1.337208,-0.3105131,0.2,4.6,-0.3597837,0.1691967,0.04579902,-0.38066,-3.934936,-0.2175544,0.5309939,1.525596,0.3983266,-0.1332194,0.1232384,-0.07087412,-0.7154566,0.3128612,-0.05081285,0.6268388,1.557788,0.2512953,0.3934174,1.072177,0.2644001,315.1985,215.8925,353.9839,True
2,0.2333333,-0.4561356,-0.3074046,-0.1688067,-1.376879,-3.834618,3.036858,0.504512,1.296307,0.4864337,-1.337512,-0.02412892,0.2,4.6,-0.3754655,0.2000353,0.06425955,-0.380015,-3.924903,-0.222048,0.530261,1.525653,0.3977895,-0.1417201,0.145615,-0.06975076,-0.7163008,0.3166451,-0.05178171,0.6265629,1.557722,0.2511809,0.3913817,1.072668,0.2624564,315.119,215.4345,354.1733,True
2,0.2444444,-0.4679246,-0.2797545,-0.1700068,-1.375225,-3.832072,3.041896,0.5027026,1.296378,0.4856029,-1.336578,0.08542351,1.8,3.8,-0.3604997,0.1903322,0.07363988,-0.3793119,-3.920069,-0.2232632,0.5296507,1.525691,0.3973699,-0.1543983,0.1562896,-0.05899027,-0.7165757,0.320042,-0.05220462,0.6264007,1.5577,0.2511168,0.3892445,1.073399,0.2607963,314.9755,215.2537,354.1911,True
2,0.2555556,-0.4701571,-0.2446418,-0.1765924,-1.373146,-3.830463,3.046832,0.5009196,1.296468,0.4847126,-1.337087,-0.04730299,1.8,3.8,-0.3235121,0.1380401,0.06442513,-0.378808,-3.921164,-0.2201598,0.5288014,1.525764,0.396914,-0.1682228,0.1658864,-0.05674551,-0.7172346,0.3233582,-0.05234709,0.6261251,1.557589,0.2509634,0.387026,1.074507,0.2594236,314.8453,215.1705,354.2373,True
2,0.2666667,-0.47456,-0.1956884,-0.1832685,-1.370602,-3.829803,3.052046,0.499224,1.296241,0.4829719,-1.337376,-0.02575516,1.8,3.8,-0.3205694,0.1189684,0.04615985,-0.3791447,-3.919809,-0.2178932,0.5280926,1.525802,0.3964825,-0.1736037,0.1616295,-0.06308518,-0.7182641,0.325789,-0.05214097,0.625847,1.557626,0.250906,0.3846716,1.075854,0.2580421,314.6013,214.9952,354.5368,True
2,0.2777778,-0.483339,-0.1127612,-0.209284,-1.367017,-3.831606,3.058129,0.4973981,1.296396,0.4820492,-1.337757,-0.03464868,1.8,3.8,-0.3325629,0.1074657,0.02169543,-0.3800049,-3.917753,-0.2155512,0.5271068,1.525828,0.39605,-0.1840644,0.1541945,-0.04061605,-0.7178971,0.3279578,-0.05129568,0.6254784,1.557519,0.2507262,0.382235,1.07735,0.2565192,314.2653,214.7152,354.9212,True
2,0.2888889,-0.4963913,-0.01807307,-0.2215129,-1.363807,-3.83455,3.064642,0.4955882,1.296495,0.4811072,-1.337745,0.001368415,1.8,3.8,-0.3252124,0.1203335,0.004662046,-0.38106,-3.913319,-0.2163451,0.5259292,1.525814,0.3956251,-0.1967191,0.1531449,-0.02665583,-0.7177011,0.3304461,-0.0506179,0.6251975,1.557386,0.2505987,0.3796501,1.078844,0.2547136,313.8674,214.4495,355.2746,True
2,0.3,-0.5136089,0.04148908,-0.2303431,-1.360659,-3.83725,3.071568,0.4936542,1.296637,0.4803066,-1.337405,0.03108159,1.9,5.1,-0.3155891,0.1491195,-0.00376356,-0.382039,-3.905945,-0.2200567,0.5248692,1.52581,0.3950946,-0.2083278,0.147834,-0.01376624,-0.7173517,0.3326335,-0.04946289,0.624794,1.557271,0.250387,0.3768329,1.080194,0.2525182,313.4665,214.1656,355.5708,True
2,0.3111111,-0.5372339,0.1063316,-0.2413348,-1.357298,-3.84054,3.079078,0.4915629,1.296647,0.4793501,-1.337245,0.01453045,1.9,5.1,-0.2991723,0.2245991,0.01042605,-0.3826621,-3.890927,-0.2313334,0.5237206,1.525859,0.3945634,-0.2136136,0.1361206,-0.009446133,-0.7173309,0.3342014,-0.04824742,0.6244378,1.557095,0.2501905,0.3738568,1.081608,0.2503913,313.1043,213.8269,355.6818,True
2,0.3222222,-0.5618147,0.1210387,-0.2648273,-1.353327,-3.841872,3.086567,0.4892758,1.296915,0.4785614,-1.336879,0.03345882,1.9,5.1,-0.2966886,0.2596018,0.03300597,-0.3824273,-3.879158,-0.2390448,0.5227739,1.525869,0.3939788,-0.2062064,0.1307862,-0.01483382,-0.717773,0.3360013,-0.0476578,0.62407,1.556994,0.249965,0.3706138,1.083151,0.2485303,312.7455,213.5682,355.748,True
2,0.3333333,-0.580997,0.1134059,-0.2871333,-1.349222,-3.842601,3.093882,0.4869651,1.297138,0.4776645,-1.336523,0.03234683,1.9,5.1,-0.3081737,0.2626913,0.05657189,-0.3816155,-3.870353,-0.2433948,0.5218432,1.525936,0.393388,-0.2009401,0.1169272,-0.02126864,-0.7184399,0.3369403,-0.04650172,0.6236731,1.556851,0.2497265,0.3670267,1.084824,0.2469741,312.3792,213.3634,355.9365,True
2,0.3444445,-0.6118971,0.09281687,-0.3349254,-1.343545,-3.842378,3.101841,0.4845371,1.29741,0.4767387,-1.336283,0.02179256,1,3.6,-0.3227844,0.2860448,0.07923456,-0.3809109,-3.858654,-0.2500098,0.5209361,1.525982,0.3928304,-0.2042022,0.1105274,-0.02977009,-0.7193198,0.3382688,-0.04525749,0.623248,1.556739,0.2495742,0.3630184,1.08658,0.2456187,312.0136,213.1708,356.3058,True
2,0.3555556,-0.6481847,0.09133531,-0.3923997,-1.336845,-3.84304,3.110614,0.4819895,1.297742,0.4757559,-1.336503,-0.02018829,1,3.6,-0.3323326,0.2785779,0.08673237,-0.3803915,-3.85056,-0.2534914,0.5201511,1.52606,0.3922627,-0.2030431,0.09455585,-0.01804984,-0.7190471,0.3388923,-0.04352377,0.6228293,1.556705,0.2492955,0.3587585,1.088482,0.2444477,311.6613,212.8957,356.8834,True
2,0.3666667,-0.6738572,0.1166446,-0.4244686,-1.330879,-3.845209,3.119418,0.4796657,1.29812,0.474884,-1.335893,0.05616046,1,3.6,-0.3356139,0.2508858,0.08976794,-0.3799036,-3.84555,-0.2543428,0.5191993,1.526133,0.3916636,-0.1956853,0.07216865,-0.02768952,-0.7197385,0.3386016,-0.04141029,0.6223477,1.556692,0.2490158,0.3543743,1.090495,0.2433269,311.2706,212.5407,357.6096,True
2,0.3777778,-0.7060539,0.1801923,-0.4759142,-1.323231,-3.849933,3.129762,0.4770163,1.298559,0.4739025,-1.335461,0.0390814,1,3.6,-0.3337299,0.2008375,0.08516049,-0.3791766,-3.844789,-0.2514218,0.5183604,1.526238,0.3911672,-0.2000051,0.06683984,-0.03403986,-0.7203925,0.339354,-0.03957111,0.6219057,1.556674,0.2487304,0.3499141,1.092569,0.2421123,310.8862,212.019,358.4208,True
2,0.3888889,-0.7308293,0.2608317,-0.5178889,-1.315676,-3.855994,3.14017,0.4745542,1.298917,0.4729309,-1.336033,-0.05225358,1,3.6,-0.3264635,0.1635454,0.08165186,-0.3785119,-3.843365,-0.249376,0.5174533,1.526363,0.3906684,-0.1956561,0.05725762,-0.0234175,-0.7201853,0.3396793,-0.03781502,0.6213653,1.55665,0.2484024,0.3453399,1.094742,0.2407543,310.5345,211.4386,359.1633,True
2,0.4,-0.7524133,0.346879,-0.5513607,-1.30816,-3.863694,-3.13186,0.4717485,1.299525,0.4719822,-1.335477,0.05158131,0.3,6.4,-0.3138482,0.142244,0.07287124,-0.378252,-3.841353,-0.2483134,0.5165417,1.526466,0.3901951,-0.1881835,0.05192859,-0.02134831,-0.7203515,0.3401996,-0.03641926,0.6207685,1.556603,0.2480567,0.3406369,1.097095,0.23933,310.1545,210.9224,359.7734,True
2,0.4111111,-0.7782125,0.4147573,-0.588992,-1.300324,-3.870931,-3.120474,0.4688656,1.300118,0.4711215,-1.335989,-0.04701208,0.3,6.4,-0.2853752,0.112414,0.05536465,-0.3783947,-3.841018,-0.246597,0.5156363,1.526631,0.3896482,-0.1869604,0.03808869,-0.002190717,-0.7198668,0.3400795,-0.03424213,0.620423,1.556613,0.2477069,0.3355019,1.099624,0.2378179,309.763,210.3678,0.3667009,True
2,0.4222222,-0.7911018,0.4433675,-0.6104397,-1.292791,-3.877506,-3.109365,0.4659262,1.300773,0.4702182,-1.336034,-0.003584077,0.3,6.4,-0.291743,0.09639817,0.06490751,-0.377429,-3.839075,-0.2449216,0.5146991,1.526787,0.3890393,-0.1848153,0.03063202,-7.332675E-05,-0.719771,0.3401295,-0.03229402,0.6198397,1.556624,0.2473471,0.329872,1.102421,0.2363967,309.3086,209.8328,1.0082,True
2,0.4333333,-0.8199716,0.4665501,-0.6403605,-1.284755,-3.883919,-3.097259,0.4628806,1.301611,0.4693844,-1.335986,0.004600555,0.3,6.4,-0.3055111,0.08678335,0.07775769,-0.3762429,-3.836601,-0.2432774,0.5137509,1.526955,0.388423,-0.1678375,0.01036991,-0.008743629,-0.7204219,0.338845,-0.03040345,0.6192507,1.556598,0.2469015,0.3236613,1.105545,0.2351789,308.8117,209.3512,1.723352,True
2,0.4444444,-0.8541464,0.4800935,-0.6787442,-1.275895,-3.890573,-3.084388,0.4596798,1.302405,0.4684887,-1.336365,-0.03455522,0.3,6.4,-0.3287708,0.0782156,0.1002918,-0.3743712,-3.833391,-0.2415732,0.5126834,1.527158,0.3877287,-0.1486146,0.01355919,-0.003587222,-0.7202823,0.339296,-0.02989105,0.6185424,1.55658,0.2464421,0.3169881,1.109017,0.2342573,308.2354,208.866,2.665352,True
2,0.4555556,-0.8861512,0.4851911,-0.7043007,-1.267366,-3.89701,-3.071319,0.4564368,1.303225,0.4675956,-1.335654,0.06545056,0,6.1,-0.3403654,0.07176703,0.1163385,-0.3725837,-3.830715,-0.2397862,0.5115318,1.527261,0.3870018,-0.1443169,0.0124947,0.0006373376,-0.7201102,0.3394432,-0.02858744,0.617781,1.5566,0.2459702,0.310068,1.112796,0.2336202,307.5988,208.3748,3.812011,True
2,0.4666667,-0.9064406,0.4967686,-0.7181875,-1.259323,-3.903806,-3.058321,0.4531851,1.304175,0.4666963,-1.335208,0.04034353,0,6.1,-0.3456913,0.08354452,0.1111363,-0.3719802,-3.826015,-0.2400768,0.5102384,1.527377,0.3863249,-0.1453684,0.007162765,0.001702784,-0.7202429,0.3391476,-0.02669393,0.6169673,1.556618,0.2454994,0.3030119,1.116801,0.2331298,306.9796,207.8133,5.08673,True
2,0.4777778,-0.9343305,0.5594615,-0.7334124,-1.25117,-3.913919,-3.043551,0.4497268,1.305107,0.4658568,-1.335289,-0.007474957,0,6.1,-0.3371163,0.1230016,0.09959559,-0.3720953,-3.817402,-0.244663,0.5088424,1.527493,0.3855894,-0.1430676,0.01250227,0.02085484,-0.7192479,0.3397411,-0.02560629,0.6159731,1.556648,0.2449825,0.2958333,1.120959,0.2326089,306.3825,207.1469,6.435524,True
2,0.4888889,-0.945088,0.5988398,-0.7346782,-1.243926,-3.923492,-3.02973,0.4465111,1.306008,0.4650016,-1.335857,-0.05150368,0,6.1,-0.3263743,0.1688299,0.09021293,-0.3725017,-3.806684,-0.2514088,0.5073667,1.527611,0.3848522,-0.1430432,0.00824374,0.02405439,-0.7188324,0.3396598,-0.0239309,0.6150985,1.556701,0.244518,0.2886668,1.125266,0.2319905,305.7961,206.4807,7.754557,True
2,0.5,-0.9569964,0.665902,-0.7382284,-1.236801,-3.935261,-3.014846,0.443153,1.306966,0.4641461,-1.335525,0.03103318,0,7.5,-0.3207676,0.2156126,0.1000679,-0.3719088,-3.794378,-0.2594998,0.5059746,1.527817,0.3841176,-0.1354492,0.003990278,0.03997128,-0.7177294,0.339514,-0.02264646,0.6140704,1.556831,0.2440424,0.2815795,1.129715,0.231233,305.2106,205.8015,8.973274,True
2,0.5111111,-0.9785585,0.752072,-0.7450728,-1.229851,-3.948417,-2.999025,0.4400747,1.307792,0.4632461,-1.336599,-0.09830653,0,7.5,-0.3238762,0.2294531,0.1033839,-0.3715008,-3.785159,-0.2643896,0.5043988,1.528035,0.3833959,-0.1236185,0.008248612,0.05263965,-0.7167925,0.3398063,-0.02196416,0.6129606,1.556873,0.2435856,0.2744123,1.134319,0.2303469,304.6191,205.1302,10.0675,True
2,0.5222223,-0.9850346,0.7797301,-0.7484148,-1.222892,-3.959796,-2.984001,0.436819,1.308719,0.462343,-1.336643,-0.00298421,0,7.5,-0.3409861,0.2007099,0.1097535,-0.3701948,-3.781812,-0.2629363,0.5029913,1.528168,0.3826332,-0.1288325,0.01359531,0.06545782,-0.7157229,0.3405823,-0.02085921,0.6120343,1.557054,0.2431409,0.26728,1.139109,0.2294911,303.9591,204.4454,11.19187,True
2,0.5333334,-0.9872736,0.8105173,-0.7666919,-1.215409,-3.972232,-2.968588,0.4332587,1.309803,0.4613299,-1.336415,0.02093247,0,7.5,-0.3861269,0.1862164,0.07385841,-0.3710939,-3.778234,-0.2602367,0.5013597,1.528263,0.3818405,-0.1309578,0.02318415,0.06546932,-0.7149991,0.3415295,-0.02001792,0.6108434,1.557115,0.2426851,0.2600653,1.144047,0.2287136,303.2721,203.7438,12.33937,True
2,0.5444446,-0.9883921,0.8167354,-0.7880532,-1.207357,-3.983327,-2.953588,0.429853,1.310734,0.4602618,-1.336849,-0.0397677,0,7.5,-0.4192523,0.1907117,0.06035166,-0.3715898,-3.771618,-0.2605469,0.4997648,1.528394,0.3809624,-0.1309881,0.03703126,0.06119848,-0.7145458,0.3430141,-0.01964161,0.609722,1.557006,0.2415574,0.2527641,1.149127,0.228103,302.5714,203.0337,13.59623,True
2,0.5555557,-0.9872922,0.7931615,-0.8134924,-1.19895,-3.993797,-2.938789,0.4257635,1.311857,0.459137,-1.337097,-0.02227743,0,5.3,-0.4350084,0.2034409,0.07869408,-0.370761,-3.762977,-0.26303,0.4979978,1.528457,0.380095,-0.125589,0.05088261,0.06859855,-0.7135381,0.3448591,-0.01985786,0.6083874,1.557027,0.2410057,0.2454054,1.154295,0.2276305,301.9114,202.2293,15.00484,True
2,0.5666668,-0.986171,0.7707471,-0.820831,-1.191354,-4.003873,-2.924113,0.4219857,1.31301,0.4580896,-1.337269,-0.01551046,0,5.3,-0.386824,0.1966634,0.1069636,-0.36894,-3.75595,-0.2673995,0.4962012,1.528517,0.3791747,-0.1106017,0.05621067,0.0866151,-0.7112462,0.3461137,-0.01894626,0.6069492,1.556937,0.2399623,0.2379028,1.159502,0.2272275,301.3008,201.3111,16.54297,True
2,0.577778,-0.9819208,0.776103,-0.8176699,-1.184504,-4.015451,-2.908905,0.4179661,1.31402,0.457078,-1.337436,-0.01512405,0,5.3,-0.3399016,0.1633162,0.1265476,-0.3670182,-3.752877,-0.2682903,0.4942138,1.528678,0.3782475,-0.1189846,0.0722056,0.1015916,-0.7095428,0.3483765,-0.01899393,0.6054245,1.556999,0.2392888,0.2303432,1.164683,0.2268764,300.7221,200.2504,18.24677,True
2,0.5888891,-0.9735335,0.8316386,-0.7924324,-1.179394,-4.029416,-2.893025,0.4141286,1.315167,0.4559827,-1.33758,-0.01305881,0,5.3,-0.366758,0.1187119,0.1222443,-0.365693,-3.753006,-0.2631027,0.492074,1.528722,0.3772895,-0.135879,0.08394381,0.1241385,-0.7068716,0.3505315,-0.01765436,0.6039082,1.556908,0.238554,0.2226919,1.169796,0.2264915,300.2191,199.1536,19.94108,True
2,0.6000003,-0.9608201,0.8648162,-0.7734405,-1.17451,-4.043169,-2.877485,0.4103445,1.316131,0.4550619,-1.337746,-0.01497759,0,9.7,-0.4427446,0.09683838,0.09511104,-0.3658219,-3.751999,-0.2561061,0.4897788,1.528722,0.3762813,-0.1517032,0.08931479,0.1445414,-0.7041973,0.3529221,-0.01685328,0.6022155,1.556996,0.2382143,0.2151668,1.17487,0.2261489,299.7428,198.1453,21.54474,True
2,0.6111114,-0.9257762,0.9237182,-0.7397117,-1.170829,-4.058342,-2.862551,0.4063005,1.31739,0.454459,-1.338089,-0.03111579,0,9.7,-0.4929495,0.1046189,0.07752094,-0.3659503,-3.747962,-0.2524445,0.487305,1.528735,0.375231,-0.171777,0.1212964,0.1617402,-0.7017967,0.3569003,-0.01721973,0.6004328,1.55707,0.2375925,0.2076746,1.179923,0.2258068,299.2813,197.2792,22.94597,True
2,0.6222225,-0.9204836,0.9344192,-0.7333837,-1.166137,-4.071875,-2.847162,0.4026235,1.318489,0.4534984,-1.338444,-0.03200984,0,9.7,-0.4961967,0.1335083,0.05963495,-0.3665346,-3.740881,-0.2536176,0.4848825,1.528785,0.3742263,-0.1939917,0.1447565,0.1779024,-0.6992417,0.3608357,-0.01729723,0.598617,1.557191,0.2370002,0.2002098,1.185053,0.2255495,298.8046,196.5746,24.19401,True
2,0.6333337,-0.9023794,0.9538615,-0.6940959,-1.16355,-4.085727,-2.832479,0.3985233,1.31934,0.4523838,-1.3396,-0.1056633,0,9.7,-0.4660726,0.1930062,0.06507121,-0.3668041,-3.728167,-0.2614835,0.4820367,1.528768,0.3730283,-0.2279019,0.1927371,0.1973398,-0.6964289,0.3672197,-0.01819365,0.5966113,1.557328,0.2365749,0.1928195,1.190286,0.225493,298.3108,195.7923,25.48314,True
2,0.6444448,-0.8991326,0.9476265,-0.6684988,-1.160391,-4.09854,-2.817454,0.3946133,1.32019,0.4513977,-1.338567,0.09528279,0,6,-0.4273659,0.269527,0.06948067,-0.367309,-3.712025,-0.2733101,0.4788598,1.528632,0.3717031,-0.2448014,0.2130225,0.2123711,-0.6938818,0.3724902,-0.01906051,0.5946962,1.557472,0.2362578,0.1854549,1.195634,0.2257465,297.7748,194.9615,26.84331,True
2,0.655556,-0.8991326,0.9476265,-0.6684988,-1.160391,-4.09854,-2.817454,0.3946133,1.32019,0.4513977,-1.339179,-0.05713846,0,6,-0.4273659,0.269527,0.06948067,-0.367309,-3.712025,-0.2733101,0.4788598,1.528632,0.3717031,-0.2448014,0.2130225,0.2123711,-0.6938818,0.3724902,-0.01906051,0.5946962,1.557472,0.2362578,0.1780704,1.201012,0.2261558,297.2392,194.1087,28.42421,True
2,0.6666671,-0.8767775,0.9489249,-0.6471314,-1.155161,-4.125456,-2.787791,0.3866762,1.322148,0.4496939,-1.34807,-0.8124072,0,6,-0.468844,0.3658025,0.03428088,-0.3707099,-3.684263,-0.2879018,0.472673,1.528481,0.3691139,-0.2763573,0.2439713,0.2584161,-0.6871344,0.3827125,-0.01973296,0.5904187,1.557707,0.2349713,0.1715136,1.206329,0.2269474,296.4731,193.5127,30.2367,True
2,0.6777782,-0.8501718,0.9661708,-0.6323166,-1.153273,-4.139916,-2.773533,0.3826435,1.322942,0.4486101,-1.329135,1.737788,0,6,-0.5216532,0.4565198,0.04177172,-0.3722769,-3.662916,-0.3004291,0.4693011,1.528277,0.3677857,-0.2888814,0.2685136,0.2883115,-0.6834039,0.3889876,-0.02083151,0.5882388,1.5578,0.2342958,0.1668292,1.210821,0.2281091,295.5756,192.1975,32.45054,True
2,0.6888894,-0.8225344,0.9950976,-0.6165296,-1.151783,-4.154767,-2.759331,0.3783192,1.323623,0.4474392,-1.337463,-0.7771137,0,6,-0.4972442,0.5892866,0.08716455,-0.3733842,-3.6319,-0.3245448,0.4658911,1.528071,0.3663328,-0.2938617,0.2887848,0.3266926,-0.6785596,0.3953626,-0.02234925,0.5858964,1.557868,0.2335875,0.158921,1.215008,0.2273303,295.7829,191.7233,32.59884,True
2,0.7000005,-0.8044852,1.027169,-0.6071593,-1.15041,-4.170138,-2.744812,0.3740266,1.32411,0.446039,-1.339718,-0.1976335,0,7,-0.4036879,0.7047382,0.1264732,-0.3746167,-3.60057,-0.3529269,0.4626163,1.527793,0.3648579,-0.2915042,0.2824398,0.3564668,-0.6741819,0.4005132,-0.02284193,0.5835469,1.557948,0.2327697,0.1504931,1.219661,0.2266489,295.7716,191.1626,33.30519,True
2,0.7111117,-0.7949178,1.037889,-0.5997729,-1.149202,-4.184782,-2.730427,0.3697433,1.324701,0.4447913,-1.339944,-0.01978455,0,7,-0.3727009,0.7419382,0.1200357,-0.3769838,-3.575429,-0.3732995,0.459451,1.527467,0.3633792,-0.2756441,0.2685731,0.3435544,-0.6709036,0.4046248,-0.02357643,0.5812262,1.557973,0.2320838,0.1423507,1.224704,0.2265236,295.3443,190.4418,34.68178,True
2,0.7222228,-0.7992414,1.057023,-0.6030843,-1.14782,-4.199974,-2.715225,0.3654899,1.32504,0.4433227,-1.339642,0.02745095,0,7,-0.4610378,0.7037881,0.1429824,-0.3771995,-3.558218,-0.3817119,0.4563439,1.527058,0.3619249,-0.2577597,0.271711,0.3146788,-0.6680891,0.4091786,-0.02527872,0.5784094,1.557663,0.2314699,0.1345989,1.22993,0.2268895,294.6924,189.422,36.57961,True
2,0.7333339,-0.8109436,1.048457,-0.6051676,-1.146312,-4.21451,-2.699725,0.361375,1.325524,0.4419723,-1.33926,0.0345614,0,7,-0.5409974,0.6411268,0.1646358,-0.3766205,-3.542665,-0.3873842,0.4531748,1.526743,0.360523,-0.2407608,0.2695253,0.3103272,-0.664072,0.4134063,-0.02636263,0.5756054,1.557672,0.230587,0.1271404,1.235141,0.2275651,294.0298,188.2375,38.6628,True
2,0.7444451,-0.8226231,1.038889,-0.5955127,-1.145491,-4.228641,-2.684343,0.3570232,1.325866,0.4404659,-1.3385,0.06899551,0,5.2,-0.5988117,0.5144507,0.1888466,-0.3744554,-3.535261,-0.3857543,0.4498639,1.526497,0.3589129,-0.2459785,0.2812544,0.3220833,-0.6602014,0.4192913,-0.02811819,0.5728029,1.55767,0.2298329,0.1198666,1.240219,0.2283772,293.4576,187.0519,40.69314,True
2,0.7555562,-0.8215685,1.051779,-0.5774796,-1.145652,-4.243355,-2.669358,0.3529728,1.326325,0.4390168,-1.337806,0.06287912,0,5.2,-0.5803187,0.3930601,0.1697723,-0.3734727,-3.5318,-0.3834323,0.4462974,1.526285,0.3573773,-0.2564985,0.2908386,0.3403051,-0.6555904,0.4249585,-0.02900103,0.5700121,1.557908,0.2289422,0.1126346,1.245106,0.229138,292.9934,185.94,42.62254,True
2,0.7666674,-0.8131717,1.113794,-0.5405441,-1.148003,-4.259732,-2.653946,0.3487303,1.32661,0.4376531,-1.337706,0.008643884,0,5.2,-0.5351026,0.3067477,0.1442746,-0.3729421,-3.529446,-0.3811338,0.4426454,1.525996,0.3560169,-0.2771947,0.313268,0.4086526,-0.6488606,0.4323514,-0.03111371,0.5668551,1.558024,0.2281253,0.1054843,1.24984,0.2297628,292.6328,184.9658,44.37255,True
2,0.7777785,-0.794097,1.161945,-0.5131135,-1.150736,-4.276405,-2.638963,0.3443867,1.32688,0.4363599,-1.338358,-0.05955467,0,5.2,-0.5145031,0.2900557,0.07792333,-0.3751084,-3.522363,-0.3824627,0.4384982,1.525673,0.3543568,-0.2813209,0.3185962,0.4278969,-0.6432237,0.4387723,-0.03254276,0.5639825,1.558074,0.227318,0.09840618,1.254482,0.2301475,292.2916,184.1128,45.94699,True
2,0.7888896,-0.754739,1.197384,-0.481398,-1.154053,-4.29248,-2.625541,0.3398914,1.327119,0.4350197,-1.338641,-0.02535889,0,5.2,-0.511664,0.3202071,0.02695785,-0.3780389,-3.512553,-0.3860276,0.4346808,1.525265,0.3528621,-0.2833437,0.3292582,0.439626,-0.6380891,0.4457865,-0.0349729,0.5609904,1.55812,0.2265394,0.09155105,1.259112,0.2303929,291.9287,183.2888,47.3646,True
2,0.8000008,-0.7323664,1.215745,-0.4474395,-1.157545,-4.307762,-2.612034,0.3352554,1.327302,0.4337132,-1.339096,-0.04140299,0,2.8,-0.5105727,0.4077895,-0.006559461,-0.3819697,-3.494333,-0.3969833,0.4305723,1.524683,0.3512454,-0.2917679,0.3431085,0.4460679,-0.6334962,0.4531089,-0.03786429,0.5579624,1.558197,0.2262456,0.0847548,1.263814,0.2305911,291.4812,182.3532,48.74922,True
2,0.8111119,-0.7323664,1.215745,-0.4474395,-1.157545,-4.307762,-2.612034,0.3352554,1.327302,0.4337132,-1.340253,-0.1056286,0,2.8,-0.5105727,0.4077895,-0.006559461,-0.3819697,-3.494333,-0.3969833,0.4305723,1.524683,0.3512454,-0.2917679,0.3431085,0.4460679,-0.6334962,0.4531089,-0.03786429,0.5579624,1.558197,0.2262456,0.07791587,1.268611,0.2308866,290.9894,181.1808,50.33968,True
2,0.8222231,-0.7355525,1.227646,-0.4134034,-1.164732,-4.338193,-2.583612,0.3260317,1.327545,0.4308941,-1.346815,-0.5994237,0,2.8,-0.4830974,0.6143451,-0.005451277,-0.3896056,-3.448139,-0.4297865,0.4224805,1.523573,0.3478963,-0.2799761,0.3473622,0.4469952,-0.6243856,0.4668433,-0.0439379,0.5519262,1.558233,0.225311,0.07217739,1.273244,0.2318088,290.3746,180.021,52.3333,True
2,0.8333342,-0.746143,1.211703,-0.4015812,-1.168183,-4.352342,-2.569476,0.3215553,1.327672,0.4294441,-1.331926,1.365956,0,2.8,-0.4755754,0.7662976,0.0498291,-0.3930964,-3.413458,-0.4566664,0.4185923,1.523084,0.3462076,-0.2705145,0.3452165,0.4319998,-0.620296,0.4735731,-0.04677416,0.5489013,1.558164,0.224643,0.06808746,1.276997,0.2330958,289.8397,177.8057,55.21537,True
2,0.8444453,-0.7673779,1.189341,-0.3897092,-1.171742,-4.365948,-2.554958,0.3172687,1.32794,0.4278769,-1.337059,-0.4816037,0,2.8,-0.4622419,0.8117987,0.08835725,-0.3958682,-3.386229,-0.4771812,0.4148826,1.52266,0.3444829,-0.2589081,0.3334976,0.4180394,-0.6165718,0.4796948,-0.04946369,0.545936,1.558102,0.223989,0.05957416,1.281217,0.2327566,289.5683,177.0265,55.85989,True
2,0.8555565,-0.7705387,1.186232,-0.3758302,-1.17605,-4.380125,-2.54094,0.3130707,1.328127,0.4262984,-1.337936,-0.07464769,0,2.2,-0.4640806,0.7870222,0.1318931,-0.3968675,-3.365519,-0.490869,0.4111126,1.522299,0.3428845,-0.2570092,0.3228198,0.3935111,-0.6133425,0.4852251,-0.05106345,0.5427954,1.557904,0.2230599,0.05062903,1.285776,0.2328895,289.2704,176.5545,56.77647,True
2,0.8666676,-0.7609922,1.210839,-0.3642498,-1.181143,-4.395095,-2.527205,0.3089073,1.328134,0.4246252,-1.337372,0.0517624,0,2.2,-0.5216329,0.6515957,0.188005,-0.3945718,-3.354013,-0.493973,0.4076116,1.522025,0.3412716,-0.2633466,0.3185661,0.3999619,-0.6088988,0.4915343,-0.0531258,0.5397049,1.557839,0.2223299,0.04248866,1.290454,0.2337388,288.8914,176.0292,58.28929,True
2,0.8777788,-0.7450882,1.252564,-0.3400002,-1.187649,-4.410675,-2.513532,0.3046411,1.328085,0.4229712,-1.338014,-0.05909993,0,2.2,-0.5643546,0.567445,0.2144742,-0.3937313,-3.341437,-0.4976892,0.4037904,1.521638,0.3396964,-0.2663364,0.3026071,0.4234457,-0.6032673,0.4971596,-0.05472423,0.536395,1.557826,0.2215719,0.03546461,1.29521,0.2350436,288.4533,175.3423,60.12702,True
2,0.8888899,-0.7057627,1.301873,-0.304098,-1.195569,-4.426348,-2.501175,0.300403,1.327912,0.4213054,-1.338621,-0.05490512,0,2.2,-0.583686,0.4640025,0.2427384,-0.3912306,-3.33278,-0.4983978,0.4001077,1.52134,0.3381953,-0.2786683,0.2781038,0.47471,-0.596122,0.5009206,-0.05457323,0.5329885,1.557671,0.2207606,0.02929699,1.30007,0.2364644,287.9628,174.1174,62.35599,True
2,0.900001,-0.680192,1.324522,-0.268011,-1.203582,-4.440849,-2.489311,0.2961479,1.327782,0.4198005,-1.338827,-0.01856233,0.3,5.1,-0.5637055,0.4256496,0.2316401,-0.3913499,-3.321127,-0.5036845,0.3961525,1.520911,0.3366673,-0.2839551,0.2674208,0.483326,-0.5900872,0.5057071,-0.05483369,0.5297457,1.557673,0.2196176,0.02349537,1.305038,0.2377524,287.434,172.2594,64.98557,True
2,0.9111122,-0.6396673,1.335605,-0.2095298,-1.212812,-4.454046,-2.479043,0.2920193,1.327554,0.418258,-1.339959,-0.103337,0.3,5.1,-0.5236536,0.3926651,0.2001504,-0.3919374,-3.312535,-0.5071913,0.3925606,1.520383,0.3351736,-0.2914177,0.2546406,0.4834002,-0.5847551,0.5105731,-0.05534528,0.5267379,1.557533,0.2188668,0.01765404,1.3101,0.2388328,286.8711,170.0049,67.83693,True
2,0.9222233,-0.6097479,1.339296,-0.1350057,-1.223032,-4.466067,-2.469099,0.2880533,1.327385,0.416903,-1.339837,0.01195742,0.3,5.1,-0.4824305,0.4881319,0.2387514,-0.3930155,-3.286614,-0.5269613,0.3893486,1.519537,0.3335936,-0.2840968,0.2642226,0.4705575,-0.5800408,0.5173818,-0.0577107,0.5240581,1.557383,0.2181041,0.01171806,1.315112,0.2398188,286.2882,167.4178,70.9676,True
2,0.9333345,-0.5999444,1.287432,-0.07933939,-1.231794,-4.475936,-2.459406,0.2843318,1.327275,0.4154546,-1.340567,-0.06714775,0.3,5.1,-0.4151959,0.7242065,0.2631275,-0.3982081,-3.244848,-0.5629259,0.3867085,1.518553,0.3322594,-0.233098,0.2567316,0.454138,-0.5756859,0.5227836,-0.0614607,0.5214024,1.557097,0.217494,0.005787573,1.319891,0.2408167,285.7284,164.8689,74.08923,True
2,0.9444456,-0.6220534,1.209759,-0.0522517,-1.238859,-4.484523,-2.448913,0.2809246,1.327022,0.4138427,-1.340171,0.0366606,0.3,5.1,-0.361102,0.887926,0.2818003,-0.4038417,-3.206388,-0.5959364,0.3841888,1.517907,0.3310728,-0.1536987,0.1970505,0.4034312,-0.5724965,0.5245569,-0.06347644,0.5188025,1.556675,0.2168498,6.779516E-05,1.324262,0.241889,285.1439,162.5438,77.02953,True
2,0.9555568,-0.6389269,1.159745,-0.03598887,-1.246249,-4.493935,-2.438163,0.2778475,1.326624,0.4123349,-1.339283,0.08070473,0.7,31.6,-0.3520653,0.8415795,0.3581219,-0.4024159,-3.181444,-0.6150094,0.3814749,1.51735,0.3299534,-0.1232112,0.1884817,0.358434,-0.5700576,0.528231,-0.06607089,0.5162604,1.556365,0.2163248,-0.005304771,1.328136,0.2430102,284.5415,160.6858,79.55,True
2,0.9666679,-0.6389269,1.159745,-0.03598887,-1.246249,-4.493935,-2.438163,0.2778475,1.326624,0.4123349,-1.337749,0.1394282,0.7,31.6,-0.3520653,0.8415795,0.3581219,-0.4024159,-3.181444,-0.6150094,0.3814749,1.51735,0.3299534,-0.1232112,0.1884817,0.358434,-0.5700576,0.528231,-0.06607089,0.5162604,1.556365,0.2163248,-0.01022134,1.331496,0.2439943,284.0333,159.2411,81.73856,True
2,0.977779,-0.6145487,1.230314,-0.004440367,-1.266192,-4.517081,-2.418082,0.2720016,1.325513,0.4089952,-1.344998,-0.6641181,0.7,31.6,-0.4558976,0.1971655,0.246187,-0.3917925,-3.207702,-0.5775395,0.376527,1.516891,0.3285227,-0.1367273,0.2268936,0.3958426,-0.5601512,0.542659,-0.0744516,0.5108368,1.556211,0.2157016,-0.01380723,1.334201,0.2448261,283.6788,158.5944,83.17675,True
2,0.9888902,-0.5690011,1.346797,0.03961277,-1.280363,-4.530739,-2.409428,0.2693842,1.324905,0.4074423,-1.331149,1.27176,0.7,31.6,-0.4819225,-0.06020141,0.1957324,-0.3864502,-3.226851,-0.5535386,0.3741245,1.516653,0.3279805,-0.1291686,0.2237021,0.4074969,-0.5554087,0.5478237,-0.07765831,0.5083101,1.556026,0.2150335,-0.01577688,1.335977,0.2453995,283.6061,156.875,85.22093,True
2,1.000001,-0.5135999,1.374882,0.07988274,-1.292853,-4.541785,-2.402693,0.2667525,1.324301,0.4061193,-1.33803,-0.6405802,0.4,52.8,-0.4255362,-0.198527,0.1346228,-0.3833956,-3.242655,-0.5361854,0.3715719,1.516237,0.3272514,-0.124977,0.2194599,0.4010836,-0.5512925,0.5533299,-0.08097075,0.5056655,1.555957,0.2143495,-0.02074562,1.338746,0.2448812,283.0573,156.1608,85.80502,True
2,1.011112,-0.4815535,1.349483,0.09489578,-1.303468,-4.551406,-2.395957,0.2640578,1.323781,0.4048026,-1.34061,-0.2290111,0.4,52.8,-0.3203356,-0.3240881,0.04757988,-0.3817396,-3.263828,-0.5168604,0.3688812,1.515967,0.326483,-0.153975,0.1736493,0.3768734,-0.5479742,0.5545849,-0.07936193,0.5031438,1.55581,0.2133846,-0.02597139,1.342052,0.2445737,282.5779,155.1095,86.84998,True
2,1.022224,-0.434395,1.255896,0.09855169,-1.311286,-4.558467,-2.391047,0.2615147,1.323248,0.4036379,-1.341552,-0.08470737,0.4,52.8,-0.2697154,-0.336753,-0.00198409,-0.3811969,-3.275659,-0.5046695,0.365907,1.515455,0.3252914,-0.1806386,0.1534433,0.374978,-0.5441206,0.557595,-0.07897551,0.500476,1.55564,0.2125475,-0.03059527,1.345597,0.2450364,282.0703,153.0709,89.08283,True
2,1.033335,-0.3936521,1.156883,0.0894599,-1.318274,-4.565197,-2.386364,0.2589353,1.322636,0.4024312,-1.340742,0.07422997,0.4,52.8,-0.2557298,-0.2129901,-0.03858314,-0.3835144,-3.27248,-0.5047396,0.3631016,1.51493,0.3240948,-0.2017542,0.1374993,0.3975561,-0.5388907,0.5607473,-0.07877657,0.4975697,1.555351,0.2116172,-0.03442157,1.349088,0.2463355,281.6049,149.5914,93.05305,True
2,1.044446,-0.3539542,1.039669,0.06447917,-1.323174,-4.570803,-2.382483,0.256345,1.322188,0.4011338,-1.341326,-0.05437701,0.4,52.8,-0.2200308,-0.01801276,-0.06426991,-0.3880673,-3.259697,-0.515381,0.3601249,1.514414,0.3226295,-0.2057716,0.1375204,0.4252902,-0.533453,0.5645168,-0.07961014,0.494883,1.555147,0.21067,-0.03770066,1.352349,0.2481921,281.2618,145.4355,97.95819,True
2,1.055557,-0.3324544,0.9618742,0.04783112,-1.328708,-4.576875,-2.378048,0.2537601,1.321676,0.3998179,-1.341108,0.02016818,0.6,54.7,-0.199273,0.1118712,-0.0646771,-0.3912588,-3.248442,-0.5242222,0.3573072,1.513986,0.3212485,-0.2066483,0.1417577,0.4455556,-0.5277885,0.5682588,-0.08070043,0.4920675,1.554845,0.2097208,-0.04060593,1.355146,0.2502286,281.0823,141.1852,103.0689,True
2,1.066668,-0.2756735,0.8308236,0.01438501,-1.331499,-4.581411,-2.375798,0.2511473,1.321238,0.3985398,-1.340671,0.03871707,0.6,54.7,-0.1906536,0.3054603,-0.02406637,-0.3955636,-3.223569,-0.5454095,0.3543296,1.513523,0.3194287,-0.2086675,0.1598766,0.45728,-0.5224776,0.5739288,-0.08323471,0.4894514,1.554584,0.2087243,-0.04350517,1.357366,0.2520699,280.9741,137.4698,107.6077,True
2,1.077779,-0.2478507,0.7807843,0.005036682,-1.336359,-4.586957,-2.372634,0.2484244,1.320859,0.3972671,-1.338864,0.1635789,0.6,54.7,-0.2195442,0.449125,0.01656785,-0.3991471,-3.200797,-0.5625818,0.3516449,1.513232,0.3177876,-0.2182565,0.154522,0.456308,-0.5176226,0.5774342,-0.08369517,0.4870344,1.554245,0.2081463,-0.04659503,1.35892,0.2534403,280.8978,134.8317,110.931,True
2,1.08889,-0.2083008,0.7200114,-0.02450821,-1.33968,-4.592384,-2.370415,0.245908,1.320521,0.3959963,-1.338673,0.01438693,0.6,54.7,-0.2592031,0.526701,0.07179702,-0.4013053,-3.179055,-0.5782617,0.3489861,1.512795,0.315908,-0.2355327,0.1385339,0.4309021,-0.5137494,0.5801443,-0.0828062,0.4846126,1.553957,0.2071185,-0.04994107,1.359814,0.2542504,280.7679,133.3468,112.9154,True
2,1.100002,-0.1666411,0.6677814,-0.05091578,-1.342613,-4.597762,-2.368709,0.2434112,1.320411,0.394731,-1.335733,0.2666642,0.2,51.4,-0.2852755,0.5627283,0.1170213,-0.4030897,-3.159416,-0.5921427,0.346316,1.512516,0.3144343,-0.2336532,0.1257754,0.4074071,-0.5106792,0.5834233,-0.08264348,0.4829163,1.553897,0.2060614,-0.05341322,1.359974,0.2545094,280.6667,132.8411,113.7114,True
2,1.111113,-0.1388151,0.6037227,-0.0910823,-1.344222,-4.602906,-2.366941,0.2408462,1.320166,0.3936682,-1.333559,0.1941006,0.2,51.4,-0.2871718,0.5647119,0.1415618,-0.4046583,-3.14284,-0.6041373,0.3436357,1.512115,0.3127708,-0.2357146,0.1129982,0.4159562,-0.5058429,0.5859099,-0.08213349,0.4805384,1.553641,0.2050071,-0.05707646,1.359549,0.2543668,280.4376,133.3016,113.3345,True
2,1.122224,-0.1388151,0.6037227,-0.0910823,-1.344222,-4.602906,-2.366941,0.2408462,1.320166,0.3936682,-1.330662,0.2605004,0.2,51.4,-0.2871718,0.5647119,0.1415618,-0.4046583,-3.14284,-0.6041373,0.3436357,1.512115,0.3127708,-0.2357146,0.1129982,0.4159562,-0.5058429,0.5859099,-0.08213349,0.4805384,1.553641,0.2050071,-0.06075078,1.358627,0.254041,280.192,134.6852,111.9633,True
2,1.133335,-0.1140749,0.5002664,-0.1246472,-1.343965,-4.606311,-2.365695,0.2382045,1.320062,0.3926961,-1.327155,0.3153146,0.2,51.4,-0.2597914,0.4932386,0.1386995,-0.4052596,-3.134316,-0.6100213,0.3408584,1.511537,0.3112829,-0.2472723,0.1045364,0.4362757,-0.5006093,0.5893332,-0.08181471,0.4780449,1.55352,0.2038262,-0.06381287,1.35718,0.2538262,279.8901,137.2209,109.4237,True
2,1.144446,-0.07733953,0.296737,-0.1480968,-1.341865,-4.609659,-2.364215,0.2328241,1.319806,0.3910637,-1.322093,0.4568062,0.2,51.4,-0.1846681,0.5178571,0.07529642,-0.4120086,-3.109726,-0.6303124,0.3356519,1.510291,0.3082829,-0.2269727,0.1237452,0.4445929,-0.4911178,0.5988466,-0.08541956,0.4734304,1.552831,0.2016232,-0.06556709,1.355147,0.2538473,279.6544,140.2967,106.3565,True
2,1.155557,-0.05571578,0.1774603,-0.1506678,-1.339436,-4.609509,-2.364402,0.2302421,1.319996,0.390043,-1.316386,0.5142218,1.1,65.7,-0.1505795,0.5764655,0.05192274,-0.4172726,-3.092909,-0.6449859,0.33312,1.509784,0.3067145,-0.2046428,0.1035458,0.4443699,-0.4867688,0.6013904,-0.08583501,0.4713235,1.552514,0.2004943,-0.06867716,1.353491,0.2536932,279.6463,141.6168,105.0633,True
2,1.166668,-0.04276919,0.1081642,-0.1662875,-1.33685,-4.610307,-2.364198,0.2278061,1.320042,0.3889027,-1.31234,0.3616302,1.1,65.7,-0.1151584,0.595367,0.07195559,-0.420577,-3.076226,-0.6602637,0.3311408,1.509387,0.3053982,-0.1469932,0.04911417,0.3384448,-0.4864285,0.5986994,-0.08385362,0.4692735,1.552328,0.1994386,-0.07389867,1.352361,0.2533636,279.7096,142.0759,104.7216,True
2,1.17778,-0.02779462,0.08690825,-0.1651233,-1.336044,-4.612122,-2.364,0.2256734,1.320108,0.3877442,-1.306769,0.5020798,1.1,65.7,-0.116375,0.4886459,0.1032153,-0.4197872,-3.069554,-0.6646829,0.3292975,1.509121,0.3039186,-0.1407579,0.03949693,0.3160483,-0.4833818,0.5994784,-0.0836403,0.4666859,1.55161,0.1983762,-0.07879221,1.350862,0.2532294,279.6268,143.7255,103.3206,True
2,1.188891,-0.02248762,0.09112254,-0.1768699,-1.33531,-4.61466,-2.363429,0.2237327,1.320001,0.3865762,-1.300449,0.569131,1.1,65.7,-0.1605823,0.3385691,0.1111713,-0.4177509,-3.069702,-0.66115,0.327477,1.508847,0.3026321,-0.1511101,0.02461836,0.3502451,-0.4781344,0.6001835,-0.08224108,0.4646161,1.551262,0.1972737,-0.08285996,1.348872,0.2531277,279.4471,146.6187,100.8091,True
2,1.200002,-0.0215793,0.1540191,-0.1708113,-1.336916,-4.618779,-2.362306,0.2218672,1.319749,0.3855116,-1.294119,0.5692326,1.1,65.7,-0.2151371,0.2684397,0.1176099,-0.4170814,-3.06612,-0.6601675,0.3254989,1.50862,0.3014891,-0.1402585,0.01179436,0.3704191,-0.4730275,0.5994053,-0.08073879,0.4625105,1.55086,0.1962411,-0.08616348,1.346501,0.2529399,279.3069,150.1238,97.60561,True
2,1.211113,-0.02288081,0.2574977,-0.1436705,-1.340914,-4.623849,-2.360891,0.2201211,1.319409,0.384532,-1.287043,0.637374,1,52,-0.2122142,0.2376386,0.1024691,-0.4178537,-3.061164,-0.6625143,0.3234491,1.508366,0.3002105,-0.1254137,-0.005262613,0.3628525,-0.4692325,0.5987877,-0.07934143,0.4606904,1.550427,0.1951802,-0.08896908,1.343964,0.2526754,279.1819,153.5878,94.27206,True
2,1.222224,-0.02302823,0.3268764,-0.1195416,-1.344698,-4.62853,-2.359637,0.2183419,1.318998,0.3836267,-1.279642,0.6662028,1,52,-0.1478277,0.1501962,0.07572079,-0.4171666,-3.063864,-0.6604823,0.3213703,1.508303,0.2990491,-0.1267255,-0.01490343,0.331995,-0.4662636,0.597511,-0.07711343,0.4589091,1.550198,0.1942217,-0.0916082,1.341426,0.2524103,279.0987,156.668,91.18414,True
2,1.233335,-0.01665617,0.3386727,-0.1100185,-1.346852,-4.632107,-2.358885,0.2163994,1.318875,0.3827393,-1.272111,0.6777803,1,52,-0.1075607,0.1266773,0.06346081,-0.4174297,-3.061874,-0.6622896,0.3192623,1.508095,0.2976856,-0.1449852,-0.01815692,0.3129951,-0.4631205,0.5962793,-0.07400499,0.457364,1.550023,0.1930711,-0.0943774,1.339062,0.2523418,278.9468,159.4646,88.28696,True
2,1.244446,0.006978054,0.2727961,-0.08945031,-1.347196,-4.632874,-2.359593,0.2146545,1.318803,0.3819084,-1.264523,0.6828171,1,52,-0.07222587,0.2065305,0.0487373,-0.4204242,-3.052372,-0.6713704,0.3173547,1.507763,0.2963955,-0.1685427,-0.01709029,0.299353,-0.4602411,0.5964434,-0.07142998,0.4557104,1.549739,0.1920111,-0.09735709,1.336956,0.2526781,278.6733,161.9858,85.75557,True
2,1.255558,0.01673877,0.2142966,-0.07742671,-1.347066,-4.633417,-2.360075,0.2128069,1.31885,0.381083,-1.256938,0.6823582,1.7,48.9,-0.06126446,0.2981458,0.0439117,-0.4243204,-3.038833,-0.6830814,0.3156146,1.50731,0.2950537,-0.1536714,-0.03628087,0.2939076,-0.4570272,0.5943791,-0.06859797,0.4541827,1.549758,0.1909192,-0.1005102,1.335063,0.253462,278.3838,164.2254,83.74811,True
2,1.266669,0.01929283,0.05564544,-0.06697382,-1.343659,-4.630344,-2.361016,0.2113382,1.31899,0.3803298,-1.249753,0.6455644,1.7,48.9,-0.05442548,0.388615,0.05403516,-0.4282635,-3.023269,-0.6967676,0.3142933,1.506958,0.2937367,-0.1079932,-0.05654934,0.278607,-0.4543129,0.5918025,-0.06687863,0.4525074,1.549653,0.1899824,-0.1036864,1.333256,0.2545526,278.155,166.4341,82.02468,True
2,1.27778,0.01929283,0.05564544,-0.06697382,-1.343659,-4.630344,-2.361016,0.2113382,1.31899,0.3803298,-1.241337,0.7583797,1.7,48.9,-0.05442548,0.388615,0.05403516,-0.4282635,-3.023269,-0.6967676,0.3142933,1.506958,0.2937367,-0.1079932,-0.05654934,0.278607,-0.4543129,0.5918025,-0.06687863,0.4525074,1.549653,0.1899824,-0.1065777,1.331288,0.2556724,277.9824,168.5346,80.54182,True
2,1.288891,0.01929283,0.05564544,-0.06697382,-1.343659,-4.630344,-2.361016,0.2113382,1.31899,0.3803298,-1.232354,0.809168,1.7,48.9,-0.05442548,0.388615,0.05403516,-0.4282635,-3.023269,-0.6967676,0.3142933,1.506958,0.2937367,-0.1079932,-0.05654934,0.278607,-0.4543129,0.5918025,-0.06687863,0.4525074,1.549653,0.1899824,-0.108891,1.328982,0.2566369,277.8632,171.45,78.1053,True
2,1.300002,0.009738006,0.03530877,-0.08389181,-1.34221,-4.632308,-2.360475,0.2085346,1.318699,0.3780351,-1.223887,0.7616118,1.7,48.9,-0.136272,0.3727918,0.0813343,-0.4314246,-3.004723,-0.708325,0.3113812,1.506652,0.2913158,-0.1230187,-0.06722873,0.2627786,-0.4485328,0.5880966,-0.06074857,0.4495057,1.548824,0.1879854,-0.1098951,1.326205,0.2575151,277.8212,175.7068,74.0645,True
2,1.311113,0.009257004,0.2185834,-0.0795452,-1.348835,-4.641478,-2.358528,0.2061756,1.318122,0.3760264,-1.215336,0.7697557,3.2,49,-0.1588927,0.2865216,0.0916286,-0.4319408,-2.995047,-0.7128071,0.3085485,1.506306,0.2891681,-0.1030113,-0.06193689,0.2327724,-0.4443399,0.5858422,-0.05744465,0.4466639,1.548302,0.1860669,-0.1107606,1.323305,0.2580017,277.8374,179.3637,70.71855,True
2,1.322224,0.007865526,0.3604511,-0.04726973,-1.356357,-4.647886,-2.357255,0.2050561,1.31774,0.3753006,-1.207055,0.7448034,3.2,49,-0.124984,0.2886416,0.07214493,-0.43423,-2.988998,-0.7182822,0.3070918,1.506123,0.2883196,-0.079591,-0.05875751,0.2283206,-0.441649,0.5850217,-0.05696262,0.4455387,1.54783,0.1852682,-0.1133662,1.320582,0.2574029,277.9933,181.5139,68.99194,True
2,1.333336,-0.005083919,0.4340634,-0.02208683,-1.362073,-4.652673,-2.355586,0.2039884,1.317186,0.3744729,-1.198537,0.7669051,3.2,49,-0.08892314,0.2693791,0.06315689,-0.4354588,-2.984547,-0.7227848,0.3057328,1.505932,0.2873924,-0.06480546,-0.06622677,0.2132859,-0.4396762,0.5830098,-0.05505287,0.4442199,1.547616,0.1844158,-0.1171193,1.317934,0.2562215,278.0653,184.6338,65.73892,True
2,1.344447,-0.02630396,0.4139391,0.006811932,-1.365614,-4.654727,-2.353991,0.2027878,1.317105,0.3739448,-1.189782,0.7881545,3.2,49,-0.04255167,0.2001114,0.03882474,-0.4355611,-2.986271,-0.7225931,0.3043842,1.505755,0.2866473,-0.05747176,-0.06197054,0.1993581,-0.4381523,0.5821928,-0.05391277,0.4431277,1.547504,0.183609,-0.1204648,1.315198,0.2553845,278.0104,189.6761,60.15564,True
2,1.355558,-0.03151133,0.3734913,0.01555827,-1.367651,-4.656108,-2.353223,0.2016557,1.31694,0.3730459,-1.180301,0.8543574,3.2,49,-0.02087386,0.1513662,-0.01389541,-0.4370919,-2.990197,-0.7195515,0.3033492,1.505469,0.2858932,-0.05237417,-0.07370704,0.1737571,-0.4370919,0.5794235,-0.05106425,0.4419714,1.547208,0.1827431,-0.1231984,1.312504,0.2553554,277.9107,195.1838,54.28264,True
2,1.366669,-0.07070024,0.2806811,0.006533667,-1.367372,-4.656034,-2.350957,0.2005788,1.316944,0.3725579,-1.171036,0.8340538,5.6,64.9,-0.02700955,0.1597463,0.00964494,-0.4377214,-2.985195,-0.7235596,0.3022975,1.505426,0.2850997,-0.02783544,-0.08865029,0.1778046,-0.4349091,0.5752823,-0.04805807,0.4406967,1.546925,0.1817517,-0.125392,1.309925,0.2561249,277.8632,200.13,49.46385,True
2,1.37778,-0.1184289,0.188813,-0.01741625,-1.365562,-4.655869,-2.34777,0.1994392,1.316972,0.3718104,-1.163125,0.7106588,5.6,64.9,-0.03662964,0.1181527,0.02437827,-0.4369193,-2.983831,-0.723856,0.3011999,1.505308,0.2843282,-0.01276521,-0.08545873,0.1925823,-0.4320862,0.5736203,-0.04724501,0.439337,1.546716,0.1809402,-0.1272921,1.307569,0.2573765,277.8913,204.5614,45.56196,True
2,1.388891,-0.09698579,0.130243,-0.0267087,-1.364808,-4.65595,-2.347488,0.1981563,1.317014,0.3710237,-1.152988,0.9152968,5.6,64.9,-0.04421003,0.02212214,0.05044764,-0.4331626,-2.988585,-0.7189102,0.3001398,1.505103,0.2837114,-0.02021865,-0.0779983,0.1926444,-0.4299242,0.5724857,-0.0457073,0.438078,1.546472,0.1802175,-0.1290105,1.305393,0.258719,277.9374,207.8043,43.02565,True
2,1.400002,-0.06710897,0.101463,-0.04470488,-1.364117,-4.656961,-2.347783,0.1970437,1.316859,0.370347,-1.143607,0.8444248,5.6,64.9,-0.05162846,0.03816463,0.04849588,-0.4338758,-2.98512,-0.7211611,0.2990105,1.50477,0.2828679,-0.01807139,-0.07160795,0.1947429,-0.4277958,0.5712728,-0.04437385,0.4369377,1.546241,0.1794395,-0.1306699,1.303379,0.2598174,278.0804,210.3074,41.14538,True
2,1.411114,-0.08412468,0.08866832,-0.04246696,-1.364569,-4.657706,-2.345907,0.1957783,1.316565,0.3697953,-1.138298,0.4729896,6.5,50.4,-0.0603928,0.01272947,0.03349654,-0.4335051,-2.986874,-0.7185435,0.2977894,1.504522,0.2821519,-0.01402899,-0.06843009,0.1702017,-0.4268227,0.5697812,-0.04302097,0.4357525,1.545978,0.1788762,-0.1324348,1.301592,0.2604149,278.3151,212.3386,39.56478,True
2,1.422225,-0.1055463,0.1312294,-0.03626642,-1.366698,-4.65969,-2.343253,0.1947006,1.316545,0.3687382,-1.131111,0.6477682,6.5,50.4,-0.06907997,-0.01489093,0.02700197,-0.4326598,-2.989294,-0.7153314,0.2964946,1.504228,0.2814214,-0.03444076,-0.0407377,0.1501269,-0.4259076,0.5712311,-0.04312723,0.4346595,1.545742,0.1784499,-0.1341844,1.2999,0.2605011,278.4562,213.3785,38.7148,True
2,1.433336,-0.1302786,0.2228002,-0.03246203,-1.370894,-4.664154,-2.340044,0.1936269,1.316148,0.3682103,-1.120615,0.9483377,6.5,50.4,-0.06148783,0.03519837,0.0208655,-0.4342732,-2.984757,-0.7189749,0.2952455,1.503813,0.2806878,-0.05150034,-0.01090385,0.1470646,-0.4244349,0.5740179,-0.04439383,0.4334729,1.545504,0.1779034,-0.1357986,1.298034,0.2602447,278.507,213.6866,38.34653,True
2,1.444447,-0.1302786,0.2228002,-0.03246203,-1.370894,-4.664154,-2.340044,0.1936269,1.316148,0.3682103,-1.111623,0.8085111,6.5,50.4,-0.06148783,0.03519837,0.0208655,-0.4342732,-2.984757,-0.7189749,0.2952455,1.503813,0.2806878,-0.05150034,-0.01090385,0.1470646,-0.4244349,0.5740179,-0.04439383,0.4334729,1.545504,0.1779034,-0.1374947,1.295973,0.259773,278.6032,215.2725,36.62302,True
2,1.455558,-0.1763147,0.3089495,-0.03497738,-1.377688,-4.671559,-2.333169,0.1910629,1.315807,0.367044,-1.105689,0.5304833,6.5,50.4,-0.05271303,0.07237419,0.03167243,-0.4354087,-2.978213,-0.7241716,0.292692,1.503203,0.279155,-0.06536248,0.02001318,0.1450341,-0.4213579,0.5785862,-0.04647616,0.4312553,1.544997,0.1768486,-0.1390049,1.293824,0.2592304,278.871,218.0703,33.70555,True
2,1.466669,-0.1804661,0.2587669,-0.05602574,-1.377374,-4.673514,-2.330648,0.189521,1.315724,0.366188,-1.092546,1.191913,4.8,59.2,-0.08798008,0.0640465,0.0234258,-0.4356942,-2.977616,-0.7223361,0.29136,1.50287,0.2783837,-0.06861467,0.04344617,0.1375902,-0.4202005,0.5821152,-0.04878352,0.4300652,1.544778,0.1763945,-0.1402299,1.291588,0.2588655,279.1605,220.1436,31.34833,True
2,1.47778,-0.177163,0.210791,-0.06749876,-1.377014,-4.674962,-2.32847,0.1880338,1.315717,0.3655148,-1.087044,0.4873966,4.8,59.2,-0.1286085,0.03971478,0.01936635,-0.4353299,-2.979361,-0.7175765,0.2899181,1.502723,0.2776861,-0.09305575,0.05944575,0.1431229,-0.4185008,0.5855875,-0.0500155,0.4287987,1.544557,0.1758468,-0.1428665,1.289831,0.2589406,279.3218,224.1815,27.12443,True
2,1.488891,-0.1727754,0.1585458,-0.07788859,-1.375857,-4.675805,-2.326592,0.1863612,1.315834,0.3648984,-1.079756,0.65735,4.8,59.2,-0.1401984,0.05250287,0.02701821,-0.4356154,-2.976442,-0.7182945,0.2885308,1.502477,0.2767851,-0.1153112,0.0807845,0.1550323,-0.4163107,0.5904784,-0.05229703,0.4277166,1.544433,0.1754098,-0.1456635,1.288392,0.2595092,279.505,226.3526,25.19143,True
2,1.500003,-0.1695477,0.1414453,-0.09058721,-1.375613,-4.677639,-2.324518,0.1848621,1.315859,0.3642516,-1.072042,0.6942347,4.8,59.2,-0.1300803,0.1129877,0.05927017,-0.4367494,-2.967012,-0.72568,0.2872249,1.502111,0.275774,-0.1239309,0.0861178,0.1455204,-0.4151197,0.5936948,-0.05339185,0.4267888,1.544246,0.1749859,-0.1482381,1.287078,0.2603506,279.6652,227.1108,24.91806,True
2,1.511114,-0.174814,0.115859,-0.09471563,-1.375012,-4.678984,-2.322037,0.1832882,1.316059,0.3638015,-1.064202,0.7054235,4.8,59.2,-0.1200862,0.1447139,0.08921329,-0.4370365,-2.958665,-0.7323059,0.2859852,1.501804,0.2749214,-0.1306689,0.08396345,0.1072304,-0.4155277,0.5957316,-0.0535314,0.425805,1.544084,0.1746941,-0.1504795,1.28576,0.2612751,279.7673,227.8136,24.69484,True
2,1.522225,-0.1843621,0.1009239,-0.09889475,-1.374745,-4.680706,-2.319336,0.1816711,1.316153,0.3634839,-1.056147,0.7250675,3.1,54.2,-0.1231379,0.1435618,0.1052137,-0.436719,-2.953298,-0.7356783,0.2848481,1.501472,0.2741024,-0.1309843,0.1095135,0.07205013,-0.4163384,0.6011381,-0.05688725,0.4248666,1.543855,0.1743786,-0.1525352,1.28435,0.2621135,279.8732,228.6677,24.2318,True
2,1.533336,-0.2002839,0.07851194,-0.09875486,-1.373953,-4.681473,-2.316297,0.1800392,1.316269,0.3629656,-1.047587,0.7711651,3.1,54.2,-0.1413623,0.1298263,0.09890278,-0.4366913,-2.950439,-0.735972,0.2836691,1.501116,0.273324,-0.1351493,0.1372217,0.08273146,-0.414978,0.6077626,-0.06111662,0.4239253,1.543571,0.1740706,-0.154499,1.282803,0.2628153,280.0305,229.7894,23.37326,True
2,1.544447,-0.2331978,0.03370067,-0.1006211,-1.372154,-4.681832,-2.312228,0.1783979,1.316374,0.3623993,-1.039245,0.750644,3.1,54.2,-0.13599,0.1073402,0.1146863,-0.435617,-2.946892,-0.7376099,0.2824781,1.500754,0.2728097,-0.1308049,0.1468438,0.09121379,-0.4136811,0.6138816,-0.06541443,0.4229536,1.543329,0.173687,-0.1565169,1.281143,0.2633692,280.2895,230.9538,22.35002,True
2,1.555558,-0.2427622,0.02513594,-0.1037586,-1.371305,-4.682763,-2.30912,0.1766211,1.316637,0.3617456,-1.030619,0.7769254,3.1,54.2,-0.1226236,0.04459889,0.08964459,-0.4344947,-2.949818,-0.734152,0.2812271,1.500512,0.2721646,-0.1200639,0.1383275,0.1028566,-0.4119569,0.6171104,-0.0673058,0.4218189,1.543122,0.1733301,-0.1586406,1.279406,0.263809,280.5881,232.0948,21.30635,True
2,1.566669,-0.2395781,0.02510455,-0.1122877,-1.370473,-4.684266,-2.306287,0.1747974,1.316809,0.3611159,-1.021457,0.8258069,1.9,49.4,-0.1281023,0.0009242445,0.09260534,-0.4326145,-2.950978,-0.7313605,0.2800129,1.500284,0.2715406,-0.1146493,0.1351614,0.1123952,-0.410514,0.6216527,-0.0704257,0.4207667,1.542989,0.1731238,-0.1608235,1.277627,0.2640773,280.916,233.1441,20.42067,True
2,1.577781,-0.229997,0.02618093,-0.1165715,-1.369792,-4.685777,-2.303844,0.1730167,1.317096,0.3604088,-1.014478,0.6257787,1.9,49.4,-0.1377126,-0.02358966,0.1010595,-0.4307556,-2.950434,-0.729838,0.278812,1.500057,0.2708831,-0.1156468,0.1511746,0.1219859,-0.4088938,0.6288124,-0.07517412,0.4196827,1.542803,0.17276,-0.1630673,1.275901,0.264105,281.3239,234.0775,19.64124,True
2,1.588892,-0.2309984,0.01675797,-0.08456458,-1.369772,-4.685427,-2.301299,0.1712521,1.317324,0.3596625,-1.007028,0.6707447,1.9,49.4,-0.1388401,-0.03636561,0.1009824,-0.4294384,-2.950101,-0.7283823,0.2775563,1.499811,0.2701333,-0.1232301,0.1426467,0.1082113,-0.4083201,0.6321539,-0.07664417,0.4186015,1.542621,0.1724243,-0.1653734,1.274323,0.2639257,281.7037,234.8783,18.89369,True
2,1.600003,-0.2438933,0.0603902,-0.08904903,-1.370881,-4.688153,-2.297565,0.1695293,1.317486,0.3589056,-0.9994204,0.6844041,1.9,49.4,-0.1462988,-0.05876204,0.1104907,-0.4274198,-2.950096,-0.726448,0.2761864,1.499534,0.2693462,-0.1297879,0.1362833,0.09232259,-0.4076538,0.6368192,-0.07886659,0.4176487,1.542378,0.1721554,-0.1676869,1.272882,0.2636594,281.9997,235.4476,18.2889,True
2,1.611114,-0.2622314,0.1627542,-0.06294441,-1.375422,-4.691857,-2.293209,0.1677778,1.317574,0.3581131,-0.9909148,0.7664319,1.9,49.4,-0.1598046,-0.05573152,0.1468598,-0.4248616,-2.945576,-0.7281061,0.2749977,1.499161,0.2684987,-0.139372,0.1426799,0.09240443,-0.4068138,0.6416966,-0.08139659,0.416603,1.542161,0.1718485,-0.169911,1.271532,0.2633936,282.2222,236.0076,17.71541,True
2,1.622225,-0.2665403,0.1840885,-0.05451471,-1.37743,-4.693736,-2.28974,0.1659488,1.317791,0.3576598,-0.9822436,0.7809199,1.1,48.7,-0.153184,-0.001431614,0.1482213,-0.4251428,-2.938593,-0.7330756,0.2738191,1.498783,0.2676885,-0.1329347,0.1479798,0.09765007,-0.4057992,0.6456772,-0.08389676,0.4150022,1.541869,0.1715958,-0.172038,1.270229,0.2630926,282.4043,236.8131,16.9574,True
2,1.633336,-0.3102764,0.2192519,-0.03227828,-1.380691,-4.695906,-2.284218,0.1642251,1.318101,0.3568017,-0.973771,0.7627348,1.1,48.7,-0.1365948,0.08995122,0.1752997,-0.4262155,-2.924528,-0.7449993,0.2727546,1.498491,0.266891,-0.1169842,0.149035,0.09430987,-0.4050375,0.6501313,-0.08734902,0.413927,1.541636,0.1712983,-0.1742633,1.269035,0.2628812,282.608,238.0081,15.73478,True
2,1.644447,-0.4157971,0.2381374,-0.03436871,-1.382984,-4.698345,-2.274801,0.1626867,1.318449,0.3560622,-0.96632,0.6695703,1.1,48.7,-0.1396299,0.08770862,0.1944823,-0.4246538,-2.918293,-0.7488438,0.2716449,1.498285,0.2661691,-0.1042693,0.1330266,0.08672811,-0.4047387,0.6516325,-0.08820869,0.4127771,1.541314,0.1709836,-0.1766496,1.268056,0.2629017,282.7843,239.7809,13.955,True
2,1.655559,-0.5243725,0.2101912,-0.02875586,-1.383822,-4.699181,-2.264276,0.1607445,1.318965,0.3552341,-0.9564967,0.8872542,1.1,48.7,-0.1620453,0.04830359,0.2072205,-0.4218447,-2.915646,-0.748413,0.270663,1.498166,0.2654855,-0.104421,0.1095783,0.07076499,-0.4046412,0.6523045,-0.08767739,0.4118145,1.54103,0.170671,-0.1790514,1.267256,0.2631494,282.9291,241.1227,12.74168,True
2,1.66667,-0.4847952,0.1452979,-0.02844128,-1.382904,-4.698443,-2.260794,0.1587334,1.319471,0.3544705,-0.9447537,1.060947,0.4,42.2,-0.1792024,0.002515614,0.2145406,-0.4186707,-2.914404,-0.7468577,0.2696683,1.498058,0.2648749,-0.1108234,0.08291322,0.0708148,-0.4041693,0.6507441,-0.08481449,0.4110181,1.541025,0.170275,-0.1814481,1.266708,0.2635056,283.102,242.6324,11.51954,True
2,1.677781,-0.4100462,0.0708626,-0.03663747,-1.380957,-4.697364,-2.259577,0.1567629,1.320018,0.353791,-0.9355845,0.8245992,0.4,42.2,-0.1816223,-0.07953081,0.2193476,-0.4141551,-2.917341,-0.7420083,0.2686051,1.497913,0.2642624,-0.1192245,0.05521446,0.0857958,-0.4030087,0.6492147,-0.08181471,0.4102068,1.540956,0.1699333,-0.1839421,1.266653,0.2638244,283.3886,244.0461,10.4577,True
2,1.688892,-0.3683699,0.0241369,-0.02898208,-1.379683,-4.696334,-2.257365,0.1548505,1.320506,0.3530722,-0.9348457,0.05592934,0.4,42.2,-0.2062779,-0.0932135,0.2088356,-0.4116128,-2.917172,-0.7389414,0.2675502,1.497716,0.2635951,-0.1200345,0.06908374,0.1134919,-0.4008015,0.6529785,-0.08391061,0.4091871,1.540738,0.1696098,-0.1866316,1.267345,0.2638699,283.6458,244.7943,10.0921,True
2,1.700003,-0.368362,0.02307081,-0.02683533,-1.379869,-4.696588,-2.253076,0.1530996,1.320898,0.3520827,-0.9299822,0.4391323,0.4,42.2,-0.2138154,-0.06748372,0.1898972,-0.4110376,-2.91372,-0.7393678,0.2664268,1.497535,0.2628677,-0.1189416,0.08079539,0.1134625,-0.3999029,0.6565976,-0.08626751,0.4084155,1.540591,0.1692114,-0.1890095,1.26846,0.2635258,283.4115,244.0084,11.12989,True
2,1.711114,-0.3907764,0.03682461,-0.03433901,-1.380206,-4.697763,-2.247648,0.1515736,1.321084,0.351371,-0.9209765,0.8135632,0.4,42.2,-0.2043223,-0.06852433,0.1802133,-0.409362,-2.91247,-0.7385987,0.265263,1.49738,0.262089,-0.1479163,0.08931395,0.0892145,-0.4000222,0.6597673,-0.08649148,0.4076366,1.540346,0.1690414,-0.1909291,1.26938,0.2628226,282.8549,242.4721,12.68441,True
2,1.722225,-0.4046547,0.04637586,-0.03331557,-1.38055,-4.698626,-2.242383,0.1500068,1.321346,0.3504913,-0.9107431,0.9229473,1,44.1,-0.1989379,-0.05897731,0.1834161,-0.4074791,-2.909468,-0.7392831,0.2641507,1.497041,0.2612627,-0.16391,0.1095527,0.0861388,-0.3994672,0.6646181,-0.08861322,0.4068751,1.540181,0.1686902,-0.1926566,1.269689,0.2618401,282.4001,241.4489,13.57839,True
2,1.733337,-0.3641034,0.01877709,-0.03428438,-1.379677,-4.698478,-2.239866,0.1484391,1.321703,0.3498061,-0.9014912,0.8327227,1,44.1,-0.1829711,-0.001346052,0.1580793,-0.4083499,-2.903873,-0.7429266,0.2631796,1.496725,0.2604077,-0.1607166,0.1255271,0.08396013,-0.3988979,0.6698432,-0.09193685,0.4062768,1.539913,0.168457,-0.1944363,1.269298,0.2607056,282.3103,241.4145,13.41201,True
2,1.744448,-0.3522798,-0.02387597,-0.04578903,-1.377715,-4.698018,-2.236666,0.1469487,1.322234,0.3489883,-0.893572,0.7119076,1,44.1,-0.1594851,0.03377791,0.1484997,-0.4086179,-2.89848,-0.7469722,0.2622331,1.496481,0.2595272,-0.1438231,0.1127235,0.06783675,-0.3987988,0.6718871,-0.0928591,0.4055934,1.539698,0.1681144,-0.1963072,1.26833,0.2596205,282.5778,241.9293,12.65392,True
2,1.755559,-0.3522798,-0.02387597,-0.04578903,-1.377715,-4.698018,-2.236666,0.1469487,1.322234,0.3489883,-0.8881967,0.4802257,1,44.1,-0.1594851,0.03377791,0.1484997,-0.4086179,-2.89848,-0.7469722,0.2622331,1.496481,0.2595272,-0.1438231,0.1127235,0.06783675,-0.3987988,0.6718871,-0.0928591,0.4055934,1.539698,0.1681144,-0.1982629,1.267005,0.258685,283.0624,242.6608,11.76525,True
2,1.76667,-0.3212878,-0.07186618,-0.0700794,-1.373851,-4.697954,-2.230444,0.1438798,1.323156,0.3473551,-0.8828384,0.4803959,0.5,38.7,-0.1553118,-0.0003614724,0.1535652,-0.4051318,-2.894116,-0.7476854,0.2603479,1.496224,0.2577937,-0.15354,0.09886779,0.05299952,-0.398524,0.6764194,-0.0936189,0.4041805,1.539286,0.1673334,-0.1997488,1.265366,0.258007,283.5103,242.9231,11.34503,True
2,1.777781,-0.3128046,-0.06123066,-0.07762387,-1.37285,-4.698974,-2.226951,0.1424705,1.323509,0.3464022,-0.8682107,1.327624,0.5,38.7,-0.1786327,-0.007824928,0.1697123,-0.4031578,-2.890558,-0.7479014,0.2593854,1.496188,0.2568789,-0.1674771,0.08395056,0.04353865,-0.3985415,0.6773806,-0.09217307,0.4035205,1.539032,0.166961,-0.2006975,1.263317,0.2576868,283.833,243.2905,10.94258,True
2,1.788892,-0.3098131,0.01331431,-0.08441994,-1.374411,-4.701771,-2.222967,0.1412967,1.323616,0.3455853,-0.8633515,0.4275506,0.5,38.7,-0.1742568,0.02092053,0.1698585,-0.4026151,-2.884736,-0.7514378,0.258439,1.49603,0.2560053,-0.1769198,0.0647926,0.0606836,-0.3972307,0.6777489,-0.09016318,0.4028126,1.538808,0.166605,-0.2030068,1.261276,0.2573753,284.5964,244.1343,10.37203,True
2,1.800003,-0.3120741,0.06337328,-0.08576216,-1.375704,-4.704234,-2.218925,0.1399569,1.323864,0.3449569,-0.8556039,0.7002678,0.5,38.7,-0.1453413,0.03351271,0.1813746,-0.4016281,-2.879298,-0.7558852,0.2574576,1.495881,0.2553351,-0.1834356,0.05307961,0.04901657,-0.3972328,0.6785623,-0.08854664,0.4017046,1.53863,0.1662738,-0.2053007,1.259419,0.2571104,285.2578,244.5701,10.12463,True
2,1.811115,-0.3164055,0.09428933,-0.07953064,-1.377022,-4.706092,-2.214909,0.1385734,1.324139,0.3443048,-0.8476996,0.7114718,0.5,38.7,-0.1603415,0.03897689,0.1708944,-0.4009906,-2.875409,-0.7569748,0.2564737,1.495648,0.2544575,-0.1886877,0.05948383,0.05652539,-0.3963892,0.6813094,-0.08883213,0.4008129,1.538471,0.166023,-0.2073261,1.257843,0.2569461,285.7119,245.2937,9.479248,True
2,1.822226,-0.3119958,0.04108185,-0.07074288,-1.37552,-4.705749,-2.211703,0.1370975,1.324454,0.3436751,-0.8399418,0.698263,0.3,34.2,-0.1561957,0.03263091,0.161226,-0.4000569,-2.872514,-0.7580462,0.2554714,1.495428,0.253798,-0.1884611,0.07548586,0.0820518,-0.3950326,0.6852459,-0.09023935,0.4000027,1.538332,0.1657567,-0.209075,1.256623,0.2569954,285.9839,246.3004,8.49235,True
2,1.833337,-0.3086771,-0.004689757,-0.06518111,-1.373835,-4.705265,-2.208485,0.1356315,1.324811,0.3430398,-0.8323262,0.6853852,0.3,34.2,-0.1513024,-0.03330508,0.1415866,-0.3975146,-2.875409,-0.7540879,0.2545467,1.494995,0.2529218,-0.1820659,0.09466842,0.0819648,-0.3945675,0.6901218,-0.09285644,0.3992854,1.538172,0.1654987,-0.2107486,1.255784,0.2572833,286.1639,247.1801,7.703913,True
2,1.844448,-0.29891,-0.07390255,-0.06375628,-1.370868,-4.703817,-2.205799,0.1340013,1.32518,0.3424153,-0.8252667,0.6347969,0.3,34.2,-0.1634313,-0.07890655,0.1169005,-0.3954954,-2.879343,-0.7482628,0.2535529,1.494634,0.2522266,-0.1812053,0.1063677,0.0585104,-0.3949111,0.6942191,-0.09467671,0.3985353,1.537997,0.165252,-0.2124334,1.255274,0.2577082,286.2503,247.7481,7.395595,True
2,1.855559,-0.2966586,-0.1196774,-0.0592623,-1.368341,-4.702782,-2.202742,0.1325119,1.325525,0.3417809,-0.8178807,0.6650029,0.3,34.2,-0.1653136,-0.0566323,0.1341147,-0.3941345,-2.87469,-0.7506604,0.2526799,1.494285,0.2514963,-0.1789777,0.1095613,0.0691281,-0.3941244,0.6972276,-0.09550495,0.3980781,1.537845,0.1649101,-0.214094,1.254923,0.2580559,286.254,247.6796,7.82253,True
2,1.86667,-0.2955278,-0.1430879,-0.05487669,-1.366129,-4.701707,-2.199713,0.1309615,1.32587,0.3411748,-0.8108585,0.6315257,0.1,31.9,-0.1552681,0.008173153,0.1557484,-0.3939529,-2.86565,-0.7576302,0.2518322,1.493925,0.2508214,-0.1703138,0.1053082,0.08503346,-0.3927241,0.7003122,-0.096787,0.3974584,1.537621,0.1646333,-0.2157477,1.25457,0.2581668,286.2396,247.3787,8.426736,True
2,1.877781,-0.2944059,-0.1579288,-0.04095902,-1.364288,-4.700435,-2.196751,0.1297191,1.326163,0.3405287,-0.8032792,0.6827688,0.1,31.9,-0.1336207,0.07836621,0.163468,-0.394844,-2.855299,-0.7663329,0.2510878,1.493629,0.2502582,-0.1746245,0.09358042,0.07974461,-0.3922623,0.7017614,-0.09608951,0.3970528,1.537461,0.1643636,-0.2174044,1.254051,0.2579417,286.2558,246.9039,9.070535,True
2,1.888893,-0.2858978,-0.145063,-0.0303871,-1.363381,-4.699789,-2.194035,0.1286107,1.326375,0.3399124,-0.795988,0.6559723,0.1,31.9,-0.1357041,0.1125266,0.1541202,-0.3954602,-2.848427,-0.7710914,0.2503979,1.493416,0.2495568,-0.1674319,0.07437859,0.0509294,-0.3926868,0.7021466,-0.09490228,0.3964965,1.537253,0.1641076,-0.2190208,1.25329,0.2573924,286.3723,246.5574,9.422339,True
2,1.900004,-0.2710997,-0.09705953,-0.02534691,-1.363633,-4.700333,-2.191408,0.1277468,1.326516,0.3393002,-0.7889103,0.6369709,0.1,31.9,-0.1473813,0.1253775,0.1532581,-0.3955572,-2.841689,-0.7751407,0.2497755,1.493134,0.2490132,-0.1707255,0.07223482,0.04030322,-0.3927289,0.7038137,-0.09442957,0.3959857,1.53712,0.1638787,-0.2205612,1.252281,0.2565826,286.5941,246.3869,9.489225,True
2,1.911115,-0.2710997,-0.09705953,-0.02534691,-1.363633,-4.700333,-2.191408,0.1277468,1.326516,0.3393002,-0.7823233,0.5923471,0.1,31.9,-0.1473813,0.1253775,0.1532581,-0.3955572,-2.841689,-0.7751407,0.2497755,1.493134,0.2490132,-0.1707255,0.07223482,0.04030322,-0.3927289,0.7038137,-0.09442957,0.3959857,1.53712,0.1638787,-0.2218593,1.251067,0.2555892,286.8906,246.3671,9.351604,True
2,1.922226,-0.2223723,0.006351363,-0.03555914,-1.365418,-4.703138,-2.187165,0.1263583,1.326805,0.3382609,-0.7782736,0.360656,1.3,31.7,-0.1722741,0.08303814,0.1297813,-0.3948663,-2.835542,-0.7760638,0.2487261,1.492816,0.2480803,-0.1335198,0.02852796,0.0336064,-0.3920067,0.7014326,-0.09038209,0.3947264,1.536785,0.1632924,-0.2226973,1.249705,0.2545695,287.2014,246.4068,9.03539,True
2,1.933337,-0.2021676,0.01486086,-0.04735265,-1.36505,-4.704079,-2.18534,0.1254897,1.326914,0.3377142,-0.7672242,1.002714,1.3,31.7,-0.1622891,-0.02015093,0.1023889,-0.3922122,-2.841445,-0.7692258,0.2479952,1.492615,0.2472205,-0.1368043,0.04130167,0.02297233,-0.3921606,0.7038447,-0.09095148,0.3940297,1.536576,0.1629639,-0.2230182,1.24813,0.2537824,287.4059,246.6124,8.520624,True
2,1.944448,-0.1819453,0.01375562,-0.06441658,-1.364424,-4.705237,-2.183792,0.1246321,1.326954,0.3373144,-0.7628508,0.3867282,1.3,31.7,-0.1459859,-0.1340087,0.07166669,-0.388667,-2.851793,-0.7585871,0.247293,1.49223,0.2466092,-0.1484378,0.05516373,0.0315889,-0.3916482,0.7068047,-0.09164523,0.3932554,1.536356,0.1626236,-0.2240626,1.246558,0.2532436,287.8635,247.5474,7.498795,True
2,1.955559,-0.1787043,-0.01188481,-0.08025663,-1.362806,-4.705765,-2.181709,0.1234944,1.327017,0.3369277,-0.7566302,0.561519,1.3,31.7,-0.1388599,-0.1722547,0.05217224,-0.3868236,-2.85722,-0.752249,0.2463559,1.491863,0.2457869,-0.1472932,0.07008487,0.04008923,-0.3909925,0.7102224,-0.09312169,0.3924379,1.53606,0.1622608,-0.2251643,1.2451,0.2530533,288.2473,248.0446,6.994228,True
2,1.966671,-0.188158,-0.07703464,-0.1065271,-1.358935,-4.705665,-2.179303,0.1222914,1.327007,0.3366387,-0.7503531,0.5646304,1.2,28.8,-0.1108254,-0.115983,0.06399622,-0.3863778,-2.854144,-0.7547513,0.2452773,1.491169,0.2451427,-0.125634,0.1223022,0.07607342,-0.3892604,0.7190342,-0.1006491,0.3916405,1.535741,0.1619148,-0.2262731,1.243721,0.2532078,288.5093,248.2464,6.87302,True
2,1.977782,-0.196488,-0.1634696,-0.129492,-1.353687,-4.704712,-2.17699,0.1209162,1.3272,0.3364115,-0.7431748,0.6471657,1.2,28.8,-0.07128207,-0.06281511,0.05438031,-0.3868849,-2.851529,-0.7576757,0.244395,1.490747,0.2445254,-0.1179138,0.1649255,0.1025973,-0.3876231,0.7278751,-0.1078133,0.390944,1.535419,0.1616175,-0.2273877,1.242351,0.2536901,288.6839,248.3619,6.902033,True
2,1.988893,-0.2037036,-0.2668951,-0.1427846,-1.347326,-4.70279,-2.174786,0.1197261,1.327377,0.3362887,-0.7362149,0.6265808,1.2,28.8,-0.01367336,0.01060599,0.03195156,-0.3889126,-2.847353,-0.7632667,0.2435034,1.490052,0.2437878,-0.1021609,0.1734197,0.07688306,-0.3878857,0.7334974,-0.1123305,0.390252,1.535107,0.1613014,-0.2286446,1.240934,0.2544019,288.874,248.3555,7.143042,True
2,2.000004,-0.2065431,-0.4172338,-0.1654083,-1.337975,-4.699429,-2.173099,0.1185989,1.327637,0.3362002,-0.7298878,0.5692302,1.2,28.8,0.02096277,0.08273018,0.06191013,-0.3895214,-2.840604,-0.7703875,0.2426611,1.489711,0.243098,-0.09578426,0.1744758,0.07469533,-0.3873594,0.7385682,-0.1161833,0.3895912,1.534801,0.1608481,-0.2300319,1.23944,0.2552195,289.1485,248.0068,7.762001,True
2,2.011115,-0.2000432,-0.4651787,-0.1704921,-1.331581,-4.697528,-2.171427,0.1177296,1.327721,0.3358822,-0.7237849,0.549309,1.2,28.8,0.02322404,0.1307041,0.05261901,-0.3917563,-2.832757,-0.7782521,0.2420699,1.48915,0.2424691,-0.09561716,0.1585125,0.09388165,-0.3857844,0.7423819,-0.1186659,0.3888752,1.534539,0.1604898,-0.2314579,1.237903,0.2560108,289.515,247.4343,8.591239,True
2,2.022226,-0.1808205,-0.4800035,-0.1629788,-1.325835,-4.695428,-2.170521,0.1169575,1.327781,0.3356698,-0.718116,0.5098544,0.6,31.6,0.01535127,0.2488653,0.07156996,-0.3955673,-2.817765,-0.7919895,0.2414249,1.48886,0.2419393,-0.0890094,0.1329577,0.1194132,-0.3835943,0.74442,-0.1197357,0.3882981,1.534402,0.1600912,-0.2326818,1.236336,0.2566457,289.9055,246.5987,9.649302,True
2,2.033337,-0.1670392,-0.4522059,-0.151439,-1.32179,-4.694409,-2.169183,0.1163761,1.327782,0.3354204,-0.7127381,0.4836366,0.6,31.6,0.0240061,0.2626279,0.08009663,-0.3970304,-2.809892,-0.7997606,0.2408071,1.488442,0.2414739,-0.08986388,0.1265855,0.1439311,-0.3813156,0.7486644,-0.1225118,0.3877181,1.534217,0.1597674,-0.2336014,1.234721,0.2570116,290.3105,245.4881,10.90357,True
2,2.044448,-0.1341736,-0.3720253,-0.1146245,-1.320651,-4.693619,-2.169018,0.1159936,1.327737,0.3352621,-0.7078053,0.443215,0.6,31.6,0.04507191,0.2381382,0.06482562,-0.398206,-2.806216,-0.8044059,0.240436,1.488251,0.2410591,-0.08272359,0.09353012,0.1108681,-0.3811346,0.7486828,-0.1218407,0.3872016,1.534052,0.1595213,-0.2342354,1.233085,0.2570938,290.67,244.8231,11.61187,True
2,2.055559,-0.09923345,-0.2694381,-0.07259569,-1.321441,-4.693282,-2.169016,0.1156526,1.327713,0.3350706,-0.7020684,0.5170077,0.6,31.6,0.03085749,0.2192197,0.03393671,-0.3999972,-2.804648,-0.8056475,0.2398256,1.488118,0.2407777,-0.06165066,0.05834021,0.08727291,-0.3808805,0.7471353,-0.1204417,0.3866323,1.53395,0.1592414,-0.2346416,1.231406,0.2569314,290.9814,244.403,11.96788,True
2,2.06667,-0.09923345,-0.2694381,-0.07259569,-1.321441,-4.693282,-2.169016,0.1156526,1.327713,0.3350706,-0.6976609,0.3949004,0.6,31.6,0.03085749,0.2192197,0.03393671,-0.3999972,-2.804648,-0.8056475,0.2398256,1.488118,0.2407777,-0.06165066,0.05834021,0.08727291,-0.3808805,0.7471353,-0.1204417,0.3866323,1.53395,0.1592414,-0.2348944,1.229714,0.2566216,291.301,244.2978,11.92325,True
2,2.077781,-0.0366548,-0.1325824,-0.01158742,-1.323109,-4.692227,-2.170121,0.1149999,1.327628,0.3344824,-0.6925406,0.4610998,0.3,25.5,-0.04137372,0.03101438,0.0237969,-0.3963897,-2.811972,-0.7959664,0.2393461,1.488052,0.2405281,-0.02450727,0.03806601,0.07204275,-0.3796416,0.7481774,-0.1222162,0.3856807,1.533823,0.1588035,-0.2349147,1.228034,0.2562823,291.564,244.5312,11.49816,True
2,2.088892,-0.02500273,-0.09623253,0.006311804,-1.323501,-4.691751,-2.17034,0.1145971,1.327539,0.3341069,-0.6872969,0.4717601,0.3,25.5,-0.0779668,-0.02840183,0.009909809,-0.3950501,-2.816495,-0.7896427,0.2391709,1.488011,0.2404838,-0.01064529,0.02847121,0.07405311,-0.3788219,0.748522,-0.1228151,0.3852951,1.533764,0.1586108,-0.2347931,1.226354,0.2560194,291.804,245.0415,10.85314,True
2,2.100003,-0.02189029,-0.05349654,0.02741233,-1.324981,-4.691085,-2.170322,0.1143257,1.327244,0.3337214,-0.6818278,0.4923004,0.3,25.5,-0.06244831,-0.07408533,-0.01930539,-0.3944626,-2.822682,-0.7837576,0.2387845,1.487864,0.2403324,0.01262455,0.006088166,0.06110521,-0.3780943,0.7473249,-0.1220423,0.3850913,1.5334,0.158004,-0.2349089,1.224628,0.2557567,292.0229,245.7248,10.21357,True
2,2.111114,-0.01561028,-0.001221901,0.03886976,-1.326926,-4.691,-2.170454,0.114058,1.326982,0.3334386,-0.6759934,0.5256392,0.3,25.5,-0.03895715,-0.08489838,-0.008943776,-0.3934176,-2.824531,-0.7824538,0.238498,1.48768,0.2402258,0.00935654,0.007151322,0.05261606,-0.377747,0.7478989,-0.1226138,0.3848497,1.533252,0.1578226,-0.235086,1.222805,0.2554881,292.2468,246.1389,9.850025,True
2,2.122225,-0.01571636,0.05217395,0.06308457,-1.329697,-4.691108,-2.170257,0.1139061,1.326662,0.3331478,-0.6702468,0.5173945,0,17,-0.03342566,-0.09928465,-0.09432495,-0.395114,-2.834582,-0.773024,0.2382719,1.487227,0.2401855,-0.00337813,0.0220785,0.05482988,-0.3774844,0.7500904,-0.1244173,0.3844355,1.533453,0.1577682,-0.2352827,1.220882,0.2552347,292.5071,246.4809,9.511586,True
2,2.133336,-0.01786345,0.06823831,0.08219996,-1.331552,-4.69012,-2.17022,0.1136607,1.326417,0.332792,-0.6651623,0.4569807,0,17,-0.03085064,-0.04939228,-0.06846261,-0.3958373,-2.832417,-0.7746984,0.2380593,1.48706,0.2401407,-0.001187585,0.06469072,0.05904131,-0.3768575,0.7559095,-0.1298499,0.3841648,1.533441,0.1582127,-0.2354099,1.218895,0.254996,292.7793,247.0299,8.957877,True
2,2.144447,-0.02100781,0.05875727,0.1035612,-1.332927,-4.688718,-2.170212,0.1134051,1.326181,0.3325274,-0.6596234,0.4990673,0,17,-0.0264436,-0.02814539,-0.06197393,-0.3964307,-2.832093,-0.7748459,0.2378815,1.486796,0.2400441,0.004249714,0.09132899,0.06962345,-0.3759851,0.7616051,-0.1353781,0.3838345,1.533397,0.1582112,-0.235453,1.216886,0.2547974,293.0628,247.714,8.255886,True
2,2.155558,-0.02202396,0.04282022,0.1132416,-1.333625,-4.687231,-2.170221,0.1131352,1.325987,0.3320372,-0.6542535,0.483254,0,17,-0.04158877,-0.05356003,-0.07584984,-0.396363,-2.837773,-0.7686533,0.2376824,1.486613,0.2399426,-7.584691E-06,0.09133334,0.06859997,-0.3753869,0.764235,-0.1378665,0.3834288,1.533255,0.1581144,-0.2354106,1.214904,0.2546334,293.357,248.4785,7.522018,True
2,2.166669,-0.0262262,0.02259761,0.1186823,-1.334075,-4.685674,-2.170146,0.1127644,1.325728,0.3317149,-0.6491173,0.4623043,0,17,-0.06835476,-0.05442911,-0.08945043,-0.3968493,-2.841343,-0.7637054,0.2373419,1.486379,0.2398391,-0.01705003,0.08814795,0.06768796,-0.3748964,0.7668758,-0.1397347,0.3831144,1.533225,0.158052,-0.2353379,1.212973,0.2544179,293.6676,249.0667,7.017508,True
2,2.17778,-0.03900218,0.02582467,0.1303781,-1.335241,-4.684684,-2.169532,0.112386,1.32535,0.3310122,-0.6442064,0.44192,0.4,8.4,-0.0628667,-0.02679215,-0.08399855,-0.3978257,-2.841596,-0.7629797,0.2369695,1.486251,0.2397366,-0.02011099,0.08496226,0.08263555,-0.373585,0.7695168,-0.1419108,0.3828172,1.533119,0.1578479,-0.2352625,1.211115,0.2540778,293.9716,249.474,6.688825,True
2,2.188891,-0.04649086,0.0428732,0.1345575,-1.337017,-4.683919,-2.16905,0.1120529,1.325,0.3306239,-0.639343,0.4378347,0.4,8.4,-0.02632128,0.008081909,-0.06386766,-0.3985372,-2.839423,-0.7658636,0.2365331,1.4861,0.2397113,-0.01885547,0.07857521,0.1039285,-0.3719706,0.7715183,-0.1436506,0.382593,1.533163,0.1578815,-0.2352272,1.20934,0.2535628,294.2522,249.7248,6.466363,True
2,2.200002,-0.05402699,0.07914371,0.1482151,-1.339802,-4.683397,-2.168295,0.1117948,1.324575,0.3300471,-0.6342893,0.4553556,0.4,8.4,-0.014651,0.02836489,-0.07769507,-0.4001916,-2.839924,-0.7656553,0.2361567,1.485891,0.2395754,-0.0167905,0.06471986,0.09752928,-0.3711552,0.7725099,-0.144453,0.3823371,1.533158,0.1578851,-0.2352937,1.207637,0.2528884,294.4865,249.9314,6.220102,True
2,2.211113,-0.06264106,0.1228908,0.1660983,-1.343302,-4.68295,-2.167426,0.1116118,1.324146,0.3296201,-0.6299095,0.3936536,0.4,8.4,-0.005672701,0.1006542,-0.06026864,-0.4027291,-2.833754,-0.7715593,0.2359487,1.485886,0.2396119,-0.009551138,0.05191337,0.07403623,-0.3711893,0.7728586,-0.1449348,0.3823096,1.53307,0.1579621,-0.2354654,1.206027,0.252062,294.6961,250.2559,5.83154,True
2,2.222224,-0.06264106,0.1228908,0.1660983,-1.343302,-4.68295,-2.167426,0.1116118,1.324146,0.3296201,-0.6252836,0.4167257,0.4,8.4,-0.005672701,0.1006542,-0.06026864,-0.4027291,-2.833754,-0.7715593,0.2359487,1.485886,0.2396119,-0.009551138,0.05191337,0.07403623,-0.3711893,0.7728586,-0.1449348,0.3823096,1.53307,0.1579621,-0.2356065,1.204769,0.2515148,294.9637,249.5135,6.690025,True
2,2.233335,-0.04995385,0.1795844,0.2030615,-1.350832,-4.681504,-2.166978,0.1112762,1.323693,0.3287413,-0.621871,0.305779,0,2.3,-0.02996156,0.04719135,-0.01457633,-0.402075,-2.831407,-0.7726416,0.2359107,1.48605,0.2395542,0.002690569,0.04546135,0.01749344,-0.3719994,0.7747076,-0.1467785,0.3819441,1.533342,0.1582181,-0.2355711,1.204365,0.2512906,294.9571,249.4614,6.857131,True
2,2.244446,-0.03291748,0.1849775,0.207272,-1.354092,-4.680742,-2.167376,0.1111564,1.323674,0.3282313,-0.6165096,0.4855595,0,2.3,-0.1164951,-0.03347903,-0.005767159,-0.3997873,-2.836822,-0.763536,0.2360575,1.486127,0.2395301,0.003706433,0.04332582,0.01215928,-0.3721171,0.7757694,-0.1478323,0.3818384,1.533344,0.1582427,-0.2354488,1.204163,0.2513013,294.8036,249.7781,6.639747,True
2,2.255557,-0.02435464,0.1625581,0.1935347,-1.355822,-4.679916,-2.167564,0.1110196,1.323638,0.3278985,-0.6148994,0.1412705,0,2.3,-0.1367342,-0.04834867,0.0007096268,-0.3992766,-2.837755,-0.7606611,0.2360368,1.486138,0.2394836,0.01224959,0.02627088,0.01637005,-0.3714705,0.7750121,-0.1474712,0.3818334,1.533347,0.157985,-0.2354456,1.203997,0.2511404,294.6962,250.9651,5.815722,True
2,2.266668,-0.02435464,0.1625581,0.1935347,-1.355822,-4.679916,-2.167564,0.1110196,1.323638,0.3278985,-0.6125494,0.2123313,0,2.3,-0.1367342,-0.04834867,0.0007096268,-0.3992766,-2.837755,-0.7606611,0.2360368,1.486138,0.2394836,0.01224959,0.02627088,0.01637005,-0.3714705,0.7750121,-0.1474712,0.3818334,1.533347,0.157985,-0.235217,1.203838,0.250886,294.4333,251.8479,5.311707,True
2,2.277779,-0.02636567,0.1006009,0.1629754,-1.355319,-4.678668,-2.16751,0.1109075,1.323714,0.3274953,-0.6098911,0.2398187,0,2.3,-0.1164412,-0.08692399,0.02264291,-0.3970022,-2.840065,-0.7579343,0.2360507,1.48623,0.2394557,0.01323346,0.000697081,0.008924666,-0.3714795,0.772526,-0.1453609,0.381813,1.53336,0.157975,-0.2352284,1.203809,0.2503734,294.566,251.1024,6.215128,True
2,2.28889,-0.05495469,0.007547352,0.1081056,-1.353271,-4.676615,-2.165944,0.1104996,1.323622,0.3268518,-0.6074463,0.2202932,0,2.3,-0.1557085,-0.1502323,-0.04772171,-0.3956408,-2.856322,-0.7385087,0.2356525,1.485969,0.2393239,-0.04012005,0.03799671,-0.004470071,-0.3722971,0.777171,-0.1474643,0.3817151,1.533308,0.1578431,-0.2352077,1.203762,0.2500392,294.5694,250.5633,6.771432,True
2,2.300001,-0.07090395,-0.009636924,0.09329107,-1.352806,-4.675753,-2.164888,0.1102429,1.323547,0.3266871,-0.6051778,0.2046,0,2.3,-0.1489101,-0.1003307,-0.02509183,-0.3958885,-2.853196,-0.7399359,0.2354601,1.485854,0.2392581,-0.0591508,0.07210633,0.008450842,-0.3720889,0.7829543,-0.1516934,0.3816543,1.533405,0.1578209,-0.2352203,1.203692,0.2497251,294.55,250.5143,6.931363,True
2,2.311112,-0.07621676,-0.01390027,0.09545129,-1.353185,-4.674613,-2.164083,0.1099928,1.32349,0.3264248,-0.6032188,0.176647,0,2.3,-0.09724412,-0.02292247,-0.001634996,-0.3970997,-2.846245,-0.7472678,0.2352717,1.485757,0.2390227,-0.06004808,0.09662286,0.02548411,-0.3714657,0.7889934,-0.1566186,0.3817223,1.533372,0.1578832,-0.2352657,1.203594,0.2494727,294.5679,250.419,7.073184,True
2,2.322223,-0.07943873,-2.466887E-05,0.1017718,-1.354457,-4.673771,-2.16329,0.1098119,1.323433,0.3262517,-0.6019628,0.1126879,0,2.3,-0.05929338,0.07367182,0.02846053,-0.3990054,-2.836125,-0.757276,0.235249,1.485713,0.2388418,-0.05296851,0.07954556,-0.01611645,-0.3732367,0.7887696,-0.1562663,0.3818645,1.533201,0.1580448,-0.2353368,1.20362,0.2494331,294.5425,250.9572,6.609178,True
2,2.333334,-0.07624276,0.007482603,0.1144896,-1.355273,-4.672477,-2.162965,0.1096378,1.323402,0.326148,-0.6011511,0.07278814,0.1,0.9,-0.03841559,0.1522008,0.06286359,-0.4007653,-2.82395,-0.7687539,0.2353881,1.485546,0.2387178,-0.0119745,0.05177458,-0.07612844,-0.3763366,0.7861695,-0.1552626,0.3819088,1.533282,0.15816,-0.2354586,1.203548,0.2492463,294.6091,250.7928,6.780885,True
2,2.344445,-0.06771199,0.001078486,0.1081215,-1.35564,-4.671535,-2.162728,0.1096196,1.323422,0.3260002,-0.6003836,0.06908351,0.1,0.9,-0.05374115,0.1098131,0.03716347,-0.4008664,-2.825903,-0.7657731,0.2357098,1.485499,0.2385981,0.01132638,0.04322252,-0.09018373,-0.3777955,0.7858592,-0.1559001,0.3819606,1.533295,0.1583359,-0.2356245,1.203552,0.2488814,294.6627,250.6846,6.936915,True
2,2.355556,-0.06767317,-0.02242348,0.09545895,-1.355026,-4.67046,-2.162093,0.109721,1.323483,0.3258574,-0.5999942,0.03456719,0.1,0.9,-0.08581211,0.06728797,0.04358373,-0.3996654,-2.826456,-0.7630577,0.235911,1.485328,0.2385981,0.02107909,0.05175583,-0.07323249,-0.3780309,0.7884603,-0.1589851,0.3819733,1.5332,0.1583998,-0.235772,1.203573,0.2484815,294.7135,250.5906,7.113162,True
2,2.366668,-0.07828803,-0.05029115,0.06898914,-1.353598,-4.66969,-2.161001,0.109803,1.323468,0.3257833,-0.5995052,0.04407476,0.1,0.9,-0.1100023,-0.007942647,-0.004620191,-0.3989943,-2.834808,-0.7531212,0.236165,1.485067,0.2387772,0.007715173,0.08163194,-0.01986477,-0.3765683,0.7946122,-0.1640611,0.3819689,1.533168,0.1585984,-0.2358546,1.20358,0.2481356,294.7521,250.5758,7.233446,True
2,2.377779,-0.07828803,-0.05029115,0.06898914,-1.353598,-4.66969,-2.161001,0.109803,1.323468,0.3257833,-0.5984842,0.09258322,0.2,0.9,-0.1100023,-0.007942647,-0.004620191,-0.3989943,-2.834808,-0.7531212,0.236165,1.485067,0.2387772,0.007715173,0.08163194,-0.01986477,-0.3765683,0.7946122,-0.1640611,0.3819689,1.533168,0.1585984,-0.2358428,1.203584,0.2478851,294.7048,250.6231,7.279817,True
2,2.38889,-0.08790167,-0.06116568,0.03177208,-1.351918,-4.669173,-2.158713,0.1097355,1.323369,0.325875,-0.5987628,-0.02656414,0.2,0.9,-0.006853022,-0.07232982,0.002529956,-0.3963332,-2.84009,-0.7513211,0.2361688,1.485,0.2391069,-0.004744776,0.07420946,0.01540474,-0.3755829,0.7990315,-0.1678279,0.3820816,1.533006,0.1586251,-0.2357791,1.203604,0.2477805,294.6805,250.4952,7.465878,True
2,2.400001,-0.08471185,-0.05582212,0.03280561,-1.351956,-4.668568,-2.158137,0.1095578,1.32347,0.3259022,-0.595893,0.2624323,0.2,0.9,0.01431752,-0.09796374,-0.001029113,-0.3950725,-2.844235,-0.7483046,0.2360906,1.485112,0.2391763,-0.01428872,0.07315929,0.0208268,-0.3752735,0.801491,-0.1695757,0.3821335,1.533015,0.1587679,-0.2357211,1.20358,0.2477965,294.6295,250.4288,7.520036,True
2,2.411112,-0.07302399,-0.04192048,0.03697751,-1.352385,-4.668139,-2.157883,0.1094796,1.323591,0.3259616,-0.5967665,-0.08233286,0.2,0.9,0.009206243,-0.09168188,0.01930124,-0.3937974,-2.844013,-0.7484061,0.2360873,1.485263,0.2392027,-0.02166485,0.07956211,0.02941111,-0.3747707,0.80496,-0.172241,0.3822832,1.533054,0.1588979,-0.235753,1.203601,0.2478129,294.6546,250.4349,7.496794,True
2,2.422223,-0.05285103,-0.016302,0.03574589,-1.353267,-4.66836,-2.157996,0.1095091,1.323828,0.325947,-0.597102,-0.02988392,0.2,0.9,-0.01848662,-0.08302506,0.01641538,-0.393457,-2.844552,-0.7465506,0.2361169,1.485293,0.2391045,-0.03902312,0.06143311,-0.004508197,-0.3761177,0.8043504,-0.170674,0.382518,1.533161,0.159039,-0.2358778,1.203655,0.2478479,294.7554,250.4573,7.42203,True
2,2.433334,-0.04118835,0.0007273275,0.02711426,-1.353716,-4.668768,-2.157821,0.1095272,1.324018,0.3258569,-0.597232,-0.01188576,0.2,1.5,-0.03730114,-0.07037906,0.04970204,-0.3919262,-2.842177,-0.7476423,0.2362702,1.485362,0.2390509,-0.05129425,0.03156731,-0.06509176,-0.3788773,0.8011912,-0.166851,0.3827524,1.53329,0.1592789,-0.2360232,1.203712,0.247823,294.8814,250.5353,7.339873,True
2,2.444445,-0.02739342,0.009147636,0.001484228,-1.353609,-4.669827,-2.157807,0.1096666,1.324193,0.3258014,-0.5974695,-0.02180404,0.2,1.5,-0.07115179,-0.04370185,0.06403598,-0.3913382,-2.838982,-0.748552,0.2363524,1.485287,0.2389963,-0.05903475,0.02940915,-0.09591632,-0.3810653,0.8006845,-0.1654196,0.3830413,1.533386,0.1593981,-0.2361478,1.203773,0.2477176,294.9216,250.7759,7.118102,True
2,2.455556,-0.02951142,-0.0005122179,-0.01125549,-1.352895,-4.670192,-2.157318,0.1097438,1.324138,0.3255041,-0.5969657,0.04599527,0.2,1.5,-0.08814308,-0.02231058,0.06113783,-0.3912833,-2.837286,-0.7485443,0.2366372,1.485281,0.2390714,-0.05884423,0.04114684,-0.07568492,-0.3811314,0.8033655,-0.1673003,0.3833146,1.533379,0.15961,-0.2361932,1.203823,0.2476442,294.9778,250.7646,7.165101,True
2,2.466667,-0.03477707,-0.03042243,-0.02387186,-1.351308,-4.669992,-2.156785,0.1098375,1.324267,0.3255804,-0.5969465,0.001184906,0.2,1.5,-0.06493738,-0.01263073,0.03221896,-0.3918783,-2.838055,-0.7479206,0.2367786,1.485167,0.2390726,-0.06381018,0.0646178,-0.0373069,-0.3803404,0.8080323,-0.1707315,0.3835316,1.533344,0.1597755,-0.2362155,1.203865,0.2476116,295.0081,250.7428,7.200233,True
2,2.477778,-0.03789561,-0.06455673,-0.03221365,-1.349409,-4.66958,-2.156336,0.1100251,1.324342,0.3257434,-0.5961103,0.07631572,0.2,1.5,-0.05130181,-0.005057659,0.005503315,-0.3926874,-2.83937,-0.7467349,0.236965,1.485267,0.2390642,-0.06692163,0.06781809,-0.02768851,-0.380472,0.8100103,-0.1716631,0.3838277,1.533297,0.1599264,-0.2362022,1.203875,0.2476477,294.9925,250.7197,7.198411,True
2,2.488889,-0.04532228,-0.07952414,-0.03851575,-1.347825,-4.669324,-2.155614,0.1101807,1.324458,0.3258452,-0.5956975,0.03695355,0,1.4,-0.06107314,0.00365451,-0.01778713,-0.3937697,-2.840599,-0.7445335,0.2371137,1.485171,0.2391131,-0.07315418,0.05824877,-0.009513374,-0.3799319,0.8110524,-0.1715893,0.3841166,1.533273,0.1601374,-0.2361704,1.203863,0.2476742,294.9584,250.7473,7.169646,True
2,2.5,-0.04955857,-0.09770742,-0.05120412,-1.345844,-4.669387,-2.154816,0.1104259,1.324561,0.3260658,-0.5956,0.008568503,0,1.4,-0.06198195,0.01530022,-0.005986519,-0.3938213,-2.838902,-0.7453101,0.2373881,1.485186,0.2392826,-0.0988272,0.06890423,-0.02207446,-0.3808896,0.8136311,-0.1720016,0.3843836,1.533372,0.1604228,-0.2361151,1.203893,0.2477446,294.9077,250.6872,7.188914,True
2,2.511111,-0.0559195,-0.1094424,-0.05113296,-1.344178,-4.668941,-2.154088,0.1105102,1.324682,0.3263242,-0.5952868,0.02857319,0,1.4,-0.05319543,0.02149226,0.01954031,-0.3932647,-2.83585,-0.7478859,0.2375588,1.485183,0.2394221,-0.09985771,0.07956039,-0.01887782,-0.3812113,0.8169721,-0.1739444,0.3846189,1.533401,0.1606996,-0.236046,1.203931,0.2478378,294.8428,250.5964,7.219497,True
2,2.522222,-0.04954995,-0.09335554,-0.0341823,-1.34397,-4.668489,-2.153862,0.1105737,1.32478,0.326622,-0.5952026,0.007443249,0,1.4,-0.0158177,0.02235106,0.02879085,-0.3929622,-2.83402,-0.7507459,0.2377857,1.485263,0.2395597,-0.0784485,0.09659782,-0.00843421,-0.3812006,0.8214273,-0.1780491,0.3849233,1.533423,0.1609375,-0.2360022,1.203968,0.2479274,294.7971,250.5288,7.226753,True
2,2.533333,-0.04954995,-0.09335554,-0.0341823,-1.34397,-4.668489,-2.153862,0.1105737,1.32478,0.326622,-0.5951286,0.006686802,0,1.4,-0.0158177,0.02235106,0.02879085,-0.3929622,-2.83402,-0.7507459,0.2377857,1.485263,0.2395597,-0.0784485,0.09659782,-0.00843421,-0.3812006,0.8214273,-0.1780491,0.3849233,1.533423,0.1609375,-0.2360176,1.204017,0.2480339,294.7982,250.4597,7.206197,True
2,2.544444,-0.02623952,-0.03674568,-0.01854603,-1.344678,-4.669029,-2.153825,0.1109345,1.325098,0.3269548,-0.5959046,-0.07101334,0,1.7,-0.0002405122,-0.08426072,0.03115322,-0.3891352,-2.842091,-0.7438869,0.238244,1.485549,0.2399602,-0.05001774,0.04435518,-0.0416768,-0.3829604,0.8190514,-0.1757705,0.3856161,1.533484,0.1613085,-0.2360597,1.204064,0.2481229,294.8218,250.4366,7.154675,True
2,2.555555,-0.0177641,-0.01968494,-0.01971737,-1.344764,-4.669506,-2.153763,0.111212,1.325306,0.3270946,-0.5955867,0.02962481,0,1.7,-0.01382448,-0.1014791,0.0663241,-0.3865285,-2.841787,-0.7435127,0.2386232,1.485762,0.2401574,-0.05550829,0.02730548,-0.05865082,-0.3840438,0.8181297,-0.1740498,0.3860373,1.533642,0.1615722,-0.2360707,1.204095,0.2481713,294.8229,250.4781,7.09142,True
2,2.566666,-0.02316146,0.002614877,-0.0304838,-1.345069,-4.670603,-2.153089,0.1116228,1.325466,0.3272517,-0.5958642,-0.02574136,0,1.7,-0.002838902,-0.04406634,0.07724681,-0.3866383,-2.836561,-0.7487032,0.2390482,1.485899,0.2402358,-0.04265901,-0.01104435,-0.04914793,-0.3840854,0.8139273,-0.1701209,0.3864591,1.533724,0.1615994,-0.2360453,1.204154,0.2482524,294.7949,250.4764,7.054093,True
2,2.577777,-0.02747076,0.01750777,-0.03376521,-1.345328,-4.671581,-2.152299,0.1120063,1.325493,0.3272774,-0.5957651,0.009241652,0,1.7,0.007004142,0.01127032,0.08071621,-0.387369,-2.83054,-0.7547494,0.2395656,1.486045,0.240303,-0.02438653,-0.02807915,-0.03012458,-0.3835532,0.8121059,-0.168789,0.3868448,1.533809,0.1617608,-0.2360002,1.204203,0.2483205,294.7496,250.4997,7.01153,True
