loc,t,aDotUA,bDotUA,gDotUA,aUA,bUA,gUA,xUA,yUA,zUA,qE,qDotE,emgA,emgB,aDotSH,bDotSH,gDotSH,aSH,bSH,gSH,xSH,ySH,zSH,aDotUB,bDotUB,gDotUB,aUB,bUB,gUB,xUB,yUB,zUB,xHand,yHand,zHand,aHand,bHand,gHand,enable
3,0,-0.01274912,-0.902698,-0.2309576,-1.354246,-4.312734,2.66632,0.6735152,1.079303,0.4437139,-2.115964,-0.01339501,6.5,3.3,-0.2420783,0.4203626,-0.2220826,-0.6905566,-4.05443,-0.1790795,0.6372491,1.292342,0.351393,-0.08871153,0.3484309,0.3236886,-0.674682,0.3784747,-0.2517438,0.7097059,1.378525,0.2219384,0.4885898,1.001496,0.2865615,291.5381,231.2535,5.223508,False
3,0.01111111,-0.01162718,-0.9283129,-0.2360605,-1.356941,-4.301299,2.663854,0.6718706,1.078811,0.44368,-2.116068,-0.009328267,6.5,3.3,-0.2633239,0.4235674,-0.2165172,-0.6936193,-4.047771,-0.1805762,0.6361378,1.291846,0.3514719,-0.111281,0.3474193,0.3025898,-0.673008,0.3856769,-0.2553673,0.7089137,1.378302,0.2224913,0.4884632,1.001031,0.2852442,291.5764,229.8638,6.166815,False
3,0.02222222,-0.01267923,-0.9411567,-0.2423304,-1.359471,-4.290154,2.661732,0.6702598,1.078296,0.4437644,-2.1163,-0.02101507,4.9,2.8,-0.2846559,0.4119034,-0.2153519,-0.6966627,-4.042045,-0.1811477,0.6351754,1.291335,0.3514671,-0.1307094,0.34638,0.276135,-0.6717872,0.3924475,-0.2585173,0.7083975,1.378157,0.2228999,0.4886048,1.00029,0.2833238,291.6041,229.4719,5.971046,False
3,0.03333334,-0.02121009,-0.9380454,-0.2498042,-1.361601,-4.279336,2.659985,0.6687279,1.077846,0.443676,-2.116654,-0.03216287,4.9,2.8,-0.2941895,0.4054809,-0.2089308,-0.6995512,-4.036143,-0.1821719,0.6342841,1.290822,0.3515024,-0.1394298,0.3399841,0.2559994,-0.6704007,0.3988535,-0.2617602,0.7080448,1.378028,0.2233398,0.489042,0.9993023,0.2808679,291.7271,229.3165,5.338529,False
3,0.04444445,-0.02976851,-0.9221802,-0.2605772,-1.363338,-4.268964,2.658486,0.6672689,1.077418,0.4436862,-2.116496,0.01471567,4.9,2.8,-0.3036136,0.3807862,-0.1845595,-0.701336,-4.031139,-0.1822777,0.6334852,1.290464,0.3515441,-0.1460962,0.3303988,0.2283666,-0.6697466,0.4048541,-0.2646442,0.7077044,1.377927,0.223834,0.4897731,0.998154,0.2780496,291.9344,229.0351,4.657694,False
3,0.05555556,-0.04581715,-0.8913395,-0.2640344,-1.364716,-4.259379,2.657631,0.6659445,1.077071,0.4435806,-2.11626,0.02146757,4.9,2.8,-0.3066347,0.3560587,-0.1591916,-0.7029057,-4.026498,-0.182271,0.632724,1.290113,0.3516338,-0.1496329,0.3122751,0.1975269,-0.6692747,0.4099953,-0.2668045,0.7073413,1.37778,0.2242064,0.4907099,0.9969429,0.2750941,292.1688,228.6293,4.001575,False
3,0.06666667,-0.05865729,-0.8594126,-0.2653651,-1.366,-4.250478,2.656864,0.6647108,1.076648,0.4434905,-2.116187,0.006637178,5,2.8,-0.2968438,0.3312537,-0.1307545,-0.7038532,-4.022421,-0.1823967,0.6321533,1.289838,0.3516128,-0.1509507,0.3005487,0.173044,-0.6690382,0.4151013,-0.2691311,0.7070178,1.37771,0.2246206,0.491713,0.9957724,0.2721837,292.4057,228.1474,3.431404,False
3,0.07777778,-0.07795268,-0.7869579,-0.2595819,-1.366569,-4.243505,2.656925,0.6636668,1.076349,0.4434116,-2.115825,0.03311853,5,2.8,-0.2711014,0.2968282,-0.1025614,-0.7044881,-4.018966,-0.1827861,0.6316891,1.289575,0.3516119,-0.1470121,0.2824129,0.1442521,-0.6691911,0.4193981,-0.2708893,0.7066866,1.377608,0.2249587,0.4926842,0.9947356,0.2695047,292.6165,227.6367,2.957778,False
3,0.08888889,-0.09833103,-0.6973559,-0.2422321,-1.366974,-4.238087,2.657436,0.6627026,1.075987,0.4433622,-2.115978,-0.01417142,5,2.8,-0.2572279,0.261531,-0.09131721,-0.7055342,-4.016406,-0.1824723,0.6313756,1.28931,0.3516407,-0.1484319,0.2632024,0.110191,-0.6696705,0.422918,-0.2720432,0.7067782,1.377584,0.2252085,0.4935077,0.9939101,0.2671646,292.7781,227.1671,2.593966,False
3,0.1,-0.112281,-0.6321982,-0.2193464,-1.367724,-4.232996,2.658143,0.6618152,1.075705,0.4433212,-2.11571,0.02469012,5,2.8,-0.2444748,0.2348155,-0.08636757,-0.7067007,-4.013795,-0.1820928,0.6309514,1.289128,0.3517213,-0.1475596,0.2493436,0.09208016,-0.6699128,0.4269264,-0.2736667,0.7066113,1.377521,0.2256529,0.4941256,0.9933302,0.2652363,292.858,226.7405,2.348501,False
3,0.1111111,-0.1402101,-0.4806485,-0.1801393,-1.36747,-4.23215,2.660287,0.6611598,1.075568,0.4434493,-2.1157,0.0008791546,5,2.8,-0.2296459,0.1921242,-0.08265834,-0.7076285,-4.012973,-0.1807333,0.6306428,1.288972,0.3518281,-0.14462,0.2344019,0.06862918,-0.6704881,0.4301864,-0.2747037,0.7066365,1.377512,0.225961,0.4944647,0.9930123,0.2637735,292.873,226.326,2.251629,False
3,0.1222222,-0.1509876,-0.401595,-0.152053,-1.367671,-4.229741,2.661802,0.6604717,1.075365,0.4434621,-2.115735,-0.003028972,4.7,2.8,-0.2138048,0.1473318,-0.082167,-0.708542,-4.012662,-0.1789231,0.6304446,1.288893,0.3519397,-0.1448177,0.2141518,0.05159898,-0.6709787,0.4330127,-0.2754055,0.706672,1.377499,0.2262208,0.494475,0.9929456,0.2627862,292.8105,226.0264,2.229355,False
3,0.1333333,-0.1660843,-0.2874292,-0.1285196,-1.366829,-4.229952,2.664112,0.6599697,1.075319,0.4434929,-2.11533,0.03707923,4.7,2.8,-0.2052234,0.1216115,-0.06864463,-0.7089654,-4.011941,-0.177472,0.630401,1.288924,0.3520341,-0.1418661,0.1970851,0.03028778,-0.6716583,0.4355918,-0.2759022,0.7067801,1.377509,0.2264791,0.4942002,0.9931115,0.2622433,292.7111,225.8352,2.242069,False
3,0.1444445,-0.1789836,-0.2148692,-0.1120963,-1.366144,-4.229478,2.666364,0.6594948,1.075206,0.4434612,-2.115778,-0.04112149,4.7,2.8,-0.1997703,0.1107979,-0.05281876,-0.7091971,-4.010412,-0.1765894,0.6302868,1.288933,0.3521185,-0.1388946,0.1800205,0.0100304,-0.6726474,0.437751,-0.2762337,0.7068837,1.37748,0.2266653,0.4935904,0.9935095,0.2621584,292.5811,225.6825,2.373028,False
3,0.1555556,-0.1994141,-0.0953529,-0.083276,-1.36498,-4.232002,2.669743,0.6592097,1.075312,0.4434819,-2.115736,0.004395364,4.7,2.8,-0.1813616,0.09229931,-0.01695369,-0.7083561,-4.009398,-0.1758901,0.6303096,1.289096,0.3521061,-0.1338093,0.1469643,-0.007034367,-0.6733803,0.4383278,-0.2754233,0.7071279,1.37745,0.2268384,0.4927545,0.9940927,0.2624158,292.3932,225.6104,2.611549,False
3,0.1666667,-0.2144102,-0.04201141,-0.07095354,-1.364044,-4.232508,2.67258,0.6587954,1.07529,0.4433777,-2.115797,-0.005650046,4.7,2.8,-0.1651059,0.07489827,0.01574834,-0.7071028,-4.00871,-0.1751676,0.630363,1.289228,0.3521509,-0.125484,0.1245565,-0.02200481,-0.6742713,0.4389238,-0.2747975,0.7073365,1.377464,0.2270021,0.4917592,0.9948063,0.262915,292.1813,225.5081,2.988411,False
3,0.1777778,-0.2337032,0.03051176,-0.05771612,-1.362592,-4.234972,2.676332,0.658653,1.075407,0.4433668,-2.115451,0.03181817,5.8,3.1,-0.1339248,0.04890445,0.05141209,-0.7052966,-4.008756,-0.1748786,0.6305517,1.289406,0.3522198,-0.1151042,0.09255125,-0.04337918,-0.6754448,0.4383287,-0.2735338,0.7077404,1.377501,0.2270494,0.4907095,0.9955913,0.2635244,291.9628,225.421,3.387591,False
3,0.1888889,-0.2519134,0.09451492,-0.04440825,-1.361164,-4.237547,2.680133,0.6585519,1.075578,0.4433696,-2.115717,-0.02446053,5.8,3.1,-0.1126606,0.01578097,0.05520336,-0.704486,-4.008854,-0.1738823,0.6308875,1.289659,0.3523271,-0.1059249,0.05093706,-0.07215877,-0.6768999,0.4370439,-0.2716289,0.7082392,1.377555,0.2271032,0.489605,0.9964407,0.2641706,291.7667,225.3504,3.782053,False
3,0.2,-0.2605022,0.1350348,-0.03835891,-1.359696,-4.240073,2.68383,0.658429,1.075731,0.4433663,-2.115416,0.02788129,5.8,3.1,-0.09258579,-0.01191782,0.04936422,-0.7040476,-4.010912,-0.1720687,0.6313666,1.289814,0.3524005,-0.09543462,0.02960672,-0.08718351,-0.6782336,0.4354119,-0.2696397,0.7087065,1.377636,0.2270992,0.4885506,0.9973178,0.264731,291.5568,225.2469,4.205707,False
3,0.2111111,-0.282951,0.1850645,-0.03771027,-1.357764,-4.243087,2.688206,0.6584098,1.075965,0.4433908,-2.11554,-0.01146521,5.8,3.1,-0.06716561,-0.05992917,0.04865835,-0.7031747,-4.014143,-0.1697233,0.6318365,1.29007,0.352505,-0.0872215,-0.003459997,-0.1106608,-0.6797607,0.4330815,-0.2670165,0.7091905,1.377747,0.2270007,0.4876368,0.9982283,0.2652068,291.3766,225.0535,4.637295,False
3,0.2222222,-0.3032587,0.2222886,-0.04121633,-1.355605,-4.246165,2.692854,0.6585066,1.076231,0.4433565,-2.115831,-0.02631211,4.2,3.2,-0.04797586,-0.08670781,0.05780569,-0.7019805,-4.016545,-0.1679413,0.6323905,1.290465,0.3525231,-0.07474172,-0.04505478,-0.132044,-0.6813751,0.4295355,-0.2638836,0.7097688,1.377858,0.2269518,0.486855,0.9991884,0.2655891,291.2032,224.806,5.059195,False
3,0.2333333,-0.3214307,0.2584138,-0.04897306,-1.353143,-4.249542,2.697609,0.6586819,1.07662,0.4433205,-2.115458,0.03447757,4.2,3.2,-0.03183082,-0.1125466,0.08190609,-0.7000444,-4.019101,-0.166132,0.6331328,1.29101,0.3525763,-0.07072495,-0.06851874,-0.1512331,-0.6831424,0.4264573,-0.2607488,0.7103552,1.378047,0.2268209,0.4861715,1.00019,0.2658747,291.0167,224.4812,5.503429,False
3,0.2444444,-0.3321215,0.2775116,-0.05551914,-1.350899,-4.252515,2.70229,0.6588333,1.076967,0.4433618,-2.115342,0.01034286,4.2,3.2,-0.01351632,-0.1245466,0.1061093,-0.697924,-4.021279,-0.1648409,0.6337612,1.291456,0.3526351,-0.06353468,-0.09838778,-0.1715134,-0.6850987,0.4222286,-0.2570227,0.7110181,1.37813,0.2266033,0.485564,1.001243,0.2661015,290.8371,224.0598,6.016342,False
3,0.2555556,-0.3610055,0.3488822,-0.05078861,-1.34788,-4.258163,2.708454,0.6592841,1.07745,0.4433343,-2.115496,-0.01396403,4.2,3.2,0.01126762,-0.1280901,0.135655,-0.6953726,-4.022786,-0.1645309,0.6346393,1.292015,0.3528516,-0.05627775,-0.1293105,-0.1843363,-0.6868143,0.4176979,-0.2530762,0.711874,1.378091,0.2264726,0.4850209,1.002371,0.2663034,290.6678,223.5845,6.588285,False
3,0.2666667,-0.3738567,0.388341,-0.04365791,-1.345403,-4.263185,2.714091,0.6596406,1.077843,0.443373,-2.115694,-0.0178534,4.2,3.2,0.024262,-0.1251226,0.155796,-0.692783,-4.024138,-0.1642089,0.6354327,1.292538,0.3529468,-0.05112708,-0.1527674,-0.197147,-0.6887723,0.4130424,-0.2491467,0.7125728,1.378248,0.226356,0.4845285,1.003605,0.2665187,290.4972,223.0608,7.207369,False
3,0.2777778,-0.3973915,0.4491475,-0.02925202,-1.342622,-4.269825,2.720781,0.6600925,1.078306,0.4434023,-2.115018,0.06210642,4.6,3.9,0.04566975,-0.1274165,0.1662124,-0.690506,-4.0259,-0.1640981,0.6364292,1.293103,0.3529737,-0.0365375,-0.1869201,-0.2217511,-0.6911228,0.406909,-0.2443738,0.7134026,1.378406,0.2260661,0.4840619,1.004946,0.2667862,290.3019,222.4978,7.853879,False
3,0.2888889,-0.4219927,0.5099664,-0.01271691,-1.339929,-4.276968,2.727865,0.6606743,1.07866,0.4433756,-2.115549,-0.04891375,4.6,3.9,0.06711456,-0.1276073,0.1798525,-0.6878109,-4.027379,-0.1644545,0.6376472,1.293807,0.3530202,-0.02301094,-0.2231971,-0.2452768,-0.6936342,0.4001105,-0.2391836,0.7143203,1.378515,0.2257004,0.4835189,1.006431,0.2671835,290.1001,221.8795,8.595063,False
3,0.3,-0.4390867,0.5420129,0.0008664299,-1.337495,-4.28391,2.734959,0.6611699,1.079065,0.4433517,-2.115152,0.03689937,4.6,3.9,0.09804446,-0.1426942,0.1879228,-0.6851792,-4.030109,-0.1644462,0.6389619,1.294474,0.3531263,-0.01150739,-0.2445453,-0.2624101,-0.6962925,0.3937237,-0.2345302,0.7152895,1.378666,0.2253792,0.482856,1.008067,0.2677508,289.8434,221.2862,9.373576,False
3,0.3111111,-0.4678932,0.5762134,0.02083079,-1.335558,-4.29111,2.742604,0.661746,1.079483,0.443321,-2.115057,0.008421102,4.6,3.9,0.1267862,-0.1566493,0.1896393,-0.6826353,-4.032969,-0.1646113,0.6402154,1.295057,0.3532958,0.0008512735,-0.2872294,-0.295509,-0.6994649,0.385041,-0.2281687,0.7163646,1.378879,0.2248425,0.4820245,1.00985,0.2685239,289.5503,220.6933,10.2433,False
3,0.3222222,-0.5041562,0.6029076,0.03553782,-1.333503,-4.298624,2.751182,0.662411,1.079733,0.4432325,-2.115246,-0.01712417,4.5,4.2,0.1757124,-0.1866405,0.1909944,-0.6801165,-4.037297,-0.1648854,0.6418265,1.295708,0.3534315,0.01348731,-0.3075113,-0.306263,-0.7022926,0.3776645,-0.2232152,0.7173471,1.378975,0.2244444,0.4810537,1.011766,0.2695079,289.2123,220.1353,11.19984,False
3,0.3333333,-0.5457332,0.6231666,0.04603655,-1.331442,-4.306199,2.76038,0.6631225,1.079947,0.4430552,-2.115024,0.02064945,4.5,4.2,0.2352747,-0.245483,0.1983737,-0.6769372,-4.043948,-0.1644089,0.6435605,1.296424,0.3535428,0.02714849,-0.3309976,-0.3191525,-0.705156,0.3696189,-0.2177129,0.7185519,1.379189,0.2240009,0.4799905,1.013797,0.2706472,288.8558,219.6619,12.15236,False
3,0.3444445,-0.5723948,0.6412882,0.05335344,-1.329381,-4.313825,2.769417,0.6638219,1.080201,0.4429741,-2.114409,0.05625869,4.5,4.2,0.2872757,-0.3191723,0.2003589,-0.6737052,-4.052942,-0.1623612,0.6453297,1.297046,0.353719,0.03555629,-0.3480715,-0.3266706,-0.7080035,0.3616615,-0.2123421,0.719709,1.379332,0.2235744,0.4789178,1.015921,0.2718779,288.4704,219.2272,13.12326,False
3,0.3555556,-0.6107965,0.6754647,0.07118917,-1.327575,-4.322758,2.779717,0.6645528,1.080336,0.4427688,-2.114064,0.03125332,4.5,4.2,0.3147463,-0.389551,0.1983573,-0.6705691,-4.062791,-0.1590142,0.6470888,1.297553,0.3539045,0.0525009,-0.3577183,-0.3353426,-0.7109863,0.3537699,-0.2075175,0.7210793,1.379386,0.2231605,0.4778807,1.01811,0.2731066,288.0471,218.6936,14.22855,False
3,0.3666667,-0.6438555,0.6991166,0.1040063,-1.326596,-4.331614,2.790056,0.6655577,1.080531,0.4423935,-2.114558,-0.04517372,4.5,4.2,0.3209899,-0.4556673,0.2040694,-0.667067,-4.073381,-0.1542692,0.6488489,1.298177,0.3540103,0.06614691,-0.3684269,-0.3556986,-0.7145469,0.3456967,-0.2027209,0.7224886,1.379561,0.2227862,0.4769181,1.020356,0.2742418,287.6243,218.0474,15.42,False
3,0.3777778,-0.6705513,0.7462968,0.1451629,-1.326021,-4.342268,2.801006,0.6662259,1.08066,0.4421015,-2.114019,0.04996197,6.4,4.9,0.322044,-0.4813047,0.2112743,-0.6636304,-4.082585,-0.1505163,0.6505527,1.29878,0.3541546,0.07133663,-0.3737907,-0.3695906,-0.7181289,0.3376185,-0.1976039,0.7237819,1.379674,0.2223823,0.4760469,1.022655,0.2752525,287.2025,217.2548,16.66867,False
3,0.3888889,-0.6929826,0.7859703,0.1799901,-1.325637,-4.352973,2.812048,0.6669284,1.080794,0.4417927,-2.114253,-0.02156432,6.4,4.9,0.3210426,-0.4898996,0.2197278,-0.6600639,-4.090904,-0.1475708,0.6524568,1.299483,0.3542461,0.07753733,-0.3823573,-0.388801,-0.7218658,0.3292336,-0.1924323,0.7252039,1.379825,0.2219832,0.4752091,1.025023,0.2761345,286.7729,216.4953,17.86773,False
3,0.4,-0.7057841,0.8032197,0.2064816,-1.325629,-4.363384,2.822873,0.6674988,1.080945,0.4414275,-2.114461,-0.01856142,6.4,4.9,0.3200091,-0.4728348,0.217766,-0.6570657,-4.097962,-0.1455412,0.6542937,1.300204,0.3543496,0.07522756,-0.3844939,-0.4079547,-0.7261583,0.3214265,-0.1874005,0.7266732,1.379951,0.2215981,0.4744337,1.027505,0.2768931,286.3341,215.7777,19.01117,False
3,0.4111111,-0.7207026,0.8055717,0.2362994,-1.326349,-4.373274,2.833912,0.6680867,1.081084,0.4410496,-2.11472,-0.02327293,6.4,4.9,0.3113722,-0.4673671,0.2051162,-0.6545405,-4.105771,-0.1425031,0.6561882,1.300866,0.3544576,0.06877285,-0.3844836,-0.4153394,-0.7299724,0.3138427,-0.1823642,0.7280348,1.380096,0.2211969,0.4735093,1.030129,0.277557,285.863,214.8968,20.24587,False
3,0.4222222,-0.7451543,0.7801033,0.2525058,-1.32713,-4.382141,2.84522,0.6684594,1.081077,0.440485,-2.115171,-0.04091113,6,5,0.285607,-0.4735149,0.1872034,-0.6522747,-4.11447,-0.1379978,0.658046,1.301543,0.3545268,0.07068586,-0.3823764,-0.4398621,-0.7349132,0.3061808,-0.1775617,0.7296804,1.380224,0.2208245,0.4724612,1.0329,0.2782362,285.356,213.8874,21.61964,False
3,0.4333333,-0.7568105,0.7461451,0.2709091,-1.328562,-4.390373,2.855995,0.6687765,1.081194,0.4398386,-2.11512,0.005234778,6,5,0.2557342,-0.4883487,0.1873615,-0.6493388,-4.123856,-0.1324185,0.6601161,1.302161,0.3546791,0.0737949,-0.3824118,-0.4505419,-0.739342,0.2982178,-0.1727132,0.7314824,1.380491,0.2204213,0.4713321,1.035791,0.278986,284.8123,212.8524,23.07024,False
3,0.4444444,-0.7673056,0.651425,0.2845033,-1.330833,-4.395679,2.866341,0.6690633,1.08132,0.439163,-2.114827,0.02685241,6,5,0.217326,-0.5245008,0.1927343,-0.6460711,-4.135113,-0.1245718,0.6620256,1.302776,0.3546939,0.07466227,-0.3685929,-0.4761328,-0.7448819,0.2912229,-0.1684521,0.733242,1.380569,0.2200196,0.470194,1.038756,0.2797978,284.2209,211.832,24.58707,False
3,0.4555556,-0.7778087,0.566195,0.2863019,-1.333052,-4.400125,2.876367,0.668965,1.081435,0.4384236,-2.115407,-0.05305441,6,5,0.16822,-0.5392194,0.1877652,-0.6432914,-4.145421,-0.116573,0.6640004,1.303443,0.3547115,0.07447362,-0.3611559,-0.4995505,-0.7501358,0.28438,-0.1643453,0.7349585,1.380574,0.2196252,0.4690269,1.041744,0.2805418,283.6124,210.7759,26.19532,False
3,0.4666667,-0.7840711,0.49153,0.2773637,-1.334979,-4.404134,2.886091,0.6690822,1.081447,0.4377697,-2.11541,0.0004368357,6,5,0.1319391,-0.5593512,0.187936,-0.6404977,-4.156481,-0.1079446,0.6658472,1.304082,0.3547692,0.06907481,-0.3536893,-0.5101637,-0.7554988,0.2777471,-0.1601567,0.7367113,1.380657,0.2193284,0.4679596,1.044723,0.2811233,283.0157,209.8744,27.65191,False
3,0.4777778,-0.7924167,0.3847891,0.2548423,-1.336889,-4.405245,2.89538,0.6687825,1.081573,0.4369524,-2.115697,-0.02619149,3.2,4.3,0.05423677,-0.5923015,0.2054472,-0.6368704,-4.16879,-0.09603332,0.6678826,1.304725,0.3547449,0.04862654,-0.3387692,-0.5355488,-0.7615224,0.2711983,-0.1550564,0.7386559,1.380949,0.2189884,0.467115,1.047649,0.281372,282.4266,209.0364,28.96874,False
3,0.4888889,-0.8039571,0.2759362,0.2344745,-1.3389,-4.405576,2.904744,0.668591,1.08181,0.4362946,-2.116079,-0.03455776,3.2,4.3,0.02448469,-0.5837366,0.2111543,-0.6337375,-4.178555,-0.08754343,0.6697781,1.305268,0.3547823,0.02721798,-0.3153084,-0.5566784,-0.7677851,0.2655821,-0.1508225,0.7406871,1.380871,0.218817,0.4664358,1.050491,0.2811511,281.8643,207.7905,30.507,False
3,0.5,-0.8091885,0.2149799,0.208364,-1.340252,-4.406198,2.914079,0.6683048,1.081957,0.4355216,-2.116,0.007556153,3.2,4.3,-0.02123398,-0.5794097,0.2191058,-0.6305769,-4.188847,-0.07747216,0.6714846,1.305776,0.3547626,-0.002696812,-0.2832837,-0.5756123,-0.7744622,0.2612194,-0.1467322,0.7426414,1.380785,0.2185924,0.4660233,1.053188,0.2804954,281.3386,206.14,32.2781,False
3,0.5111111,-0.8208031,0.1465099,0.1769943,-1.341282,-4.405981,2.923613,0.6679953,1.082075,0.4348559,-2.115857,0.0130758,3.2,4.3,-0.0765447,-0.5536746,0.2198958,-0.6277539,-4.197609,-0.06782459,0.6731842,1.306263,0.3547683,-0.02084225,-0.2609282,-0.5914426,-0.7811057,0.2558792,-0.1425207,0.744768,1.380739,0.2183428,0.4657904,1.055733,0.2793351,280.8829,204.4371,33.93653,False
3,0.5222223,-0.8292341,0.08656345,0.1455473,-1.342086,-4.404976,2.932779,0.6675168,1.082219,0.4341733,-2.116068,-0.01930303,3.3,3.1,-0.1297871,-0.5257561,0.2142952,-0.6253496,-4.205659,-0.05815145,0.6746885,1.306645,0.3547368,-0.0550797,-0.2278357,-0.6167272,-0.7884981,0.2525347,-0.1384178,0.7467563,1.380517,0.218205,0.4657819,1.058152,0.2777524,280.5138,202.5924,35.55569,False
3,0.5333334,-0.8333982,0.02462883,0.1290378,-1.343416,-4.403565,2.941961,0.6670525,1.08234,0.4335759,-2.115833,0.0218102,3.3,3.1,-0.177671,-0.4914748,0.2097748,-0.6228036,-4.213108,-0.04869324,0.6763089,1.307118,0.3547676,-0.08062792,-0.203265,-0.619701,-0.7950958,0.2491876,-0.1343208,0.748275,1.38029,0.2180822,0.4658916,1.060483,0.2758708,280.202,200.2458,37.55614,False
3,0.5444446,-0.8365148,-0.02125254,0.1219649,-1.344896,-4.401906,2.951065,0.6665318,1.082455,0.4328904,-2.117478,-0.1486779,3.3,3.1,-0.2010865,-0.4743322,0.2069692,-0.620411,-4.221225,-0.03910905,0.6778119,1.307522,0.3547699,-0.09025377,-0.1798079,-0.6313567,-0.8023502,0.2460994,-0.1309167,0.7502103,1.380123,0.2180014,0.4660821,1.0628,0.27384,279.9465,197.7215,39.66935,True
3,0.5555557,-0.8310674,-0.09160234,0.1161699,-1.346664,-4.398826,2.959372,0.6657352,1.08264,0.4323006,-2.120225,-0.2469243,3.3,3.1,-0.2361199,-0.4390828,0.2087104,-0.6179641,-4.227503,-0.03029585,0.6792545,1.3079,0.3547871,-0.1126601,-0.1477815,-0.6418395,-0.8097565,0.2441823,-0.1274671,0.7520065,1.3799,0.2179441,0.4663048,1.065241,0.2717605,279.7184,195.1587,41.80367,True
3,0.5666668,-0.8278357,-0.1150986,0.1089106,-1.347945,-4.397095,2.968051,0.6651582,1.082853,0.4316959,-2.124099,-0.3487781,3.3,3.1,-0.2594799,-0.420926,0.211238,-0.6155242,-4.234453,-0.02095721,0.6806858,1.308231,0.3547764,-0.1254614,-0.1264276,-0.6492087,-0.8170951,0.2420053,-0.1242082,0.7541018,1.37959,0.21789,0.466583,1.067946,0.2697345,279.4594,192.5137,44.05124,True
3,0.577778,-0.8245863,-0.1482067,0.09853865,-1.349166,-4.394411,2.97646,0.6644577,1.082924,0.4310715,-2.129309,-0.4695179,2,4.2,-0.2743519,-0.399546,0.2073285,-0.6132275,-4.240967,-0.01232831,0.6821327,1.308578,0.3548148,-0.1308095,-0.1200256,-0.6534272,-0.8242691,0.2392674,-0.1207136,0.7559924,1.379313,0.217814,0.4668818,1.071037,0.2677804,279.1463,189.4203,46.80991,True
3,0.5888891,-0.8213614,-0.166413,0.08589423,-1.349918,-4.392159,2.984841,0.6637698,1.083067,0.4303443,-2.134614,-0.4770035,2,4.2,-0.2975696,-0.3900669,0.2268232,-0.6101238,-4.247887,-0.002631736,0.6835874,1.308838,0.3548069,-0.133993,-0.1125543,-0.6534165,-0.8314085,0.2366601,-0.117316,0.7579754,1.378911,0.217809,0.4672225,1.074558,0.2658966,278.7877,185.456,50.45824,True
3,0.6000003,-0.8064208,-0.1835491,0.07217191,-1.350564,-4.389564,2.992688,0.6630466,1.083141,0.4296625,-2.140366,-0.5178524,2,4.2,-0.3131736,-0.4096073,0.2704723,-0.605778,-4.257117,0.00895408,0.6849483,1.309063,0.35483,-0.1467026,-0.09653731,-0.6501197,-0.8384174,0.2347937,-0.1140536,0.7598656,1.378551,0.2178264,0.4676743,1.078466,0.264146,278.4351,180.1587,55.47648,True
3,0.6111114,-0.7968093,-0.1952568,0.0712104,-1.351741,-4.387198,3.000521,0.6623858,1.08325,0.4290113,-2.146516,-0.553623,2,4.2,-0.3140344,-0.4183315,0.2927783,-0.6019484,-4.265659,0.01934334,0.6862457,1.309288,0.3548927,-0.1626303,-0.07727468,-0.6478662,-0.8455094,0.2339122,-0.1110772,0.7617229,1.378132,0.2178977,0.4682315,1.082662,0.2625054,278.1014,173.5018,61.90131,True
3,0.6222225,-0.7808107,-0.2070091,0.06383663,-1.352468,-4.384544,3.008045,0.6617216,1.083383,0.4284222,-2.153141,-0.5968097,2,4.2,-0.3118284,-0.4280256,0.3033193,-0.5983526,-4.2748,0.03028946,0.6875907,1.309459,0.354924,-0.1657873,-0.05915533,-0.6489185,-0.8527074,0.2328049,-0.1084293,0.7635539,1.377751,0.2179334,0.468869,1.087019,0.2609304,277.8763,165.8321,69.36817,True
3,0.6333337,-0.7733522,-0.2080704,0.06277725,-1.353416,-4.382178,3.015996,0.6611246,1.083494,0.4278538,-2.15937,-0.5603943,1.3,4.1,-0.3162362,-0.4385569,0.2915493,-0.5956692,-4.2843,0.04179325,0.6889232,1.309625,0.3550918,-0.1816129,-0.03458107,-0.6370853,-0.8596913,0.2324513,-0.1055256,0.7655351,1.377379,0.2181368,0.4696061,1.091371,0.2594062,277.7828,157.7194,77.26105,True
3,0.6444448,-0.774447,-0.1910222,0.06369099,-1.354326,-4.380655,3.024423,0.6605669,1.08367,0.4273853,-2.165687,-0.5688509,1.3,4.1,-0.316344,-0.4480751,0.2839942,-0.5931062,-4.294053,0.05342887,0.6901788,1.309825,0.3552506,-0.1911293,-0.02066037,-0.6295468,-0.8665196,0.2321455,-0.1026966,0.7672321,1.377062,0.2182169,0.4704306,1.095594,0.2579276,277.8132,149.9388,84.80231,True
3,0.655556,-0.7842032,-0.09186092,0.07563226,-1.355227,-4.383071,3.03403,0.6602773,1.083777,0.4269817,-2.17127,-0.5017532,1.3,4.1,-0.3229633,-0.4457081,0.2606398,-0.591282,-4.303138,0.06480669,0.6913775,1.309921,0.3554366,-0.1920867,-0.002541989,-0.6231616,-0.8733022,0.2320082,-0.1004265,0.7689242,1.376645,0.2183969,0.4713293,1.099584,0.2564864,277.9831,142.8672,91.61773,True
3,0.6666671,-0.7939205,-0.01399431,0.08987537,-1.356336,-4.385427,3.043638,0.6598682,1.083921,0.4265831,-2.176621,-0.4814731,1.3,4.1,-0.3303243,-0.4286832,0.2651413,-0.5883865,-4.311105,0.07535095,0.6925077,1.310069,0.3555355,-0.1920277,0.0006957129,-0.6167784,-0.8800597,0.2315383,-0.09798222,0.7708743,1.376184,0.21854,0.4722492,1.103311,0.2550879,278.246,136.8384,97.36139,True
3,0.6777782,-0.8015594,0.09372929,0.1060039,-1.357526,-4.39039,3.053744,0.6596695,1.084086,0.4262643,-2.181253,-0.4165883,1.3,11.6,-0.3322233,-0.4160765,0.2844557,-0.5849484,-4.319175,0.08576977,0.6936108,1.310217,0.3556583,-0.1866563,0.002815418,-0.6125684,-0.8866169,0.2308499,-0.09569084,0.7724621,1.375757,0.2187254,0.4730957,1.106803,0.2538018,278.6079,131.884,101.9903,True
3,0.6888894,-0.8219432,0.1823369,0.1318724,-1.359192,-4.395333,3.064541,0.6593823,1.084243,0.4259443,-2.185539,-0.3859732,1.3,11.6,-0.3319952,-0.4088198,0.3058325,-0.5812083,-4.327769,0.09669965,0.6948512,1.310418,0.3557763,-0.1823323,0.004988998,-0.6030251,-0.893155,0.2306359,-0.09345565,0.7741885,1.37533,0.2188203,0.473718,1.110132,0.2528115,279.0497,127.8209,105.7739,True
3,0.7000005,-0.8177176,0.2103142,0.1635916,-1.361876,-4.398929,3.074278,0.6590952,1.084454,0.4256387,-2.189336,-0.3417891,1.3,11.6,-0.3210591,-0.4091225,0.334482,-0.577025,-4.336984,0.1076815,0.6960166,1.310597,0.3559542,-0.1737775,0.003933601,-0.5977892,-0.8999082,0.2300762,-0.09132219,0.7759251,1.374868,0.2189913,0.4740225,1.113371,0.2522256,279.4811,124.3299,109.1131,True
3,0.7111117,-0.821015,0.273369,0.1886116,-1.364415,-4.404147,3.084603,0.6588209,1.084684,0.4253867,-2.191877,-0.2276767,1.3,11.6,-0.3135763,-0.4348081,0.3437579,-0.5735512,-4.348321,0.1203962,0.6972727,1.310797,0.3561826,-0.166293,-0.0003447384,-0.5935938,-0.9063904,0.2291351,-0.08911443,0.7774521,1.374432,0.2191799,0.4740036,1.116565,0.2521639,279.9002,121.286,112.1796,True
3,0.7222228,-0.8157473,0.3096689,0.1968085,-1.366463,-4.409034,3.094545,0.6584516,1.084878,0.4250762,-2.195365,-0.3154424,1.3,11.6,-0.3062213,-0.4582345,0.3402749,-0.570554,-4.360019,0.1334316,0.6985041,1.310987,0.3564041,-0.1630388,-0.007807672,-0.5850965,-0.9126376,0.227972,-0.08663583,0.7790097,1.37401,0.2193458,0.4736894,1.119777,0.2526056,280.2265,118.358,115.3374,True
3,0.7333339,-0.8072716,0.3395918,0.2061386,-1.368815,-4.413885,3.104106,0.6580949,1.085089,0.4248314,-2.197585,-0.1988675,1.3,29.4,-0.2947789,-0.4932581,0.3217189,-0.5685518,-4.372908,0.1470443,0.6997521,1.31114,0.3566234,-0.1469122,-0.02699281,-0.5628596,-0.9180773,0.2263839,-0.08450104,0.7806242,1.373632,0.219573,0.4732433,1.123015,0.2534356,280.482,115.34,118.7356,True
3,0.7444451,-0.8083725,0.3576965,0.2059711,-1.370778,-4.41843,3.113988,0.6578782,1.085287,0.4246564,-2.199888,-0.2078504,1.3,29.4,-0.2908886,-0.5057438,0.2885305,-0.5674557,-4.38446,0.1598618,0.7009102,1.311259,0.3568702,-0.1458695,-0.03337887,-0.5607265,-0.9240999,0.2251789,-0.08202004,0.782073,1.373245,0.2198296,0.4726976,1.126287,0.254514,280.8084,112.4535,122.0893,True
3,0.7555562,-0.8126293,0.3533485,0.1964199,-1.372566,-4.422336,3.123911,0.6574885,1.08553,0.4244082,-2.202003,-0.1907305,1.3,29.4,-0.2840089,-0.5212453,0.235049,-0.5677375,-4.396165,0.172617,0.7019471,1.311245,0.3572025,-0.1435581,-0.03230474,-0.5415727,-0.9294251,0.2241978,-0.07991347,0.7833902,1.372848,0.220077,0.4721204,1.129552,0.2556926,281.2113,109.6753,125.3597,True
3,0.7666674,-0.817928,0.3329689,0.1806092,-1.373924,-4.425433,3.133705,0.6572745,1.085663,0.4241223,-2.203102,-0.09811513,1.3,29.4,-0.2853983,-0.514514,0.1989112,-0.5675313,-4.406551,0.1844372,0.7028236,1.311349,0.3574355,-0.1412934,-0.02482077,-0.5288166,-0.9348941,0.2239025,-0.07821917,0.7849162,1.372484,0.2203488,0.471624,1.132729,0.2568727,281.636,107.0631,128.4256,True
3,0.7777785,-0.8231686,0.2784131,0.1555093,-1.374792,-4.426646,-3.140033,0.6567234,1.085827,0.4239435,-2.204137,-0.09306616,0.6,22.3,-0.2887542,-0.4662786,0.1685022,-0.5673348,-4.413418,0.1935524,0.7035983,1.311335,0.3576136,-0.1452941,-0.00561709,-0.5064217,-0.939665,0.2242187,-0.07668573,0.7861357,1.372113,0.2206218,0.4712833,1.135764,0.2579463,282.0757,104.7899,131.1038,True
3,0.7888896,-0.8177457,0.2153249,0.1251384,-1.375107,-4.42719,-3.131044,0.6563828,1.085899,0.4238131,-2.205185,-0.09450919,0.6,22.3,-0.2885993,-0.4172831,0.168962,-0.5659936,-4.419738,0.2020282,0.7045932,1.311422,0.3577917,-0.1408025,0.009301491,-0.4851771,-0.9445732,0.2244808,-0.07535574,0.7874872,1.371702,0.220854,0.4710777,1.138669,0.2587716,282.5291,102.8011,133.4378,True
3,0.8000008,-0.8134241,0.1768286,0.1073547,-1.375727,-4.427815,-3.12208,0.6557665,1.086075,0.4236808,-2.206119,-0.08403999,0.6,22.3,-0.2946025,-0.3364372,0.1836306,-0.5636964,-4.422532,0.2078829,0.705302,1.311503,0.3579509,-0.1332133,0.01248455,-0.4724695,-0.9494659,0.2242404,-0.07402842,0.7887489,1.371295,0.221065,0.4711004,1.141393,0.2592669,283.0075,101.0678,135.4186,True
3,0.8111119,-0.7898755,0.1020467,0.07708283,-1.375599,-4.426738,-3.114197,0.6550223,1.086285,0.4236383,-2.207267,-0.1037135,0.6,22.3,-0.3006067,-0.2940526,0.2096578,-0.5609922,-4.42737,0.2155051,0.7060394,1.311527,0.3580709,-0.1245016,0.02099922,-0.4544424,-0.9539709,0.2244805,-0.07303959,0.7896948,1.370872,0.2213082,0.4713347,1.143927,0.2593454,283.5077,99.57528,136.9871,True
3,0.8222231,-0.7749299,0.08060658,0.05807611,-1.375584,-4.427011,-3.106065,0.654297,1.086535,0.4235895,-2.208029,-0.06839705,0.6,22.3,-0.3014581,-0.2825006,0.2278818,-0.5586209,-4.433779,0.2243045,0.7067479,1.311575,0.3582234,-0.1180132,0.02526104,-0.443856,-0.9587316,0.2246443,-0.07188857,0.790881,1.370622,0.2215245,0.4718095,1.146234,0.2590305,284.0219,98.44241,138.016,True
3,0.8333342,-0.7375509,0.01753773,0.02557738,-1.374939,-4.425325,-3.099184,0.6534495,1.086827,0.4234326,-2.209329,-0.1181162,1.4,30.7,-0.3014966,-0.2878034,0.2246404,-0.5570481,-4.441342,0.2339587,0.7074944,1.311643,0.3584013,-0.1168016,0.03166001,-0.4300225,-0.9631082,0.2249426,-0.07079028,0.7919374,1.370266,0.2218153,0.4723108,1.148421,0.2583598,284.5284,97.56258,138.6384,True
3,0.8444453,-0.7258174,0.00899858,0.02137414,-1.374996,-4.425154,-3.091556,0.652703,1.087128,0.4233084,-2.209839,-0.0454469,1.4,30.7,-0.3005543,-0.2973032,0.2149416,-0.5560585,-4.448843,0.2435727,0.7082292,1.311607,0.3586769,-0.1156753,0.03911582,-0.4257782,-0.9677491,0.2253514,-0.06977642,0.7930769,1.369884,0.2220533,0.472803,1.150479,0.2574474,285.0302,96.88911,138.9536,True
3,0.8555565,-0.6821001,-0.01885418,-0.006100595,-1.373983,-4.424134,-3.085608,0.6518868,1.087429,0.4231629,-2.211,-0.1056838,1.4,30.7,-0.3030729,-0.3225729,0.1838275,-0.5561575,-4.45752,0.2543958,0.7087938,1.311616,0.3588886,-0.1166216,0.06257574,-0.4183329,-0.9723787,0.2269795,-0.06926189,0.7941462,1.369547,0.222471,0.4731945,1.15244,0.2564472,285.5095,96.3984,139.0791,True
3,0.8666676,-0.6618464,-0.02961133,-0.02306274,-1.37318,-4.423648,-3.078916,0.6510165,1.087727,0.4229941,-2.210843,0.0154186,1.4,30.7,-0.3020954,-0.3214247,0.1742432,-0.5554368,-4.464804,0.2638684,0.7094376,1.311674,0.359097,-0.1112187,0.06896627,-0.4098617,-0.9767175,0.2278682,-0.06853432,0.7950492,1.369302,0.2227378,0.4734995,1.154281,0.2554505,285.9447,95.92136,139.2282,True
3,0.8777788,-0.6298624,-0.04672922,-0.03784595,-1.37218,-4.422564,-3.073166,0.650157,1.088068,0.4228671,-2.212043,-0.1104315,1.4,30.7,-0.3001022,-0.3106194,0.1572781,-0.5551439,-4.471159,0.2725426,0.7098565,1.311698,0.359261,-0.1131972,0.07004888,-0.3938638,-0.9805977,0.2285369,-0.0675636,0.7959217,1.369009,0.2230468,0.4736824,1.156019,0.2545711,286.3414,95.52116,139.355,True
3,0.8888899,-0.6000068,-0.06699832,-0.04621009,-1.371358,-4.421114,-3.067634,0.6492747,1.088426,0.4227157,-2.210738,0.1193552,1.2,29.1,-0.2958845,-0.2934895,0.1467373,-0.5546741,-4.476683,0.2802546,0.7102736,1.311741,0.3594527,-0.1172881,0.0743285,-0.3778564,-0.9844162,0.2292663,-0.06659181,0.7968476,1.368695,0.2233582,0.4737514,1.157591,0.2538615,286.7507,95.15374,139.5234,True
3,0.900001,-0.5840237,-0.07021176,-0.05151503,-1.370539,-4.420268,-3.061849,0.6484282,1.088742,0.4225929,-2.210158,0.05066973,1.2,29.1,-0.2947798,-0.2561395,0.1396184,-0.5538757,-4.480264,0.286541,0.710589,1.311816,0.3596525,-0.1192738,0.07647564,-0.3629246,-0.9879742,0.2300939,-0.0656629,0.797668,1.368434,0.22368,0.4736207,1.15899,0.2533203,287.1064,94.81019,139.7228,True
3,0.9111122,-0.5573956,-0.07021366,-0.05686036,-1.369605,-4.419546,-3.056623,0.6476607,1.089072,0.4225471,-2.20864,0.1369539,1.2,29.1,-0.2925938,-0.2166705,0.1325147,-0.552974,-4.483185,0.2921272,0.7109395,1.311905,0.3598964,-0.1222603,0.08715044,-0.3426583,-0.9911295,0.2315001,-0.0649252,0.7984922,1.368242,0.2240431,0.4733197,1.160187,0.252934,287.3761,94.479,139.9716,True
3,0.9222233,-0.5307791,-0.06170116,-0.06333908,-1.3686,-4.419215,-3.051763,0.6468391,1.089395,0.4224527,-2.206408,0.2011325,1.2,29.1,-0.2914799,-0.1932136,0.1305949,-0.5520211,-4.486315,0.297987,0.7112345,1.311955,0.3600667,-0.1294911,0.101033,-0.3234307,-0.9942049,0.2331427,-0.06421387,0.7992159,1.36796,0.2243109,0.4728577,1.161177,0.2526443,287.5646,94.19675,140.2183,True
3,0.9333345,-0.5041699,-0.04885221,-0.06132857,-1.367953,-4.419126,-3.046955,0.6460835,1.089668,0.4224026,-2.204571,0.1644774,1.8,43.4,-0.2946851,-0.1782428,0.1254419,-0.551286,-4.489865,0.3044571,0.7114785,1.312025,0.3602529,-0.1335656,0.1191502,-0.3074264,-0.997299,0.2350369,-0.0634815,0.799991,1.367762,0.2247086,0.472268,1.161974,0.252423,287.6984,94.07469,140.3299,True
3,0.9444456,-0.4882003,-0.04134277,-0.05821012,-1.367332,-4.418925,-3.042142,0.6453221,1.089976,0.4223266,-2.202401,0.1950698,1.8,43.4,-0.3032339,-0.1707105,0.1202745,-0.5506757,-4.493602,0.3112506,0.711579,1.312063,0.3604107,-0.1355834,0.1223736,-0.2956927,-1.000382,0.2366458,-0.06274274,0.8005769,1.367482,0.2250781,0.471601,1.162598,0.252259,287.7962,94.08494,140.3194,True
3,0.9555568,-0.4669298,-0.0199189,-0.04988011,-1.367068,-4.41959,-3.037559,0.6445051,1.090308,0.4222598,-2.199623,0.2501563,1.8,43.4,-0.3106793,-0.1600159,0.1183186,-0.5499204,-4.496911,0.3177692,0.7117202,1.312141,0.3605814,-0.139794,0.1298446,-0.2924627,-1.003587,0.2384088,-0.06202875,0.8011705,1.367273,0.2254229,0.4708416,1.16309,0.2521249,287.8757,94.14628,140.2598,True
3,0.9666679,-0.4541757,-0.001732469,-0.04364806,-1.366862,-4.42025,-3.032835,0.6437724,1.090574,0.4221835,-2.196372,0.2927438,1.8,43.4,-0.307555,-0.1514061,0.1077085,-0.5496573,-4.499907,0.3234761,0.7118179,1.312126,0.3607481,-0.1375691,0.131979,-0.2828917,-1.00646,0.2400496,-0.06147002,0.8016269,1.367022,0.2258129,0.4700116,1.163467,0.2520225,287.9205,94.1908,140.2211,True
3,0.977779,-0.4339901,0.03351621,-0.03649371,-1.366946,-4.421848,-3.028422,0.6430678,1.090826,0.4221809,-2.193268,0.2786991,1.8,43.4,-0.3000996,-0.1236508,0.09937119,-0.5489931,-4.501184,0.3276343,0.7118453,1.312197,0.3609152,-0.1395824,0.1383844,-0.2722241,-1.00923,0.24196,-0.06086202,0.8021371,1.366847,0.2261581,0.4690907,1.163787,0.2519197,287.9377,94.2653,140.1556,True
3,0.9888902,-0.4265598,0.05059626,-0.03451367,-1.366698,-4.423033,-3.023756,0.6424,1.09121,0.4221461,-2.189433,0.3456319,3.1,43.9,-0.2937173,-0.1183205,0.09616523,-0.54842,-4.504008,0.3329716,0.7119628,1.312307,0.3610532,-0.141548,0.138401,-0.2540982,-1.011546,0.2435421,-0.06005721,0.8025982,1.366756,0.2264779,0.4680605,1.164092,0.2518331,287.9529,94.37018,140.0622,True
3,1.000001,-0.4180759,0.07411038,-0.02725984,-1.366847,-4.424758,-3.019097,0.6417345,1.091461,0.422122,-2.185975,0.3104864,3.1,43.9,-0.290432,-0.1002551,0.09950272,-0.5474122,-4.505812,0.3375791,0.7120012,1.31237,0.3612115,-0.1403873,0.1405356,-0.2445225,-1.013999,0.2452927,-0.05948623,0.8030701,1.3666,0.2268047,0.4669791,1.164362,0.2518065,287.9633,94.48437,139.9719,True
3,1.011112,-0.4085248,0.09011366,-0.02739899,-1.366707,-4.426351,-3.014439,0.6411438,1.091788,0.4220979,-2.18158,0.3962916,3.1,43.9,-0.2881876,-0.0832675,0.1049774,-0.5461808,-4.507414,0.3419786,0.7120781,1.312468,0.3613737,-0.1328082,0.1320127,-0.2275381,-1.016002,0.2467367,-0.05890486,0.8034613,1.366461,0.2271328,0.4658533,1.164605,0.2518866,287.9661,94.62155,139.8794,True
3,1.022224,-0.3936225,0.09762372,-0.02427214,-1.36673,-4.427727,-3.010319,0.6405134,1.092052,0.4220438,-2.177415,0.3745358,3.1,43.9,-0.2828747,-0.0843358,0.1038534,-0.5454005,-4.509902,0.3470765,0.7121685,1.312521,0.3614948,-0.133867,0.1298878,-0.2264616,-1.018628,0.2481904,-0.05814932,0.8039011,1.366252,0.2273901,0.4646897,1.164848,0.2520614,287.9499,94.7709,139.8153,True
3,1.033335,-0.3798092,0.1201379,-0.01062337,-1.36734,-4.429801,-3.006073,0.6399333,1.092252,0.4220448,-2.172932,0.4036067,4.7,53.9,-0.2530385,-0.09083298,0.1056291,-0.5446063,-4.512843,0.3513111,0.712197,1.312629,0.3616276,-0.1253427,0.1234741,-0.2244061,-1.021117,0.2493671,-0.05764892,0.8042452,1.366125,0.2276523,0.4635063,1.165087,0.2523331,287.9407,94.85935,139.8434,True
3,1.044446,-0.3712914,0.1276511,-0.00642623,-1.367621,-4.431494,-3.001941,0.6393123,1.092586,0.4219837,-2.168721,0.3782169,4.7,53.9,-0.2360751,-0.1068241,0.1010527,-0.5442495,-4.516664,0.3565557,0.7122644,1.312717,0.3617518,-0.1199515,0.1160091,-0.2148654,-1.023303,0.2504691,-0.05702733,0.8046637,1.366097,0.2280273,0.462324,1.165318,0.2526703,287.9287,94.92059,139.9334,True
3,1.055557,-0.3606689,0.1480276,0.00724563,-1.368521,-4.43382,-2.997828,0.6387427,1.092843,0.4219496,-2.163875,0.4364308,4.7,53.9,-0.2203133,-0.1291009,0.08577017,-0.5446207,-4.520947,0.3621308,0.7122859,1.312796,0.3619235,-0.113442,0.1117403,-0.2010738,-1.025124,0.2516297,-0.05659723,0.804947,1.365997,0.2282889,0.4611443,1.165508,0.2530361,287.9275,94.9118,140.0867,True
3,1.066668,-0.3500474,0.1640514,0.01029284,-1.36895,-4.436134,-2.993718,0.6382679,1.09303,0.4219415,-2.158815,0.4554177,4.7,53.9,-0.2065755,-0.130096,0.07389825,-0.5447783,-4.523726,0.3662917,0.7122118,1.312813,0.3620799,-0.1069152,0.1074799,-0.1883509,-1.026952,0.252847,-0.0564987,0.8052346,1.365703,0.2285719,0.4599259,1.165648,0.2534224,287.9107,94.88248,140.2531,True
3,1.077779,-0.3404824,0.1790634,0.01974956,-1.369866,-4.438593,-2.989726,0.6376848,1.093267,0.4219213,-2.153726,0.4578494,4.7,53.9,-0.2001701,-0.1183769,0.07181335,-0.5444252,-4.525886,0.3701522,0.7122055,1.3129,0.3622198,-0.1015459,0.09788276,-0.1809368,-1.02875,0.2536473,-0.05595062,0.8054922,1.365566,0.2288234,0.4586284,1.165752,0.2537893,287.8636,94.92146,140.3568,True
3,1.08889,-0.336225,0.1823219,0.0261156,-1.370723,-4.440626,-2.985705,0.6371039,1.093576,0.4219403,-2.14826,0.4920402,4.4,61,-0.1904504,-0.1046382,0.08036193,-0.543605,-4.527869,0.3735709,0.7121004,1.312997,0.3623464,-0.09406254,0.08615906,-0.1746046,-1.030514,0.2543601,-0.05547524,0.805622,1.365513,0.2289715,0.4572855,1.165783,0.2541724,287.8027,94.9885,140.434,True
3,1.100002,-0.3309056,0.1866013,0.02714264,-1.371398,-4.442814,-2.981769,0.6365086,1.093799,0.4219356,-2.142698,0.5003214,4.4,61,-0.188195,-0.09087333,0.08898786,-0.5426324,-4.529674,0.3771838,0.7120324,1.313029,0.3624504,-0.09618385,0.07871013,-0.1713836,-1.032342,0.2549529,-0.05463235,0.8058186,1.365376,0.2291756,0.4559273,1.1657,0.2545885,287.7338,95.11299,140.4598,True
3,1.111113,-0.3255744,0.1812479,0.02291948,-1.371704,-4.444587,-2.977912,0.6359004,1.093903,0.4219198,-2.136701,0.5400355,4.4,61,-0.1817632,-0.07276564,0.086966,-0.5418659,-4.530762,0.3798464,0.7119409,1.313047,0.3625424,-0.08436659,0.07122967,-0.1587085,-1.033756,0.2555049,-0.05441744,0.8059456,1.365331,0.2294209,0.4544799,1.16555,0.2550198,287.6234,95.23414,140.4794,True
3,1.122224,-0.3255713,0.1779885,0.01549,-1.371922,-4.446504,-2.97386,0.6352667,1.094082,0.4219053,-2.130745,0.5357444,4.4,61,-0.1721983,-0.0663612,0.08267307,-0.5413147,-4.532302,0.3827543,0.7118462,1.313042,0.3626559,-0.07785595,0.06910823,-0.1449167,-1.034994,0.2565162,-0.05423128,0.806025,1.365304,0.2296512,0.4529563,1.165341,0.2554609,287.4772,95.37672,140.4898,True
3,1.133335,-0.3234206,0.1651933,0.01452693,-1.372286,-4.447836,-2.970033,0.634661,1.094303,0.4220145,-2.124561,0.5567147,5.3,67.4,-0.1553266,-0.05983676,0.06339098,-0.5414393,-4.533112,0.3845527,0.7116512,1.313071,0.3627846,-0.07666334,0.06485426,-0.1300101,-1.035929,0.2571327,-0.05373034,0.8061026,1.365206,0.2298305,0.4513982,1.165046,0.2559093,287.3475,95.53674,140.5072,True
3,1.144446,-0.3234136,0.1598139,0.008181274,-1.372457,-4.449512,-2.966039,0.6340261,1.094504,0.4220321,-2.117961,0.5941309,5.3,67.4,-0.1469359,-0.06401403,0.05155251,-0.5415698,-4.534976,0.3875743,0.7116176,1.313127,0.3629589,-0.07234531,0.05525985,-0.1204553,-1.037016,0.257409,-0.05313619,0.8063138,1.365021,0.2300129,0.4498383,1.164621,0.2563398,287.2268,95.71208,140.5104,True
3,1.155557,-0.3233605,0.1332278,0.01374202,-1.373048,-4.450085,-2.962418,0.6333706,1.09472,0.4220226,-2.111408,0.5895617,5.3,67.4,-0.149124,-0.07249977,0.04829858,-0.5416097,-4.537246,0.3912508,0.7115173,1.313137,0.3630519,-0.0637397,0.05311216,-0.1109461,-1.037962,0.2579377,-0.05299557,0.8063723,1.364923,0.230216,0.4482548,1.164093,0.2567259,287.0647,95.98633,140.38,True
3,1.166668,-0.3222921,0.1300526,0.01482365,-1.373364,-4.451523,-2.95854,0.6328124,1.094847,0.4220221,-2.104487,0.6230487,5.3,67.4,-0.143898,-0.07669392,0.03969117,-0.5417274,-4.539145,0.3943518,0.7113869,1.313217,0.3631322,-0.06583804,0.06056383,-0.1098644,-1.039181,0.2587743,-0.05259237,0.8064684,1.364761,0.2303815,0.4466744,1.163484,0.2570752,286.8599,96.31513,140.163,True
3,1.17778,-0.3254779,0.1236283,0.01168347,-1.373626,-4.45269,-2.95457,0.6321711,1.094998,0.4219642,-2.097632,0.616652,5.3,67.4,-0.1353974,-0.06922043,0.03541129,-0.5417216,-4.540242,0.3965364,0.7112403,1.313205,0.363199,-0.06143521,0.07227837,-0.09819482,-1.039931,0.260169,-0.0527748,0.8065004,1.364666,0.2305176,0.4450721,1.162838,0.2573713,286.6402,96.66044,139.934,True
3,1.188891,-0.327599,0.1203277,-1.336634E-05,-1.373408,-4.454003,-2.950679,0.6315042,1.095183,0.4218831,-2.090295,0.660589,6.3,62.7,-0.1301829,-0.06485805,0.02261888,-0.5420412,-4.541245,0.3986366,0.7112204,1.31321,0.3631909,-0.05078987,0.06692423,-0.09722609,-1.041039,0.2607368,-0.0527961,0.8064303,1.364718,0.2306032,0.4434933,1.162155,0.2576005,286.4092,96.91525,139.7912,True
3,1.200002,-0.3265227,0.1117095,-0.01166107,-1.37306,-4.45511,-2.946814,0.630846,1.095297,0.4217083,-2.08263,0.6900489,6.3,62.7,-0.1269503,-0.04887822,0.02166905,-0.5418665,-4.541354,0.4000371,0.711099,1.313223,0.3632233,-0.03586252,0.05197063,-0.09203323,-1.041973,0.2607177,-0.05294205,0.8064818,1.364653,0.230617,0.4419493,1.161415,0.2577772,286.2157,97.24141,139.5669,True
3,1.211113,-0.3307796,0.1084507,-0.01802076,-1.372927,-4.456269,-2.942791,0.6301843,1.095513,0.4215384,-2.075011,0.6853633,6.3,62.7,-0.12371,-0.04572053,0.02486208,-0.5416316,-4.542386,0.4021688,0.710937,1.313221,0.3632286,-0.02944288,0.04557214,-0.08675009,-1.042604,0.2611477,-0.0529993,0.8065223,1.36459,0.2306974,0.4403791,1.160645,0.2578878,286.0371,97.61359,139.2826,True
3,1.222224,-0.3286389,0.1042114,-0.01586781,-1.372914,-4.457308,-2.939046,0.6295309,1.09568,0.4214854,-2.067118,0.7105438,6.3,62.7,-0.1076536,-0.04477409,0.03216742,-0.5412838,-4.543821,0.4040058,0.7107995,1.313214,0.3633158,-0.02083034,0.03384615,-0.07296772,-1.04288,0.261277,-0.05302833,0.8064355,1.364524,0.2307551,0.4387666,1.159834,0.2579386,285.8706,98.05573,138.9271,True
3,1.233335,-0.3254335,0.0988998,-0.01475803,-1.372983,-4.458271,-2.9354,0.6288815,1.095912,0.4213231,-2.058921,0.7379175,6.3,62.7,-0.1002974,-0.05324782,0.02455631,-0.5415857,-4.545338,0.4061462,0.7107521,1.313221,0.3633084,-0.01866998,0.03384244,-0.06979188,-1.043555,0.2616714,-0.05309305,0.8064498,1.364468,0.2308013,0.4371205,1.158959,0.2579342,285.6842,98.52452,138.5439,True
3,1.244446,-0.3232913,0.09675178,-0.01687541,-1.372918,-4.459285,-2.931909,0.62818,1.096245,0.4212708,-2.050978,0.7144016,7.2,55.9,-0.0982727,-0.06704284,0.01801537,-0.5420721,-4.547462,0.4090181,0.7106916,1.313258,0.3632741,-0.01548149,0.03064465,-0.06875765,-1.04437,0.2620138,-0.05308239,0.8063191,1.364433,0.2307854,0.4354413,1.158036,0.2578944,285.4551,99.06898,138.0594,True
3,1.255558,-0.3254091,0.08820906,-0.01893528,-1.372774,-4.46007,-2.928073,0.6275936,1.096517,0.421103,-2.042782,0.7376759,7.2,55.9,-0.1027644,-0.09031603,0.001861233,-0.5432673,-4.550257,0.4126989,0.7106298,1.313209,0.3632116,-0.007012311,0.02955204,-0.07416283,-1.045392,0.2622814,-0.05340836,0.8063264,1.364383,0.2307749,0.4337657,1.15706,0.2578703,285.2027,99.63577,137.539,True
3,1.266669,-0.3317804,0.07426398,-0.02947191,-1.372161,-4.460641,-2.924097,0.6270176,1.096611,0.4209335,-2.034527,0.7427734,7.2,55.9,-0.1071345,-0.09127024,-0.00875695,-0.5440375,-4.551682,0.4152238,0.7105055,1.313129,0.3630385,-0.002705716,0.03166652,-0.06994741,-1.046077,0.2626142,-0.05365391,0.8064473,1.364288,0.230711,0.4320638,1.156069,0.2578623,284.9306,100.2494,136.9837,True
3,1.27778,-0.3424218,0.06563246,-0.04004848,-1.371464,-4.461247,-2.919814,0.6264005,1.096788,0.4207432,-2.025641,0.800384,7.2,55.9,-0.107141,-0.08271829,-0.01187288,-0.5445099,-4.552618,0.4172103,0.7103978,1.313072,0.3629248,0.002617564,0.03058646,-0.06999647,-1.046889,0.2629159,-0.0540145,0.8064655,1.36423,0.2306447,0.4303392,1.155078,0.2578921,284.6566,100.916,136.3887,True
3,1.288891,-0.3498619,0.05485004,-0.05380893,-1.370457,-4.461764,-2.915586,0.6258183,1.0969,0.4205718,-2.016854,0.7908996,6.3,67,-0.1101958,-0.05613868,-0.005202962,-0.5442463,-4.552243,0.418251,0.7103339,1.312971,0.3628378,0.004768535,0.03377596,-0.06895068,-1.047608,0.2634126,-0.05439107,0.8065195,1.364093,0.2307148,0.4286628,1.154059,0.2579584,284.4015,101.5273,135.9009,True
3,1.300002,-0.353054,0.05271403,-0.05378978,-1.369997,-4.462439,-2.911356,0.6251718,1.097082,0.4203556,-2.007947,0.8018587,6.3,67,-0.1068147,-0.03709346,0.007724119,-0.5436998,-4.552253,0.4193453,0.7102394,1.312951,0.3627119,0.004789276,0.03377602,-0.06682151,-1.048333,0.2637976,-0.05465233,0.8065279,1.364059,0.2306967,0.4270661,1.152979,0.2580215,284.1862,102.1167,135.448,True
3,1.311113,-0.3541301,0.06132468,-0.04427473,-1.370077,-4.463541,-2.907214,0.6245717,1.097347,0.4201722,-1.99934,0.774419,6.3,67,-0.09818557,-0.03722059,0.01829769,-0.5432982,-4.553628,0.4213022,0.7102811,1.312956,0.3625722,0.00691548,0.03484224,-0.06684597,-1.049159,0.2643464,-0.05498469,0.8064533,1.364089,0.2305865,0.4255014,1.151876,0.2580285,283.9773,102.7884,134.8897,True
3,1.322224,-0.3562751,0.06985711,-0.04220984,-1.369964,-4.464652,-2.902945,0.6239078,1.097546,0.4198542,-1.990719,0.7758563,6.3,67,-0.09080043,-0.04358333,0.01283879,-0.5436295,-4.554851,0.4231422,0.7102447,1.312963,0.3623388,0.006888472,0.0273723,-0.06790502,-1.049955,0.2641613,-0.05500786,0.8065892,1.363944,0.2303705,0.4239647,1.150759,0.2579668,283.7696,103.5431,134.2105,True
3,1.333336,-0.3509947,0.09872819,-0.03073914,-1.370509,-4.466717,-2.898827,0.6232712,1.097741,0.4195311,-1.982187,0.7676691,6.3,67,-0.08875958,-0.06273397,0.009442549,-0.544184,-4.55711,0.4260016,0.7102479,1.312949,0.3621814,0.01325464,0.01457184,-0.06689034,-1.050643,0.2638109,-0.05519668,0.8066261,1.363844,0.2301774,0.4223852,1.149693,0.2578372,283.528,104.3299,133.4567,True
3,1.344447,-0.3488916,0.1168719,-0.02770852,-1.370639,-4.468617,-2.894648,0.6226392,1.097934,0.419225,-1.973322,0.7981263,5.3,74.5,-0.08449382,-0.07022412,0.01145576,-0.5444609,-4.558987,0.4283492,0.7101758,1.312886,0.3620944,0.01955447,0.0006978326,-0.0733287,-1.051625,0.2632101,-0.05539801,0.8065717,1.363749,0.2299371,0.4207535,1.148711,0.2576914,283.2791,105.091,132.7328,True
3,1.355558,-0.3563724,0.1318273,-0.02144193,-1.37111,-4.47057,-2.890056,0.622031,1.098132,0.4188817,-1.964845,0.7624303,5.3,74.5,-0.07170971,-0.08414941,0.01545842,-0.5447752,-4.561711,0.4310478,0.7102054,1.312871,0.3619061,0.02274477,-0.0120923,-0.07015359,-1.052295,0.2625114,-0.05539615,0.8065921,1.363658,0.2297032,0.4190577,1.147808,0.2575505,283.0638,105.7895,132.1017,True
3,1.366669,-0.3606416,0.1414091,-0.02044004,-1.37157,-4.472315,-2.885695,0.6214529,1.098306,0.4185896,-1.95594,0.8016692,5.3,74.5,-0.06311855,-0.09705406,0.0259023,-0.5448433,-4.564683,0.4340204,0.7102456,1.312739,0.3617003,0.02274093,-0.01847144,-0.06802087,-1.05301,0.2622381,-0.05542651,0.8065619,1.363545,0.2295187,0.4173094,1.146956,0.2574815,282.8697,106.4121,131.5636,True
3,1.37778,-0.3670624,0.1563535,-0.01629803,-1.372176,-4.474602,-2.880846,0.6209856,1.098537,0.4182198,-1.946537,0.8468242,5.3,74.5,-0.06199449,-0.09497367,0.03123893,-0.5447767,-4.566733,0.4364545,0.7102838,1.31265,0.3614511,0.02271102,-0.01847366,-0.07121662,-1.053905,0.2619271,-0.05552238,0.8065739,1.363435,0.2293017,0.4155403,1.146099,0.2575213,282.6801,107.0095,131.0852,True
3,1.388891,-0.3756123,0.1734374,-0.01004909,-1.372925,-4.477052,-2.875857,0.6204482,1.0987,0.4178164,-1.937573,0.8062921,5.3,67.5,-0.05661269,-0.08970618,0.03549747,-0.5446468,-4.56868,0.4386362,0.7103344,1.312583,0.3612761,0.01846208,-0.01845426,-0.07012203,-1.054799,0.2617526,-0.05549575,0.80659,1.363298,0.2290547,0.4137575,1.145222,0.2576664,282.4585,107.5888,130.6604,True
3,1.400002,-0.3841666,0.1991389,0.006777614,-1.374286,-4.479915,-2.870817,0.61989,1.098865,0.4174702,-1.927997,0.8624815,5.3,67.5,-0.05017239,-0.08015785,0.03764897,-0.5444955,-4.570086,0.440192,0.7103456,1.31251,0.3610277,0.0163175,-0.01844701,-0.0722314,-1.055637,0.2615008,-0.05558443,0.8067007,1.363074,0.2287564,0.4119992,1.144303,0.2579033,282.2109,108.195,130.2416,True
3,1.411114,-0.3959419,0.2343721,0.0181994,-1.375808,-4.483425,-2.865325,0.6193891,1.098959,0.4171073,-1.918542,0.8507994,5.3,67.5,-0.04703297,-0.06836063,0.02813967,-0.5446617,-4.570773,0.4411462,0.7103496,1.31244,0.3607373,0.01312656,-0.01311241,-0.07327057,-1.056499,0.2614637,-0.05561719,0.8067237,1.362927,0.2284963,0.4102365,1.143376,0.2581932,281.949,108.8924,129.7651,True
3,1.422225,-0.4055739,0.2632424,0.03286199,-1.377523,-4.486914,-2.859831,0.6189387,1.098957,0.4166689,-1.909179,0.8425497,5.3,67.5,-0.04596506,-0.06836376,0.02812958,-0.5447123,-4.572469,0.443064,0.7103474,1.312354,0.3604293,0.01206702,-0.01097028,-0.0732667,-1.057369,0.2614917,-0.05572558,0.8067265,1.362887,0.2281392,0.4084234,1.142478,0.2585035,281.6946,109.5617,129.3115,True
3,1.433336,-0.4195309,0.3305477,0.05786005,-1.380573,-4.492289,-2.853614,0.6184945,1.099009,0.416157,-1.899405,0.8801935,5.3,67.5,-0.04914799,-0.06409351,0.02820158,-0.544666,-4.573713,0.44477,0.7103641,1.312311,0.3601558,0.009938721,-0.01735467,-0.0711118,-1.058064,0.2610273,-0.05554768,0.8067859,1.362741,0.2277985,0.4065474,1.141621,0.2588529,281.4404,110.1425,128.9284,True
3,1.444447,-0.4270341,0.3647721,0.07569101,-1.383392,-4.496693,-2.847971,0.6179503,1.099094,0.4157219,-1.88985,0.8596987,4.2,68.4,-0.057636,-0.06303199,0.03149583,-0.5444924,-4.575251,0.447043,0.7103388,1.312317,0.3598905,0.01412371,-0.02802324,-0.076485,-1.059266,0.2601959,-0.05548803,0.8067658,1.362668,0.2276382,0.4046368,1.140791,0.2592768,281.1953,110.6435,128.6552,True
3,1.455558,-0.4291907,0.379673,0.07449925,-1.385543,-4.501085,-2.842318,0.6174923,1.099177,0.4152169,-1.879931,0.8931994,4.2,68.4,-0.06185631,-0.06733055,0.03682481,-0.544332,-4.577297,0.4496329,0.7104061,1.312266,0.3596113,0.01616682,-0.03442602,-0.08395712,-1.06042,0.2594193,-0.05534874,0.8068199,1.362524,0.2273231,0.4026975,1.139988,0.2597785,280.9398,111.0611,128.4941,True
3,1.466669,-0.445208,0.4010438,0.08498129,-1.388399,-4.505672,-2.835924,0.6170949,1.099286,0.4147809,-1.870671,0.8325911,4.2,68.4,-0.0555407,-0.08436607,0.03340447,-0.5447943,-4.580204,0.452384,0.7104729,1.312162,0.3594544,0.01400719,-0.02909606,-0.08820692,-1.061603,0.259224,-0.05528829,0.8068614,1.362305,0.2271435,0.4006326,1.139291,0.2603856,280.6465,111.421,128.4151,True
3,1.47778,-0.4665156,0.403176,0.08922651,-1.390835,-4.509721,-2.829295,0.6166429,1.099406,0.4142303,-1.861034,0.8676138,4.2,68.4,-0.04916469,-0.09718951,0.03535354,-0.5450245,-4.583267,0.455334,0.7105432,1.312096,0.3592176,0.01723871,-0.02697212,-0.08504257,-1.062427,0.2589044,-0.05543236,0.8069078,1.362159,0.2268474,0.3985219,1.138673,0.2611053,280.3582,111.6431,128.5347,True
3,1.488891,-0.4878184,0.397806,0.08821526,-1.393087,-4.513536,-2.822408,0.6161819,1.099523,0.413619,-1.850495,0.9494897,3.1,65.7,-0.04389783,-0.1024848,0.02992039,-0.5455092,-4.585671,0.4575857,0.7106115,1.312016,0.3589025,0.01190969,-0.02696098,-0.08606029,-1.06344,0.2584327,-0.05523289,0.8069524,1.361987,0.2265244,0.3964629,1.138063,0.2619042,280.0939,111.8799,128.6731,True
3,1.500003,-0.4974276,0.4106231,0.09451243,-1.395904,-4.517759,-2.816063,0.6156864,1.099659,0.4131644,-1.840143,0.931681,3.1,65.7,-0.03747434,-0.1036015,0.03305021,-0.5454974,-4.588181,0.4598818,0.7106955,1.311917,0.3585899,0.01288239,-0.03549481,-0.09245609,-1.064627,0.2575257,-0.05483502,0.8070837,1.361805,0.2260287,0.3944568,1.137473,0.2627425,279.8056,112.0389,128.8931,True
3,1.511114,-0.4995785,0.4245677,0.1061129,-1.399074,-4.522219,-2.809702,0.6151661,1.099823,0.4126356,-1.82978,0.9328164,3.1,65.7,-0.03410646,-0.09308567,0.04696483,-0.5448865,-4.590082,0.4617743,0.71074,1.311954,0.358218,0.01705819,-0.04829384,-0.09781301,-1.065839,0.2563323,-0.05457483,0.8071818,1.36162,0.2256331,0.3924862,1.136925,0.2635219,279.5261,112.1197,129.2194,True
3,1.522225,-0.5081432,0.4566945,0.127157,-1.403156,-4.527395,-2.80302,0.6146746,1.100022,0.4122081,-1.820222,0.8592057,3.1,65.7,-0.03077971,-0.08894525,0.05868957,-0.5443203,-4.592482,0.464054,0.7108237,1.311948,0.3579097,0.01803353,-0.05469533,-0.1052707,-1.06715,0.2553218,-0.05428241,0.8072444,1.361464,0.2253158,0.3905579,1.136424,0.2641678,279.2679,112.2491,129.4483,True
3,1.533336,-0.5113938,0.4920411,0.1503046,-1.40784,-4.532937,-2.796407,0.6141684,1.100222,0.4116743,-1.81003,0.9175997,3.1,65.7,-0.03378271,-0.08910798,0.07682485,-0.5435485,-4.595432,0.4669003,0.7110484,1.311954,0.3576629,0.01908516,-0.06321989,-0.1042092,-1.068195,0.2541164,-0.05394259,0.8073523,1.361305,0.2249172,0.3886583,1.135964,0.2647083,279.024,112.3127,129.6413,True
3,1.544447,-0.5156928,0.5187215,0.1575446,-1.411941,-4.538415,-2.789852,0.6136008,1.100354,0.4111943,-1.799421,0.9551019,2.5,62.3,-0.03912216,-0.09334694,0.07577772,-0.5433461,-4.598249,0.4697672,0.7112429,1.311892,0.357368,0.01802923,-0.06748139,-0.1020621,-1.069139,0.2530159,-0.05358253,0.8073923,1.361172,0.2246172,0.3867311,1.135541,0.2651985,278.7694,112.3057,129.8463,True
3,1.555558,-0.5253303,0.5530473,0.1870847,-1.417386,-4.544286,-2.782846,0.6130092,1.100597,0.4107425,-1.789029,0.9350441,2.5,62.3,-0.04865696,-0.09016343,0.08016498,-0.5428566,-4.600647,0.4726866,0.7113795,1.311872,0.3570354,0.0137184,-0.06747332,-0.1073484,-1.070472,0.2521164,-0.05314098,0.8075191,1.361005,0.2242236,0.3847302,1.135174,0.2657413,278.4778,112.1995,130.1367,True
3,1.566669,-0.5253054,0.5358369,0.1669917,-1.420205,-4.548846,-2.776405,0.612466,1.100868,0.4101646,-1.778515,0.9461902,2.5,62.3,-0.05181801,-0.08697799,0.08235425,-0.5423837,-4.602913,0.4752238,0.7115293,1.31181,0.3566492,0.008408278,-0.06533208,-0.1062358,-1.071585,0.2512474,-0.05264164,0.807641,1.360824,0.2237508,0.3826366,1.134861,0.2664072,278.1841,111.856,130.7308,True
3,1.577781,-0.5391073,0.5059,0.157675,-1.423355,-4.552676,-2.769339,0.6118002,1.101204,0.4096172,-1.76762,0.9811186,2.5,62.3,-0.06241918,-0.08058567,0.08571693,-0.5417285,-4.60502,0.4781186,0.7116489,1.311792,0.3563175,0.008475795,-0.05893659,-0.1009142,-1.072513,0.2507102,-0.05249916,0.807743,1.360639,0.2233784,0.380465,1.134561,0.2672321,277.8974,111.4307,131.4487,True
3,1.588892,-0.54646,0.4428015,0.1305155,-1.424919,-4.555086,-2.762747,0.6111309,1.10165,0.4090369,-1.757517,0.9085746,2.5,62.3,-0.07194716,-0.07740663,0.09010481,-0.5410979,-4.607508,0.4812785,0.7117453,1.311868,0.3559744,0.007401459,-0.05681413,-0.1019657,-1.073578,0.2498769,-0.05209463,0.8079004,1.360432,0.2229817,0.3782187,1.1343,0.2682238,277.5609,110.8153,132.4456,True
3,1.600003,-0.5538421,0.3957714,0.1138779,-1.426644,-4.557408,-2.75607,0.6104312,1.102076,0.408458,-1.746484,0.9941645,3.2,54.6,-0.08051116,-0.06559291,0.08283867,-0.5406973,-4.608582,0.4833957,0.7118776,1.311846,0.355602,0.001012921,-0.05573111,-0.1019067,-1.074666,0.2491462,-0.05152737,0.8080487,1.360252,0.2226064,0.3760422,1.134,0.2692682,277.2744,110.4759,133.2693,True
3,1.611114,-0.5739206,0.2930988,0.07001239,-1.426009,-4.557609,-2.749048,0.6096555,1.102619,0.4079721,-1.736409,0.9058728,3.2,54.6,-0.08903214,-0.06236905,0.08188731,-0.5402803,-4.61049,0.4862493,0.7119477,1.311761,0.3552756,0.002005339,-0.062134,-0.1072335,-1.075951,0.2479816,-0.05095746,0.8082541,1.360058,0.2222607,0.3739338,1.133688,0.2702067,276.9695,110.2066,134.0176,True
3,1.622225,-0.5834308,0.2395548,0.04172704,-1.42633,-4.558576,-2.742229,0.6089239,1.103071,0.4075682,-1.726143,0.9242972,3.2,54.6,-0.09221722,-0.05489052,0.08092356,-0.5396757,-4.611839,0.4885223,0.7120622,1.31176,0.3549554,0.006226055,-0.06109304,-0.1115346,-1.077263,0.2470328,-0.05067729,0.8084462,1.359824,0.2218442,0.3719732,1.133352,0.2708772,276.6932,110.2391,134.4048,True
3,1.633336,-0.5993037,0.1721533,0.01141044,-1.425402,-4.558559,-2.735091,0.6080158,1.103682,0.4071255,-1.715335,0.9735088,3.2,54.6,-0.08793007,-0.04317923,0.07992399,-0.5389849,-4.612788,0.4901292,0.7122563,1.311666,0.3546219,0.008349501,-0.06003441,-0.1126205,-1.078534,0.2462385,-0.05047463,0.8086295,1.359633,0.2214682,0.3701711,1.132992,0.2711852,276.4615,110.5187,134.431,True
3,1.644447,-0.6066725,0.1251411,-0.003106207,-1.424988,-4.558705,-2.728348,0.60716,1.104196,0.4066815,-1.705488,0.8853869,3,57.6,-0.08793481,-0.04851668,0.08093925,-0.5385402,-4.614932,0.4929165,0.7123832,1.311631,0.3543084,0.004021794,-0.05896752,-0.1200417,-1.080126,0.2453877,-0.04994359,0.8088138,1.359487,0.2210677,0.368559,1.132595,0.2710454,276.2976,111.5814,133.5076,True
3,1.655559,-0.6172388,0.07059498,-0.02607646,-1.423503,-4.558062,-2.72123,0.6061727,1.104871,0.4062462,-1.695013,0.9435524,3,57.6,-0.08681279,-0.04963813,0.08624224,-0.5378302,-4.617064,0.4955815,0.7126405,1.311726,0.3539083,0.0008425489,-0.0493718,-0.1210841,-1.081494,0.2450954,-0.04971376,0.8090357,1.35931,0.2206688,0.3670743,1.132197,0.2705211,276.1659,112.8713,132.172,True
3,1.66667,-0.6235756,0.03747281,-0.0364496,-1.422636,-4.557824,-2.714226,0.6052505,1.105527,0.4058664,-1.685347,0.8690751,3,57.6,-0.07610342,-0.05185791,0.092503,-0.5371127,-4.619238,0.4979813,0.7127978,1.311764,0.3535845,0.004075401,-0.04512284,-0.1189839,-1.082664,0.2445444,-0.04969592,0.8092701,1.359125,0.2203662,0.3656102,1.131838,0.2696746,276.067,114.5379,130.3622,True
3,1.677781,-0.6235541,0.02463897,-0.04166881,-1.421999,-4.55796,-2.707342,0.6042327,1.106271,0.405421,-1.674883,0.9426842,3,57.6,-0.07069835,-0.04340136,0.09785517,-0.5360938,-4.620763,0.4998839,0.7130148,1.311795,0.3532543,-0.003399394,-0.04830116,-0.1199789,-1.084039,0.243684,-0.04899764,0.8095661,1.358909,0.2198908,0.3641691,1.131509,0.2686352,275.9942,116.2067,128.4966,True
3,1.688892,-0.625677,0.02458958,-0.045924,-1.421569,-4.558393,-2.700439,0.603212,1.107,0.404953,-1.664995,0.8894019,3,57.6,-0.07166,-0.04135692,0.1074745,-0.534938,-4.622824,0.5024964,0.7132861,1.312032,0.3528917,-0.004523903,-0.0589694,-0.1242116,-1.085346,0.242243,-0.04836727,0.8097597,1.358746,0.2194455,0.3627034,1.131221,0.2674925,275.9381,118.241,126.2391,True
3,1.700003,-0.6299535,0.03849688,-0.03750079,-1.422008,-4.559218,-2.693152,0.6021898,1.10776,0.4044962,-1.655188,0.8825136,2.7,52.6,-0.06622915,-0.04467136,0.1191073,-0.5337135,-4.625395,0.5053177,0.7134355,1.312069,0.352596,-0.004542023,-0.06109706,-0.1263426,-1.086856,0.2413639,-0.04803517,0.8100256,1.358597,0.2190559,0.3612073,1.130992,0.2663873,275.8704,120.2745,123.9679,True
3,1.711114,-0.6353024,0.05127035,-0.03760749,-1.422059,-4.560318,-2.685666,0.6011499,1.108595,0.4040375,-1.645337,0.8866088,2.7,52.6,-0.06078932,-0.05333873,0.1328215,-0.5324362,-4.628811,0.508761,0.7137257,1.312183,0.3522751,-0.003636777,-0.07177152,-0.1401879,-1.088757,0.2398274,-0.04733902,0.8103294,1.358279,0.2186513,0.3596054,1.130861,0.26543,275.792,122.1189,121.938,True
3,1.722225,-0.6417102,0.06197127,-0.03023066,-1.422535,-4.561274,-2.678082,0.6001447,1.109457,0.4036133,-1.635245,0.9088474,2.7,52.6,-0.06499504,-0.07047001,0.1433626,-0.5313576,-4.633095,0.5133672,0.7139988,1.312315,0.3519998,-0.001596421,-0.08245338,-0.1476537,-1.090544,0.2380512,-0.04668122,0.8105032,1.358146,0.2182786,0.3578959,1.130829,0.2647088,275.6974,123.6767,120.2738,True
3,1.733337,-0.6619576,0.07264189,-0.02285019,-1.423077,-4.562232,-2.669924,0.5991884,1.110393,0.4031489,-1.625408,0.8852636,2.7,52.6,-0.070145,-0.09411997,0.1676965,-0.5299115,-4.63896,0.519374,0.7143279,1.312479,0.3516924,-0.005886152,-0.08563908,-0.1497418,-1.092245,0.2367623,-0.04586869,0.8108143,1.357925,0.2178299,0.3560695,1.130928,0.2642691,275.5639,124.9668,118.9742,True
3,1.744448,-0.6736769,0.07693902,-0.01542148,-1.423592,-4.562973,-2.661953,0.5982639,1.111249,0.40272,-1.615753,0.8690546,4.2,54.2,-0.0658032,-0.1048879,0.1792768,-0.5285112,-4.643693,0.5241604,0.7146922,1.312593,0.3514197,-0.003883287,-0.0909889,-0.1614659,-1.094236,0.2351908,-0.04514191,0.811072,1.357729,0.2173939,0.3541636,1.131174,0.2641056,275.4301,126.2095,117.8236,True
3,1.755559,-0.6854143,0.08978304,-0.005938403,-1.424472,-4.564132,-2.653727,0.5973287,1.11209,0.4022851,-1.605756,0.9004067,4.2,54.2,-0.06265983,-0.1080528,0.1749539,-0.5276031,-4.647745,0.528262,0.7149723,1.312713,0.3511231,-0.008215904,-0.09524305,-0.1678142,-1.096281,0.2337238,-0.0442359,0.8113569,1.357517,0.2169819,0.3522575,1.131572,0.2641745,275.2747,127.141,117.0663,True
3,1.76667,-0.697166,0.1122288,0.004530907,-1.42581,-4.565827,-2.64534,0.5964469,1.112903,0.4017839,-1.596536,0.829221,4.2,54.2,-0.07124621,-0.1165047,0.1706983,-0.5268915,-4.651955,0.532923,0.7151922,1.31269,0.3507726,-0.01145267,-0.1016424,-0.1709746,-1.098207,0.2319125,-0.04324574,0.8116382,1.357344,0.216665,0.3504052,1.132143,0.2643792,275.1194,127.7212,116.727,True
3,1.777781,-0.7206339,0.1313834,0.007570639,-1.426905,-4.567554,-2.636257,0.5955565,1.113678,0.4014366,-1.587118,0.8479525,4.2,54.2,-0.08408141,-0.1196235,0.1665365,-0.526141,-4.6562,0.5379961,0.7153869,1.312762,0.3504767,-0.01779999,-0.09629665,-0.1677223,-1.099916,0.2308297,-0.04230778,0.8118576,1.357153,0.2163615,0.3486657,1.13286,0.2646193,275.0094,127.6327,117.0629,True
3,1.788892,-0.7515346,0.1388207,0.01178619,-1.428046,-4.568958,-2.62683,0.5946817,1.114424,0.4010522,-1.577821,0.8367971,4.2,54.2,-0.09806423,-0.09915982,0.1476944,-0.5254316,-4.657699,0.5409088,0.7155523,1.312727,0.3501942,-0.02193737,-0.06859466,-0.1623686,-1.101369,0.2308351,-0.04190218,0.8120675,1.356919,0.2160568,0.3469921,1.13371,0.2648171,274.928,126.9624,117.9456,True
3,1.800003,-0.7717712,0.1387708,0.009663701,-1.428792,-4.570261,-2.617618,0.5938215,1.115166,0.4006953,-1.567988,0.8857735,4.2,45.7,-0.09592438,-0.09169577,0.1466806,-0.5243871,-4.660689,0.5444703,0.7157089,1.312766,0.3499224,-0.02188401,-0.06006855,-0.1591747,-1.10291,0.2303158,-0.0414324,0.8122934,1.35672,0.2157397,0.3453591,1.134659,0.264945,274.8788,125.9431,119.1299,True
3,1.811115,-0.7888184,0.1376942,0.01180671,-1.42969,-4.571488,-2.608009,0.5929745,1.115956,0.4003303,-1.55847,0.8567141,4.2,45.7,-0.09372995,-0.08107942,0.1499543,-0.5231711,-4.663458,0.5478362,0.7158793,1.312823,0.3496532,-0.01768477,-0.06435124,-0.1645339,-1.104838,0.229169,-0.04086674,0.8125457,1.356493,0.2153664,0.3437551,1.135675,0.2650065,274.8623,124.9537,120.2323,True
3,1.822226,-0.7994483,0.1280674,0.009769961,-1.430292,-4.572355,-2.598818,0.5921073,1.116813,0.3998902,-1.54964,0.7941381,4.2,45.7,-0.08731813,-0.08111736,0.1520336,-0.5220084,-4.667093,0.5517822,0.7162635,1.312923,0.3493705,-0.009220347,-0.07078224,-0.1688662,-1.106761,0.2277475,-0.04040867,0.8128351,1.356258,0.2150249,0.3421908,1.136742,0.2649911,274.8558,123.9949,121.2889,True
3,1.833337,-0.8068879,0.1184848,0.01198456,-1.430969,-4.573098,-2.5895,0.5912611,1.117711,0.3995619,-1.540415,0.8310127,4.2,45.7,-0.07991473,-0.09177147,0.1497285,-0.5213825,-4.671089,0.5558949,0.7165397,1.313057,0.3491449,-0.003954604,-0.07825724,-0.1731712,-1.10877,0.2263791,-0.03994395,0.8130944,1.356069,0.2146747,0.3406921,1.137831,0.2648966,274.867,123.1861,122.1758,True
3,1.844448,-0.8079305,0.1036139,0.0174305,-1.431631,-4.573498,-2.580476,0.5905855,1.118662,0.3992934,-1.532026,0.7541915,4.2,42.5,-0.07347298,-0.08863212,0.1539505,-0.5203162,-4.674378,0.5593725,0.7168331,1.313114,0.3488777,-0.01360629,-0.09421882,-0.1751886,-1.110566,0.2244814,-0.03859986,0.8133311,1.355909,0.2144291,0.3392306,1.13896,0.2647159,274.8607,122.5696,122.8594,True
3,1.855559,-0.8110895,0.08339398,0.02079511,-1.432018,-4.573564,-2.571425,0.5898011,1.119625,0.3990498,-1.523311,0.7848528,4.2,42.5,-0.07232186,-0.09939753,0.1655574,-0.5192168,-4.67922,0.5643212,0.7171577,1.313233,0.3486669,-0.01788314,-0.09633852,-0.1762121,-1.112499,0.2231341,-0.03766615,0.8135756,1.355746,0.2141089,0.3378136,1.140136,0.2644369,274.8616,122.0814,123.3972,True
3,1.86667,-0.8174351,0.06102218,0.02098643,-1.432226,-4.573487,-2.562216,0.589049,1.120542,0.3988376,-1.515004,0.7471422,4.2,42.5,-0.07427604,-0.1134329,0.1867456,-0.517824,-4.684881,0.5700874,0.717497,1.313353,0.3484445,-0.01036394,-0.09742308,-0.1688175,-1.114003,0.2218281,-0.03719797,0.8138718,1.355514,0.2138224,0.3364886,1.141349,0.2640905,274.8583,121.7422,123.7359,True
3,1.877781,-0.8290928,0.02470768,0.01277809,-1.431621,-4.572723,-2.552637,0.5882956,1.121501,0.3986156,-1.506486,0.7668189,4.2,42.5,-0.06994846,-0.1327337,0.1992997,-0.5167789,-4.691032,0.5761443,0.717858,1.313451,0.3482177,-0.005048066,-0.09956834,-0.1699251,-1.115821,0.2204416,-0.03678571,0.8141853,1.355333,0.2134764,0.3353145,1.14259,0.2637123,274.8643,121.3841,124.0652,True
3,1.888893,-0.8364964,-0.01167526,-0.005027369,-1.430334,-4.572037,-2.543042,0.5875114,1.122513,0.3984365,-1.497897,0.7733392,4.2,42.5,-0.06452629,-0.1435185,0.2119345,-0.5154628,-4.697453,0.5823066,0.7182542,1.313591,0.3479803,0.003422171,-0.1038562,-0.1742626,-1.117863,0.2188956,-0.03645228,0.8144621,1.355111,0.2131679,0.3342078,1.143869,0.2633013,274.9076,120.8562,124.5492,True
3,1.900004,-0.8279248,-0.03631183,-0.0218717,-1.428993,-4.571501,-2.534318,0.5867528,1.123468,0.3981504,-1.489093,0.7928703,3.6,40.4,-0.06020536,-0.1499961,0.2203563,-0.5141637,-4.703504,0.5882129,0.7184834,1.313745,0.3477743,-0.001959264,-0.1059766,-0.1805883,-1.119853,0.2174386,-0.03572258,0.8147645,1.354855,0.2128592,0.3331464,1.145167,0.2628636,274.9817,120.2322,125.1328,True
3,1.911115,-0.8161518,-0.06938674,-0.03011779,-1.427429,-4.570269,-2.525908,0.5859398,1.124519,0.397929,-1.480798,0.7461283,3.6,40.4,-0.05151786,-0.1341518,0.2321369,-0.5122175,-4.708465,0.5927927,0.7188532,1.313855,0.3475952,0.005349517,-0.1198552,-0.1923648,-1.122309,0.2153384,-0.03510552,0.8150772,1.354605,0.2125638,0.3321055,1.14648,0.2623658,275.0818,119.9883,125.3432,True
3,1.922226,-0.8054438,-0.1034621,-0.03090463,-1.425888,-4.568668,-2.517619,0.5852426,1.12566,0.3976779,-1.473608,0.6458484,3.6,40.4,-0.0514732,-0.1245845,0.2343573,-0.5106292,1.56998,0.5975832,0.7192502,1.313978,0.3473892,0.003240258,-0.1209316,-0.1901855,-1.123829,0.2135042,-0.0343079,0.8154596,1.354392,0.2121377,0.3310665,1.147818,0.2618002,275.2104,120.1439,125.1367,True
3,1.933337,-0.7926086,-0.1343957,-0.03810373,-1.423904,-4.566982,-2.509587,0.5844457,1.126762,0.3974726,-1.465934,0.6910174,3.6,40.4,-0.05132884,-0.119378,0.2471894,-0.5086569,1.564458,0.602973,0.7197249,1.314007,0.3471985,0.006483078,-0.1220015,-0.1848884,-1.125622,0.2119001,-0.03378939,0.8157713,1.354164,0.2118559,0.3300587,1.149143,0.2611859,275.3511,120.1554,125.0619,True
3,1.944448,-0.7797735,-0.167472,-0.04634835,-1.421664,-4.56506,-2.501582,0.5837314,1.127803,0.3974028,-1.458117,0.7035902,3.6,40.4,-0.04925221,-0.1246704,0.2428595,-0.5074797,1.558802,0.6083555,0.7201468,1.314074,0.3471365,0.006561995,-0.1241305,-0.1763393,-1.126894,0.2102447,-0.03321095,0.816034,1.353981,0.2116184,0.3290944,1.150418,0.2605172,275.4565,120.2369,124.9074,True
3,1.955559,-0.7711928,-0.2027019,-0.05670463,-1.418958,-4.56294,-2.493562,0.5829277,1.128896,0.397285,-1.450554,0.6803561,3.1,38.7,-0.04729713,-0.1330588,0.2278458,-0.5068278,1.553445,0.6135026,0.7205998,1.314099,0.3469858,0.01089422,-0.1273312,-0.1678546,-1.128417,0.2084896,-0.03272785,0.8163533,1.353746,0.2113142,0.3281977,1.151634,0.2597729,275.5388,120.5973,124.4699,True
3,1.966671,-0.7594267,-0.2240117,-0.05865638,-1.416487,-4.560758,-2.485888,0.5820884,1.129945,0.3970788,-1.442852,0.6933928,3.1,38.7,-0.04312769,-0.1457861,0.2212902,-0.5061359,1.547476,0.6189432,0.720916,1.314192,0.3469222,0.01512966,-0.1326849,-0.169989,-1.129947,0.2063782,-0.03226206,0.8166341,1.353477,0.2110596,0.3273492,1.152777,0.2589518,275.6584,121.1731,123.7721,True
3,1.977782,-0.7401983,-0.2560304,-0.06903412,-1.413255,-4.558218,-2.478557,0.581277,1.131019,0.3969076,-1.435173,0.6910946,3.1,38.7,-0.03903997,-0.160594,0.2083268,-0.5058627,1.541287,0.6246583,0.7214,1.314203,0.3468366,0.01198117,-0.1337406,-0.1656808,-1.131448,0.2045734,-0.03165806,0.8169365,1.353271,0.2109036,0.3265605,1.153824,0.2580878,275.7968,121.9121,122.8644,True
3,1.988893,-0.7156664,-0.2762665,-0.07526604,-1.410161,-4.556046,-2.471718,0.5806247,1.132109,0.3967147,-1.427953,0.6493672,3.1,38.7,-0.03913257,-0.1669148,0.2008114,-0.5054653,1.535456,0.6301873,0.7218475,1.314247,0.3467071,0.01305512,-0.1262982,-0.1667619,-1.133298,0.2030607,-0.03116404,0.8173269,1.353069,0.2106791,0.325735,1.154812,0.2571757,275.9288,122.8176,121.7897,True
3,2.000004,-0.684764,-0.2826221,-0.07842138,-1.407394,-4.554121,-2.465393,0.579977,1.133203,0.3965466,-1.420771,0.6461468,3.3,53.1,-0.04986511,-0.1582626,0.190356,-0.5047745,1.53076,0.6352164,0.7223244,1.314233,0.3465779,0.006632596,-0.1166986,-0.1720433,-1.135474,0.20191,-0.03046523,0.8175687,1.352822,0.2105148,0.3248647,1.155745,0.2562172,276.0475,123.703,120.7564,True
3,2.011115,-0.6549356,-0.2825705,-0.07843217,-1.40475,-4.552199,-2.459371,0.5792277,1.134211,0.3963366,-1.413992,0.6096038,3.3,53.1,-0.06909348,-0.1367924,0.179031,-0.5039436,1.527455,0.6395198,0.7226902,1.314205,0.3464572,0.003525987,-0.1060316,-0.1656308,-1.137069,0.200934,-0.02998932,0.8179212,1.352547,0.2103801,0.3240313,1.156592,0.2552205,276.1695,124.8921,119.4245,True
3,2.022226,-0.6378914,-0.2751207,-0.08062006,-1.402274,-4.550435,-2.453206,0.5784621,1.135098,0.3961036,-1.407366,0.5959798,3.3,53.1,-0.07970008,-0.1218511,0.1792777,-0.5028826,1.523434,0.6442384,0.7230049,1.314218,0.3463736,-0.00285089,-0.09750776,-0.1676816,-1.138593,0.1997597,-0.0293973,0.8184564,1.352206,0.2102301,0.3232957,1.157347,0.2542239,276.2789,126.2969,117.854,True
3,2.033337,-0.6123382,-0.2665266,-0.07750617,-1.399996,-4.548831,-2.447552,0.5777167,1.136003,0.39592,-1.400591,0.6097376,3.3,53.1,-0.09360638,-0.1089384,0.1699498,-0.5020847,1.520195,0.6486456,0.7233521,1.314165,0.346278,0.0003541112,-0.07941004,-0.1719882,-1.140661,0.1994183,-0.02936828,0.8188528,1.351922,0.2101314,0.3225981,1.158037,0.2532652,276.3816,127.5426,116.4262,True
3,2.044448,-0.5963785,-0.2547723,-0.07547845,-1.397832,-4.547364,-2.441667,0.5770493,1.136946,0.3956673,-1.393355,0.6515729,3.3,53.1,-0.09896681,-0.1046323,0.1657778,-0.5014892,1.516197,0.6534162,0.7237828,1.314162,0.3461514,-0.004947767,-0.06556551,-0.1730074,-1.14248,0.1987973,-0.02885269,0.8191876,1.351716,0.2100093,0.3218409,1.15866,0.2523568,276.493,128.3906,115.4148,True
3,2.055559,-0.5718992,-0.2408356,-0.07027887,-1.395949,-4.546063,-2.436421,0.576383,1.137783,0.3954449,-1.386722,0.5960792,3.1,58.5,-0.1001436,-0.1055933,0.1551265,-0.5011244,1.512519,0.65784,0.7241459,1.314074,0.3460214,-0.01029533,-0.06235778,-0.1761559,-1.144539,0.1981079,-0.02826945,0.8195968,1.351457,0.209908,0.3209881,1.159198,0.2515115,276.5892,129.1574,114.5088,True
3,2.06667,-0.5474217,-0.2247106,-0.05869725,-1.394582,-4.544704,-2.431356,0.5758141,1.138687,0.3952334,-1.379414,0.6584355,3.1,58.5,-0.1022619,-0.1109258,0.1561616,-0.5006354,1.507885,0.6628928,0.7245823,1.313874,0.34605,-0.02090336,-0.05380822,-0.1749753,-1.146127,0.1976713,-0.02762257,0.8201112,1.351106,0.2098746,0.320068,1.159632,0.2507558,276.6475,130.1571,113.397,True
3,2.077781,-0.5208277,-0.2054208,-0.05033942,-1.393293,-4.543561,-2.426423,0.5752952,1.1395,0.3949502,-1.372886,0.5864167,3.1,58.5,-0.1129913,-0.1076198,0.1477753,-0.5002455,1.504443,0.6676012,0.7249471,1.313769,0.3459544,-0.01875955,-0.04316331,-0.1760676,-1.148106,0.1974505,-0.02734933,0.8205255,1.350839,0.2098351,0.3191096,1.159978,0.2500913,276.6648,131.5038,111.9806,True
3,2.088892,-0.5069956,-0.1946988,-0.0451089,-1.391858,-4.542393,-2.421427,0.5747235,1.140236,0.3947222,-1.365943,0.6250436,3.1,58.5,-0.1215794,-0.102194,0.1393881,-0.4999174,1.501076,0.6721352,0.7251989,1.313555,0.3460453,-0.02509318,-0.03248961,-0.1717378,-1.14965,0.1974328,-0.02672349,0.8209423,1.350614,0.2098129,0.3181665,1.160236,0.2495262,276.655,132.8701,110.5644,True
3,2.100003,-0.4952864,-0.1882008,-0.03450602,-1.390643,-4.540858,-2.416455,0.5741265,1.141042,0.3945425,-1.358921,0.6319248,2.4,53,-0.1195061,-0.09894241,0.1329959,-0.499633,1.498009,0.6761037,0.7255183,1.313546,0.3460939,-0.02608491,-0.02182847,-0.1674778,-1.151397,0.1975191,-0.02648407,0.8213485,1.350355,0.2097795,0.3172704,1.160422,0.249047,276.6041,134.2623,109.1537,True
3,2.111114,-0.4729482,-0.1678583,-0.02722957,-1.3898,-4.539991,-2.412066,0.5736246,1.14167,0.3943057,-1.351669,0.652854,2.4,53,-0.1261008,-0.09232992,0.1107496,-0.4998716,1.495971,0.6794707,0.7257885,1.313619,0.345943,-0.03455181,-0.00580546,-0.1652959,-1.153387,0.1982673,-0.02602308,0.8216249,1.350039,0.2097824,0.3164104,1.160547,0.2486141,276.5672,135.5267,107.898,True
3,2.122225,-0.4591123,-0.1582218,-0.02520606,-1.388441,-4.539196,-2.407526,0.5730929,1.142353,0.394021,-1.344315,0.661926,2.4,53,-0.1378693,-0.08050343,0.1024542,-0.4995616,1.49387,0.6832209,0.7259904,1.313487,0.3458517,-0.0387443,-0.0004488472,-0.1588885,-1.155272,0.198534,-0.02551148,0.8220331,1.349702,0.2098722,0.3155404,1.160619,0.2481882,276.5457,136.7677,106.6484,True
3,2.133336,-0.4463622,-0.1390157,-0.02430818,-1.387643,-4.53868,-2.403044,0.5725912,1.142918,0.3937886,-1.337594,0.6038408,2.4,53,-0.1453199,-0.067669,0.09945326,-0.498972,1.49203,0.6867163,0.7262427,1.313407,0.3458142,-0.04087323,0.003817236,-0.1599375,-1.157087,0.1986849,-0.02504943,0.8224499,1.349432,0.2098835,0.3146507,1.160658,0.2477433,276.5089,138.0692,105.3197,True
3,2.144447,-0.4357502,-0.1134143,-0.0256115,-1.387039,-4.538876,-2.398544,0.5720255,1.143374,0.3936205,-1.329996,0.6844193,2.4,53,-0.1548491,-0.05487936,0.1017972,-0.4981698,1.490123,0.6904413,0.7264882,1.313361,0.345814,-0.03871442,0.009164184,-0.1578401,-1.158895,0.1992869,-0.024867,0.8228689,1.349073,0.2099316,0.313774,1.160623,0.2472969,276.4848,139.1767,104.1877,True
3,2.155558,-0.4208976,-0.07603399,-0.01741408,-1.387288,-4.539112,-2.394297,0.5716195,1.143861,0.3933966,-1.322457,0.6783528,2.3,46,-0.1590855,-0.05702266,0.1050148,-0.4976543,1.487351,0.6947972,0.7267406,1.313368,0.3458838,-0.04190703,0.01769346,-0.1599479,-1.160768,0.1997753,-0.0244875,0.8232659,1.348791,0.2099645,0.3128718,1.160496,0.246847,276.4791,140.465,102.8702,True
3,2.166669,-0.4134823,-0.04925406,-0.001666814,-1.387851,-4.539032,-2.390011,0.5713197,1.144388,0.3932118,-1.314885,0.6813615,2.3,46,-0.1548254,-0.06558942,0.1080849,-0.4973815,1.483993,0.699398,0.7270682,1.313355,0.3459017,-0.04936235,0.0262545,-0.1620474,-1.16312,0.2005966,-0.02399934,0.8238086,1.348599,0.2101071,0.3119319,1.160266,0.2464335,276.4676,141.7784,101.4953,True
3,2.17778,-0.3975649,-0.01179491,0.013983,-1.389099,-4.539552,-2.386013,0.5709628,1.144889,0.3930922,-1.3074,0.6734102,2.3,46,-0.1559,-0.07198498,0.1091017,-0.4970678,1.480734,0.7040391,0.7273697,1.313326,0.345907,-0.04936134,0.02521814,-0.1610059,-1.165239,0.2011544,-0.02363902,0.8243002,1.34834,0.2101376,0.3109196,1.159931,0.2461236,276.4246,143.2566,99.94914,True
3,2.188891,-0.3837532,0.01390611,0.02654346,-1.390261,-4.539834,-2.382194,0.5706843,1.145347,0.3929071,-1.299518,0.7096468,2.3,46,-0.1517215,-0.08901256,0.1057062,-0.4972782,1.476655,0.7091348,0.7277447,1.313275,0.3459504,-0.04721372,0.02414872,-0.1588945,-1.166945,0.2013808,-0.02327789,0.8247148,1.348116,0.2101791,0.3099118,1.159502,0.2459679,276.2971,145.194,98.00567,True
3,2.200002,-0.3741898,0.02886648,0.02854104,-1.391071,-4.540293,-2.378212,0.5703776,1.145799,0.3927655,-1.292044,0.6720513,1.9,39.9,-0.1495559,-0.09652065,0.1109428,-0.4970034,1.472748,0.7141283,0.7280703,1.313173,0.345963,-0.04401449,0.01884814,-0.1557516,-1.168973,0.2018508,-0.02290771,0.8252262,1.347862,0.2102716,0.3089425,1.159025,0.2459501,276.1259,147.6116,95.63727,True
3,2.211113,-0.3688793,0.03526961,0.02848832,-1.391702,-4.540504,-2.374128,0.5701506,1.146306,0.3926239,-1.284316,0.6955532,1.9,39.9,-0.1484918,-0.09331802,0.1098967,-0.4967184,1.469641,0.7184812,0.7283634,1.313215,0.346005,-0.04290331,0.02097917,-0.1515024,-1.170548,0.2021514,-0.02257002,0.8256517,1.34765,0.2103443,0.3079722,1.158558,0.2460552,275.9482,149.9895,93.3371,True
3,2.222224,-0.3635425,0.03103757,0.02958073,-1.392004,-4.540541,-2.370259,0.5698611,1.146755,0.392307,-1.276256,0.7257618,1.9,39.9,-0.158058,-0.09009391,0.1110853,-0.4962598,1.466804,0.7230485,0.7285608,1.313229,0.3459785,-0.05037285,0.02528403,-0.1535831,-1.172601,0.2029245,-0.02200064,0.8260468,1.347481,0.2103448,0.3070236,1.158097,0.2462471,275.7896,152.12,91.32552,True
3,2.233335,-0.3507538,0.02674409,0.02322064,-1.392135,-4.54062,-2.366782,0.5696486,1.147251,0.3921764,-1.268143,0.7302546,1.9,39.9,-0.1602152,-0.09540396,0.1099918,-0.4962023,1.46321,0.7280632,0.7288438,1.313267,0.3460035,-0.0503841,0.02847827,-0.1557162,-1.174412,0.2033374,-0.02159957,0.8264686,1.347274,0.2104158,0.306082,1.157641,0.2464803,275.6644,154.2499,89.32298,True
3,2.244446,-0.3401012,0.02674153,0.02108179,-1.392388,-4.540712,-2.363297,0.5694703,1.14781,0.3919935,-1.260362,0.6999308,1.9,39.9,-0.1568792,-0.08806559,0.1217458,-0.4953799,1.459542,0.7328953,0.729134,1.313235,0.3460214,-0.05468301,0.02955884,-0.1588877,-1.176528,0.2037852,-0.02088344,0.826804,1.347008,0.2105863,0.3051659,1.157199,0.2466984,275.5515,156.5039,87.219,True
3,2.255557,-0.3347831,0.03098429,0.01784467,-1.392759,-4.54104,-2.35965,0.5693296,1.148257,0.3918643,-1.25281,0.6793023,2.3,45.3,-0.1547231,-0.07634583,0.1207659,-0.4947434,1.457046,0.7367286,0.7294275,1.313206,0.3460212,-0.05572135,0.03169244,-0.1567503,-1.178228,0.2041597,-0.02038357,0.8272251,1.346808,0.210669,0.3042794,1.156757,0.2468246,275.4658,158.6855,85.18452,True
3,2.266668,-0.3316008,0.03731407,0.01140597,-1.393157,-4.541394,-2.356012,0.5691507,1.148712,0.3917761,-1.24484,0.7175154,2.3,45.3,-0.152629,-0.07418154,0.1165035,-0.4943993,1.45424,0.7408057,0.7297273,1.313235,0.3460627,-0.0546636,0.03064859,-0.1567876,-1.180376,0.2047694,-0.01998383,0.827783,1.346758,0.2106543,0.3034887,1.156276,0.2468624,275.4097,161.0045,82.94019,True
3,2.277779,-0.3177581,0.03945686,0.009242624,-1.39346,-4.541838,-2.352859,0.5689841,1.149167,0.3917191,-1.236693,0.7333796,2.3,45.3,-0.146248,-0.07419299,0.1153699,-0.4941112,1.451189,0.7448915,0.7300134,1.313261,0.3461277,-0.05248866,0.02852562,-0.150428,-1.182036,0.2051414,-0.01949248,0.8281534,1.346522,0.2108498,0.3027735,1.155753,0.2468216,275.3667,163.4916,80.47621,True
3,2.28889,-0.3060254,0.03201154,0.009308577,-1.393654,-4.541682,-2.349932,0.5688114,1.149596,0.3917615,-1.228799,0.7103721,2.3,45.3,-0.1355905,-0.07315893,0.115273,-0.4936915,1.448215,0.7486236,0.7302971,1.313209,0.3462071,-0.05136362,0.0210721,-0.1419102,-1.183308,0.2050835,-0.01893028,0.8285667,1.346363,0.2109213,0.3021042,1.155191,0.2467414,275.3398,165.9791,77.97038,True
3,2.300001,-0.2910934,0.0224092,0.001914129,-1.393431,-4.542102,-2.347161,0.5686535,1.150024,0.3918605,-1.221518,0.6545978,2.3,45.3,-0.1303025,-0.0763329,0.1119894,-0.4935066,1.44534,0.7523904,0.7306072,1.313293,0.3463178,-0.04387473,0.01680465,-0.1377216,-1.184803,0.2053139,-0.01880831,0.8288858,1.346343,0.2110364,0.3014284,1.154609,0.2466622,275.3296,168.5591,75.35417,True
3,2.311112,-0.2825632,0.01386377,-0.002277575,-1.393243,-4.542116,-2.344212,0.5685512,1.150507,0.3918664,-1.213989,0.6778206,2.1,40.8,-0.1260318,-0.08383192,0.1150723,-0.4933208,1.441512,0.757003,0.7309393,1.31329,0.3463733,-0.04380575,0.02000536,-0.1313326,-1.186044,0.2056367,-0.01843786,0.8293005,1.346197,0.2111068,0.300761,1.153997,0.2466376,275.3351,171.0647,72.81506,True
3,2.322223,-0.2750938,0.008530266,-0.007575402,-1.393015,-4.542639,-2.341371,0.5684655,1.150914,0.3918424,-1.206613,0.6635912,2.1,40.8,-0.1250384,-0.0933915,0.1107037,-0.4936105,1.437768,0.7616358,0.7313751,1.313393,0.3463302,-0.05021232,0.01898642,-0.1312967,-1.187879,0.2062043,-0.01773053,0.8298681,1.34603,0.2112646,0.3001201,1.153326,0.2466944,275.3535,173.5203,70.33799,True
3,2.333334,-0.266567,0.00421152,-0.01606429,-1.392601,-4.542908,-2.338661,0.5683696,1.151351,0.3918707,-1.198817,0.7021629,2.1,40.8,-0.127153,-0.08805909,0.1107749,-0.4932733,1.43479,0.7657416,0.7316948,1.313409,0.3463819,-0.0512232,0.01686355,-0.1248936,-1.189037,0.2063042,-0.01718405,0.8302846,1.345862,0.2113557,0.2994814,1.152583,0.2468596,275.3988,176.0959,67.76672,True
3,2.344445,-0.2548382,-0.001149269,-0.02563414,-1.391987,-4.543683,-2.336128,0.5682698,1.151736,0.391983,-1.191487,0.65922,2.1,40.8,-0.1217341,-0.0742791,0.1161766,-0.4924707,1.432099,0.769294,0.7320367,1.313424,0.3463879,-0.05434145,0.01795369,-0.1163544,-1.190218,0.2066502,-0.01653424,0.8306133,1.345582,0.2114246,0.2988324,1.151791,0.2471104,275.4465,179.0847,64.84348,True
3,2.355556,-0.2441814,-0.007518725,-0.0277221,-1.391577,-4.544021,-2.333586,0.5681695,1.15224,0.3921196,-1.184162,0.6592526,2,40.7,-0.1132302,-0.05825915,0.1098509,-0.4917586,1.430558,0.7716435,0.7323482,1.313437,0.3464465,-0.05534353,0.01902667,-0.1099537,-1.191214,0.2068979,-0.01598056,0.8310293,1.345409,0.2115116,0.2981667,1.150967,0.2474249,275.5111,182.063,61.96091,True
3,2.366668,-0.2388319,-0.01709821,-0.02978215,-1.390949,-4.544212,-2.331188,0.5681263,1.152731,0.3922162,-1.177044,0.640294,2,40.7,-0.1025707,-0.04868641,0.1076974,-0.4912041,1.428565,0.7741817,0.7326498,1.313461,0.3465385,-0.05428549,0.01690785,-0.1099836,-1.192769,0.2072255,-0.01556431,0.8315734,1.345278,0.2116532,0.2974961,1.150117,0.2477861,275.6033,184.8714,59.23937,True
3,2.377779,-0.2270937,-0.03631888,-0.04029328,-1.389571,-4.54447,-2.328858,0.5680993,1.153131,0.3922837,-1.169629,0.6676371,2,40.7,-0.09934675,-0.05724913,0.1118481,-0.4907908,1.425276,0.7779717,0.733001,1.313503,0.3466823,-0.05323121,0.006251704,-0.1078552,-1.19391,0.2068598,-0.01483913,0.8320286,1.345119,0.2117152,0.2968203,1.149242,0.2482106,275.7188,187.536,56.63479,True
3,2.38889,-0.223873,-0.0480606,-0.04659747,-1.388449,-4.544723,-2.326541,0.5680878,1.153582,0.3923717,-1.162418,0.6488566,2,40.7,-0.1036482,-0.06360824,0.1097009,-0.4906192,1.422172,0.7820135,0.733361,1.313521,0.3467526,-0.0521149,0.0009298567,-0.1014747,-1.194878,0.2066997,-0.01432062,0.8323101,1.345093,0.2117374,0.2961517,1.148364,0.2486878,275.8377,190.4805,53.77224,True
3,2.400001,-0.2206854,-0.04704444,-0.05728418,-1.387404,-4.545382,-2.324004,0.5679658,1.153991,0.3923368,-1.155226,0.6472244,2,40.7,-0.1036885,-0.06357116,0.1054398,-0.4903859,1.419512,0.7854748,0.7336928,1.31353,0.3467469,-0.05742562,0.0116067,-0.1014345,-1.196085,0.2073593,-0.01357147,0.832601,1.344945,0.2118306,0.2955383,1.147484,0.2491778,275.9739,193.0896,51.29165,True
3,2.411112,-0.2196319,-0.03964914,-0.06264981,-1.3868,-4.54582,-2.321499,0.5679279,1.154346,0.3923895,-1.147995,0.650868,1.7,53.9,-0.1058543,-0.06245761,0.1012127,-0.4901005,1.417116,0.7888358,0.734015,1.313452,0.3467753,-0.05622885,0.02652487,-0.09186864,-1.196808,0.2082145,-0.01328944,0.8330191,1.344795,0.2118955,0.294993,1.146576,0.2496383,276.1391,195.1445,49.36304,True
3,2.422223,-0.2185792,-0.03215365,-0.06486931,-1.386298,-4.547127,-2.318843,0.5680116,1.154628,0.392611,-1.14063,0.6630334,1.7,53.9,-0.09307064,-0.0496777,0.09694275,-0.4896083,1.415345,0.7909011,0.7344285,1.313451,0.3467674,-0.04446329,0.02011986,-0.08453701,-1.197821,0.2083765,-0.01315548,0.8336259,1.344716,0.2118936,0.2944572,1.145653,0.2500399,276.3078,197.1512,47.4505,True
3,2.433334,-0.2101018,-0.006538799,-0.0629697,-1.386368,-4.548428,-2.316433,0.5680971,1.154938,0.3927281,-1.133424,0.6483636,1.7,53.9,-0.08671162,-0.03898372,0.09058686,-0.4890874,1.414046,0.7927972,0.7347839,1.313483,0.3468201,-0.03913765,0.01264956,-0.08245106,-1.198664,0.2082603,-0.01285641,0.8341045,1.344614,0.2119389,0.293855,1.144733,0.2503701,276.4769,199.1425,45.52878,True
3,2.444445,-0.206925,0.005181856,-0.06306096,-1.386254,-4.549167,-2.314075,0.5681309,1.15538,0.392745,-1.126284,0.6426042,1.7,53.9,-0.07717295,-0.0400405,0.0862271,-0.4888451,1.411812,0.7953685,0.7352549,1.313416,0.3468802,-0.04020985,0.008409515,-0.0813861,-1.199768,0.2084873,-0.01240128,0.8346061,1.344488,0.2121167,0.2932898,1.143802,0.2506811,276.6472,201.0659,43.62804,True
3,2.455556,-0.1941661,0.02117981,-0.06319901,-1.386308,-4.550192,-2.312115,0.5682613,1.155816,0.3928828,-1.119398,0.6193841,1.5,53.5,-0.06324969,-0.02946531,0.09045392,-0.4879087,1.409969,0.7972292,0.7356948,1.313472,0.3469357,-0.04555761,0.003097752,-0.08239798,-1.200732,0.2083476,-0.01170246,0.8350626,1.344458,0.2122476,0.2928,1.142861,0.2510695,276.8251,202.897,41.78301,True
3,2.466667,-0.1888348,0.02014634,-0.05998862,-1.386103,-4.55062,-2.310149,0.5682787,1.156265,0.3929827,-1.112245,0.6440924,1.5,53.5,-0.06730653,-0.0296468,0.1107315,-0.4869004,1.406615,0.8010655,0.7360955,1.313543,0.3469808,-0.04772019,0.003110074,-0.08558039,-1.201877,0.2084912,-0.01110139,0.835474,1.344447,0.2123055,0.2923249,1.141943,0.2515613,276.9849,204.9885,39.7391,True
3,2.477778,-0.1834951,0.01051867,-0.06523988,-1.385241,-4.551152,-2.308195,0.5683944,1.156706,0.3930588,-1.105558,0.6011299,1.5,53.5,-0.06296931,-0.04149338,0.1222991,-0.4863816,1.402505,0.8053815,0.7365459,1.313606,0.3470786,-0.0402588,0.002024343,-0.08458382,-1.202773,0.208454,-0.01086596,0.8359258,1.34437,0.212384,0.291842,1.141072,0.2521096,277.1578,207.1819,37.66574,True
3,2.488889,-0.1738517,-0.03003246,-0.07447767,-1.383255,-4.550701,-2.306607,0.5684265,1.157264,0.3932118,-1.098352,0.6490365,1.5,53.5,-0.07047916,-0.0521043,0.1201442,-0.4862005,1.399169,0.8093554,0.7370263,1.313657,0.3471653,-0.03384265,0.002017234,-0.08144698,-1.203543,0.2085933,-0.01070617,0.8361175,1.344174,0.2125075,0.2913991,1.140235,0.2527049,277.326,209.0978,35.87833,True
3,2.5,-0.1609851,-0.08768015,-0.089966,-1.380073,-4.549709,-2.305394,0.5685022,1.157781,0.3934157,-1.091234,0.6404725,1.5,53.5,-0.05030715,-0.07666562,0.1197109,-0.4866069,1.394614,0.8131661,0.737462,1.313674,0.3473155,-0.03387639,-0.002231181,-0.08358653,-1.204721,0.2086078,-0.01025796,0.836604,1.344147,0.2125759,0.290966,1.139411,0.2532932,277.4892,210.6985,34.4195,True
3,2.511111,-0.1737809,-0.08138085,-0.09853854,-1.378636,-4.550273,-2.302978,0.5687146,1.158111,0.3935685,-1.084299,0.6238841,1.4,44,-0.04925382,-0.07345299,0.1175997,-0.4862911,1.39163,0.8163092,0.7379427,1.31369,0.3473718,-0.03071488,-0.000112542,-0.08787923,-1.205843,0.2086635,-0.01004704,0.8370582,1.344083,0.212647,0.2905882,1.138555,0.2538402,277.6871,211.8748,33.37778,True
3,2.522222,-0.1983012,-0.071855,-0.1007372,-1.377655,-4.550826,-2.299778,0.5689985,1.158525,0.3937733,-1.077341,0.6259424,1.4,44,-0.0471397,-0.0713132,0.1154702,-0.4859443,1.38863,0.8194797,0.7384255,1.313589,0.3473744,-0.02536596,-0.0001139753,-0.0847498,-1.206898,0.2088111,-0.009895774,0.8375523,1.344031,0.212671,0.2902946,1.137614,0.2542983,277.938,212.5413,32.81221,True
3,2.533333,-0.2431126,-0.02609717,-0.09791761,-1.377859,-4.552381,-2.295358,0.5692756,1.158785,0.3940146,-1.069108,0.7424588,1.4,44,-0.04294193,-0.05417687,0.1038737,-0.4854751,1.387097,0.8211409,0.7388666,1.313557,0.3474863,-0.01355206,0.001990833,-0.07527445,-1.207431,0.2089025,-0.01019778,0.8379456,1.343982,0.2127554,0.2901188,1.136513,0.2546556,278.2134,212.9317,32.45302,True
3,2.544444,-0.2548459,-0.01545019,-0.09587444,-1.377263,-4.553191,-2.292076,0.5696574,1.159199,0.3941886,-1.060847,0.7440247,1.4,44,-0.03981984,-0.04984865,0.09535912,-0.4852716,1.385216,0.8231562,0.7394426,1.313537,0.3475692,-0.003874153,0.004093887,-0.06684268,-1.207876,0.2088897,-0.01053067,0.8383303,1.343955,0.2128947,0.2899665,1.135289,0.254976,278.4916,214.0944,31.2537,True
3,2.555555,-0.2633755,-0.009048887,-0.0927326,-1.376644,-4.553919,-2.288767,0.5699674,1.159698,0.3944068,-1.053377,0.6732053,1.4,44,-0.02509858,-0.05825261,0.07808954,-0.4857116,1.383253,0.8246276,0.7400119,1.313504,0.3477149,-0.004880372,0.004102098,-0.06044038,-1.208331,0.2089604,-0.01042228,0.83875,1.343882,0.2129903,0.2897795,1.134093,0.2553182,278.8269,215.895,29.40661,False
3,2.566666,-0.2622857,-0.03262301,-0.1085034,-1.374701,-4.554348,-2.285702,0.5702801,1.160182,0.3945575,-1.048871,0.4034538,1.1,45,-0.01130491,-0.06571934,0.0746844,-0.4859614,1.380674,0.8265659,0.7405598,1.313433,0.3478465,-0.0006580688,0.0040918,-0.06474972,-1.209338,0.2090733,-0.01059272,0.8390969,1.343783,0.2130885,0.2895249,1.133153,0.2557338,279.1829,217.8683,27.43548,False
3,2.577777,-0.2601202,-0.05614889,-0.1189595,-1.372479,-4.554684,-2.282836,0.570653,1.160693,0.3947487,-1.04431,0.4111079,1.1,45,-0.004943095,-0.06784298,0.0724718,-0.4859545,1.378366,0.828495,0.741112,1.313365,0.3479602,0.001430478,0.003016217,-0.06903119,-1.210283,0.2090334,-0.01067635,0.8395281,1.343713,0.2132032,0.2893535,1.132612,0.2562235,279.4951,219.1937,26.1919,False
3,2.588888,-0.2738965,-0.1086284,-0.1494038,-1.368584,-4.55479,-2.279296,0.5710635,1.161268,0.3949401,-1.040482,0.3443237,1.1,45,0.01840708,-0.08919889,0.06990433,-0.4867763,1.374766,0.8307156,0.7416228,1.313303,0.3480556,0.01307523,-0.006612362,-0.0744629,-1.211331,0.2085335,-0.01105984,0.8398113,1.343612,0.2132678,0.2892751,1.132541,0.2567427,279.6954,219.723,25.78028,False
3,2.599999,-0.2802615,-0.129103,-0.1737337,-1.365208,-4.555395,-2.275893,0.5715028,1.161775,0.3950772,-1.037215,0.2938836,1.1,45,0.01527357,-0.08178008,0.07426287,-0.4866884,1.372286,0.8329183,0.7421776,1.313293,0.3481183,0.01735411,-0.007690124,-0.07237327,-1.212074,0.20837,-0.01134294,0.840202,1.343528,0.2133381,0.2893279,1.132903,0.2572401,279.7747,219.2629,26.36399,False
3,2.61111,-0.2812859,-0.1580111,-0.1905338,-1.361411,-4.555681,-2.272686,0.5719151,1.162348,0.395328,-1.033541,0.3317559,1.5,41.9,0.02805127,-0.0871532,0.07514928,-0.4869473,1.369265,0.834861,0.7427769,1.313251,0.3482311,0.02815586,-0.03219593,-0.04902958,-1.211911,0.2071823,-0.01156877,0.84048,1.343444,0.2132878,0.28954,1.133601,0.2576885,279.7643,218.0616,27.65903,False
3,2.622221,-0.2812516,-0.1815203,-0.1988401,-1.357979,-4.555616,-2.269614,0.5721543,1.162914,0.3957012,-1.031173,0.2122797,1.5,41.9,0.04091164,-0.08833099,0.08353233,-0.4868573,1.366064,0.8368792,0.7432699,1.313083,0.3482859,0.0281959,-0.05668793,-0.03729388,-1.211949,0.2057263,-0.01130033,0.8408726,1.343313,0.2133119,0.2898611,1.134539,0.258053,279.7512,216.2761,29.50313,False
3,2.633332,-0.2758811,-0.2092419,-0.201807,-1.353868,-4.555314,-2.266772,0.5725744,1.163489,0.3960998,-1.02918,0.1794111,1.5,41.9,0.05060275,-0.08845367,0.09408224,-0.4866581,1.362677,0.8390846,0.7439328,1.313093,0.3484004,0.02921443,-0.06628008,-0.03942728,-1.212439,0.204595,-0.01126091,0.8412776,1.343167,0.213289,0.2902333,1.135639,0.2583423,279.7161,214.3556,31.43386,False
3,2.644443,-0.2779599,-0.2369243,-0.1983763,-1.349819,-4.554589,-2.26388,0.5729647,1.164078,0.3965282,-1.027394,0.1607053,1.5,41.9,0.06446186,-0.09277874,0.09603559,-0.4867912,1.359105,0.8410537,0.7445824,1.313015,0.3484976,0.03969627,-0.08336934,-0.0522978,-1.213472,0.2029726,-0.01146784,0.8416901,1.342988,0.2132525,0.2906067,1.136808,0.2585802,279.6881,212.35,33.39816,False
3,2.655554,-0.2768326,-0.2741005,-0.1852748,-1.34553,-4.553061,-2.261196,0.5733887,1.164664,0.3970425,-1.025963,0.1286035,1.5,41.9,0.07305342,-0.08752787,0.1013249,-0.4865462,1.355874,0.8428263,0.745294,1.312969,0.3486021,0.04064455,-0.09296688,-0.06188789,-1.214471,0.2014827,-0.01142816,0.8421398,1.342849,0.213208,0.290944,1.137963,0.2587925,279.6725,210.3936,35.29212,False
3,2.666665,-0.2554318,-0.3336675,-0.1783842,-1.340189,-4.550868,-2.259494,0.5739062,1.165463,0.3976121,-1.02444,0.1372928,1.4,47.2,0.09138074,-0.08244717,0.1214296,-0.4857957,1.351601,0.8450636,0.7460545,1.312941,0.3487325,0.04161911,-0.1174733,-0.06400648,-1.215157,0.1992966,-0.01106916,0.8425902,1.34271,0.2131073,0.2913581,1.139006,0.2590135,279.7081,208.4694,37.16932,False
3,2.677776,-0.2532363,-0.3752113,-0.178032,-1.334685,-4.548869,-2.257238,0.5743703,1.166213,0.3981218,-1.02325,0.1069685,1.4,47.2,0.11284,-0.07945198,0.1361558,-0.4851502,1.347424,0.846881,0.7468008,1.312991,0.3488157,0.04377505,-0.1259965,-0.05869286,-1.215582,0.1975543,-0.01099992,0.8430576,1.342569,0.2130246,0.2918493,1.139903,0.2592298,279.7933,206.8273,38.77261,False
3,2.688887,-0.2552333,-0.4539986,-0.1709674,-1.327723,-4.545054,-2.255275,0.5748446,1.16727,0.3986471,-1.023022,0.01938487,1.4,47.2,0.1182594,-0.0806227,0.145679,-0.48456,1.342965,0.8493271,0.7475752,1.312989,0.348922,0.04688668,-0.1483762,-0.06083543,-1.216278,0.1950374,-0.01074239,0.8432868,1.342285,0.2129447,0.2924688,1.140642,0.2594075,279.9452,205.4818,40.07968,False
3,2.699998,-0.2455286,-0.528605,-0.1767263,-1.319918,-4.541277,-2.253789,0.575305,1.168375,0.3992853,-1.021652,0.1245849,1.4,47.2,0.12171,-0.09261853,0.1742983,-0.4836716,1.336046,0.8540187,0.7485794,1.313104,0.3491116,0.04891938,-0.1633008,-0.06723552,-1.217223,0.1925818,-0.01054479,0.8437345,1.342233,0.2129283,0.2932386,1.141225,0.2595068,280.1796,204.1513,41.34634,False
3,2.711109,-0.2335818,-0.6779674,-0.204224,-1.307952,-4.535424,-2.253119,0.5757501,1.169739,0.4000688,-1.020636,0.09133057,1.9,44.4,0.1486049,-0.1164403,0.2068292,-0.4830473,1.327408,0.8590407,0.7496892,1.313134,0.3492587,0.05628215,-0.2027096,-0.06411336,-1.218268,0.1891031,-0.009984723,0.8441306,1.342154,0.2127233,0.2940473,1.141701,0.2594824,280.4812,203.0208,42.38442,False
3,2.72222,-0.2215246,-0.8902563,-0.2375852,-1.292133,-4.527094,-2.253273,0.5760452,1.171202,0.4007816,-1.02039,0.02135779,1.9,44.4,0.1572305,-0.1304528,0.2215272,-0.4825973,1.320058,0.8636062,0.7508007,1.313061,0.349396,0.06260871,-0.2080598,-0.06949669,-1.219205,0.1864392,-0.009984457,0.8445953,1.342033,0.2126107,0.2949272,1.142143,0.2592651,280.8862,201.9399,43.3386,False
3,2.733331,-0.1443814,-1.171659,-0.270381,-1.271978,-4.515401,-2.257571,0.5760159,1.173137,0.4015503,-1.020085,0.0274462,1.9,44.4,0.1732858,-0.1444571,0.2329537,-0.4822804,1.312206,0.8680552,0.7519661,1.31309,0.3495111,0.07319004,-0.2400362,-0.06640838,-1.220242,0.1826159,-0.009720804,0.8450917,1.341881,0.2124314,0.2959319,1.142579,0.2588552,281.3848,200.3485,44.71801,False
3,2.744442,-0.1099594,-1.382751,-0.2941716,-1.252274,-4.503743,-2.261022,0.5763908,1.174775,0.4023225,-1.019631,0.04087204,1.9,44.4,0.1980053,-0.1361879,0.251958,-0.4810244,1.304915,0.8715442,0.7532324,1.31322,0.3497512,0.08167544,-0.2592013,-0.06332348,-1.221397,0.1793889,-0.009613212,0.8457977,1.341796,0.2122393,0.2971621,1.142935,0.2582353,282.0575,197.8364,46.96289,False
3,2.755553,-0.2587199,-1.630618,-0.3495537,-1.227513,-4.490566,-2.256969,0.5765622,1.177092,0.4030833,-1.02208,-0.2245797,1.9,44.4,0.2257297,-0.1298825,0.2528079,-0.4800619,1.298482,0.8738835,0.7545321,1.313248,0.3498688,0.09222483,-0.291194,-0.06446528,-1.222128,0.1748152,-0.009357816,0.8464044,1.341647,0.2120354,0.2986009,1.143095,0.2572882,282.9332,194.8283,49.65521,False
3,2.766664,-0.2709336,-1.984874,-0.4125904,-1.197312,-4.473026,-2.259562,0.57638,1.179819,0.4037368,-1.02067,0.1303328,1.9,32,0.2449975,-0.1471131,0.266297,-0.4796795,1.289854,0.878122,0.7557856,1.313345,0.3500001,0.09534077,-0.3125096,-0.06661671,-1.22302,0.1704289,-0.009009208,0.8468043,1.341443,0.2118633,0.3003443,1.142821,0.2559491,283.967,191.6247,52.39986,False
3,2.777775,-0.2660469,-2.382789,-0.4773951,-1.161769,-4.451541,-2.265194,0.5760328,1.182918,0.4043126,-1.011894,0.8006365,1.9,32,0.2622749,-0.1730132,0.2967787,-0.4790164,1.278484,0.8847226,0.7572291,1.313401,0.3501246,0.1123296,-0.3349282,-0.06569542,-1.223662,0.1656619,-0.009177253,0.8474082,1.341266,0.2115874,0.3023753,1.141956,0.2542571,285.1266,189.1884,54.2043,False
3,2.788886,-0.2720391,-2.636668,-0.5146523,-1.128103,-4.430461,-2.270608,0.5758247,1.185789,0.4047551,-1.015805,-0.3641084,1.9,32,0.2632357,-0.208173,0.296435,-0.4797376,1.268251,0.890829,0.75863,1.313505,0.3501625,0.1293919,-0.3542053,-0.06045722,-1.223435,0.1599275,-0.009518137,0.8474571,1.3411,0.211385,0.3042746,1.140872,0.2520213,286.8063,188,54.67501,False
3,2.799997,-0.3075771,-3.071061,-0.6015128,-1.084969,-4.403439,-2.27793,0.5755573,1.189244,0.4047856,-1.017432,-0.1448866,1.9,32,0.262289,-0.2264434,0.31332,-0.4796833,1.257202,0.897754,0.7600002,1.31366,0.3502374,0.1294473,-0.3563323,-0.05406395,-1.223785,0.1556212,-0.009484848,0.8479873,1.340982,0.2112198,0.3063596,1.139745,0.2492171,288.835,186.137,55.71246,False
3,2.811108,-0.1825456,-3.321609,-0.6484357,-1.045147,-4.376898,-2.29238,0.5745889,1.193043,0.4044514,-1.016724,0.06545179,1.7,18.6,0.2507911,-0.2031144,0.3285703,-0.4782537,1.24802,0.9034761,0.7613302,1.313759,0.3503394,0.1167895,-0.359514,-0.04219697,-1.223503,0.1507485,-0.008981511,0.8485565,1.340975,0.2111139,0.3088749,1.138437,0.2459068,290.9667,183.7043,57.09132,False
3,2.822219,0.05217683,-3.531313,-0.6733891,-1.006023,-4.347557,-2.31616,0.5739844,1.196496,0.4039731,-1.015086,0.1489519,1.7,18.6,0.2466873,-0.180814,0.3373361,-0.4768033,1.23958,0.9082984,0.7626133,1.313839,0.3505437,0.1063148,-0.3552269,-0.02610377,-1.223032,0.1464286,-0.00852105,0.8492529,1.340767,0.2110231,0.3118221,1.136865,0.2422172,293.0779,181.2709,58.31896,False
3,2.83333,0.1215746,-3.632698,-0.7077091,-0.9679589,-4.319271,-2.335839,0.5739805,1.199882,0.4036913,-1.021153,-0.555522,1.7,18.6,0.2125539,-0.1635818,0.3282526,-0.4756864,1.232388,0.9135825,0.7637185,1.314025,0.3506091,0.09152742,-0.3423946,-0.01638592,-1.222827,0.1428597,-0.007803595,0.8498386,1.340601,0.2109494,0.3150706,1.134932,0.2380761,295.5775,178.9719,59.29249,False
3,2.844441,-0.3176795,-3.438594,-0.7230185,-0.9391957,-4.302354,-2.32586,0.5739872,1.202712,0.403224,-1.028156,-0.6350992,1.7,18.6,0.1764106,-0.1635493,0.3360735,-0.474807,1.22284,0.9213813,0.7647891,1.314213,0.3507257,0.07550582,-0.3221318,-0.02795687,-1.22342,0.1395847,-0.007154848,0.8505595,1.34037,0.2109189,0.3184068,1.13258,0.2337024,297.9895,176.8172,59.83718,False
3,2.855552,-0.5297343,-3.395126,-0.7073566,-0.907837,-4.278534,-2.326713,0.5740176,1.205484,0.4024055,-1.023257,0.4516621,1.7,18.6,0.09576832,-0.08992359,0.347162,-0.4712091,1.217018,0.9281517,0.7656505,1.314498,0.3506889,0.03935055,-0.3028553,-0.02656508,-1.223697,0.1367251,-0.005295696,0.8511608,1.340178,0.2109649,0.3221982,1.129301,0.2298226,300.1852,174.615,60.26767,False
3,2.866663,-0.5641574,-3.222976,-0.6255623,-0.8827308,-4.255519,-2.334131,0.5737873,1.207774,0.4020302,-0.9985336,2.25531,1.3,13.5,0.04067822,-0.009930462,0.3548612,-0.4666583,1.213021,0.9331812,0.7663504,1.314829,0.350739,0.0001052618,-0.2697253,-0.01768093,-1.223305,0.1345847,-0.003198989,0.8517112,1.339866,0.2109292,0.3258837,1.125044,0.2267597,302.3382,173.4264,59.60484,False
3,2.877774,-0.5793701,-3.036121,-0.5727823,-0.8596972,-4.234998,-2.340685,0.5735363,1.210032,0.4010682,-1.00331,-0.4544277,1.3,13.5,0.01425898,0.05404097,0.3578597,-0.4619743,1.209382,0.9372092,0.767065,1.315092,0.3507366,-0.04356335,-0.2270021,-0.02902266,-1.224081,0.1334269,-0.0008807073,0.8523176,1.339571,0.210989,0.3281218,1.121223,0.2238151,304.5677,174.4891,57.17949,False
3,2.888885,-0.600068,-2.770391,-0.5142905,-0.841479,-4.218427,-2.344181,0.5731544,1.212573,0.3993258,-1.012064,-0.794084,1.3,13.5,-0.03666134,0.1853831,0.3415051,-0.4549329,1.211473,0.9372147,0.7676364,1.315252,0.3507679,-0.08194186,-0.1885705,-0.04359474,-1.224948,0.132365,0.001601625,0.8528467,1.339415,0.2110779,0.3298886,1.118869,0.2208495,306.8484,175.0674,55.78168,False
3,2.899997,-0.6036144,-2.539894,-0.4683401,-0.8238691,-4.202625,-2.348067,0.5731038,1.214458,0.3979723,-1.013985,-0.1689487,1.3,13.5,-0.06241285,0.2080692,0.3164084,-0.4511022,1.210092,0.9398567,0.7683643,1.315288,0.3508902,-0.09041084,-0.1619164,-0.04566682,-1.225519,0.1313588,0.003192065,0.8534436,1.339187,0.2111917,0.3318137,1.118092,0.2179594,308.4352,174.3873,55.7506,False
3,2.911108,-0.6664204,-1.919148,-0.3701668,-0.82279,-4.203111,-2.337929,0.5733025,1.215591,0.3961422,-1.013683,0.02892115,1.3,13.5,-0.111981,0.1766936,0.2697353,-0.4494851,1.208698,0.9440286,0.7687634,1.315405,0.3509796,-0.1072676,-0.1096566,-0.04127607,-1.225638,0.1320367,0.004595284,0.853937,1.339071,0.2113705,0.3337494,1.118653,0.2149754,309.451,173.1259,56.39025,False
3,2.922219,-0.710697,-1.576987,-0.3399852,-0.8153262,-4.199166,-2.330992,0.5734703,1.216901,0.3945668,-1.014572,-0.08133682,0.7,14.2,-0.185257,0.1296152,0.2007861,-0.4496236,1.207943,0.9490551,0.7691789,1.31563,0.3511424,-0.126291,-0.08188003,-0.03365168,-1.225609,0.1322158,0.00649039,0.8545139,1.339098,0.2115815,0.3354594,1.120354,0.2116999,310.1548,171.6782,57.31713,False
3,2.93333,-0.8095877,-0.9810554,-0.2747457,-0.8217477,-4.209781,-2.311306,0.5738303,1.217116,0.3935351,-1.011907,0.244573,0.7,14.2,-0.2329688,0.10383,0.1253811,-0.4500162,1.210245,0.951165,0.7693486,1.315799,0.351321,-0.150537,-0.02960365,-0.02174538,-1.225422,0.1338103,0.008491755,0.8549958,1.338978,0.211926,0.337066,1.122862,0.2082937,310.5185,170.1359,58.3449,False
3,2.944441,-0.8956611,-0.4171168,-0.2134683,-0.8307512,-4.222003,-2.290127,0.5739202,1.217402,0.3922586,-1.012194,-0.0279583,0.7,14.2,-0.2598605,0.126583,0.09284599,-0.4480422,1.21282,0.9523608,0.7695471,1.315965,0.3513885,-0.1706052,0.03009865,-0.02158764,-1.225441,0.1360263,0.01018526,0.8551544,1.338733,0.2123306,0.3380942,1.126304,0.2046237,310.2733,169.0708,59.06309,False
3,2.955552,-0.9560835,0.1162739,-0.1189573,-0.8463153,-4.237385,-2.267179,0.573813,1.217534,0.391546,-1.009994,0.2017709,0.7,14.2,-0.2844824,0.1940647,0.06176634,-0.444636,1.21964,0.9502601,0.7696068,1.316031,0.3515027,-0.1642095,0.07055268,-0.03339909,-1.22619,0.1381846,0.01101723,0.8556303,1.338592,0.2127471,0.3388728,1.130458,0.201005,310.0649,167.704,60.16797,False
3,2.966663,-0.9993434,0.5828111,0.002760768,-0.8639135,-4.250303,-2.246351,0.5735112,1.217939,0.3904803,-1.009963,0.001803391,3.2,20,-0.289733,0.2484901,0.05381565,-0.4404591,1.224815,0.9488679,0.7697275,1.31618,0.3515065,-0.1452865,0.0864331,-0.06553745,-1.227738,0.1394056,0.01153415,0.8558586,1.338305,0.2131631,0.3391366,1.13549,0.1975426,309.3454,166.5412,61.10591,False
3,2.977774,-1.045534,0.8625462,0.08240229,-0.8809977,-4.262142,-2.225646,0.5731814,1.218369,0.3898096,-1.010932,-0.08787074,3.2,20,-0.2918912,0.2463858,0.05168678,-0.437992,1.227524,0.9497257,0.7699865,1.316242,0.3517032,-0.1327052,0.08531548,-0.08696201,-1.229398,0.1403174,0.01225374,0.8563281,1.338197,0.2135785,0.3388085,1.141493,0.1943259,308.3438,165.4492,62.16718,False
3,2.988885,-1.117274,1.13576,0.1503811,-0.899659,-4.27394,-2.203468,0.5725513,1.21916,0.3891227,-1.011982,-0.09461277,3.2,20,-0.2926089,0.1381054,0.01126365,-0.4403388,1.226686,0.9536496,0.7703859,1.31614,0.3519149,-0.1073812,0.07454935,-0.1095553,-1.231225,0.140435,0.01255787,0.8567926,1.337956,0.214036,0.3380419,1.148452,0.1915578,307.0528,164.3376,63.47356,False
3,2.999996,-1.186748,1.297802,0.1756313,-0.9163644,-4.285163,-2.181117,0.5720228,1.219817,0.3884487,-1.011894,0.009392468,3.2,20,-0.2864778,0.03578365,0.01449624,-0.4425455,1.222206,0.9606286,0.7706213,1.316185,0.3520691,-0.06266497,0.06908889,-0.1110292,-1.232244,0.1409252,0.01167823,0.8572325,1.337818,0.2144332,0.3370602,1.15613,0.1892332,305.655,163.0661,65.24564,False
3,3.011107,-1.260407,1.395523,0.1545765,-0.9323983,-4.297299,-2.157378,0.5713531,1.220831,0.3876753,-1.010744,0.1051637,3.2,20,-0.2548623,-0.1114028,0.0223803,-0.4474111,1.212763,0.9708985,0.7710679,1.31609,0.3524132,-0.02209511,0.0881507,-0.1071711,-1.233367,0.1425536,0.01007048,0.8577402,1.337804,0.2148745,0.3361146,1.16419,0.1873324,304.3282,161.545,67.34001,False
3,3.022218,-1.300966,1.436771,0.1254194,-0.9462877,-4.307991,-2.135195,0.5711849,1.221991,0.3870182,-1.01055,0.01726095,4.4,24.8,-0.2305155,-0.2021307,0.03300447,-0.4509824,1.205006,0.9796816,0.7712488,1.316133,0.352778,-0.01133378,0.1104692,-0.1019621,-1.234224,0.1443004,0.009389507,0.8581423,1.337605,0.2154651,0.3351526,1.172499,0.1856206,303.0557,159.948,69.48304,False
3,3.033329,-1.357534,1.491562,0.06530946,-0.961251,-4.321285,-2.110345,0.5706034,1.223597,0.3862345,-1.010236,0.02906812,4.4,24.8,-0.2557638,-0.2290594,0.07242461,-0.4527587,1.19669,0.9907621,0.7715232,1.316274,0.3531368,-0.005989294,0.1317568,-0.106292,-1.235519,0.1466539,0.008480304,0.8585416,1.337484,0.215996,0.3342766,1.180904,0.1839834,301.9561,158.1687,71.75346,False
3,3.04444,-1.402351,1.522953,0.006439805,-0.9754685,-4.333951,-2.086149,0.5702808,1.225161,0.3856149,-1.011421,-0.1082818,4.4,24.8,-0.2651523,-0.2495122,0.09788763,-0.4543667,1.189395,1.000642,0.7716547,1.31629,0.3534627,-0.00501829,0.1423621,-0.1190978,-1.237301,0.1481423,0.008153001,0.8589107,1.337353,0.2165413,0.3335334,1.189388,0.1823406,301.0356,156.3453,73.97564,False
3,3.055551,-1.448228,1.532756,-0.08100951,-0.9887129,-4.347318,-2.061236,0.5698832,1.226889,0.3850486,-1.010904,0.04877333,4.4,24.8,-0.304155,-0.2412381,0.1367122,-0.4549068,1.18107,1.012806,0.7717649,1.31661,0.3536975,0.001207307,0.1370044,-0.1351323,-1.239345,0.1495649,0.007452324,0.8593432,1.337258,0.2170393,0.3331332,1.197894,0.1807534,300.2819,154.4332,76.16647,False
3,3.066662,-1.494034,1.503109,-0.1744807,-1.000308,-4.361024,-2.03569,0.5693122,1.229196,0.3843584,-1.011562,-0.06032306,2.4,25.5,-0.3478635,-0.2014844,0.228084,-0.4527896,1.169592,1.02842,0.7717829,1.317003,0.3539264,-0.0214268,0.1316881,-0.1604978,-1.242209,0.150501,0.008259261,0.8596116,1.337129,0.2175784,0.3327596,1.206638,0.1791115,299.6075,152.4749,78.24369,False
3,3.077773,-1.513196,1.483511,-0.2190689,-1.012966,-4.372894,-2.012068,0.5688175,1.231133,0.3838999,-1.011744,-0.01561311,2.4,25.5,-0.3684256,-0.1540492,0.2884002,-0.4501499,1.159105,1.042676,0.7718574,1.317424,0.3541746,-0.02776141,0.1327539,-0.1551134,-1.243671,0.1517971,0.00828323,0.8598741,1.337047,0.2181821,0.3325381,1.215656,0.1776264,299.0319,150.2348,80.5633,False
3,3.088884,-1.53768,1.452015,-0.2837692,-1.024179,-4.385742,-1.987554,0.568212,1.233794,0.3833182,-1.011703,0.004103632,2.4,25.5,-0.3983848,-0.115308,0.3700359,-0.4466952,1.145785,1.060006,0.7718966,1.317775,0.3544838,-0.05009064,0.1477295,-0.1549149,-1.245316,0.1540438,0.008852348,0.8601761,1.336944,0.2188227,0.3323359,1.225014,0.1763559,298.6161,147.7968,83.08795,False
3,3.099995,-1.561111,1.439903,-0.3262933,-1.036792,-4.398167,-1.963123,0.5678079,1.236127,0.38304,-1.012985,-0.1170239,2.4,25.5,-0.4127617,-0.1275071,0.4254678,-0.4454499,1.130606,1.078535,0.7720364,1.318222,0.3548694,-0.06934689,0.1626431,-0.16754,-1.247745,0.1559205,0.009684052,0.8603833,1.336807,0.2194233,0.3320687,1.234785,0.175348,298.3279,145.2558,85.77835,False
3,3.111106,-1.59414,1.434258,-0.3571253,-1.049594,-4.410241,-1.938189,0.5672283,1.238807,0.3826649,-1.013063,-0.005552146,2.4,25.5,-0.4307002,-0.171411,0.4550662,-0.4456289,1.114446,1.098515,0.7720891,1.318722,0.3551884,-0.1077483,0.1840443,-0.1789137,-1.250153,0.1589102,0.01122602,0.8606329,1.336674,0.2200651,0.3318938,1.244828,0.1747398,298.0328,142.4763,88.80451,False
3,3.122217,-1.615458,1.42235,-0.3740666,-1.062686,-4.421333,-1.913817,0.5668496,1.241075,0.3824942,-1.01314,-0.007043754,1.2,24.1,-0.4637339,-0.202279,0.4625689,-0.4461849,1.099899,1.117746,0.7721454,1.319167,0.3555081,-0.1247733,0.1840866,-0.1776998,-1.252209,0.1609722,0.01231925,0.8609836,1.336607,0.220757,0.331722,1.255124,0.1744833,297.8449,139.7283,91.87288,False
3,3.133328,-1.654849,1.398633,-0.3994117,-1.074996,-4.432498,-1.888487,0.5661723,1.243743,0.3822708,-1.012717,0.0391495,1.2,24.1,-0.4839102,-0.2364621,0.4784276,-0.4471213,1.084067,1.138061,0.7720944,1.319591,0.3558407,-0.1376474,0.1766581,-0.1850287,-1.254508,0.1628275,0.01374697,0.8612112,1.336424,0.2213709,0.3316719,1.265577,0.174658,297.6735,136.9206,95.0481,False
3,3.144439,-1.685713,1.356871,-0.4171491,-1.08662,-4.442723,-1.863707,0.5656604,1.246176,0.3822317,-1.012993,-0.02533713,1.2,24.1,-0.4911439,-0.2216985,0.4956816,-0.4464273,1.069518,1.156719,0.7720487,1.319998,0.3560722,-0.150569,0.1841304,-0.2008922,-1.257245,0.1652044,0.01513288,0.8613063,1.336323,0.2220795,0.3316933,1.276196,0.1751527,297.5355,134.0797,98.33632,False
3,3.15555,-1.675033,1.339889,-0.4116784,-1.099236,-4.451999,-1.84108,0.5649127,1.248962,0.3819823,-1.01239,0.05578271,1.2,24.1,-0.4895267,-0.169876,0.5355734,-0.443623,1.053812,1.176359,0.7719543,1.320384,0.3563337,-0.1474065,0.1830535,-0.2041173,-1.259606,0.1673649,0.01601305,0.8614904,1.336127,0.2227361,0.3319313,1.286829,0.1759377,297.492,131.1013,101.8131,False
3,3.166661,-1.700614,1.343028,-0.4138367,-1.112658,-4.461411,-1.817251,0.5645112,1.251504,0.3820875,-1.012719,-0.03048844,0.8,21.5,-0.4785138,-0.1381888,0.5623997,-0.441158,1.037973,1.195641,0.7718692,1.320793,0.356539,-0.1410001,0.1904839,-0.2041746,-1.261675,0.1698209,0.01665541,0.8612851,1.335771,0.2233801,0.3322762,1.297498,0.1768209,297.5999,128.1924,105.2081,False
3,3.177772,-1.684701,1.371884,-0.4034393,-1.127381,-4.470172,-1.79525,0.564101,1.254138,0.3819468,-1.014727,-0.1829424,0.8,21.5,-0.4688681,-0.1382655,0.5676414,-0.4403356,1.022351,1.21463,0.7718524,1.321103,0.3567655,-0.1357641,0.180879,-0.210607,-1.264201,0.1716736,0.01751508,0.8613636,1.335487,0.2240372,0.3328583,1.308094,0.1777654,297.8033,125.339,108.5052,False
3,3.188883,-1.669811,1.391202,-0.389764,-1.142203,-4.478124,-1.773939,0.5635471,1.2568,0.381741,-1.013955,0.07241572,0.8,21.5,-0.46677,-0.1574784,0.5706272,-0.4405092,1.006518,1.234114,0.7718515,1.321494,0.357079,-0.1315539,0.1734073,-0.2138363,-1.266647,0.173494,0.01829379,0.86145,1.335266,0.2246549,0.3336267,1.318589,0.1786909,298.0504,122.4657,111.7223,False
3,3.199994,-1.650697,1.419005,-0.3782732,-1.157715,-4.485621,-1.753261,0.563092,1.259357,0.3814464,-1.015446,-0.1370462,0.8,21.5,-0.4604439,-0.2215154,0.5795498,-0.4428336,0.9880752,1.255368,0.7718652,1.321983,0.3572786,-0.1262142,0.1637724,-0.2096295,-1.268956,0.1746465,0.01913641,0.8615097,1.33499,0.2253203,0.3346823,1.328898,0.1797021,298.3114,119.7219,114.7319,False
3,3.211105,-1.633657,1.421115,-0.3836246,-1.172369,-4.493251,-1.732957,0.5624396,1.261962,0.3812218,-1.015961,-0.04570784,0.8,21.5,-0.4776941,-0.2693422,0.5728805,-0.4453988,0.9713544,1.276225,0.7718087,1.322241,0.3575306,-0.1134183,0.1648035,-0.2086867,-1.271192,0.1765991,0.0193761,0.8614957,1.334716,0.2259092,0.3359129,1.339098,0.1807636,298.6125,116.9901,117.7032,False
3,3.222216,-1.630442,1.390153,-0.3907961,-1.185867,-4.500636,-1.712092,0.5620539,1.264458,0.381088,-1.016348,-0.03508906,1.8,16.8,-0.4791918,-0.3383619,0.5498755,-0.4495363,0.9557188,1.295716,0.7717268,1.322438,0.3578212,-0.1081104,0.1732827,-0.2140739,-1.273703,0.1786747,0.01967224,0.8614023,1.334414,0.2266171,0.3372105,1.349188,0.1818552,298.9838,114.2706,120.6618,False
3,3.233327,-1.628226,1.33254,-0.400949,-1.197927,-4.507514,-1.69147,0.5613055,1.267151,0.380933,-1.016669,-0.02911463,1.8,16.8,-0.4942896,-0.3424194,0.5329433,-0.452013,0.9414618,1.314533,0.7714954,1.322654,0.3580501,-0.09858663,0.1870955,-0.2248305,-1.276523,0.1813822,0.01965706,0.861282,1.334114,0.2272427,0.3385415,1.359108,0.1830061,299.4423,111.6332,123.5325,False
3,3.244438,-1.605816,1.296457,-0.3867715,-1.210575,-4.513079,-1.672388,0.5608075,1.269889,0.3807247,-1.015896,0.07073092,1.8,16.8,-0.4844267,-0.3160346,0.5533109,-0.4528615,0.9250595,1.334323,0.7712522,1.322942,0.3582222,-0.09851693,0.1955824,-0.2195324,-1.278986,0.1834436,0.02025227,0.8611265,1.333935,0.2278349,0.3398611,1.36878,0.1842801,300.0213,109.2225,126.1622,False
3,3.255549,-1.584485,1.283818,-0.3738855,-1.223941,-4.518332,-1.653799,0.5602295,1.272584,0.3805454,-1.015765,0.01133819,1.8,16.8,-0.4431002,-0.2806984,0.5212667,-0.453556,0.9136052,1.348139,0.771019,1.323303,0.3584762,-0.09742713,0.1934518,-0.2163447,-1.281225,0.1856547,0.0206656,0.8610107,1.333742,0.2283673,0.3412054,1.37814,0.1857257,300.6461,107.1466,128.4892,False
3,3.26666,-1.546086,1.253221,-0.3459089,-1.236703,-4.52239,-1.636692,0.5598949,1.275093,0.3802722,-1.016743,-0.0894625,1.8,16.8,-0.4061384,-0.3146762,0.4982079,-0.457089,0.9008213,1.362823,0.7709271,1.323718,0.3587689,-0.08790799,0.1678402,-0.2153456,-1.283511,0.1865041,0.02116947,0.8606548,1.333812,0.2288113,0.3424886,1.387305,0.1872516,301.2462,105.312,130.6053,False
3,3.277771,-1.526886,1.235161,-0.343614,-1.249674,-4.527137,-1.618768,0.5594997,1.277472,0.3800406,-1.017105,-0.03229714,3.8,12.1,-0.3987447,-0.3360025,0.4979322,-0.4603689,0.8865715,1.379769,0.7707006,1.324122,0.3589709,-0.07070938,0.1528782,-0.1941878,-1.284969,0.1875792,0.02118465,0.8603854,1.333756,0.2292893,0.343825,1.396264,0.188848,301.7621,103.5285,132.6847,False
3,3.288882,-1.495949,1.206419,-0.3465728,-1.261976,-4.531822,-1.601678,0.5589266,1.279935,0.3798726,-1.017996,-0.08133946,3.8,12.1,-0.4256252,-0.3645406,0.4808898,-0.4645149,0.8737998,1.396983,0.7703087,1.324634,0.359098,-0.05562593,0.1517898,-0.1762199,-1.286331,0.1893259,0.02083631,0.8601426,1.333715,0.2297227,0.3452674,1.405013,0.1905068,302.2664,101.7435,134.7701,False
3,3.299993,-1.452234,1.173373,-0.3558788,-1.273974,-4.536611,-1.585401,0.558379,1.282468,0.3798904,-1.017256,0.06820434,3.8,12.1,-0.4437227,-0.3655679,0.4821322,-0.4676564,0.8602639,1.414619,0.769996,1.325146,0.3591661,-0.05852421,0.1592773,-0.1463564,-1.286795,0.1914174,0.02105895,0.8597566,1.333667,0.2302828,0.3469303,1.413416,0.1922137,302.8451,99.98927,136.8387,False
3,3.311104,-1.394643,1.130816,-0.3597955,-1.285211,-4.54103,-1.57036,0.5575891,1.285083,0.3798885,-1.01772,-0.04326603,3.8,12.1,-0.4905074,-0.3719364,0.4942431,-0.4711356,0.8462542,1.434314,0.7694874,1.325746,0.3591862,-0.08282797,0.201964,-0.1376428,-1.287982,0.1952092,0.02168852,0.859452,1.333695,0.2307553,0.3486924,1.421562,0.1939088,303.5106,98.40156,138.6696,False
3,3.322215,-1.355193,1.097805,-0.3637717,-1.296582,-4.545249,-1.555155,0.5569746,1.28767,0.3800507,-1.018354,-0.05773226,4.7,7.3,-0.5043092,-0.3388466,0.4904319,-0.473232,0.8334727,1.451764,0.7690849,1.326228,0.3589404,-0.09546816,0.2393568,-0.1343638,-1.28953,0.2003019,0.02164404,0.8596183,1.333874,0.2311909,0.3504355,1.429538,0.1956074,304.2437,96.99596,140.2197,False
3,3.333326,-1.27096,1.043396,-0.3878387,-1.306446,-4.550297,-1.542425,0.556047,1.290272,0.3802695,-1.019196,-0.07670403,4.7,7.3,-0.5373279,-0.3302102,0.4887153,-0.4759495,0.8210223,1.46991,0.7684569,1.326935,0.3588395,-0.1136333,0.2862608,-0.1534109,-1.291764,0.2053389,0.02212581,0.8593594,1.333873,0.231586,0.352077,1.43737,0.1974,305.0048,95.72968,141.5829,False
3,3.344437,-1.223011,1.017688,-0.4110489,-1.316887,-4.555229,-1.529286,0.5553325,1.29272,0.3803887,-1.018667,0.04872466,4.7,7.3,-0.5450967,-0.3608891,0.4671904,-0.4806153,0.8105502,1.485326,0.7679658,1.327483,0.3587041,-0.1491073,0.3172861,-0.1957123,-1.295273,0.2109342,0.02338389,0.859081,1.333723,0.2318876,0.3535267,1.445034,0.1993413,305.7657,94.53643,142.9001,False
3,3.355548,-1.151619,1.000563,-0.4333053,-1.327714,-4.560442,-1.517402,0.5544168,1.295185,0.3806314,-1.020831,-0.1986562,4.7,7.3,-0.5623593,-0.358498,0.4450134,-0.4842586,0.8009335,1.500709,0.7671541,1.32815,0.3584807,-0.1802545,0.3205414,-0.2231175,-1.298619,0.214852,0.02542946,0.8587786,1.333712,0.2322443,0.3547952,1.452472,0.2014965,306.4783,93.4749,144.1539,False
3,3.366659,-1.071703,0.9758628,-0.4703887,-1.337985,-4.566324,-1.506736,0.5535955,1.297607,0.3805096,-1.020085,0.06954771,4.7,7.3,-0.5518803,-0.3241898,0.4185998,-0.4863742,0.7923315,1.514042,0.7662978,1.328875,0.3582585,-0.2122913,0.3440641,-0.2377297,-1.301257,0.219622,0.02755653,0.857849,1.333612,0.2326078,0.3558208,1.459565,0.2038974,307.2536,92.53531,145.3638,False
3,3.37777,-1.01841,0.9406651,-0.482877,-1.347566,-4.571276,-1.495932,0.5528304,1.299996,0.3809736,-1.0207,-0.05731079,4.2,5,-0.5318928,-0.3368288,0.3969711,-0.4903194,0.7842304,1.52634,0.7654326,1.329729,0.3581014,-0.2143385,0.3579001,-0.2334799,-1.303688,0.2239414,0.02865029,0.8573792,1.333772,0.2329185,0.3565557,1.466282,0.2065342,307.9053,91.66796,146.5656,False
3,3.388881,-0.9203092,0.8767318,-0.5026109,-1.355549,-4.577057,-1.487789,0.551794,1.302563,0.3813798,-1.021513,-0.07430352,4.2,5,-0.5183697,-0.3537083,0.3667813,-0.4950412,0.7776759,1.536901,0.7643184,1.33093,0.3576055,-0.2150638,0.3707162,-0.2015244,-1.304726,0.228718,0.02976642,0.8568519,1.334007,0.2330921,0.3569308,1.472693,0.209379,308.4673,90.87587,147.7698,False
3,3.399992,-0.8190176,0.8160088,-0.5213093,-1.363086,-4.583,-1.480742,0.5507281,1.305125,0.3818352,-1.02056,0.08728041,4.2,5,-0.5332952,-0.3750136,0.3710063,-0.4997752,0.7680029,1.551862,0.7633983,1.331928,0.357285,-0.2490836,0.3718856,-0.1937357,-1.306388,0.233055,0.03255581,0.8559494,1.334242,0.2331676,0.3569804,1.478735,0.2123835,308.9482,90.2159,148.9342,False
3,3.411103,-0.7113072,0.7371405,-0.54518,-1.369356,-4.589434,-1.47494,0.5496169,1.307678,0.3823245,-1.022583,-0.1862465,4.2,5,-0.5309537,-0.3795279,0.3911321,-0.504407,0.7578772,1.566268,0.7623028,1.333114,0.3567119,-0.2746801,0.3644978,-0.1945496,-1.308432,0.2371192,0.03541685,0.8553064,1.334466,0.233201,0.3567993,1.484392,0.2155139,309.3149,89.69889,149.9465,False
3,3.422215,-0.6324255,0.7031119,-0.5523682,-1.376784,-4.595039,-1.469219,0.5485975,1.310063,0.3829281,-1.023134,-0.04934758,4.2,5,-0.5199023,-0.3404186,0.420182,-0.5069838,0.746118,1.582133,0.7612466,1.334069,0.3563743,-0.2790498,0.3698,-0.2062377,-1.311032,0.2414201,0.03750397,0.8546463,1.334811,0.2334161,0.3563335,1.489722,0.2186706,309.7276,89.31905,150.8392,False
3,3.433326,-0.5184207,0.6806116,-0.5884498,-1.38438,-4.602325,-1.465968,0.547444,1.312413,0.3832879,-1.023596,-0.04258224,4.4,4.2,-0.4638517,-0.2568163,0.4619717,-0.5073306,0.7328399,1.597232,0.7600262,1.335197,0.3557105,-0.2921795,0.3698004,-0.2423338,-1.314777,0.2458408,0.04009202,0.8537633,1.335034,0.233433,0.3555399,1.494682,0.2218047,310.1214,89.02412,151.6465,False
3,3.444437,-0.4044421,0.6849642,-0.5991895,-1.392976,-4.608541,-1.463915,0.5463141,1.314838,0.3836639,-1.022619,0.08902761,4.4,4.2,-0.3930587,-0.1987329,0.4948522,-0.5079415,0.7193521,1.611265,0.7589523,1.336216,0.3552077,-0.3062813,0.3687125,-0.2688572,-1.3187,0.2497851,0.04292643,0.8528315,1.3352,0.2334051,0.3544163,1.499197,0.2248868,310.4277,88.81533,152.3501,False
3,3.455548,-0.2872226,0.661708,-0.6001108,-1.400419,-4.614689,-1.463312,0.5451214,1.317088,0.384131,-1.024346,-0.1592755,4.4,4.2,-0.2918197,-0.1883722,0.4950011,-0.5098462,0.7079359,1.621052,0.757623,1.337814,0.3544548,-0.3287112,0.3655725,-0.2739663,-1.321797,0.254095,0.046339,0.8518776,1.335592,0.2333574,0.3529932,1.50333,0.227921,310.5612,88.61736,153.0195,False
3,3.466659,-0.1764324,0.6575684,-0.6065137,-1.40834,-4.620911,-1.463685,0.5438538,1.319374,0.384449,-1.024506,-0.01396655,4.4,4.2,-0.2352661,-0.2035715,0.5070898,-0.5134622,0.6959121,1.632421,0.7562661,1.339497,0.3536687,-0.3762275,0.3518768,-0.223438,-1.32256,0.2574932,0.05143842,0.8506669,1.336441,0.2330396,0.3512239,1.507163,0.2309383,310.652,88.48878,153.6279,False
3,3.47777,-0.09866942,0.6576383,-0.6129453,-1.416379,-4.62718,-1.464025,0.5425611,1.321566,0.3846493,-1.024835,-0.03085229,4.9,3.3,-0.2191228,-0.1428925,0.5064439,-0.5135794,0.6843024,1.64469,0.7546888,1.341335,0.3526247,-0.3830621,0.3444984,-0.1562328,-1.32176,0.2611411,0.05486698,0.8494306,1.337164,0.232784,0.3491179,1.510714,0.2339972,310.6394,88.31329,154.2715,False
3,3.488881,-0.02494935,0.510346,-0.6585816,-1.417991,-4.63615,-1.464429,0.5409757,1.323677,0.3851459,-1.024726,0.009478151,4.9,3.3,-0.2160423,-0.08624175,0.4802973,-0.5132498,0.6754642,1.654687,0.7532575,1.343282,0.3514862,-0.3755501,0.3339513,-0.03696291,-1.317797,0.2644791,0.05787928,0.848013,1.338034,0.2322929,0.3467223,1.513896,0.2371045,310.5872,88.15215,154.9499,False
3,3.499992,-0.02504162,0.5766408,-0.6303914,-1.427444,-4.641312,-1.463484,0.5393469,1.325386,0.3854971,-1.023585,0.1034683,4.9,3.3,-0.2490933,0.06551254,0.4362597,-0.5079218,0.668076,1.664906,0.751299,1.345146,0.3501163,-0.3929593,0.3084655,0.04310897,-1.315012,0.2663656,0.06231051,0.8467553,1.338838,0.2318099,0.3439963,1.516785,0.2402177,310.46,87.99113,155.6743,False
3,3.511103,-0.1519306,0.6608959,-0.5959017,-1.438147,-4.645799,-1.457114,0.5377504,1.326715,0.3858643,-1.022949,0.05650904,4.9,3.3,-0.2818031,0.2447489,0.419145,-0.4994897,0.6578951,1.678194,0.7494556,1.347226,0.3489087,-0.417836,0.3096736,0.1147252,-1.311206,0.2697363,0.06689008,0.8453445,1.339809,0.2312553,0.3409827,1.519366,0.2432963,310.3362,87.99578,156.3228,False
