loc,t,aDotUA,bDotUA,gDotUA,aUA,bUA,gUA,xUA,yUA,zUA,qE,qDotE,emgA,emgB,aDotSH,bDotSH,gDotSH,aSH,bSH,gSH,xSH,ySH,zSH,aDotUB,bDotUB,gDotUB,aUB,bUB,gUB,xUB,yUB,zUB,xHand,yHand,zHand,aHand,bHand,gHand,enable
2,0,-0.05982287,-0.6894017,-0.2065779,-1.407662,-4.225686,2.65299,0.6336669,1.122256,0.4622958,-2.030265,-0.01203223,6.5,0.9,-0.3386497,0.345543,-0.1796842,-0.5788018,-4.123825,-0.1619399,0.6067562,1.339403,0.3676815,-0.1979114,0.3743843,0.1451128,-0.7253039,0.2272791,-0.09772257,0.6767619,1.410835,0.2286611,0.4687898,1.020569,0.2893785,296.8608,234.8914,355.4154,False
2,0.01111111,-0.05340904,-0.6936042,-0.200161,-1.40959,-4.217597,2.652053,0.6322948,1.121842,0.4619584,-2.030383,-0.01075594,6.5,0.9,-0.3290992,0.3391521,-0.1819579,-0.581481,-4.117811,-0.1635905,0.6058126,1.339101,0.3674235,-0.190432,0.3552066,0.1504169,-0.7238035,0.2325805,-0.0999234,0.6762196,1.410861,0.2287679,0.4684244,1.020376,0.2882262,296.8065,234.7938,355.2966,False
2,0.02222222,-0.05341999,-0.6882697,-0.1991361,-1.411184,-4.20983,2.651398,0.6309534,1.121499,0.461643,-2.0302,0.01681296,6.5,0.9,-0.3077331,0.330491,-0.1737104,-0.5836978,-4.112091,-0.165676,0.6049711,1.338809,0.3671935,-0.1851459,0.3243143,0.1536641,-0.7220176,0.2367952,-0.1011772,0.6756668,1.410833,0.2288847,0.4682682,1.020096,0.286842,296.7386,234.6401,355.1769,False
2,0.03333334,-0.04383243,-0.6850512,-0.1981021,-1.412896,-4.20198,2.650292,0.6297331,1.121142,0.4613178,-2.030428,-0.02108406,8.8,0.8,-0.2895151,0.3196471,-0.1579882,-0.5854906,-4.106501,-0.1675794,0.6041722,1.338621,0.3669467,-0.1766174,0.2934187,0.1600531,-0.7202359,0.2404253,-0.1022561,0.6752083,1.410816,0.2288458,0.4683257,1.019725,0.2852109,296.7371,234.4381,354.9653,False
2,0.04444445,-0.04064679,-0.6786774,-0.2002803,-1.414435,-4.194187,2.649396,0.6285874,1.120951,0.4609959,-2.030201,0.02096361,8.8,0.8,-0.2766664,0.3056576,-0.1465137,-0.5872936,-4.101546,-0.1690002,0.6033294,1.338308,0.3667355,-0.1629825,0.2847998,0.1418281,-0.7195328,0.2449761,-0.1044375,0.6747785,1.410722,0.2288976,0.468596,1.019275,0.2833646,296.7816,234.1829,354.6932,False
2,0.05555556,-0.03213956,-0.6754841,-0.2035047,-1.415892,-4.186512,2.648319,0.6275661,1.120709,0.4607191,-2.030578,-0.03472465,8.8,0.8,-0.2541972,0.2916055,-0.1308584,-0.5886657,-4.096711,-0.1708578,0.6027099,1.338081,0.366513,-0.1651581,0.274143,0.1397498,-0.7183297,0.2491603,-0.1056361,0.6743695,1.410688,0.22895,0.4690375,1.018775,0.2813818,296.8609,233.8564,354.4088,False
2,0.06666667,-0.02365007,-0.6616176,-0.2036195,-1.417212,-4.179107,2.647205,0.626597,1.120704,0.460417,-2.030381,0.01828205,8.8,0.8,-0.2423988,0.2829604,-0.1203889,-0.5902018,-4.091692,-0.1727827,0.6020275,1.337883,0.366262,-0.1395964,0.2378846,0.1470425,-0.71654,0.2517501,-0.1069518,0.6740614,1.41073,0.228904,0.4696491,1.018264,0.2793696,296.9551,233.5217,354.107,False
2,0.07777778,-0.01306894,-0.6328419,-0.2049093,-1.41819,-4.172439,2.646047,0.6257997,1.120592,0.4602664,-2.030509,-0.01189492,8.8,0.8,-0.2156882,0.2667736,-0.1058526,-0.5912201,-4.08724,-0.1748512,0.6016164,1.337812,0.3659868,-0.1312411,0.2005517,0.139603,-0.7153464,0.2533441,-0.1069691,0.6737758,1.410709,0.2287598,0.4703896,1.017785,0.2774094,297.0685,233.1714,353.8224,False
2,0.08888889,-0.00675749,-0.5965675,-0.1987894,-1.419181,-4.166451,2.645122,0.6249831,1.120338,0.460083,-2.030554,-0.003979719,7.7,0.3,-0.1975088,0.2538309,-0.09442271,-0.5924245,-4.083172,-0.1766118,0.6010975,1.337633,0.3657095,-0.1164777,0.1770533,0.130989,-0.7143195,0.2554029,-0.1076474,0.6735362,1.410743,0.2286351,0.4712107,1.017365,0.2755702,297.1822,232.8297,353.5543,False
2,0.1,-0.006909944,-0.5272849,-0.1939889,-1.419085,-4.162325,2.644585,0.6245037,1.120321,0.4599903,-2.030652,-0.009058851,7.7,0.3,-0.1612035,0.2354732,-0.07894148,-0.5931584,-4.079502,-0.1790526,0.6007418,1.337582,0.365442,-0.1101994,0.1599774,0.1245853,-0.7132015,0.2577257,-0.10829,0.6733299,1.410784,0.2285864,0.4720475,1.017039,0.2739013,297.2969,232.4822,353.3263,False
2,0.1111111,-0.00397376,-0.4078738,-0.1810522,-1.418157,-4.160425,2.644295,0.6242179,1.120322,0.4599223,-2.030467,0.0169614,7.7,0.3,-0.1237244,0.2212797,-0.05278064,-0.5933768,-4.075579,-0.1819067,0.6004105,1.337589,0.3652134,-0.1007636,0.1343638,0.1160359,-0.7122518,0.2590045,-0.1084285,0.6731691,1.410808,0.2284536,0.4728284,1.01679,0.2724658,297.3362,232.1297,353.1477,False
2,0.1222222,-0.00296668,-0.3790607,-0.1748803,-1.418189,-4.156657,2.64372,0.6236999,1.120303,0.4598095,-2.030282,0.01674612,7.7,0.3,-0.1055684,0.2030075,-0.04139222,-0.5938418,-4.072645,-0.1836511,0.6000671,1.337526,0.3649795,-0.09454981,0.1183307,0.1032311,-0.7116062,0.2603512,-0.108556,0.6729344,1.410748,0.2283132,0.4734402,1.016567,0.2712817,297.3342,231.8288,352.9994,False
2,0.1333333,0.003175732,-0.2531267,-0.1449419,-1.41724,-4.15731,2.643608,0.6235918,1.120514,0.4598248,-2.030311,-0.002843317,7.7,0.3,-0.07675968,0.1654622,-0.02281157,-0.5935978,-4.071438,-0.1845624,0.5999712,1.337548,0.3647835,-0.07984427,0.09055766,0.08930261,-0.7111173,0.2605686,-0.108441,0.6728545,1.410831,0.228071,0.4738863,1.016386,0.2704656,297.3572,231.4999,352.9803,False
2,0.1444445,0.003069628,-0.1987226,-0.1336343,-1.416616,-4.156129,2.643373,0.6233404,1.120666,0.4598055,-2.030279,0.002907596,10,0.1,-0.05545377,0.1386822,-0.01365676,-0.5936122,-4.070097,-0.1857528,0.5999227,1.337621,0.3645463,-0.07254033,0.05855417,0.08186497,-0.7103375,0.2599758,-0.1074468,0.6728709,1.410879,0.2278352,0.4740698,1.016248,0.2700534,297.3882,231.2448,353.0548,False
2,0.1555556,0.002912827,-0.1186496,-0.1108011,-1.415644,-4.157095,2.643556,0.6233711,1.120821,0.4597223,-2.030442,-0.01492069,10,0.1,-0.02775807,0.08730015,0.004812928,-0.5928655,-4.070816,-0.185576,0.6000695,1.337755,0.3643465,-0.06320906,0.02757947,0.06480753,-0.7101085,0.2588139,-0.1061776,0.6729406,1.410825,0.2274764,0.4740074,1.016157,0.2699522,297.4424,231.1427,353.1129,False
2,0.1666667,0.004900818,-0.04608188,-0.09324469,-1.414492,-4.158256,2.643596,0.6233849,1.120984,0.4597085,-2.030262,0.01654978,10,0.1,-0.01281331,0.07226176,0.01412822,-0.5926066,-4.069681,-0.1866391,0.6000584,1.338001,0.3641963,-0.05700992,0.009413667,0.05094969,-0.7098826,0.2581662,-0.1052737,0.6730097,1.410841,0.2272243,0.4737201,1.016156,0.2701994,297.505,231.1139,353.2186,False
2,0.1777778,0.003728318,0.008372403,-0.07660834,-1.413434,-4.159624,2.64387,0.6235715,1.121159,0.4596949,-2.030115,0.01324257,10,0.1,0.01074009,0.04749844,0.03499852,-0.591504,-4.069853,-0.1873848,0.6002321,1.338184,0.3639932,-0.04447654,-0.0141045,0.0327747,-0.7099961,0.2567692,-0.1041767,0.6731375,1.410869,0.2270136,0.4732685,1.01624,0.2706844,297.5285,231.142,353.408,False
2,0.1888889,0.0004606303,0.04677504,-0.06837115,-1.41228,-4.160828,2.644094,0.6237151,1.121335,0.4596791,-2.030253,-0.01269137,7.7,0,0.0246584,0.03349939,0.04752803,-0.5906673,-4.06945,-0.1883435,0.6004151,1.338246,0.3638043,-0.03722663,-0.03972666,0.01892562,-0.7100403,0.2549943,-0.102676,0.6732345,1.410923,0.226687,0.4727147,1.016401,0.2713223,297.5132,231.2037,353.6387,False
2,0.2,-0.006016478,0.09161697,-0.05379044,-1.41103,-4.163002,2.644723,0.6239963,1.121575,0.4594958,-2.030049,0.01870253,7.7,0,0.04596628,0.01312574,0.05460783,-0.5897256,-4.070153,-0.1890059,0.6006696,1.338443,0.3636184,-0.03315511,-0.05575885,0.005082235,-0.7102469,0.2532554,-0.101101,0.6734172,1.410974,0.2264042,0.472141,1.016617,0.2720471,297.4686,231.2725,353.8877,False
2,0.2111111,-0.008233637,0.1386249,-0.03497594,-1.40975,-4.165581,2.645293,0.6242673,1.121785,0.4594033,-2.030038,0.0008538908,7.7,0,0.04806287,-0.00608056,0.05760724,-0.5890508,-4.071068,-0.1887473,0.6009989,1.338541,0.3633754,-0.03438821,-0.06325448,-0.008731848,-0.7107071,0.2517101,-0.09951328,0.6736013,1.410993,0.2261322,0.4716454,1.016869,0.2727869,297.4167,231.3525,354.129,False
2,0.2222222,-0.01467512,0.1631521,-0.02982881,-1.408361,-4.167842,2.646038,0.6245322,1.122039,0.4593587,-2.029791,0.02257956,7.7,0,0.05228265,-0.02207969,0.05849192,-0.5882598,-4.072097,-0.1886306,0.6012254,1.33874,0.363224,-0.02715114,-0.07929873,-0.0257998,-0.7112936,0.2495916,-0.09790419,0.6738483,1.410929,0.2257986,0.4712338,1.017125,0.273432,297.3782,231.4104,354.3596,False
2,0.2333333,-0.02965219,0.1972782,-0.02048198,-1.40691,-4.170719,2.647222,0.624927,1.122279,0.4593542,-2.029904,-0.0105196,7.7,0,0.05230099,-0.0263726,0.06272122,-0.5872846,-4.072353,-0.1888866,0.6015785,1.338892,0.3630714,-0.024134,-0.09319448,-0.03963822,-0.7119886,0.2472804,-0.09606209,0.6741349,1.410963,0.2255368,0.4708807,1.017383,0.2739181,297.3629,231.4438,354.5663,False
2,0.2444444,-0.03607932,0.2132104,-0.02379059,-1.405329,-4.172952,2.648111,0.6252735,1.122568,0.4593182,-2.02972,0.016983,10.1,0,0.05662167,-0.02323326,0.06803437,-0.5863892,-4.072193,-0.1897782,0.6019157,1.339141,0.3629096,-0.01686554,-0.1039097,-0.05459236,-0.7128089,0.2448943,-0.09428762,0.6744496,1.410947,0.2252581,0.4705902,1.017651,0.2742707,297.3419,231.427,354.7423,False
2,0.2555556,-0.05102804,0.2291764,-0.0206958,-1.403805,-4.175584,2.649605,0.6256748,1.122846,0.4594254,-2.029398,0.02926003,10.1,0,0.06105699,-0.008451425,0.08197322,-0.5851178,-4.070869,-0.1916405,0.6024031,1.339372,0.3628292,-0.01480557,-0.1092571,-0.05992567,-0.7135274,0.2426437,-0.09249558,0.674746,1.410958,0.224987,0.4703841,1.017942,0.2745449,297.3149,231.3542,354.9059,False
2,0.2666667,-0.07129247,0.2365412,-0.02605635,-1.402057,-4.177832,2.651425,0.6261389,1.123147,0.4593964,-2.029617,-0.0202083,10.1,0,0.0739773,-0.01289055,0.09779019,-0.5835801,-4.070792,-0.1929734,0.6030753,1.339583,0.3627079,-0.008728206,-0.1285251,-0.08443257,-0.7150215,0.2390801,-0.08985852,0.6752329,1.41097,0.224746,0.4702466,1.018272,0.2748028,297.2827,231.2669,355.0637,False
2,0.2777778,-0.08836172,0.2439289,-0.03035193,-1.400258,-4.180276,2.653391,0.626536,1.123346,0.4593709,-2.029179,0.0403495,10.1,0,0.08254825,-0.01617142,0.1051434,-0.5821127,-4.070614,-0.1941772,0.6036164,1.33986,0.3625314,-0.006755635,-0.1381558,-0.09721471,-0.7164388,0.236075,-0.08763184,0.6756972,1.410855,0.2243786,0.4701607,1.018649,0.2750745,297.2429,231.1447,355.2468,False
2,0.2888889,-0.110751,0.2523898,-0.03145446,-1.398552,-4.182825,2.655754,0.6269524,1.123603,0.4593501,-2.028839,0.03079542,9.1,0,0.09207959,-0.03324522,0.1049031,-0.5808684,-4.071879,-0.194455,0.6044712,1.340194,0.3624318,0.000516504,-0.1520618,-0.1110993,-0.7179062,0.2325817,-0.08523554,0.6762941,1.410842,0.2241063,0.4700942,1.01908,0.2754009,297.1936,231.0335,355.4308,False
2,0.3,-0.1309782,0.2470419,-0.02819002,-1.397232,-4.185071,2.658285,0.6273397,1.123777,0.4593375,-2.028829,0.0007090499,9.1,0,0.1078276,-0.04590127,0.08440255,-0.5804769,-4.073501,-0.194839,0.6053326,1.340457,0.3623812,0.008804262,-0.1681151,-0.1292535,-0.7197235,0.2287354,-0.0827319,0.6769476,1.410863,0.2237999,0.4699879,1.019567,0.2757445,297.1266,230.909,355.6778,False
2,0.3111111,-0.1459034,0.2501783,-0.03138639,-1.395599,-4.18749,2.6608,0.6277168,1.123971,0.4592586,-2.02861,0.02013893,9.1,0,0.1215627,-0.05437952,0.07460511,-0.5799513,-4.074836,-0.1956102,0.6060517,1.340641,0.3623419,0.01503149,-0.1788213,-0.1420738,-0.7215452,0.2249222,-0.08025223,0.6776019,1.410861,0.2235458,0.4697884,1.020103,0.2760802,297.0322,230.7822,355.9401,False
2,0.3222222,-0.1757564,0.253192,-0.04628913,-1.393327,-4.18963,2.664192,0.6280733,1.124147,0.4592767,-2.028537,0.006662703,9.1,0,0.1405992,-0.0970563,0.07512063,-0.5785371,-4.079005,-0.1942848,0.6070291,1.340957,0.3623791,0.02658415,-0.1842193,-0.1560354,-0.7235643,0.2213015,-0.07816245,0.6784539,1.410877,0.2232299,0.4695108,1.020701,0.2764156,296.9249,230.6914,356.1824,False
2,0.3333333,-0.2088227,0.2625479,-0.06549755,-1.390737,-4.191873,2.667968,0.6285926,1.124282,0.4591961,-2.028753,-0.01964873,9.1,0,0.1458932,-0.1600847,0.09369355,-0.5761014,-4.085295,-0.1907172,0.6081622,1.341268,0.3623388,0.03498918,-0.1895947,-0.165699,-0.7255708,0.2175884,-0.07607826,0.6791896,1.410875,0.2229595,0.4691785,1.021366,0.2767331,296.791,230.6301,356.4151,False
2,0.3444445,-0.231216,0.2688395,-0.07191169,-1.388339,-4.194329,2.671802,0.6289079,1.124467,0.4592183,-2.028042,0.06531725,10.2,0,0.1363776,-0.2092703,0.117855,-0.5732278,-4.091665,-0.1866482,0.6092618,1.34161,0.3623123,0.04754177,-0.2003386,-0.1849824,-0.7281306,0.2133042,-0.07388567,0.6800596,1.410842,0.2226508,0.4688196,1.022084,0.2770263,296.6276,230.4862,356.7262,False
2,0.3555556,-0.2728121,0.2835558,-0.08476545,-1.385487,-4.196975,2.676712,0.6291081,1.124637,0.4591718,-2.027824,0.01943183,10.2,0,0.1341546,-0.2273405,0.1145224,-0.5715463,-4.096688,-0.1837935,0.6103835,1.34198,0.3623009,0.06005603,-0.214283,-0.2074543,-0.7310718,0.2087099,-0.07167312,0.6810021,1.410773,0.2223918,0.46847,1.022845,0.277311,296.443,230.2213,357.1405,False
2,0.3666667,-0.2952,0.2909217,-0.09011774,-1.382943,-4.199683,2.681139,0.6293769,1.124831,0.459198,-2.028051,-0.02061984,10.2,0,0.1362405,-0.2283637,0.1091646,-0.5701237,-4.100953,-0.1819317,0.6114309,1.342215,0.3623078,0.06518406,-0.2196728,-0.2245367,-0.733916,0.2044928,-0.06942727,0.681904,1.41077,0.2221539,0.4681394,1.023659,0.2775836,296.2547,229.9152,357.5816,False
2,0.3777778,-0.3325045,0.2896227,-0.1092442,-1.379819,-4.201693,2.686504,0.6295424,1.124997,0.459177,-2.027317,0.06752182,10.2,0,0.1403424,-0.2228875,0.0910655,-0.569321,-4.104736,-0.1803426,0.6126885,1.342504,0.3624701,0.0628534,-0.220789,-0.2426211,-0.7370639,0.2003809,-0.06697664,0.6829031,1.410773,0.2219417,0.4677235,1.024524,0.2778224,296.0699,229.6039,357.9861,False
2,0.3888889,-0.3741028,0.2989361,-0.1327088,-1.376112,-4.204011,2.69259,0.6297642,1.125236,0.4592028,-2.02802,-0.06467555,10.9,0,0.1435105,-0.2314203,0.0909567,-0.5678323,-4.10975,-0.1778531,0.6138964,1.342734,0.3625071,0.06163847,-0.2144433,-0.2575469,-0.7403716,0.1967361,-0.06487114,0.6839256,1.410797,0.2217329,0.4671426,1.025461,0.2780201,295.8875,229.2632,358.4197,False
2,0.4,-0.4199898,0.3220793,-0.157343,-1.371848,-4.20685,2.699291,0.6299302,1.125425,0.4591682,-2.027338,0.06314752,10.9,0,0.1372827,-0.2657474,0.1205468,-0.5646285,-4.116556,-0.1734453,0.6151394,1.342985,0.3624766,0.06574306,-0.20492,-0.2735996,-0.7438284,0.1933848,-0.06319521,0.6850311,1.410723,0.2215362,0.4664942,1.026508,0.2782461,295.6624,228.9144,358.895,False
2,0.4111111,-0.4691036,0.3644859,-0.1693373,-1.367441,-4.210823,2.706817,0.6300989,1.125535,0.4592121,-2.026917,0.03809755,10.9,0,0.1202909,-0.2881851,0.1343553,-0.5621017,-4.123175,-0.1685283,0.616367,1.343251,0.3625124,0.06652629,-0.2007383,-0.3002562,-0.7479365,0.1899984,-0.06147401,0.6862208,1.410678,0.2213697,0.4657953,1.027653,0.2784768,295.408,228.4574,359.4977,False
2,0.4222222,-0.5022293,0.4048402,-0.1759991,-1.363047,-4.215317,2.71438,0.6302353,1.125717,0.4592867,-2.026749,0.01536382,10.9,0,0.09482598,-0.3031529,0.1504367,-0.5593442,-4.129608,-0.1632608,0.6177284,1.343636,0.3626018,0.06834456,-0.2082879,-0.3279551,-0.7523153,0.1856902,-0.05921192,0.687552,1.410675,0.2212348,0.465055,1.028917,0.2787161,295.1375,227.8678,0.218657,False
2,0.4333333,-0.5555934,0.4537445,-0.1720512,-1.358833,-4.220653,2.723256,0.6303116,1.12585,0.4593909,-2.026554,0.01807918,10.9,0,0.08101606,-0.3266569,0.163139,-0.5565048,-4.137171,-0.1572754,0.6190843,1.344042,0.3627629,0.07032597,-0.2200447,-0.3396628,-0.75631,0.1812437,-0.0569296,0.6887896,1.410646,0.2211704,0.4641924,1.030305,0.2789608,294.8284,227.1751,1.023698,False
2,0.4444444,-0.6099995,0.4952804,-0.1563275,-1.355068,-4.226449,2.732907,0.6303083,1.125979,0.4594882,-2.027028,-0.04320207,10.3,0,0.0757364,-0.3448529,0.1747457,-0.5536009,-4.144706,-0.1514998,0.6204665,1.344406,0.3628633,0.06400165,-0.2338496,-0.3299635,-0.7593822,0.1765901,-0.05396257,0.6899939,1.410676,0.2210407,0.4631562,1.03183,0.279271,294.4828,226.4727,1.84043,False
2,0.4555556,-0.6579987,0.529363,-0.1426882,-1.351309,-4.232441,2.742908,0.6302202,1.126114,0.4595258,-2.02637,0.06086321,10.3,0,0.07246423,-0.3672117,0.1745795,-0.5510176,-4.153222,-0.1449172,0.6218126,1.34474,0.3629701,0.06697896,-0.2019829,-0.3577923,-0.7642084,0.1745821,-0.05349998,0.6912885,1.410574,0.2209368,0.4619365,1.033506,0.2797103,294.1071,225.789,2.681349,False
2,0.4666667,-0.6803361,0.5154847,-0.1393651,-1.347954,-4.236756,2.752093,0.6301907,1.126225,0.4595075,-2.026073,0.02695576,10.3,0,0.0648368,-0.3969391,0.1658667,-0.5487577,-4.163113,-0.1370337,0.6232269,1.345142,0.3631015,0.0538992,-0.2020277,-0.3842758,-0.7691614,0.1711142,-0.05109621,0.6926845,1.410563,0.2208426,0.4604733,1.035341,0.2802896,293.7054,225.1598,3.537901,False
2,0.4777778,-0.7271481,0.5028207,-0.1093872,-1.345864,-4.241411,2.762774,0.6301336,1.12624,0.4594526,-2.026236,-0.01473748,10.3,0,0.04126817,-0.4448287,0.1688633,-0.5459022,-4.175194,-0.1263148,0.6246217,1.34542,0.3632653,0.05056942,-0.2073833,-0.3948752,-0.7737042,0.1670233,-0.04853105,0.694057,1.410469,0.2207785,0.4587538,1.037365,0.2809862,293.2733,224.595,4.425652,False
2,0.4888889,-0.759181,0.5466055,-0.08518869,-1.342978,-4.248683,2.773936,0.6301806,1.1265,0.4593337,-2.027168,-0.08478099,10.3,0,0.009341687,-0.4671921,0.179618,-0.5428097,-4.186138,-0.1160289,0.6260201,1.345748,0.3633707,0.06003621,-0.2084998,-0.4056331,-0.7784851,0.1634008,-0.04698109,0.6955905,1.410444,0.2207353,0.4568809,1.039596,0.2817627,292.7927,224.0434,5.415511,False
2,0.5,-0.823332,0.6477036,-0.07948788,-1.338539,-4.258786,2.787681,0.6299249,1.126655,0.459156,-2.026272,0.08287346,10.6,0,-0.02039886,-0.4500769,0.1832435,-0.5402297,-4.193868,-0.1082205,0.6273326,1.345994,0.363389,0.05567384,-0.1914827,-0.4184178,-0.783428,0.1608841,-0.04560503,0.6970263,1.410429,0.2208204,0.4551114,1.041992,0.2825462,292.2397,223.5102,6.44458,False
2,0.5111111,-0.8372438,0.6710571,-0.08604594,-1.33456,-4.266222,2.799138,0.629711,1.126825,0.4589446,-2.026702,-0.03968104,10.6,0,-0.05552983,-0.4339412,0.1794475,-0.5380001,-4.201675,-0.09991887,0.6286187,1.346278,0.3636091,0.03743327,-0.1744321,-0.4331864,-0.7886531,0.1587474,-0.04375733,0.6985033,1.410246,0.220835,0.4534378,1.044513,0.2831855,291.6812,223.0425,7.348733,False
2,0.5222223,-0.8490102,0.6912869,-0.08404706,-1.331081,-4.274024,2.810807,0.6292267,1.127012,0.4587722,-2.025317,0.1272698,10.6,0,-0.07368389,-0.4263603,0.172226,-0.5359069,-4.210109,-0.09122072,0.6299315,1.34658,0.3637776,0.0245088,-0.1563264,-0.4490986,-0.7943677,0.1570073,-0.04232988,0.7001443,1.410198,0.2209227,0.4516746,1.047176,0.283656,291.1472,222.2379,8.455604,False
2,0.5333334,-0.8681624,0.6773558,-0.09030837,-1.327686,-4.280583,2.82265,0.6287695,1.127142,0.458523,-2.028941,-0.3298472,10.6,0,-0.08765244,-0.4187268,0.1575043,-0.5343372,-4.218522,-0.08255427,0.6314005,1.346853,0.3639433,0.01489156,-0.1392751,-0.4554348,-0.7995704,0.1553564,-0.04101508,0.7016828,1.410067,0.2210104,0.4495359,1.050069,0.2840121,290.6401,221.1167,9.843472,True
2,0.5444446,-0.8840925,0.6549325,-0.09224959,-1.324686,-4.286572,2.83444,0.6282305,1.127249,0.4583328,-2.032656,-0.3331639,10.8,0,-0.100605,-0.4174561,0.1384542,-0.5331414,-4.227494,-0.07337595,0.6327831,1.347038,0.3641427,0.006314695,-0.1339161,-0.4596341,-0.8049271,0.153615,-0.03939135,0.7032063,1.409943,0.2210879,0.4473102,1.053312,0.2843713,290.0793,219.9484,11.33947,True
2,0.5555557,-0.9255484,0.609974,-0.1078387,-1.321573,-4.291162,2.847056,0.6276392,1.127284,0.4581022,-2.036989,-0.3892585,10.8,0,-0.1209966,-0.4204538,0.1237028,-0.5319462,-4.236671,-0.06342372,0.6340691,1.347192,0.3643219,0.005219012,-0.1222198,-0.4649847,-0.8101932,0.1518819,-0.03822915,0.7047539,1.409694,0.2211518,0.4450702,1.056948,0.2847183,289.4318,218.746,12.90838,True
2,0.5666668,-0.9521397,0.5874864,-0.1161542,-1.318454,-4.296537,2.859767,0.627089,1.127334,0.4579399,-2.042701,-0.5143088,10.8,0,-0.1369467,-0.4193627,0.1259948,-0.5301331,-4.245739,-0.05363553,0.6354192,1.347374,0.3645017,0.0009238422,-0.1051548,-0.470336,-0.8158136,0.1511391,-0.0374523,0.7062558,1.409535,0.2212906,0.4429857,1.060992,0.2850028,288.6895,217.3397,14.71649,True
2,0.577778,-0.9946822,0.5532366,-0.1243686,-1.315575,-4.301027,2.873323,0.626434,1.127334,0.4576752,-2.048187,-0.4921256,10.8,0,-0.1474869,-0.4055425,0.1336766,-0.5281528,-4.25334,-0.04505856,0.6367164,1.347494,0.3647084,-0.000172317,-0.09877443,-0.4746045,-0.8211634,0.149644,-0.03641313,0.7078027,1.409325,0.2214279,0.4411508,1.06542,0.2851433,287.8488,215.5928,16.82902,True
2,0.5888891,-1.036202,0.5349442,-0.135897,-1.312434,-4.305901,2.887351,0.6258864,1.127323,0.4574826,-2.055388,-0.6490598,10.8,0,-0.1559415,-0.3884665,0.1328454,-0.5265176,-4.260685,-0.03698385,0.6380165,1.347426,0.3650415,-0.00445801,-0.08706008,-0.4788615,-0.8266724,0.1485551,-0.03541445,0.7093338,1.409064,0.2215915,0.4396009,1.070178,0.2850325,286.9552,213.3598,19.3282,True
2,0.6000003,-1.079898,0.5422904,-0.1369696,-1.309337,-4.311868,2.902361,0.6252671,1.127341,0.4573169,-2.062051,-0.5980711,8.2,0,-0.1547077,-0.3736693,0.145749,-0.5243237,-4.267866,-0.02906973,0.6394058,1.347492,0.3652742,-0.004482508,-0.07429093,-0.4842271,-0.8322895,0.147768,-0.03484959,0.7109352,1.408777,0.2217982,0.4383135,1.075223,0.2846622,286.0338,210.573,22.25187,True
2,0.6111114,-1.118334,0.5762674,-0.1403858,-1.30594,-4.319047,2.917828,0.6247746,1.127341,0.4571195,-2.06956,-0.6760049,8.2,0,-0.15038,-0.3748182,0.1531441,-0.5224164,-4.276281,-0.02029968,0.640987,1.347624,0.3655334,0.001880646,-0.07214405,-0.4853979,-0.8381175,0.1469934,-0.03439233,0.7127523,1.408622,0.2219429,0.437236,1.080494,0.2840205,285.1108,207.2238,25.64871,True
2,0.6222225,-1.146097,0.6071434,-0.1341978,-1.303033,-4.326625,2.933436,0.6241836,1.127415,0.4569066,-2.076939,-0.6634244,8.2,0,-0.1439859,-0.3919386,0.1593266,-0.5203918,-4.286141,-0.01035783,0.6424463,1.347768,0.3657198,0.006034255,-0.07639044,-0.4918584,-0.8442152,0.1459318,-0.03363839,0.7146491,1.408468,0.2221162,0.4363689,1.085934,0.2831985,284.2393,203.1375,29.67485,True
2,0.6333337,-1.178152,0.6680171,-0.1058647,-1.300838,-4.33632,2.95016,0.6236487,1.127518,0.4567332,-2.084791,-0.7069369,8.2,0,-0.1344114,-0.4336398,0.1727196,-0.5179241,-4.298989,0.002048237,0.6440803,1.347911,0.3659115,0.0113191,-0.08812431,-0.4929462,-0.8497822,0.1438508,-0.03254942,0.7163305,1.408261,0.222281,0.435586,1.091514,0.282322,283.4554,198.325,34.36182,True
2,0.6444448,-1.196323,0.707594,-0.07951349,-1.299135,-4.345973,2.966917,0.623024,1.127595,0.4565816,-2.092713,-0.7130671,5.7,0,-0.1206404,-0.4806233,0.1796352,-0.5157323,-4.313211,0.01523541,0.645699,1.348068,0.3661907,0.01443481,-0.09663244,-0.4972431,-0.8558574,0.1422699,-0.03165167,0.7179344,1.408187,0.2224183,0.4348246,1.0972,0.2815636,282.7809,192.8645,39.72423,True
2,0.655556,-1.232644,0.7825413,-0.02038217,-1.298962,-4.357925,2.985178,0.6225303,1.127693,0.4565163,-2.099902,-0.6461784,5.7,0,-0.09832337,-0.5244591,0.1886317,-0.5133898,-4.328305,0.02874217,0.6472733,1.348188,0.3664212,0.01231474,-0.09449951,-0.4972263,-0.8614452,0.140672,-0.03071104,0.7196188,1.40789,0.222553,0.4339814,1.10297,0.2810428,282.2173,187.0052,45.54707,True
2,0.6666671,-1.259345,0.8199224,0.0006645918,-1.298067,-4.368779,3.003267,0.622039,1.127828,0.4563596,-2.107215,-0.6584366,5.7,0,-0.09101391,-0.5542554,0.1819091,-0.5118191,-4.342967,0.04221989,0.6488506,1.348217,0.3666952,0.00596875,-0.08275622,-0.4961122,-0.8667998,0.1399005,-0.03010038,0.7208791,1.407362,0.2227998,0.4329666,1.108821,0.2808886,281.7604,180.8548,51.77653,True
2,0.6777782,-1.312722,0.8990653,0.05656391,-1.298699,-4.38212,3.023237,0.6216623,1.127928,0.4561141,-2.113325,-0.5486527,5.7,0,-0.1027393,-0.5595533,0.1830372,-0.5100534,-4.356352,0.05544116,0.6503119,1.348277,0.3669775,-0.004684389,-0.06889023,-0.4992301,-0.872425,0.139266,-0.02927373,0.7225275,1.407016,0.2230401,0.4317812,1.114727,0.2811784,281.4014,174.4752,58.37014,True
2,0.6888894,-1.335163,0.9439627,0.08180559,-1.298915,-4.394465,3.041865,0.6213051,1.127947,0.4558611,-2.119628,-0.5676628,5.7,0,-0.1239893,-0.5563299,0.187515,-0.5082952,-4.368937,0.06845815,0.6515993,1.348281,0.3673022,-0.01212728,-0.05402746,-0.5034122,-0.877567,0.1381672,-0.02838583,0.723738,1.406473,0.2233522,0.4304401,1.120694,0.2819687,281.1321,168.0592,65.18672,True
2,0.7000005,-1.371563,1.038982,0.1194734,-1.300052,-4.409767,3.062175,0.6210661,1.127972,0.4556811,-2.124136,-0.4041376,7,0,-0.1559139,-0.5220642,0.1795922,-0.5069939,-4.378504,0.07964662,0.6528856,1.348327,0.3675523,-0.01743329,-0.03804223,-0.5055289,-0.8831436,0.1381193,-0.02805614,0.7252386,1.406204,0.2235041,0.4290416,1.126675,0.2831797,281.0038,161.4843,72.34613,True
2,0.7111117,-1.389725,1.077533,0.1511605,-1.301906,-4.423666,3.081759,0.6206185,1.128045,0.4553902,-2.13007,-0.5362739,7,0,-0.1704574,-0.4678692,0.2004571,-0.5042967,-4.386051,0.08856022,0.6542504,1.348373,0.3677061,-0.02365664,-0.02528786,-0.4969331,-0.8876801,0.1372547,-0.02739674,0.7265972,1.405808,0.2237785,0.4275856,1.132676,0.2847123,280.983,154.94,79.60319,True
2,0.7222228,-1.388659,1.090504,0.173418,-1.303571,-4.436546,3.100274,0.6201307,1.128094,0.4549518,-2.133594,-0.3151993,7,0,-0.1765601,-0.4285847,0.2179068,-0.5016282,-4.393565,0.0973167,0.6555662,1.348454,0.367929,-0.02473474,-0.03061108,-0.4969042,-0.8931054,0.1363546,-0.02652295,0.7281127,1.405453,0.2240081,0.4262252,1.138596,0.2864784,281.1282,148.3432,86.95663,True
2,0.7333339,-1.385424,1.076698,0.1767053,-1.305267,-4.448461,3.118577,0.6195985,1.128068,0.4545076,-2.13753,-0.3551686,7,0,-0.1848265,-0.388198,0.2311147,-0.4991227,-4.400532,0.1056622,0.6570605,1.348454,0.3681393,-0.02788123,-0.04238732,-0.4936069,-0.8979396,0.1340563,-0.02497566,0.7297461,1.405012,0.2242107,0.4248699,1.144429,0.2884123,281.4159,142.1923,93.85244,True
2,0.7444451,-1.376819,1.04694,0.1822558,-1.307346,-4.459719,3.136661,0.6189301,1.128018,0.4539752,-2.141513,-0.3592865,7,0,-0.1836237,-0.3808547,0.2428806,-0.4965176,-4.409849,0.1158587,0.6585858,1.348451,0.3683882,-0.02146885,-0.05098785,-0.4936434,-0.9034044,0.1319205,-0.02397431,0.7316778,1.40468,0.224483,0.4235014,1.150164,0.2903755,281.7698,136.4863,100.3572,True
2,0.7555562,-1.384156,0.999073,0.1943597,-1.310094,-4.469803,-3.128015,0.6182499,1.127937,0.4535968,-2.144197,-0.2409545,7.8,0,-0.1678656,-0.3903162,0.2224079,-0.4952563,-4.420352,0.1264243,0.6600097,1.348419,0.3688257,-0.02670357,-0.05201443,-0.4861275,-0.9086386,0.1310121,-0.02303634,0.7332603,1.404268,0.2248344,0.42224,1.155681,0.2922181,282.2323,131.228,106.4323,True
2,0.7666674,-1.386215,0.9681984,0.1956416,-1.312343,-4.480043,-3.109854,0.6177547,1.12784,0.4531975,-2.146462,-0.2039332,7.8,0,-0.1694025,-0.4091044,0.1785781,-0.4953256,-4.431328,0.1380607,0.6613635,1.348389,0.3691866,-0.02973187,-0.04349872,-0.4743848,-0.9132427,0.1300117,-0.02214072,0.734908,1.403846,0.2251134,0.4211518,1.16087,0.293801,282.7953,126.5863,111.8026,True
2,0.7777785,-1.384033,0.9491001,0.2043042,-1.315335,-4.490414,-3.091719,0.6170881,1.127743,0.4526937,-2.147656,-0.1063384,7.8,0,-0.1922047,-0.4342691,0.14128,-0.4957837,-4.443376,0.1515405,0.6626904,1.348208,0.3695269,-0.03505272,-0.03390896,-0.4754208,-0.9186148,0.1297065,-0.02132233,0.7365049,1.403418,0.2254663,0.420224,1.1657,0.2950297,283.406,122.6473,116.3104,True
2,0.7888896,-1.382891,0.9236214,0.2140749,-1.318526,-4.500062,-3.073946,0.6162903,1.127589,0.4522312,-2.149641,-0.1796688,7.8,0,-0.2125982,-0.4351358,0.1254801,-0.4956718,-4.454031,0.1639833,0.6639755,1.348062,0.3698559,-0.03715372,-0.009416081,-0.4786694,-0.9241238,0.1303536,-0.02129544,0.7383052,1.403084,0.2258093,0.4195149,1.170182,0.2959152,284.0228,119.4512,119.9096,True
2,0.8000008,-1.383902,0.9056619,0.234446,-1.322517,-4.509645,-3.056061,0.615549,1.127465,0.4517698,-2.151188,-0.1391062,21.2,0.1,-0.2413994,-0.4146949,0.1142147,-0.4953517,-4.462255,0.1748307,0.6652369,1.347886,0.3700881,-0.04671177,0.007607295,-0.4807287,-0.9292472,0.130536,-0.02065015,0.7399332,1.402517,0.2261932,0.4190271,1.174387,0.2965173,284.6906,116.9437,122.7047,True
2,0.8111119,-1.371041,0.8824018,0.2527112,-1.326686,-4.518652,-3.039048,0.6146652,1.127329,0.4512658,-2.152593,-0.1265266,21.2,0.1,-0.2626802,-0.3889961,0.1071854,-0.494973,-4.469876,0.1850066,0.6665241,1.347722,0.3703632,-0.0498783,0.01507528,-0.4796525,-0.9345996,0.1309269,-0.02021366,0.7415434,1.4021,0.2265546,0.418585,1.178474,0.2968992,285.3873,114.7409,125.1075,True
2,0.8222231,-1.353967,0.8858606,0.281432,-1.331824,-4.528529,-3.022151,0.613839,1.127203,0.4507599,-2.153511,-0.08234397,21.2,0.1,-0.2764603,-0.3644388,0.1053949,-0.494532,-4.477268,0.1949666,0.6678383,1.347604,0.3706601,-0.05943838,0.02571788,-0.4806454,-0.9399616,0.1311864,-0.01949221,0.7431856,1.401733,0.2268162,0.4181427,1.182516,0.2971804,286.0978,112.6639,127.3335,True
2,0.8333342,-1.330508,0.8871188,0.2984311,-1.336831,-4.53821,-3.005776,0.6129164,1.127241,0.4501798,-2.155081,-0.1422546,21.2,0.1,-0.2892774,-0.3494048,0.0971256,-0.4943892,-4.484685,0.2051305,0.6690012,1.347431,0.3709466,-0.07428074,0.04386935,-0.4773442,-0.9451602,0.1323777,-0.01882855,0.7447596,1.401289,0.2272203,0.4176911,1.186579,0.2974871,286.7998,110.7004,129.4557,True
2,0.8444453,-1.315588,0.8915288,0.313299,-1.342216,-4.547962,-2.989273,0.6120775,1.127264,0.4496446,-2.156161,-0.09714185,21.2,0.1,-0.3031101,-0.3483126,0.09832711,-0.494092,-4.493365,0.2165959,0.6703155,1.34733,0.3712335,-0.0678784,0.07047895,-0.4828217,-0.9507432,0.1343538,-0.01952923,0.7464477,1.400895,0.2277396,0.4172165,1.19069,0.2979108,287.524,108.8124,131.5403,True
2,0.8555565,-1.291062,0.8852451,0.3197057,-1.347442,-4.55718,-2.973548,0.6111466,1.127316,0.4490333,-2.157172,-0.09140085,27.8,3,-0.3330944,-0.3630331,0.08676273,-0.4945069,-4.503256,0.2300028,0.6714315,1.347223,0.3715184,-0.07427621,0.09710637,-0.4892282,-0.9564444,0.1365974,-0.01979368,0.7479826,1.400459,0.2282302,0.416687,1.194871,0.2985546,288.2536,107.0336,133.5834,True
2,0.8666676,-1.278268,0.8767164,0.3154967,-1.352451,-4.566189,-2.957633,0.6102871,1.127311,0.4484468,-2.157488,-0.02797273,27.8,3,-0.3609745,-0.3787946,0.07304417,-0.4951669,-4.513125,0.2436491,0.6724259,1.347011,0.371798,-0.07953182,0.1173804,-0.4871024,-0.9618502,0.1389748,-0.02011059,0.7496046,1.400018,0.2287381,0.4160825,1.199128,0.2994565,288.9903,105.388,135.5916,True
2,0.8777788,-1.253733,0.857571,0.3124182,-1.357429,-4.574466,-2.942712,0.6094075,1.127434,0.4478292,-2.158415,-0.08434401,27.8,3,-0.3867373,-0.3785183,0.05090763,-0.4964164,-4.521537,0.2560347,0.673265,1.346755,0.3721104,-0.08156258,0.1429664,-0.4839694,-0.9672505,0.1418281,-0.02083311,0.750958,1.399578,0.2292662,0.4154632,1.203414,0.3006335,289.7252,103.8179,137.6198,True
2,0.8888899,-1.227028,0.8224191,0.3051736,-1.362005,-4.581697,-2.928493,0.6084566,1.127556,0.4471695,-2.158462,-0.003421622,27.8,3,-0.4124165,-0.3761942,0.03837867,-0.4974614,-4.529927,0.2687641,0.6740128,1.346539,0.372334,-0.08361921,0.1642863,-0.4829514,-0.9726589,0.1447629,-0.02160463,0.752388,1.39894,0.2297459,0.4148706,1.207665,0.3020191,290.4811,102.297,139.6868,True
2,0.900001,-1.212066,0.8043054,0.2989089,-1.366857,-4.589366,-2.914088,0.6073796,1.1277,0.4465692,-2.159409,-0.0866084,47.2,4,-0.4316103,-0.3419219,0.02394935,-0.498376,-4.535509,0.2789469,0.6746788,1.346362,0.372561,-0.09212998,0.1738909,-0.4839549,-0.9780901,0.1473576,-0.02174924,0.753774,1.39844,0.2301819,0.4143605,1.211806,0.3035182,291.2296,100.9081,141.6646,True
2,0.9111122,-1.184271,0.7476889,0.2705455,-1.370393,-4.595241,-2.900728,0.6063456,1.127801,0.4458802,-2.160048,-0.0575509,47.2,4,-0.4464665,-0.3173538,0.02218004,-0.4988942,-4.54118,0.2893527,0.6754268,1.346134,0.3728087,-0.1017375,0.1674975,-0.4848874,-0.9833307,0.1489828,-0.02125602,0.7548795,1.397785,0.2305346,0.4139359,1.21582,0.3049923,291.9541,99.62928,143.5359,True
2,0.9222233,-1.164965,0.676159,0.2444383,-1.373544,-4.599974,-2.887435,0.6053656,1.127853,0.4453497,-2.159995,0.005309609,47.2,4,-0.4579062,-0.2908746,0.04275912,-0.4985283,-4.546882,0.2998086,0.6761204,1.346066,0.3728895,-0.1059485,0.1526026,-0.477329,-0.9882639,0.1501378,-0.02063044,0.7563013,1.397299,0.2308302,0.4135668,1.219675,0.3062978,292.6873,98.48689,145.2088,True
2,0.9333345,-1.127487,0.5855522,0.2259303,-1.376633,-4.603295,-2.875486,0.6043529,1.128004,0.4446592,-2.160614,-0.05673914,47.2,4,-0.4501005,-0.2677182,0.07165868,-0.4975717,-4.552543,0.3094622,0.6767635,1.345909,0.3729899,-0.1142867,0.1228701,-0.452639,-0.9923769,0.150473,-0.01916091,0.7575008,1.396814,0.2310753,0.4131975,1.223373,0.3073691,293.426,97.50748,146.6441,True
2,0.9444456,-1.10076,0.5364958,0.2113617,-1.379575,-4.606959,-2.863579,0.6032499,1.128249,0.4440684,-2.160827,-0.0185534,47.2,4,-0.4445997,-0.2540093,0.08557858,-0.4969592,-4.558078,0.3190379,0.6773939,1.345837,0.373059,-0.1173998,0.1079826,-0.4419143,-0.9970087,0.1510416,-0.01810204,0.7587843,1.39632,0.231293,0.4129674,1.226784,0.3081387,294.1387,96.68549,147.8553,True
2,0.9555568,-1.055888,0.4736835,0.2032794,-1.382514,-4.609607,-2.85275,0.6021765,1.128541,0.4436519,-2.162625,-0.1633567,51.5,4.6,-0.4401415,-0.2403177,0.1005773,-0.4961528,-4.563827,0.3286967,0.6780026,1.345896,0.3731146,-0.1525034,0.1197995,-0.439442,-1.001861,0.15307,-0.01635208,0.7599299,1.395763,0.2316015,0.4129458,1.229899,0.3085479,294.7729,95.99497,148.8106,True
2,0.9666679,-0.9971931,0.4300973,0.1971651,-1.385501,-4.612392,-2.843112,0.6009842,1.128945,0.4431436,-2.163989,-0.1221784,51.5,4.6,-0.4528798,-0.2296341,0.1018563,-0.4957464,-4.569015,0.3387479,0.6783658,1.345922,0.3732538,-0.1727164,0.1453955,-0.4424988,-1.006923,0.1558478,-0.01527882,0.761125,1.395252,0.2320039,0.4130899,1.23284,0.3085349,295.3594,95.4053,149.5344,True
2,0.977779,-0.9427764,0.3896698,0.1867645,-1.388218,-4.615067,-2.833706,0.5999746,1.129423,0.4427447,-2.166465,-0.2239663,51.5,4.6,-0.4859154,-0.207084,0.09276606,-0.4957442,-4.572828,0.3485513,0.6786635,1.345907,0.3735101,-0.199256,0.2104246,-0.4477432,-1.012192,0.1611615,-0.01500239,0.7622567,1.39479,0.2326298,0.4133293,1.235744,0.308162,295.9476,94.99854,149.915,True
2,0.9888902,-0.8947763,0.3534245,0.1699494,-1.390505,-4.617427,-2.824677,0.5988241,1.129786,0.4423606,-2.169735,-0.2953989,51.5,4.6,-0.5318518,-0.1875779,0.07312966,-0.4960484,-4.575829,0.3586274,0.6788044,1.345797,0.3737586,-0.2245846,0.2808241,-0.4413067,-1.017102,0.1675068,-0.01508761,0.7635024,1.394351,0.2332473,0.4136756,1.238683,0.3075747,296.5501,94.63448,150.1292,True
2,1.000001,-0.8617113,0.3386225,0.1742878,-1.393533,-4.62001,-2.815623,0.5978277,1.130142,0.4419594,-2.172334,-0.2334202,46.9,6.1,-0.5585946,-0.1713555,0.05434895,-0.4965389,-4.578724,0.3680502,0.6789917,1.345725,0.3739195,-0.2413638,0.3394755,-0.4285229,-1.021472,0.1737432,-0.01510998,0.7645727,1.393777,0.2340462,0.4140756,1.241707,0.3069219,297.1887,94.28445,150.2997,True
2,1.011112,-0.8062661,0.3120408,0.1648345,-1.395826,-4.62205,-2.808039,0.5966833,1.130382,0.441643,-2.175351,-0.271844,46.9,6.1,-0.5927783,-0.1358929,0.03260724,-0.4969991,-4.579063,0.376073,0.6788862,1.345488,0.3740225,-0.250885,0.3714575,-0.4295852,-1.026387,0.179711,-0.01516031,0.7656559,1.393248,0.2347243,0.4145742,1.244764,0.3063637,297.8599,93.96014,150.4745,True
2,1.022224,-0.7637109,0.3571497,0.1995986,-1.400879,-4.626328,-2.800201,0.5955533,1.130658,0.4414587,-2.1785,-0.2831782,46.9,6.1,-0.6130723,-0.07380542,0.005656429,-0.4972857,-4.576285,0.381088,0.6786907,1.345344,0.3740883,-0.2561041,0.4108585,-0.4285846,-1.031044,0.1861651,-0.01554221,0.7665725,1.392659,0.235436,0.4151577,1.247816,0.3059917,298.571,93.59196,150.7436,True
2,1.033335,-0.6943994,0.3123185,0.1678946,-1.402061,-4.62778,-2.794741,0.5943631,1.130699,0.4409275,-2.183321,-0.4357755,46.9,6.1,-0.6342778,-0.02467734,-0.0001031086,-0.4969208,-4.573463,0.3862891,0.6785446,1.345173,0.3741219,-0.2528325,0.433229,-0.4276288,-1.035888,0.1924889,-0.01617551,0.7675023,1.392237,0.2360287,0.4158192,1.250856,0.3058679,299.2814,93.15907,151.1536,True
2,1.044446,-0.6549934,0.3371434,0.1985631,-1.40664,-4.631065,-2.788353,0.5931112,1.130845,0.441015,-2.187314,-0.3586059,46.9,6.1,-0.673442,0.03611463,0.006134383,-0.4956686,-4.568845,0.3910383,0.6783754,1.34507,0.3741753,-0.2516998,0.4342918,-0.4212605,-1.040433,0.1977295,-0.01606552,0.7685231,1.391682,0.2366526,0.416492,1.253855,0.3060096,300.0266,92.72707,151.5795,True
2,1.055557,-0.5793633,0.3437571,0.2058855,-1.410464,-4.63393,-2.783979,0.5918804,1.130996,0.4407382,-2.193121,-0.5251994,35.3,6.4,-0.6689414,0.0764789,0.0181647,-0.494353,-4.565175,0.395008,0.6782268,1.344931,0.3743205,-0.2463294,0.4353623,-0.418126,-1.045053,0.2033114,-0.01640401,0.7694116,1.391233,0.2373347,0.4170458,1.256858,0.3064954,300.7681,92.2145,152.2119,True
2,1.066668,-0.5272269,0.3865774,0.217215,-1.414892,-4.638357,-2.779278,0.5908249,1.131059,0.4405897,-2.196905,-0.3384599,35.3,6.4,-0.6401091,0.08166587,0.02220487,-0.4935503,-4.563485,0.3993988,0.6781973,1.34476,0.3744893,-0.2505049,0.4311393,-0.4095401,-1.049329,0.2086027,-0.01618217,0.7703487,1.390887,0.2379291,0.4175687,1.259598,0.3071707,301.5224,91.7284,152.9186,True
2,1.077779,-0.4995405,0.3908837,0.2150171,-1.418695,-4.641747,-2.774096,0.5897163,1.131167,0.4402778,-2.20325,-0.5740996,35.3,6.4,-0.6147262,0.05291665,0.01212004,-0.4939679,-4.564111,0.4058972,0.6781329,1.344599,0.3746715,-0.2492236,0.429075,-0.3893066,-1.053084,0.2140054,-0.01615873,0.7711312,1.390428,0.2385228,0.4178828,1.262215,0.3080448,302.1517,91.26021,153.528,True
2,1.08889,-0.4632836,0.3717035,0.2044773,-1.4218,-4.644308,-2.769868,0.5885941,1.131377,0.4399774,-2.208097,-0.434831,35.3,6.4,-0.5799393,-0.007756233,-0.006856155,-0.4955818,-4.568012,0.414562,0.6780368,1.344476,0.3748951,-0.2457516,0.4089224,-0.3583774,-1.05607,0.2184287,-0.01567696,0.7719161,1.389979,0.2390091,0.4180084,1.26468,0.3090763,302.7013,90.84542,154.1899,True
2,1.100002,-0.4365882,0.3407469,0.1887121,-1.424247,-4.646319,-2.765717,0.5876092,1.131609,0.4395733,-2.212413,-0.3875138,35.3,6.4,-0.5388021,-0.05984017,-0.03434919,-0.4978146,-4.571115,0.4216942,0.6779599,1.34433,0.3750269,-0.2370851,0.3823311,-0.3392096,-1.059172,0.2221408,-0.01519227,0.7726727,1.389529,0.2394249,0.4179859,1.266969,0.3102511,303.1773,90.535,154.8369,True
2,1.111113,-0.407712,0.2637257,0.1392018,-1.424279,-4.646591,-2.762174,0.5866561,1.131899,0.4392562,-2.218428,-0.5429141,17,9.6,-0.5069711,-0.07798085,-0.04227586,-0.4990764,-4.573112,0.427954,0.6780074,1.34431,0.3750463,-0.2125671,0.3311467,-0.3265121,-1.062064,0.2238589,-0.01458427,0.7731383,1.38894,0.2398772,0.417878,1.269159,0.3114276,303.569,90.2087,155.5697,True
2,1.122224,-0.394823,0.2092521,0.1161687,-1.425025,-4.646953,-2.758325,0.5855638,1.132308,0.4388533,-2.22388,-0.4901213,17,9.6,-0.4811342,-0.06870225,-0.01686949,-0.4986886,-4.574417,0.4335093,0.6779504,1.344352,0.3750844,-0.1977637,0.2852563,-0.3275773,-1.065426,0.2250982,-0.01363166,0.7736223,1.388478,0.2401721,0.4178215,1.271263,0.3124418,303.9162,89.88116,156.2957,True
2,1.133335,-0.3691487,0.1321946,0.062405,-1.423614,-4.646364,-2.75525,0.5846258,1.132757,0.4384656,-2.229649,-0.5197254,17,9.6,-0.4712744,-0.05189514,0.006616708,-0.4979866,-4.57506,0.4389787,0.678008,1.344394,0.3751264,-0.1850308,0.2596723,-0.3265665,-1.069024,0.2274918,-0.01319729,0.774245,1.388072,0.2406898,0.417973,1.273239,0.3131342,304.2579,89.5999,156.9295,True
2,1.144446,-0.3572359,0.04369184,0.04922152,-1.422855,-4.643845,-2.752287,0.5838149,1.13321,0.4381721,-2.234875,-0.469703,17,9.6,-0.4549376,-0.04373372,0.04169246,-0.4965725,-4.576804,0.4449362,0.677973,1.344441,0.3751152,-0.1774786,0.2383578,-0.3148493,-1.071841,0.2291916,-0.01251339,0.7748863,1.387712,0.2409434,0.4184155,1.275081,0.3133309,304.649,89.41521,157.3096,True
2,1.155557,-0.3496847,-0.01514043,0.01662731,-1.421234,-4.642266,-2.748912,0.5830885,1.133596,0.4379039,-2.241013,-0.55347,13.2,49.7,-0.4355739,-0.05038026,0.06382506,-0.4956654,-4.579556,0.4515115,0.6780244,1.344446,0.375087,-0.1667969,0.2245102,-0.309594,-1.075135,0.2315689,-0.01222444,0.7753602,1.387369,0.2413626,0.4190713,1.276936,0.3129741,305.0918,89.28336,157.4489,True
2,1.166668,-0.3486098,-0.02265319,0.00922692,-1.42096,-4.641921,-2.745167,0.5824976,1.13396,0.4376359,-2.246366,-0.4810716,13.2,49.7,-0.4176686,-0.06840798,0.0475153,-0.4963131,-4.582121,0.4577361,0.6780254,1.34443,0.3751135,-0.1667778,0.2202418,-0.3074449,-1.078395,0.2339498,-0.01157623,0.7761422,1.387092,0.2416618,0.4200291,1.278702,0.3120801,305.5588,89.21784,157.3485,True
2,1.17778,-0.3518198,-0.01304596,0.01234822,-1.421294,-4.642108,-2.741189,0.5818832,1.134325,0.4374139,-2.25145,-0.4573084,13.2,49.7,-0.4040379,-0.08320019,0.02913988,-0.4972873,-4.584315,0.4636571,0.6779772,1.344427,0.3752205,-0.1646653,0.2095895,-0.3063691,-1.081798,0.2361533,-0.01084706,0.7766021,1.386748,0.2419906,0.4213102,1.28036,0.3107352,306.0264,89.11992,157.0834,True
2,1.188891,-0.3465221,0.001916513,0.01648622,-1.42179,-4.64254,-2.737409,0.5812382,1.13464,0.4372206,-2.256463,-0.4510732,13.2,49.7,-0.3914637,-0.0798389,0.005612016,-0.4982732,-4.585044,0.4683052,0.6778532,1.34439,0.3753092,-0.1656258,0.2043085,-0.2956949,-1.084889,0.2385875,-0.01010297,0.7773087,1.386477,0.2422674,0.4228336,1.281942,0.3091013,306.5638,89.17726,156.5528,True
2,1.200002,-0.3391027,0.027591,0.02906856,-1.422957,-4.643282,-2.733809,0.5806007,1.134808,0.4371328,-2.260885,-0.3978765,13.2,49.7,-0.3723012,-0.0617272,-0.001856107,-0.4984804,-4.585074,0.4718802,0.6777188,1.344396,0.3753066,-0.1664282,0.208663,-0.2733289,-1.087265,0.2415994,-0.009697368,0.7777642,1.38605,0.2425215,0.4244358,1.283566,0.307454,307.156,89.29558,155.9008,True
2,1.211113,-0.3284927,0.05651031,0.04694437,-1.424558,-4.644247,-2.730355,0.5799196,1.135008,0.4370573,-2.26507,-0.3771489,12.2,100,-0.3603614,-0.03098544,0.01109136,-0.4976809,-4.584397,0.4749021,0.6776276,1.344349,0.3752651,-0.1682712,0.2119708,-0.2466899,-1.089285,0.2447011,-0.009138105,0.7783462,1.38582,0.2427235,0.42595,1.28529,0.3060623,307.7885,89.35424,155.3534,True
2,1.222224,-0.3221171,0.06615466,0.05324681,-1.425564,-4.644816,-2.726814,0.5792984,1.135387,0.4368832,-2.268715,-0.3282431,12.2,100,-0.3505086,-0.008825839,0.03144503,-0.4964324,-4.584371,0.4784313,0.6776758,1.344335,0.3751824,-0.1574949,0.2013466,-0.2329374,-1.091694,0.2469332,-0.008721586,0.7788985,1.385525,0.2428522,0.4272753,1.28704,0.305124,308.4332,89.32693,155.0155,True
2,1.233335,-0.3082785,0.07368241,0.05849763,-1.426702,-4.645469,-2.723761,0.5786723,1.135636,0.4367957,-2.271803,-0.2779832,12.2,100,-0.3375838,-0.004723012,0.04521094,-0.4955653,-4.585063,0.4824207,0.6776705,1.34432,0.3750966,-0.1510887,0.1875084,-0.2276282,-1.094053,0.2488804,-0.008046742,0.7793967,1.385181,0.2429543,0.4283317,1.28871,0.3047652,309.0335,89.20888,154.9256,True
2,1.244446,-0.299718,0.05773238,0.0596743,-1.427373,-4.645274,-2.720706,0.5781404,1.135933,0.4366851,-2.274133,-0.2093247,12.2,100,-0.3150703,-0.01560874,0.06301757,-0.4946529,-4.587439,0.487159,0.6778189,1.344313,0.3750052,-0.1308418,0.1427654,-0.2170521,-1.096198,0.2491353,-0.007342868,0.7797883,1.384924,0.2429008,0.4290214,1.290297,0.3049769,309.5168,89.0136,155.1273,True
2,1.255558,-0.2932743,0.03103901,0.05027672,-1.427302,-4.644639,-2.717763,0.5776019,1.136294,0.43648,-2.276703,-0.2321416,14.7,100,-0.2885701,-0.03372449,0.05408944,-0.4948398,-4.589465,0.4912611,0.6778668,1.34432,0.3748591,-0.1190894,0.1299771,-0.210746,-1.098391,0.2503654,-0.006892793,0.7802241,1.384702,0.2429693,0.4293549,1.291785,0.3056114,309.8555,88.80219,155.5463,True
2,1.266669,-0.2889852,0.008540383,0.0333988,-1.42688,-4.644058,-2.714682,0.5769997,1.136672,0.4362326,-2.278404,-0.1526076,14.7,100,-0.2695494,-0.05180401,0.04415943,-0.4952457,-4.591663,0.4957123,0.6779768,1.344343,0.3748214,-0.1094575,0.1108199,-0.2022745,-1.100538,0.251235,-0.00634871,0.7805195,1.384398,0.2429557,0.4294382,1.293075,0.3065083,310.0854,88.57565,156.0803,True
2,1.27778,-0.2879069,-0.005433299,0.01753141,-1.426466,-4.643673,-2.711555,0.5764895,1.137062,0.4360485,-2.279449,-0.09416004,14.7,100,-0.2557721,-0.06139702,0.03968397,-0.4954721,-4.593854,0.5000125,0.6780573,1.344373,0.3747089,-0.1040141,0.1023377,-0.1895192,-1.102264,0.2524252,-0.005926599,0.7809215,1.38413,0.2430844,0.429361,1.294144,0.3074358,310.217,88.31966,156.6877,True
2,1.288891,-0.282565,-0.0204697,-0.001545741,-1.425479,-4.643442,-2.708658,0.5760666,1.137432,0.4357157,-2.279507,-0.005005178,14.7,100,-0.2354488,-0.05939807,0.04696362,-0.4951125,-4.595685,0.5034344,0.6781037,1.344357,0.3745561,-0.102915,0.08851567,-0.183105,-1.104233,0.253141,-0.005063468,0.7811999,1.383886,0.2430625,0.4291618,1.295022,0.3081375,310.3134,88.10246,157.2321,True
2,1.300002,-0.2814949,-0.02800567,-0.01214258,-1.42475,-4.643118,-2.705644,0.5756292,1.137792,0.4354129,-2.27869,0.07352896,14.7,100,-0.2289997,-0.04985078,0.04912056,-0.4946555,-4.596643,0.5065854,0.6782719,1.344409,0.3743689,-0.09115323,0.08211388,-0.1778889,-1.106097,0.2539111,-0.004838964,0.781572,1.383643,0.2430503,0.4288496,1.295733,0.3084452,310.3985,87.97663,157.5639,True
2,1.311113,-0.2751112,-0.02700047,-0.01961225,-1.424252,-4.642882,-2.702892,0.5752813,1.138012,0.4351032,-2.277153,0.1379421,21.6,100,-0.2162153,-0.04668275,0.04796414,-0.4944244,-4.597892,0.5096853,0.6783752,1.344473,0.3741894,-0.09214969,0.07043339,-0.1693221,-1.107805,0.2544937,-0.004085023,0.7818305,1.383476,0.2430015,0.428454,1.296261,0.3083219,310.4516,87.94559,157.6627,True
2,1.322224,-0.2644936,-0.009909235,-0.01762584,-1.424303,-4.643428,-2.70019,0.5749378,1.138336,0.4347842,-2.274252,0.2614181,21.6,100,-0.1970093,-0.04250232,0.0499508,-0.4940633,-4.599169,0.5124031,0.6784737,1.344541,0.3739991,-0.08675514,0.04915502,-0.1586738,-1.109434,0.254365,-0.00323867,0.7822326,1.383266,0.2428434,0.4279837,1.296574,0.3077812,310.4781,88.00237,157.5654,True
2,1.333336,-0.2570737,0.01038599,-0.01246618,-1.424621,-4.644114,-2.697481,0.5745986,1.138551,0.4343967,-2.270702,0.3189651,21.6,100,-0.1884847,-0.03825541,0.04884286,-0.4937554,-4.600127,0.515107,0.6786166,1.344566,0.3737817,-0.08346194,0.03214794,-0.1458684,-1.110624,0.2541965,-0.002333728,0.7825449,1.383039,0.2426515,0.4274132,1.296669,0.3069163,310.4675,88.09858,157.3069,True
2,1.344447,-0.2507506,0.0499359,0.00320724,-1.425975,-4.645554,-2.694738,0.5743953,1.138683,0.4340777,-2.266191,0.4059679,21.6,100,-0.1725018,-0.04257759,0.04971427,-0.493619,-4.601853,0.5178778,0.6787885,1.344503,0.3735971,-0.07593095,0.02577236,-0.1374097,-1.111923,0.2543887,-0.0017979,0.782831,1.38287,0.2424917,0.4267097,1.29654,0.3058754,310.4114,88.23434,156.9367,True
2,1.355558,-0.2391095,0.09160156,0.01565849,-1.427512,-4.647433,-2.69221,0.5741276,1.1389,0.4337666,-2.260622,0.5013784,23.6,100,-0.1543902,-0.041571,0.04955827,-0.4933144,-4.603265,0.5202781,0.6789376,1.344592,0.3733723,-0.0736805,0.01941924,-0.1257007,-1.113013,0.2544979,-0.001185373,0.7831066,1.382763,0.2423298,0.4257646,1.29629,0.3048272,310.3065,88.41524,156.522,True
2,1.366669,-0.2295806,0.125807,0.0281693,-1.42919,-4.649357,-2.68976,0.5738133,1.139105,0.4334886,-2.254194,0.5783238,23.6,100,-0.1394188,-0.04166751,0.05581743,-0.4927136,-4.60489,0.5227929,0.6790746,1.344689,0.3730688,-0.06825617,0.013051,-0.1150909,-1.114011,0.2544469,-0.0005717807,0.7833501,1.38261,0.2420826,0.4245474,1.295907,0.3039412,310.1411,88.59156,156.1612,True
2,1.37778,-0.2264253,0.1525465,0.04074001,-1.430977,-4.651288,-2.687123,0.5736395,1.139334,0.4331596,-2.247184,0.6306173,23.6,100,-0.1277204,-0.0384805,0.05254004,-0.4924451,-4.606018,0.524823,0.6792129,1.344793,0.3728104,-0.065001,0.006670699,-0.1087158,-1.115043,0.2542853,4.687164E-05,0.7835934,1.382586,0.2418268,0.423036,1.295416,0.3033831,309.8947,88.75714,155.8963,True
2,1.388891,-0.2211245,0.1653619,0.04383464,-1.432482,-4.652968,-2.684627,0.5734296,1.139502,0.4328513,-2.239184,0.7200316,23.6,100,-0.1213164,-0.03424085,0.05251801,-0.4920723,-4.60708,0.5269344,0.6793082,1.344831,0.3725517,-0.06708154,0.001356401,-0.102271,-1.11581,0.2539453,0.001107609,0.7837443,1.382336,0.2415993,0.4211798,1.294885,0.3032372,309.5887,88.89769,155.7876,True
2,1.400002,-0.2168782,0.1728322,0.0448392,-1.433861,-4.654601,-2.682135,0.5733523,1.139709,0.4323173,-2.230189,0.8099262,23.6,100,-0.1169893,-0.0247013,0.05682696,-0.4913175,-4.607821,0.5288287,0.6795099,1.344844,0.3722086,-0.06920331,0.0002761036,-0.1011704,-1.116768,0.2535748,0.002112952,0.7839808,1.382099,0.2413311,0.4190003,1.294292,0.3035186,309.2056,88.97363,155.8866,True
2,1.411114,-0.210488,0.1728201,0.04163048,-1.434925,-4.656126,-2.679847,0.5732905,1.139909,0.4320216,-2.220864,0.8389923,20,100,-0.1137404,-0.01728094,0.06005815,-0.4906288,-4.608492,0.5306029,0.6796621,1.344926,0.3719332,-0.07348593,-0.001847334,-0.1032511,-1.118034,0.2535299,0.002986469,0.7842444,1.381909,0.2411544,0.4165882,1.293596,0.3041592,308.7328,88.99529,156.1867,True
2,1.422225,-0.2083384,0.1621013,0.03211921,-1.435583,-4.65745,-2.677494,0.5731893,1.140181,0.4316468,-2.210956,0.891787,20,100,-0.1073121,-0.004513152,0.05904461,-0.4899572,-4.608578,0.5315632,0.6798429,1.344978,0.371588,-0.06915136,-0.005062394,-0.09581453,-1.118626,0.2528665,0.003885286,0.7844548,1.381711,0.2408502,0.4140413,1.292755,0.3050162,308.2022,88.96777,156.6507,True
2,1.433336,-0.2094001,0.1567125,0.02470584,-1.436316,-4.658784,-2.674962,0.5730666,1.140426,0.4313245,-2.200781,0.9154277,20,100,-0.1050974,0.008224778,0.06340235,-0.4889468,-4.608644,0.5326879,0.6799962,1.34504,0.371244,-0.06587952,-0.01675544,-0.08622581,-1.119294,0.2522402,0.004786499,0.7846732,1.381628,0.240448,0.4114527,1.291768,0.305898,307.6218,88.94489,157.157,True
2,1.444447,-0.2008854,0.1545191,0.01405738,-1.436877,-4.660369,-2.672741,0.5730305,1.140605,0.4309492,-2.189964,0.9738266,20,100,-0.09970903,0.01135508,0.06870759,-0.4880275,-4.609329,0.5341947,0.6800888,1.345101,0.370893,-0.06682346,-0.024202,-0.074443,-1.11933,0.2512178,0.005836051,0.7848617,1.381545,0.2400806,0.4088898,1.290641,0.306671,307.0351,88.96893,157.5473,True
2,1.455558,-0.1987589,0.1555753,0.01191692,-1.437768,-4.661947,-2.670407,0.5729197,1.140865,0.4306726,-2.178713,1.012776,20,100,-0.09540904,0.02627051,0.0677399,-0.4869164,-4.60856,0.5344126,0.6802508,1.345123,0.3705065,-0.06143766,-0.02738392,-0.0681016,-1.119925,0.2508799,0.006522348,0.7850858,1.381412,0.2396982,0.4063497,1.28944,0.3072206,306.4631,89.03178,157.8086,True
2,1.466669,-0.1955563,0.1577492,0.0172267,-1.438953,-4.66336,-2.668248,0.5728325,1.141015,0.4303455,-2.167703,0.9903067,14.1,86.6,-0.08785629,0.02188034,0.07935028,-0.4857893,-4.609793,0.5362341,0.6804549,1.345164,0.370142,-0.05604755,-0.02847896,-0.06282228,-1.120346,0.2499785,0.007259245,0.785424,1.381367,0.2392969,0.4038531,1.288179,0.3075162,305.9094,89.13452,157.9336,True
2,1.47778,-0.190238,0.159875,0.01507851,-1.43993,-4.664923,-2.666127,0.5727744,1.141152,0.4301338,-2.156046,1.049528,14.1,86.6,-0.0825558,0.01654332,0.07818691,-0.4851443,-4.610834,0.537867,0.680655,1.345199,0.3697772,-0.05604025,-0.02740601,-0.06176074,-1.121019,0.2497865,0.008056062,0.7856669,1.381257,0.2390049,0.4014181,1.28684,0.307581,305.3729,89.29655,157.9148,True
2,1.488891,-0.1848903,0.1524455,0.01725932,-1.4408,-4.666048,-2.664144,0.5726009,1.141439,0.4298201,-2.144392,1.048578,14.1,86.6,-0.07624271,-0.002634361,0.0758279,-0.4848769,-4.613027,0.5403759,0.6809021,1.345252,0.3694148,-0.05182787,-0.03276068,-0.0660494,-1.121894,0.2490944,0.008648615,0.7860188,1.381246,0.2385895,0.3989983,1.285472,0.3074902,304.8389,89.46812,157.7992,True
2,1.500003,-0.1784632,0.1364245,0.008846737,-1.441024,-4.667127,-2.662358,0.572576,1.141749,0.4295046,-2.132492,1.070976,14.1,86.6,-0.06557973,-0.02297341,0.08300156,-0.484389,-4.615896,0.5431805,0.6812398,1.34533,0.369041,-0.04649679,-0.03810352,-0.06713915,-1.122466,0.2484121,0.008846755,0.7862189,1.381105,0.2383058,0.3966057,1.284035,0.3073411,304.3099,89.62163,157.6681,True
2,1.511114,-0.1762992,0.1171887,0.0004760735,-1.441211,-4.667824,-2.660389,0.5725136,1.142002,0.4291294,-2.120445,1.084119,10.9,83.6,-0.05611824,-0.03997942,0.07530023,-0.4844567,-4.618252,0.5455842,0.6815033,1.345446,0.3686497,-0.03912249,-0.04665881,-0.07252006,-1.123482,0.247568,0.00947313,0.786459,1.381021,0.237817,0.3942044,1.282537,0.3072155,303.7745,89.7881,157.5273,True
2,1.522225,-0.1752109,0.108624,-0.004783895,-1.44146,-4.668707,-2.658535,0.5724335,1.142279,0.4287879,-2.108375,1.086197,10.9,83.6,-0.05510181,-0.04740852,0.0720285,-0.4842511,-4.620311,0.5479156,0.6817096,1.345461,0.3682749,-0.03700428,-0.05199023,-0.0725255,-1.124298,0.2467295,0.01016449,0.7866926,1.380914,0.2374024,0.3917337,1.281038,0.3071337,303.2055,89.93179,157.4556,True
2,1.533336,-0.1709307,0.09469638,-0.01640327,-1.44118,-4.669504,-2.656708,0.5724143,1.142419,0.4284186,-2.09578,1.133991,10.9,83.6,-0.04977293,-0.04315181,0.07095353,-0.4837046,-4.621702,0.5495459,0.6819432,1.345496,0.3679407,-0.03696697,-0.0530556,-0.06931737,-1.124833,0.2459227,0.01087129,0.7869431,1.380826,0.2369876,0.3892558,1.279466,0.3071,302.6081,90.09401,157.4186,True
2,1.544447,-0.1730523,0.08607757,-0.02912195,-1.44081,-4.670536,-2.654643,0.5724161,1.142697,0.428056,-2.083421,1.111917,10.9,83.6,-0.05081386,-0.03034569,0.06894714,-0.4830612,-4.622333,0.5506514,0.6821163,1.34559,0.3675396,-0.03690365,-0.05305077,-0.06398398,-1.125267,0.245095,0.01156291,0.7871974,1.380746,0.2365584,0.3867802,1.277816,0.3070897,302.0002,90.24022,157.4118,True
2,1.555558,-0.175194,0.08924317,-0.03340097,-1.440989,-4.671832,-2.652482,0.5723814,1.142985,0.4277952,-2.070908,1.126261,10.9,83.6,-0.05823958,-0.01112024,0.06598891,-0.4823033,-4.622109,0.5513585,0.6823137,1.345617,0.3672142,-0.04104515,-0.05087259,-0.05436695,-1.125688,0.2446718,0.01217011,0.7874686,1.380568,0.2361939,0.3843151,1.276081,0.3070948,301.3984,90.39555,157.399,True
2,1.566669,-0.1730516,0.08818153,-0.03339317,-1.441157,-4.672827,-2.650654,0.5723948,1.143169,0.4274559,-2.058091,1.15378,6.9,72.6,-0.06132816,0.006950025,0.07150458,-0.4811336,-4.622069,0.5521114,0.682586,1.345752,0.3667912,-0.03789686,-0.05410814,-0.05864641,-1.126423,0.2436201,0.01286733,0.7878144,1.380538,0.2357426,0.381891,1.274214,0.3070967,300.7946,90.59071,157.3528,True
2,1.577781,-0.1709253,0.09355926,-0.02704333,-1.441672,-4.67394,-2.64868,0.5723892,1.143403,0.4270403,-2.045357,1.146098,6.9,72.6,-0.05911604,0.01755192,0.07690172,-0.4799751,-4.622174,0.55282,0.6828276,1.345796,0.3664324,-0.03468519,-0.05303995,-0.0576267,-1.127147,0.2431073,0.01333764,0.7880889,1.38036,0.235234,0.3794514,1.272311,0.3070839,300.1571,90.85328,157.2062,True
2,1.588892,-0.1730905,0.1074281,-0.0239531,-1.442305,-4.675513,-2.646354,0.5724614,1.143687,0.4267128,-2.032947,1.116428,6.9,72.6,-0.05804003,0.0196666,0.07797524,-0.479083,-4.622727,0.554023,0.6831676,1.345861,0.3660092,-0.03577951,-0.05518281,-0.05973005,-1.127772,0.2422423,0.01417228,0.788465,1.38031,0.2348518,0.3769943,1.270423,0.3071047,299.5041,91.10271,157.0477,True
2,1.600003,-0.1720413,0.1159459,-0.02402565,-1.442721,-4.677017,-2.644316,0.5724242,1.143949,0.4263179,-2.020223,1.145551,6.9,72.6,-0.05588465,0.01536597,0.0821787,-0.4781471,-4.623815,0.5555567,0.683438,1.34588,0.3655481,-0.03361253,-0.05731204,-0.05549093,-1.128332,0.2413595,0.01491876,0.7888081,1.38016,0.2343931,0.3745735,1.268523,0.3071737,298.8555,91.28413,156.9917,True
2,1.611114,-0.175261,0.1308841,-0.01987942,-1.443529,-4.678741,-2.642114,0.5722508,1.144033,0.4259748,-2.007379,1.156234,7.1,67.8,-0.04518874,0.0003435742,0.09153542,-0.4772118,-4.625959,0.5575767,0.6838095,1.34585,0.3651149,-0.02500244,-0.05304215,-0.04814215,-1.128634,0.2409564,0.0151145,0.7890221,1.380188,0.2340477,0.3721772,1.266655,0.3072783,298.2034,91.45262,156.9729,True
2,1.622225,-0.1795212,0.1319542,-0.01775031,-1.444144,-4.680078,-2.63984,0.5722467,1.144252,0.425602,-1.99518,1.097371,7.1,67.8,-0.03348744,-0.005008079,0.09030546,-0.4765902,-4.627336,0.5586433,0.6839347,1.345854,0.3647797,-0.0228639,-0.05732675,-0.04707366,-1.128985,0.2397438,0.01575047,0.7891084,1.380032,0.2336063,0.3698224,1.264851,0.3074341,297.5643,91.66364,156.9215,True
2,1.633336,-0.1795224,0.1362657,-0.0113901,-1.445031,-4.681485,-2.637675,0.5722368,1.144482,0.4252994,-1.982691,1.124356,7.1,67.8,-0.03143702,-0.01669036,0.08591975,-0.476153,-4.629098,0.5605453,0.6842272,1.345934,0.3643594,-0.01649937,-0.07118443,-0.04710336,-1.129645,0.2384985,0.01620267,0.789345,1.379968,0.2331507,0.3675032,1.263105,0.3076388,297.0018,91.86234,156.8871,True
2,1.644447,-0.177398,0.1373349,-0.01140086,-1.445656,-4.682897,-2.635567,0.5722976,1.144729,0.4249222,-1.970231,1.121501,7.1,67.8,-0.033598,-0.02521014,0.08586442,-0.4756683,-4.631372,0.5630639,0.6845617,1.345969,0.3639765,-0.01654077,-0.0765443,-0.05027145,-1.130183,0.2370088,0.01697233,0.7895292,1.379862,0.2327406,0.3652107,1.261367,0.3079073,296.4772,91.98421,156.9242,True
2,1.655559,-0.1837873,0.1405742,-0.00396302,-1.446628,-4.684253,-2.633169,0.5723205,1.144908,0.4246318,-1.958063,1.094828,7.1,67.8,-0.03363378,-0.03051304,0.08368783,-0.4751441,-4.633173,0.5650299,0.6848512,1.345992,0.3635995,-0.01437928,-0.06482233,-0.04926739,-1.130655,0.2367754,0.01725116,0.789804,1.379654,0.2322595,0.3629783,1.259614,0.3082176,295.9043,92.08957,156.9939,True
2,1.66667,-0.189113,0.1427108,-0.001841895,-1.447478,-4.685688,-2.630766,0.5724383,1.145102,0.4242537,-1.945899,1.094728,6.4,81.8,-0.03042555,-0.03802023,0.08785516,-0.4745439,-4.635803,0.5676336,0.6852639,1.346,0.3631968,-0.01436017,-0.05416827,-0.04931481,-1.131366,0.236516,0.01758805,0.7904066,1.3796,0.2317879,0.3608171,1.257856,0.3085562,295.3089,92.20476,157.0632,True
2,1.677781,-0.2008429,0.1480009,-0.002933912,-1.448297,-4.687282,-2.627994,0.5724059,1.145402,0.4238918,-1.933532,1.113575,6.4,81.8,-0.03034841,-0.03595113,0.09533045,-0.4735985,-4.637788,0.5697378,0.6855824,1.346104,0.3628364,-0.009158157,-0.05420831,-0.0600226,-1.132363,0.2359661,0.0178778,0.7907058,1.379529,0.2313914,0.3587467,1.256087,0.3088977,294.7238,92.34155,157.117,True
2,1.688892,-0.2061702,0.1533565,0.0023598,-1.449437,-4.688828,-2.625426,0.5723874,1.145645,0.4234898,-1.921591,1.07444,6.4,81.8,-0.02379849,-0.03398669,0.1112665,-0.4722994,-4.640542,0.5721945,0.6860739,1.346094,0.3624856,0.000299193,-0.0670405,-0.06967583,-1.133568,0.2347835,0.01798619,0.7911901,1.379539,0.2309101,0.3567592,1.254326,0.309235,294.1553,92.44566,157.1856,True
2,1.700003,-0.2115121,0.1651281,0.01079776,-1.450852,-4.69057,-2.622723,0.5724367,1.146016,0.423089,-1.909483,1.090177,6.4,81.8,-0.01212636,-0.04466151,0.1100007,-0.4717215,-4.643407,0.5745187,0.6864457,1.346143,0.3621836,0.008815609,-0.08409473,-0.06651766,-1.134256,0.2331358,0.01837688,0.7913908,1.379555,0.2306011,0.3548328,1.252609,0.3095452,293.6026,92.56006,157.249,True
2,1.711114,-0.220035,0.1716029,0.02460954,-1.452571,-4.692018,-2.619824,0.5724632,1.146243,0.4228089,-1.898011,1.031997,6.4,81.8,-0.004759915,-0.05314699,0.1034697,-0.4713167,-4.646147,0.5768141,0.6868715,1.346131,0.3619106,0.008920796,-0.0925756,-0.05477396,-1.134535,0.2317664,0.01887649,0.7917384,1.379391,0.2302148,0.3528881,1.251015,0.3098143,293.0706,92.69134,157.2803,True
2,1.722225,-0.2200374,0.175902,0.02990284,-1.454016,-4.693543,-2.617249,0.5722369,1.146438,0.4224946,-1.886386,1.046501,5,69.2,-0.002653807,-0.04993262,0.1002816,-0.4707457,-4.648248,0.5787134,0.6872005,1.346186,0.3616159,0.0005030558,-0.0978453,-0.04401207,-1.134695,0.2304243,0.01971698,0.7919328,1.379273,0.2298298,0.3509642,1.249521,0.3100585,292.5461,92.77348,157.3449,True
2,1.733337,-0.2338668,0.1760158,0.04909476,-1.456034,-4.694654,-2.614044,0.5720985,1.146713,0.4222004,-1.874693,1.052638,5,69.2,-0.003595203,-0.03936215,0.1099751,-0.4694706,-4.650358,0.5806775,0.6875919,1.346187,0.3612642,-0.0004669875,-0.09034692,-0.03549851,-1.134773,0.2297624,0.02022245,0.7922471,1.379138,0.2294161,0.3491002,1.248112,0.3103088,292.0256,92.8338,157.4123,True
2,1.744448,-0.2402575,0.172808,0.04912257,-1.457365,-4.695993,-2.610919,0.5720993,1.147019,0.4218295,-1.863622,0.9957672,5,69.2,-0.001424037,-0.03833536,0.1131606,-0.4685651,-4.652876,0.5827641,0.6880097,1.346162,0.3609338,0.005846605,-0.08506848,-0.04410898,-1.135592,0.2288504,0.02029648,0.792449,1.379048,0.2290061,0.3473114,1.246753,0.3105981,291.5701,92.82912,157.5313,True
2,1.755559,-0.2551447,0.1621477,0.05242169,-1.458753,-4.696899,-2.607504,0.5718932,1.147366,0.4214828,-1.851669,1.07698,5,69.2,-0.00451275,-0.04483702,0.1269863,-0.4673406,-4.656551,0.5862249,0.6884211,1.346149,0.3606625,0.006843768,-0.09041015,-0.05050043,-1.136508,0.2276794,0.02049595,0.7927533,1.378928,0.2286603,0.3455069,1.245436,0.3109254,291.1691,92.76295,157.7166,True
2,1.76667,-0.2700222,0.145069,0.05256908,-1.459827,-4.697521,-2.603918,0.5715736,1.147697,0.4211462,-1.840458,1.008382,4.9,76.4,0.0008499026,-0.05451165,0.134307,-0.4664527,-4.660493,0.58959,0.6888177,1.346161,0.3603761,0.01637226,-0.09258013,-0.0559196,-1.137265,0.2264933,0.02044056,0.793011,1.378815,0.228256,0.3437046,1.244138,0.3112845,290.7139,92.62378,158.0031,True
2,1.777781,-0.2827843,0.1365234,0.05371318,-1.46101,-4.69825,-2.6003,0.5713075,1.148088,0.420821,-1.828956,1.035686,4.9,76.4,-0.004519962,-0.06086218,0.132173,-0.4657309,-4.663765,0.5927813,0.6891839,1.346219,0.3600688,0.02168237,-0.09259141,-0.05704161,-1.137947,0.225468,0.02049622,0.7932919,1.378735,0.2278807,0.3419494,1.24284,0.3116378,290.2415,92.57521,158.2399,True
2,1.788892,-0.2965977,0.1216167,0.05809923,-1.462127,-4.698646,-2.59646,0.5710362,1.148504,0.4204023,-1.817599,1.022141,4.9,76.4,-0.009936295,-0.06823756,0.1247063,-0.4653096,-4.667183,0.5960906,0.6896226,1.346257,0.3597763,0.02381469,-0.095786,-0.05598914,-1.138535,0.2242154,0.02070821,0.7936704,1.378643,0.2275248,0.3401669,1.241599,0.3119353,289.7911,92.51498,158.4721,True
2,1.800003,-0.3146699,0.106665,0.05823528,-1.463095,-4.698971,-2.592418,0.5706602,1.148964,0.4199507,-1.806486,1.000151,4.9,76.4,-0.01103539,-0.07568416,0.123585,-0.4648356,-4.670922,0.5995846,0.6900083,1.346286,0.359535,0.02066563,-0.09363092,-0.05169901,-1.138946,0.2232242,0.02109277,0.7939469,1.378628,0.227211,0.3383506,1.240412,0.3121409,289.3612,92.44704,158.6767,True
2,1.811115,-0.3253086,0.1002499,0.058296,-1.464111,-4.699385,-2.588405,0.5703279,1.149378,0.419517,-1.795188,1.017149,4.9,76.4,-0.01431651,-0.07773244,0.1161391,-0.4644446,-4.673748,0.6025239,0.6903301,1.346144,0.35918,0.02497847,-0.08296974,-0.04858794,-1.139443,0.2227387,0.02096361,0.7942126,1.378478,0.2267392,0.3365439,1.239262,0.3122528,288.9208,92.38335,158.8508,True
2,1.822226,-0.3572317,0.08311616,0.05526799,-1.464804,-4.699487,-2.583337,0.5699899,1.149835,0.4190507,-1.783946,1.011868,4.7,70.2,-0.02611987,-0.07547179,0.1056137,-0.4642454,-4.676229,0.6052889,0.6908042,1.346095,0.358887,0.02081426,-0.06803337,-0.04326645,-1.139786,0.222346,0.02097692,0.7945002,1.378483,0.2263937,0.3347631,1.238155,0.3122503,288.479,92.30954,159.032,True
2,1.833337,-0.3774618,0.07881722,0.05638907,-1.465752,-4.699747,-2.578441,0.5695854,1.150184,0.4185457,-1.772858,0.997786,4.7,70.2,-0.03358351,-0.07330705,0.1046374,-0.4637187,-4.679026,0.608478,0.6911452,1.346038,0.3586092,0.01871172,-0.064815,-0.04111999,-1.140148,0.2217917,0.02108611,0.7947704,1.378401,0.2260339,0.3329985,1.237104,0.3121204,288.0616,92.27023,159.1523,True
2,1.844448,-0.400896,0.08311027,0.06596309,-1.467151,-4.700239,-2.573197,0.5691701,1.150659,0.4180751,-1.760592,1.105467,4.7,70.2,-0.0494348,-0.06162239,0.1144775,-0.4625735,-4.681556,0.6118383,0.6914808,1.346017,0.3583031,0.01555467,-0.05947257,-0.03897291,-1.140525,0.2212844,0.02118358,0.79499,1.378348,0.2257082,0.3312936,1.236065,0.3118886,287.6723,92.25274,159.2139,True
2,1.855559,-0.4168976,0.1002063,0.07756359,-1.469002,-4.700975,-2.56807,0.568601,1.151187,0.4175706,-1.749427,1.003776,4.7,70.2,-0.05879831,-0.05005581,0.1349062,-0.4609719,-4.684599,0.6155596,0.6917543,1.346085,0.358026,0.02203303,-0.05413491,-0.03160461,-1.140655,0.2208637,0.02098544,0.7952695,1.37824,0.2254226,0.3296233,1.235065,0.3115627,287.291,92.26153,159.2289,True
2,1.86667,-0.437179,0.1247783,0.09338011,-1.471443,-4.701871,-2.562541,0.5678667,1.15162,0.4171259,-1.737833,1.044013,5,67.8,-0.0702626,-0.04811238,0.160598,-0.4591428,-4.688705,0.6202886,0.6920348,1.346061,0.3577194,0.01986573,-0.04988823,-0.03586422,-1.141328,0.2203486,0.0210664,0.7954532,1.378075,0.2250791,0.3279648,1.234119,0.3111777,286.9313,92.24769,159.2348,True
2,1.877781,-0.446777,0.1344165,0.1029089,-1.473633,-4.702528,-2.557272,0.5672734,1.152113,0.4166613,-1.726692,1.002274,5,67.8,-0.07980227,-0.04598731,0.1649692,-0.4578112,-4.692029,0.6244341,0.6923822,1.346019,0.3573649,0.02731093,-0.05309463,-0.03593353,-1.141744,0.2196763,0.02084749,0.7957295,1.377846,0.2247603,0.326244,1.233296,0.3107949,286.5566,92.18816,159.2631,True
2,1.888893,-0.4649104,0.1515076,0.114518,-1.476254,-4.703457,-2.551469,0.5666128,1.152711,0.4161761,-1.715123,1.04188,5,67.8,-0.09040995,-0.07484691,0.1797284,-0.4568658,-4.698709,0.6317737,0.6927311,1.346028,0.3570728,0.0261443,-0.05525421,-0.04444584,-1.14266,0.2188767,0.02097932,0.7960947,1.377759,0.2244267,0.3243938,1.23264,0.3104827,286.2146,92.04116,159.3822,True
2,1.900004,-0.4798228,0.1568674,0.1240755,-1.478595,-4.704026,-2.545671,0.5658777,1.1533,0.4157221,-1.704159,0.986157,5,67.8,-0.09999099,-0.09832983,0.1881331,-0.4561404,-4.70546,0.6392266,0.6930552,1.345967,0.3568649,0.03035867,-0.04888515,-0.05090757,-1.143499,0.2186971,0.02046772,0.7963274,1.377694,0.2242761,0.3224402,1.232115,0.3103086,285.8997,91.73421,159.6951,True
2,1.911115,-0.5138727,0.1397721,0.1274448,-1.480462,-4.703937,-2.538836,0.5649812,1.154165,0.4152961,-1.692563,1.044549,5,67.8,-0.1169274,-0.1261558,0.2082894,-0.4551816,1.569072,0.6488051,0.6934341,1.345953,0.3565426,0.03149465,-0.03715592,-0.04670451,-1.143946,0.2187345,0.02007437,0.7966986,1.377603,0.223964,0.3205031,1.231641,0.3102843,285.5744,91.35567,160.1466,True
2,1.922226,-0.5287497,0.1205185,0.1212144,-1.481776,-4.703892,-2.532551,0.564155,1.154926,0.4148264,-1.681404,1.004032,5.9,58.6,-0.1381564,-0.1336393,0.2190736,-0.4540125,1.562296,0.657119,0.693704,1.345984,0.3563113,0.0401675,-0.03178803,-0.03297459,-1.143937,0.2188113,0.01946425,0.7970529,1.377588,0.2236419,0.3185572,1.231251,0.3103899,285.2371,90.9094,160.7175,True
2,1.933337,-0.5542514,0.08413519,0.1076646,-1.482139,-4.703261,-2.525615,0.5630341,1.155779,0.4142838,-1.669298,1.090987,5.9,58.6,-0.1733507,-0.1313483,0.2141022,-0.4530905,1.556706,0.6652582,0.6938828,1.345985,0.3559353,0.03698482,-0.02964327,-0.03188413,-1.144313,0.2185767,0.01931218,0.7973415,1.377509,0.2233419,0.3165917,1.230963,0.3105656,284.9127,90.40717,161.3808,True
2,1.944448,-0.5765707,0.05845679,0.09936446,-1.482725,-4.702601,-2.518528,0.5620035,1.156604,0.4138222,-1.65879,0.9442575,5.9,58.6,-0.1987234,-0.0993945,0.2242104,-0.4508854,1.55266,0.6719728,0.6939216,1.346021,0.3556097,0.03267904,-0.01900537,-0.03826875,-1.14504,0.2187082,0.01905918,0.797578,1.37742,0.2230792,0.3145678,1.230851,0.310706,284.5829,89.9361,162.0335,True
2,1.955559,-0.6116369,0.003827699,0.07105424,-1.481574,-4.701159,-2.510707,0.5606217,1.157833,0.4134948,-1.64724,1.040787,5.9,58.6,-0.2040017,-0.06309567,0.2171234,-0.4488976,1.550402,0.6763785,0.6940051,1.346104,0.3552814,0.03059337,-0.003014974,-0.0372333,-1.145385,0.2192798,0.01858567,0.7978272,1.377369,0.2230148,0.3125899,1.230851,0.3107235,284.339,89.58049,162.5741,True
2,1.966671,-0.6360617,-0.04328036,0.04693275,-1.480199,-4.699741,-2.502949,0.559333,1.159077,0.4129853,-1.636124,1.000234,6.2,53.2,-0.2060743,-0.04819014,0.2183448,-0.4470308,1.546497,0.682254,0.694128,1.346181,0.3549173,0.02310635,0.004455734,-0.04144609,-1.146098,0.2197783,0.01838593,0.7980037,1.377329,0.2227921,0.3105932,1.230956,0.3105158,284.1523,89.34064,162.9429,True
2,1.977782,-0.6584067,-0.06045452,0.0364379,-1.479647,-4.698723,-2.494973,0.5581368,1.160236,0.4125602,-1.624464,1.050417,6.2,53.2,-0.2070625,-0.03971072,0.2237562,-0.4450984,1.542129,0.6885443,0.6942186,1.346356,0.3546388,0.007088779,0.0108755,-0.04661768,-1.146758,0.2202908,0.01862215,0.7982105,1.377346,0.2225957,0.3085892,1.231143,0.3100575,283.9685,89.23251,163.0747,True
2,1.988893,-0.687168,-0.0745322,0.0142015,-1.478398,-4.698113,-2.486329,0.556942,1.161488,0.4120295,-1.613767,0.9620878,6.2,53.2,-0.2113497,-0.04287506,0.2216385,-0.4436171,1.537502,0.6951732,0.6944009,1.346541,0.354284,0.003924703,0.01942707,-0.04448763,-1.147228,0.221112,0.01846796,0.7984687,1.377157,0.2224107,0.3064604,1.231504,0.309314,283.7527,89.47515,162.7824,True
2,2.000004,-0.7084893,-0.07142265,0.008864637,-1.477913,-4.697676,-2.477817,0.5557866,1.162691,0.4114957,-1.603054,0.964439,6.2,53.2,-0.223065,-0.05992805,0.2279902,-0.4422403,1.531294,0.7036764,0.6945039,1.346582,0.3538866,-0.006740175,0.03436364,-0.04869221,-1.148038,0.2222589,0.01843493,0.7987446,1.377112,0.2222052,0.3043648,1.231993,0.3083189,283.5388,89.87449,162.264,True
2,2.011115,-0.7308733,-0.06615323,0.007782735,-1.47761,-4.697216,-2.468998,0.5545683,1.163855,0.4110122,-1.59198,0.9974673,6.2,53.2,-0.2369148,-0.05667789,0.2270831,-0.4406599,1.526728,0.7108632,0.6945634,1.346721,0.3533974,-0.01423512,0.0428857,-0.0539658,-1.148807,0.2231092,0.01850844,0.7989749,1.377028,0.2220039,0.3023996,1.232579,0.307186,283.3593,90.23846,161.7154,True
2,2.022226,-0.7564849,-0.03628097,0.01928941,-1.478458,-4.697473,-2.459903,0.5533423,1.164944,0.4105096,-1.581741,0.9208614,6.5,63.7,-0.2486192,-0.05985633,0.2292948,-0.4392032,1.521312,0.7188628,0.6946357,1.34678,0.3530409,-0.0259392,0.05356599,-0.05494313,-1.149467,0.2242358,0.01869752,0.7990884,1.376907,0.2218442,0.3005398,1.233296,0.3060078,283.2185,90.71263,161.052,True
2,2.033337,-0.7746773,0.009596154,0.03493666,-1.480082,-4.698154,-2.450731,0.5520762,1.166094,0.4098799,-1.571209,0.9483935,6.5,63.7,-0.2613866,-0.05128273,0.2284237,-0.4375185,1.517063,0.7260563,0.6946733,1.346878,0.3526649,-0.03023865,0.06421457,-0.06025825,-1.150268,0.2254339,0.0187364,0.7993872,1.376605,0.221688,0.2987784,1.234152,0.304892,283.133,91.0555,160.5157,True
2,2.044448,-0.7961125,0.07895403,0.05466871,-1.483071,-4.699895,-2.441149,0.550829,1.16715,0.4093561,-1.56091,0.9269863,6.5,63.7,-0.2709363,-0.04701377,0.2306836,-0.4358561,1.512184,0.7337118,0.6946914,1.346996,0.3523362,-0.03879541,0.0780675,-0.06660861,-1.151287,0.2270004,0.01875478,0.7996272,1.376548,0.2215815,0.2970441,1.235159,0.3039231,283.0978,91.20156,160.1936,True
2,2.055559,-0.81116,0.1537,0.08181655,-1.487026,-4.701842,-2.431557,0.5496274,1.168295,0.4088058,-1.550969,0.8945998,6.5,63.7,-0.273162,-0.04263996,0.2190226,-0.4345922,1.508395,0.7402112,0.6946653,1.347206,0.3521116,-0.04948922,0.0961808,-0.07401018,-1.152298,0.2288887,0.01890525,0.7998877,1.37636,0.2216232,0.2952534,1.236344,0.3031872,283.0808,91.05396,160.2245,True
2,2.06667,-0.81976,0.196359,0.09002316,-1.490353,-4.703781,-2.421987,0.5483687,1.169427,0.4082763,-1.540921,0.904767,6.5,63.7,-0.2860389,-0.04785267,0.2105732,-0.4335706,1.503763,0.7480173,0.6947016,1.347233,0.3518045,-0.05482085,0.1025772,-0.07610424,-1.153204,0.2303797,0.0190408,0.8002137,1.37635,0.2215073,0.2933562,1.237728,0.302737,283.0694,90.66429,160.5795,True
2,2.077781,-0.8336943,0.246563,0.112031,-1.494734,-4.70575,-2.412055,0.5471001,1.17068,0.4077401,-1.531286,0.8668588,7.2,65.5,-0.2924932,-0.04884201,0.2042289,-0.4325043,1.499372,0.7554626,0.6947018,1.347406,0.3515167,-0.05375758,0.1132241,-0.07828255,-1.154134,0.2322318,0.01890125,0.8003882,1.376312,0.2212548,0.29137,1.239302,0.3026513,283.0517,89.99765,161.2734,True
2,2.088892,-0.8507597,0.2593518,0.1172792,-1.498053,-4.7072,-2.401886,0.545797,1.171952,0.4073024,-1.521803,0.8534686,7.2,65.5,-0.2988641,-0.04776395,0.2053655,-0.4311242,1.494721,0.7631485,0.6947154,1.347454,0.3512101,-0.05913636,0.1227904,-0.08571012,-1.155287,0.2339563,0.01896117,0.800542,1.376183,0.2211902,0.289347,1.241056,0.3029423,283.0442,89.07375,162.3453,True
2,2.100003,-0.8656469,0.2486894,0.1205673,-1.500618,-4.707898,-2.391699,0.5444944,1.173152,0.4068992,-1.512022,0.8808343,7.2,65.5,-0.2968243,-0.0476836,0.1957576,-0.4301335,1.490714,0.7699995,0.6946407,1.34741,0.3508871,-0.06017319,0.1345015,-0.08573268,-1.156125,0.2358731,0.01886796,0.8006819,1.376002,0.2211237,0.2873258,1.242944,0.3035318,283.0761,88.09032,163.5862,True
2,2.111114,-0.8900703,0.2091731,0.1134284,-1.501912,-4.70793,-2.380892,0.5431319,1.174428,0.4064846,-1.502376,0.8682756,7.2,65.5,-0.2990444,-0.0443867,0.1851538,-0.4291807,1.487222,0.7765841,0.6945895,1.347423,0.3505847,-0.05379424,0.1430107,-0.08795876,-1.157131,0.2380483,0.01849113,0.8008761,1.375886,0.2211108,0.2853062,1.244972,0.3043135,283.119,86.92751,165.0681,True
2,2.122225,-0.9102315,0.1706876,0.1020284,-1.502792,-4.707783,-2.370471,0.5417789,1.175737,0.4061019,-1.493029,0.8411516,6.2,55.8,-0.300421,-0.04302217,0.1521612,-0.4290155,1.485606,0.7814381,0.6945195,1.347387,0.3502855,-0.0569789,0.1504624,-0.08901144,-1.158056,0.2399541,0.01837981,0.8010653,1.375745,0.2210815,0.2833627,1.247078,0.3051326,283.2158,85.9032,166.4474,True
2,2.133336,-0.9219238,0.1491953,0.08195829,-1.503599,-4.708278,-2.359907,0.5403174,1.177145,0.4056711,-1.483192,0.8862107,6.2,55.8,-0.286835,-0.0609993,0.1263681,-0.4292131,1.482307,0.7872312,0.6944537,1.347316,0.3500409,-0.05808192,0.1600428,-0.09329271,-1.159185,0.2423036,0.0183348,0.8012532,1.375569,0.2211342,0.281552,1.249178,0.3058078,283.3706,85.07522,167.6183,True
2,2.144447,-0.92085,0.1384324,0.06712563,-1.504641,-4.708934,-2.349751,0.5389627,1.178554,0.405261,-1.474392,0.7910182,6.2,55.8,-0.2848886,-0.06509052,0.1113402,-0.4295434,1.479351,0.7928255,0.6945103,1.347295,0.3497965,-0.05800466,0.1664426,-0.0879868,-1.159946,0.2443841,0.01807381,0.8015602,1.37543,0.2211185,0.2798298,1.251264,0.3061603,283.5259,84.54852,168.414,True
2,2.155558,-0.9197479,0.1213663,0.06619112,-1.505694,-4.70883,-2.339691,0.537508,1.18001,0.4049094,-1.465263,0.8220187,6.2,55.8,-0.292431,-0.08528778,0.1090982,-0.4298976,1.474793,0.8004599,0.6944364,1.347301,0.3495219,-0.06016331,0.1792188,-0.09226371,-1.161002,0.2470464,0.01791828,0.8017377,1.375331,0.2211647,0.278147,1.253341,0.3061097,283.6696,84.29776,168.791,True
2,2.166669,-0.9165111,0.1000507,0.06314996,-1.506372,-4.708722,-2.329601,0.5361527,1.181577,0.4045451,-1.456589,0.7799861,6.2,55.8,-0.302024,-0.09379956,0.1112492,-0.429913,1.470131,0.8083628,0.6944435,1.347277,0.3492713,-0.06550452,0.1824166,-0.09434734,-1.162095,0.2493263,0.01790603,0.8019754,1.375141,0.2211795,0.276405,1.255445,0.3056965,283.7831,84.26485,168.7979,True
2,2.17778,-0.9175347,0.07658032,0.05691672,-1.506589,-4.70864,-2.319189,0.5346713,1.183125,0.4040952,-1.447587,0.8104343,6,48.2,-0.310461,-0.1045364,0.1240194,-0.429716,1.464365,0.8173886,0.6943718,1.347315,0.3490136,-0.06453907,0.1940978,-0.1061131,-1.163638,0.2522409,0.01741494,0.8021383,1.375001,0.2212718,0.2746527,1.25754,0.3050436,283.8737,84.27804,168.6464,True
2,2.188891,-0.9249948,0.07113238,0.04311736,-1.507042,-4.709026,-2.308478,0.5332373,1.18471,0.4036393,-1.438459,0.8215755,6,48.2,-0.3145574,-0.09932442,0.1390234,-0.4288925,1.459349,0.8255176,0.6942245,1.347326,0.3487537,-0.07101426,0.194082,-0.1134928,-1.165018,0.2545499,0.01756328,0.8022963,1.374804,0.2213471,0.2728874,1.259615,0.3042504,283.9372,84.2352,168.5116,True
2,2.200002,-0.9335227,0.0667326,0.02823976,-1.50737,-4.709609,-2.297605,0.5318425,1.186293,0.4031916,-1.429051,0.8471877,6,48.2,-0.3209298,-0.09503864,0.1391172,-0.4285495,1.45534,0.8329108,0.6940644,1.347322,0.3485403,-0.07748169,0.201522,-0.1209033,-1.166532,0.2572287,0.01775769,0.8024258,1.37449,0.2214439,0.2711235,1.261671,0.3033946,283.9826,84.29826,168.2934,True
2,2.211113,-0.9452586,0.06880067,0.01968783,-1.507989,-4.710519,-2.286392,0.5304476,1.18786,0.4029424,-1.419703,0.8413778,6,48.2,-0.3378094,-0.07483377,0.1501068,-0.4273148,1.451589,0.8406976,0.6938385,1.347352,0.3482995,-0.08389553,0.2121776,-0.125129,-1.168005,0.2602685,0.01771987,0.8025604,1.374335,0.2215848,0.2693091,1.263744,0.3025356,284.0311,84.46841,167.9932,True
2,2.222224,-0.948446,0.06453524,0.01972309,-1.508618,-4.710723,-2.27557,0.5290819,1.189361,0.4025815,-1.410527,0.8259164,6.9,47.3,-0.357828,-0.0343727,0.1602425,-0.4251822,1.44916,0.8476024,0.6936264,1.347457,0.3480837,-0.08818342,0.2185629,-0.1282836,-1.16927,0.2631025,0.01780217,0.8027291,1.374223,0.2217197,0.2674584,1.265866,0.3017607,284.0663,84.64273,167.6999,True
2,2.233335,-0.9516562,0.0677224,0.01648152,-1.509217,-4.711519,-2.264581,0.5276656,1.190905,0.4021251,-1.401228,0.8372338,6.9,47.3,-0.3663445,-0.02259682,0.1572224,-0.4240679,1.446561,0.854373,0.6933974,1.347584,0.3479271,-0.09671316,0.22178,-0.1292626,-1.170671,0.2660743,0.01806076,0.8028747,1.374019,0.2218206,0.2656136,1.268051,0.3011536,284.1054,84.83086,167.4029,True
2,2.244446,-0.9442201,0.08597673,0.03337802,-1.510954,-4.711816,-2.254144,0.5263888,1.192708,0.4016297,-1.392591,0.7766176,6.9,47.3,-0.3619746,-0.009893924,0.1647534,-0.4224711,1.442894,0.8616588,0.6931763,1.347705,0.3476734,-0.1041898,0.2303254,-0.1324029,-1.172187,0.2694219,0.01822667,0.8031023,1.373886,0.2219574,0.2638055,1.270322,0.3007964,284.1651,84.89871,167.2632,True
2,2.255557,-0.9442284,0.09567185,0.04500942,-1.512515,-4.712193,-2.243571,0.5250531,1.194237,0.4012694,-1.383668,0.8034629,6.9,47.3,-0.3663088,-0.010888,0.1583909,-0.4216231,1.439694,0.8688986,0.6930588,1.347716,0.3473918,-0.1020426,0.2409766,-0.1335246,-1.173648,0.2728195,0.01791322,0.8032508,1.373689,0.2220449,0.2620743,1.272666,0.3006594,284.2765,84.74269,167.4698,True
2,2.266668,-0.9463716,0.108563,0.05982508,-1.514489,1.570882,-2.233082,0.5237488,1.195793,0.4008381,-1.375439,0.7398787,6.9,47.3,-0.3694594,-0.02160574,0.1668486,-0.4207262,1.434848,0.8774573,0.6929038,1.347741,0.3471484,-0.1031659,0.2398885,-0.1388303,-1.175206,0.2755586,0.01797208,0.8033378,1.373425,0.2221909,0.2603574,1.275124,0.3006682,284.3756,84.44166,167.9068,True
2,2.277779,-0.9506614,0.1213803,0.06504798,-1.516285,1.570455,-2.222397,0.5225731,1.197339,0.4004302,-1.366705,0.7865507,6.8,53.7,-0.3747828,-0.03976192,0.1731295,-0.4202511,1.429046,0.8869826,0.6927625,1.347762,0.3469622,-0.09688775,0.2355814,-0.1484727,-1.177133,0.2782214,0.01779871,0.8034754,1.373209,0.2222724,0.2587031,1.277711,0.3007477,284.4708,83.94231,168.5625,True
2,2.28889,-0.9602798,0.1362776,0.06601122,-1.518235,1.569876,-2.21151,0.5213383,1.198828,0.3999753,-1.358175,0.7675107,6.8,53.7,-0.3674673,-0.07384527,0.1695626,-0.4206873,1.422577,0.8966634,0.6926146,1.347858,0.3467844,-0.08633996,0.2355175,-0.1581578,-1.17888,0.2809081,0.01733585,0.8035802,1.373017,0.2225482,0.2571437,1.280356,0.3008386,284.6458,83.45394,169.186,True
2,2.300001,-0.9634829,0.1426979,0.06916256,-1.520218,1.569453,-2.200731,0.5199639,1.200367,0.3994997,-1.349504,0.7806861,6.8,53.7,-0.3591921,-0.1067656,0.1542671,-0.4218495,1.417112,0.9052878,0.6924087,1.347814,0.3465545,-0.08958334,0.2333786,-0.1623754,-1.180713,0.2836691,0.01735982,0.8035901,1.372775,0.2227378,0.2556751,1.283022,0.300881,284.8493,82.94765,169.8065,True
2,2.311112,-0.9666741,0.1416648,0.07343505,-1.522058,1.56932,-2.189874,0.5187503,1.20194,0.3990722,-1.340877,0.7765789,6.8,53.7,-0.3645626,-0.1077781,0.1500431,-0.421866,1.412374,0.9138745,0.6921961,1.34779,0.346334,-0.09168417,0.2333938,-0.1602227,-1.18238,0.2865418,0.017322,0.8036999,1.372521,0.2228377,0.254289,1.285675,0.300846,285.054,82.57311,170.2659,True
2,2.322223,-0.9688014,0.1373338,0.07564791,-1.523819,1.569302,-2.178906,0.5174904,1.203495,0.3986137,-1.332615,0.7432578,5,51.7,-0.3666098,-0.1025128,0.1575466,-0.4214271,1.406994,0.9229559,0.6919652,1.347862,0.3460824,-0.09164721,0.2397763,-0.1581018,-1.183853,0.2894887,0.01723438,0.8036616,1.372242,0.2230446,0.2528856,1.288348,0.3007243,285.2609,82.25134,170.6421,True
2,2.333334,-0.9677392,0.1427609,0.07766965,-1.525607,1.56892,-2.167975,0.5162202,1.204999,0.3981264,-1.324377,0.7416682,5,51.7,-0.3729109,-0.0950948,0.1640753,-0.4208423,1.401883,0.9320113,0.691682,1.347884,0.3458736,-0.09582084,0.2664329,-0.1560109,-1.185443,0.2938279,0.01671959,0.8036805,1.372016,0.2233524,0.2514182,1.291057,0.3005117,285.4485,81.9199,171.0022,True
2,2.344445,-0.9613414,0.1439075,0.0872407,-1.527606,1.569063,-2.157552,0.5150997,1.206648,0.3975728,-1.316261,0.7305734,5,51.7,-0.3771938,-0.08438104,0.1578178,-0.4205003,1.397863,0.9399141,0.6914938,1.347942,0.3456681,-0.1054937,0.2738718,-0.165508,-1.187371,0.2972495,0.01687059,0.8039246,1.371797,0.2236168,0.2499801,1.293765,0.3002108,285.6012,81.61279,171.3204,True
2,2.355556,-0.9549638,0.1492628,0.08930858,-1.529607,1.568897,-2.147193,0.514016,1.208139,0.3971686,-1.308462,0.7017314,5,51.7,-0.3803841,-0.0790235,0.155761,-0.4201754,1.393718,0.9478472,0.6913624,1.347983,0.3455865,-0.1098306,0.2738608,-0.1729194,-1.18948,0.3005901,0.01689003,0.8039972,1.371625,0.2239168,0.2485766,1.296491,0.299824,285.7592,81.36804,171.5621,True
2,2.366668,-0.95072,0.1599655,0.09455118,-1.532052,1.568775,-2.136865,0.5128558,1.209643,0.3967006,-1.30122,0.6511232,5,51.7,-0.3792859,-0.08119521,0.1599931,-0.4198607,1.388588,0.9566913,0.6911496,1.347974,0.3453782,-0.1079383,0.262043,-0.1920602,-1.191954,0.3027979,0.01716807,0.8041015,1.371442,0.2240868,0.2472278,1.29924,0.2993805,285.914,81.12724,171.7841,True
2,2.377779,-0.947531,0.1642669,0.09983449,-1.534266,1.568853,-2.126609,0.5117844,1.211029,0.3962753,-1.293689,0.6780193,8.5,56.4,-0.3718384,-0.08441781,0.1598859,-0.4198058,1.383731,0.9648778,0.6909851,1.347947,0.3451686,-0.09518577,0.2566595,-0.194297,-1.193845,0.3053421,0.01675661,0.8042679,1.371125,0.224318,0.2460061,1.301997,0.2988988,286.0662,80.84731,172.0304,True
2,2.38889,-0.9475473,0.1760596,0.1093261,-1.537021,1.568892,-2.116032,0.5106232,1.212489,0.3958404,-1.286126,0.6806979,8.5,56.4,-0.3761251,-0.1014766,0.1629706,-0.4201254,1.377458,0.9749509,0.690782,1.347946,0.3450012,-0.09196448,0.2577246,-0.1922048,-1.195873,0.308497,0.01652172,0.8043479,1.370893,0.2245331,0.2448958,1.304742,0.2984306,286.261,80.61028,172.1995,True
2,2.400001,-0.9518154,0.1792261,0.1071785,-1.539385,1.56879,-2.105225,0.5094436,1.213992,0.3952949,-1.278667,0.6712703,8.5,56.4,-0.3804972,-0.1259482,0.1595987,-0.4211193,1.37077,0.9855078,0.6905177,1.347963,0.3447592,-0.09290884,0.267324,-0.1836778,-1.197206,0.3118113,0.0163116,0.8043456,1.370601,0.2247324,0.2438155,1.307496,0.2980171,286.4889,80.31046,172.4377,True
2,2.411112,-0.9518187,0.1792018,0.1061178,-1.541617,1.568877,-2.094723,0.5083721,1.215414,0.3949969,-1.270904,0.6991069,8.5,56.4,-0.3858862,-0.1344341,0.1563795,-0.4217345,1.364876,0.9953893,0.6902861,1.347909,0.3446023,-0.09716485,0.2843668,-0.1868849,-1.199341,0.3158043,0.01607884,0.8044207,1.37032,0.2249444,0.2427586,1.310221,0.2976754,286.7265,79.97612,172.7334,True
2,2.422223,-0.9528726,0.1738797,0.1072251,-1.543745,1.569108,-2.08416,0.5072517,1.216845,0.3945696,-1.263158,0.6972358,8.5,56.4,-0.3891505,-0.1354181,0.1489444,-0.4222048,1.360156,1.004043,0.6900144,1.347886,0.3444457,-0.09725653,0.2875281,-0.1943488,-1.201665,0.3192245,0.0161028,0.8046176,1.369918,0.2251942,0.2416113,1.312984,0.2974049,286.9393,79.56328,173.1475,True
2,2.433334,-0.9518071,0.1717175,0.1040304,-1.545779,1.569136,-2.073408,0.5061549,1.21839,0.3941743,-1.255896,0.6530561,9.1,58.4,-0.3892882,-0.1534507,0.1402659,-0.423498,1.354367,1.013693,0.6897568,1.347906,0.3443265,-0.09635019,0.2906823,-0.2103456,-1.204492,0.3230995,0.01561944,0.804671,1.369648,0.2255075,0.2404017,1.315781,0.2971861,287.1301,79.23148,173.5095,True
2,2.444445,-0.9400921,0.1717047,0.09869182,-1.547934,1.568982,-2.063234,0.5050647,1.219985,0.393739,-1.248261,0.687414,9.1,58.4,-0.3871119,-0.1470986,0.1434976,-0.4238911,1.348708,1.023181,0.6896065,1.347899,0.3442023,-0.09431425,0.2767983,-0.2156323,-1.206786,0.3258163,0.01570253,0.8046042,1.369311,0.225745,0.2392448,1.318537,0.2970262,287.3274,78.94193,173.8145,True
2,2.455556,-0.9326426,0.1759874,0.09864409,-1.550292,1.568924,-2.053059,0.5039852,1.2215,0.3933456,-1.240408,0.7069358,9.1,58.4,-0.3806308,-0.1461548,0.1530393,-0.4242836,1.342181,1.033264,0.6892959,1.348066,0.3440855,-0.08902681,0.2693257,-0.2177948,-1.209241,0.3289092,0.0154197,0.8046417,1.369039,0.2259886,0.2381068,1.321265,0.2968922,287.5233,78.61783,174.1762,True
2,2.466667,-0.9177208,0.1749974,0.1039604,-1.552628,1.569249,-2.043267,0.5029081,1.223071,0.3928955,-1.233253,0.6430299,9.1,58.4,-0.3604345,-0.1472461,0.1485788,-0.4249521,1.336896,1.041437,0.6890961,1.348046,0.3439314,-0.0847736,0.2565525,-0.2145977,-1.211436,0.3317133,0.01540532,0.8049051,1.368819,0.2261338,0.2369504,1.324012,0.2967618,287.6849,78.31682,174.5211,True
2,2.477778,-0.9091921,0.1729,0.1071658,-1.554838,1.569611,-2.033305,0.5018756,1.224663,0.3924603,-1.22553,0.6953997,6.4,62.6,-0.3593715,-0.1558046,0.1516856,-0.4258704,1.330685,1.051201,0.688809,1.347952,0.3437688,-0.08579841,0.2512292,-0.2092286,-1.21337,0.3343517,0.01550412,0.8048522,1.368478,0.2264118,0.2357916,1.326773,0.2966317,287.8544,78.03401,174.8391,True
2,2.488889,-0.8932031,0.1686742,0.1071847,-1.556932,1.569914,-2.023886,0.5007825,1.226262,0.3920395,-1.218052,0.6725524,6.4,62.6,-0.3571534,-0.1751279,0.1674738,-0.4269958,1.322399,1.062656,0.6886083,1.347889,0.3436248,-0.08259417,0.2490992,-0.2081895,-1.215617,0.3373816,0.0152482,0.8048879,1.368194,0.2266221,0.2346506,1.329513,0.2965018,288.0378,77.68726,175.2123,True
2,2.5,-0.8878485,0.1515632,0.09983188,-1.558074,1.570171,-2.014067,0.4998162,1.227741,0.391645,-1.210026,0.7227994,6.4,62.6,-0.3444812,-0.2124514,0.1680904,-0.4291727,1.314227,1.073527,0.6884584,1.347735,0.3434989,-0.0805155,0.2501348,-0.213537,-1.218117,0.3403118,0.01498507,0.8050315,1.367875,0.2268589,0.2335292,1.33221,0.2963381,288.2195,77.29404,175.6448,True
2,2.511111,-0.8857023,0.1430229,0.09669907,-1.559655,1.570498,-2.0042,0.4987406,1.229283,0.3912182,-1.202613,0.6663397,6.4,62.6,-0.3307337,-0.2188109,0.1593819,-0.4308372,1.308035,1.082374,0.688211,1.347713,0.3433387,-0.08377622,0.2522515,-0.2199005,-1.220783,0.3434594,0.0149691,0.8050743,1.367574,0.2270217,0.2324122,1.334862,0.2961109,288.3783,76.94913,176.0202,True
2,2.522222,-0.8824907,0.1312676,0.09250867,-1.560855,1.570828,-1.994396,0.4977938,1.230713,0.3908458,-1.194308,0.7482998,6.4,62.6,-0.3307174,-0.2102857,0.1594576,-0.431724,1.302139,1.091575,0.688016,1.347713,0.3431525,-0.08602879,0.236261,-0.2262127,-1.223456,0.3457981,0.01536697,0.8051293,1.367121,0.2273209,0.2313032,1.337433,0.2958153,288.547,76.72939,176.2488,True
2,2.533333,-0.8760862,0.1216333,0.0851019,-1.561902,-4.712188,-1.985015,0.4967645,1.232244,0.3905773,-1.186247,0.7253833,4.4,56,-0.3402467,-0.1921501,0.1596961,-0.4323344,1.296982,1.100325,0.6878078,1.34773,0.3429632,-0.08605971,0.2277389,-0.2272398,-1.225798,0.3482427,0.0154719,0.8050489,1.366985,0.2274673,0.2302216,1.339877,0.2954515,288.6946,76.628,176.336,True
2,2.544444,-0.8685978,0.1067056,0.08201635,-1.562813,-4.71167,-1.975904,0.4957185,1.233763,0.3901906,-1.178346,0.7109272,4.4,56,-0.3464436,-0.1784238,0.1758571,-0.4325107,1.290209,1.110454,0.6875122,1.347711,0.342761,-0.08812954,0.2288265,-0.221894,-1.227985,0.3509463,0.01559707,0.8049921,1.366706,0.2276213,0.2291047,1.342252,0.2950363,288.8069,76.48363,176.4398,True
2,2.555555,-0.8589833,0.09285701,0.08103718,-1.56354,-4.711128,-1.966705,0.4947137,1.235308,0.3898487,-1.170802,0.6783524,4.4,56,-0.3324803,-0.163638,0.1843538,-0.4327115,1.283281,1.119941,0.6872352,1.347708,0.3425715,-0.0890458,0.2363205,-0.2123335,-1.229994,0.3541534,0.01548868,0.8049434,1.366461,0.2278097,0.2280014,1.344544,0.2945988,288.8895,76.38583,176.4765,True
2,2.566666,-0.8354992,0.06622849,0.07482184,-1.563594,-4.710441,-1.958325,0.4938326,1.236693,0.3895652,-1.1631,0.6930714,4.4,56,-0.3323835,-0.1658572,0.193955,-0.4333996,1.276376,1.129847,0.6869385,1.347838,0.342411,-0.09225792,0.2288818,-0.210149,-1.232383,0.3566228,0.01580453,0.8049499,1.366165,0.2278728,0.2268552,1.346803,0.2941775,288.9608,76.32121,176.4761,True
2,2.577777,-0.8248441,0.06188655,0.06524325,-1.564018,-4.710301,-1.949648,0.492977,1.238166,0.3892424,-1.154869,0.7412165,3.6,53.7,-0.3291956,-0.1669427,0.1939159,-0.4343387,1.269764,1.139428,0.6867275,1.34791,0.3422594,-0.09128726,0.2149982,-0.2154453,-1.234962,0.3584631,0.01621865,0.8049074,1.365795,0.2280259,0.2256717,1.349016,0.2937682,289.0359,76.20608,176.5613,True
2,2.588888,-0.8056451,0.04802746,0.0578687,-1.564177,-4.709936,-1.941521,0.4921317,1.239612,0.388859,-1.147351,0.6754447,3.6,53.7,-0.3195382,-0.1916159,0.2095867,-0.4358663,1.26067,1.150846,0.6865101,1.347975,0.3420644,-0.08928796,0.1979206,-0.2239337,-1.237686,0.360139,0.01657338,0.8048669,1.365494,0.2280729,0.2245044,1.35114,0.2933583,289.1008,76.11985,176.6335,True
2,2.599999,-0.7853686,0.02666783,0.04841348,-1.563742,-4.709468,-1.933344,0.4912889,1.241058,0.3886991,-1.138685,0.7808189,3.6,53.7,-0.3131397,-0.1863057,0.2085101,-0.4366684,1.25391,1.160284,0.6862938,1.347961,0.3418868,-0.08721977,0.1787331,-0.2260277,-1.240286,0.3616595,0.01691773,0.804844,1.36519,0.2283106,0.2234294,1.353078,0.2929367,289.1717,76.11858,176.6137,True
2,2.61111,-0.7661533,0.005329859,0.04003491,-1.563173,-4.70907,-1.925355,0.4903966,1.242559,0.3885119,-1.130622,0.7247626,3.6,53.7,-0.3130856,-0.1788774,0.2117719,-0.4373001,1.24687,1.170188,0.6860441,1.347977,0.3416755,-0.08616411,0.1776667,-0.2271006,-1.24284,0.363836,0.01711507,0.804788,1.364849,0.2283273,0.2223405,1.354888,0.2925195,289.1927,76.0898,176.6135,True
2,2.622221,-0.7501384,-0.01065449,0.03799444,-1.562448,-4.708417,-1.917473,0.4894779,1.244047,0.3881552,-1.121964,0.7796069,3.6,53.7,-0.3108057,-0.1608653,0.2214965,-0.4373177,1.239586,1.180221,0.6859018,1.347892,0.341466,-0.08495135,0.1777181,-0.2132807,-1.244988,0.3661468,0.01734171,0.8048166,1.364474,0.2284608,0.2212208,1.356573,0.2921059,289.1891,76.08459,176.5917,True
2,2.633332,-0.733041,-0.03622074,0.03391209,-1.561217,-4.707753,-1.909921,0.4886628,1.245275,0.3876462,-1.113406,0.7699127,3,49.8,-0.304524,-0.1693246,0.212841,-0.4385491,1.233207,1.189165,0.6856193,1.347924,0.3412559,-0.09349713,0.1777304,-0.2163871,-1.247497,0.3683305,0.01783812,0.8047196,1.364203,0.2286024,0.2200355,1.358151,0.2917033,289.1481,76.15046,176.4783,True
2,2.644443,-0.7095756,-0.0511299,0.02869374,-1.560303,-4.707182,-1.90283,0.4877684,1.246618,0.387243,-1.104736,0.7803214,3,49.8,-0.2971265,-0.1682189,0.2053237,-0.4395585,1.227226,1.197532,0.6853188,1.347993,0.3410525,-0.09664847,0.1735048,-0.2110182,-1.249736,0.3704244,0.01844133,0.8046186,1.363984,0.2285905,0.2187418,1.359666,0.2913083,289.0806,76.19509,176.413,True
2,2.655554,-0.6839699,-0.06592767,0.03108453,-1.559432,-4.706523,-1.89574,0.4869726,1.247894,0.3868749,-1.096224,0.7656702,3,49.8,-0.2789969,-0.1651006,0.2062507,-0.4403867,1.220434,1.206203,0.6848238,1.348002,0.3409035,-0.09339951,0.1586122,-0.2046181,-1.251846,0.3718725,0.01868634,0.80445,1.363641,0.2286367,0.2173997,1.361088,0.2908678,289.0216,76.19315,176.4661,True
2,2.666665,-0.6562288,-0.08507746,0.03317653,-1.557956,-4.705356,-1.889806,0.4863225,1.249059,0.3865335,-1.087806,0.75723,3,49.8,-0.2628782,-0.1620784,0.2199767,-0.440946,1.212757,1.215525,0.6845279,1.348075,0.3407257,-0.0978684,0.1436549,-0.2205003,-1.254762,0.3730681,0.01953056,0.8042949,1.363343,0.2286205,0.2161023,1.362326,0.2903087,288.9729,76.23475,176.4859,True
2,2.677776,-0.6253043,-0.09776305,0.0374862,-1.55667,-4.704463,-1.883827,0.4856347,1.250374,0.3863418,-1.078882,0.8034349,3,49.8,-0.251052,-0.1526017,0.2273963,-0.4414035,1.205872,1.224026,0.6842268,1.348077,0.3405621,-0.1011717,0.1266066,-0.2278782,-1.257679,0.3742392,0.02024508,0.8040757,1.363029,0.2286685,0.2147878,1.363414,0.2896242,288.88,76.28319,176.4135,True
2,2.688887,-0.6050239,-0.1136735,0.04078787,-1.555161,-4.703389,-1.87785,0.4849151,1.25161,0.3860545,-1.071113,0.6976502,2.3,51.4,-0.2553566,-0.1568208,0.2242028,-0.4423255,1.199307,1.232941,0.6839789,1.348138,0.3403914,-0.105356,0.1245104,-0.220368,-1.259821,0.3756539,0.02110449,0.8038961,1.362736,0.228672,0.2135215,1.364327,0.2888457,288.7292,76.33292,176.2838,True
2,2.699998,-0.5708727,-0.1434607,0.0356609,-1.552868,-4.702401,-1.872637,0.4842837,1.252845,0.3859081,-1.06233,0.7912608,2.3,51.4,-0.2404287,-0.1536953,0.2251539,-0.4432267,1.192272,1.24151,0.6838318,1.348314,0.3400698,-0.1042518,0.117083,-0.2171837,-1.262388,0.3771394,0.02151701,0.8037214,1.362378,0.228682,0.2123642,1.365024,0.2879894,288.5546,76.44901,176.0549,True
2,2.711109,-0.5516529,-0.1636748,0.03366858,-1.550558,-4.701359,-1.867239,0.4835941,1.254008,0.3856003,-1.053523,0.7926168,2.3,51.4,-0.2436761,-0.1386767,0.2146644,-0.4435335,1.187104,1.248978,0.6835671,1.348365,0.3398771,-0.09988458,0.1064609,-0.2065483,-1.2644,0.3780818,0.02201795,0.8035597,1.362025,0.2285194,0.2111774,1.365613,0.2871062,288.3361,76.58597,175.7727,True
2,2.72222,-0.5196862,-0.1732863,0.01987479,-1.548541,-4.70092,-1.862542,0.4829974,1.255134,0.3853636,-1.045566,0.7150878,2.3,51.4,-0.2298717,-0.1536428,0.2154619,-0.4448837,1.180295,1.257254,0.6834449,1.348215,0.3395178,-0.09031114,0.0851585,-0.2034009,-1.266741,0.3786112,0.02257162,0.8034896,1.361813,0.2283673,0.209944,1.366137,0.2862269,288.1029,76.76375,175.4682,True
2,2.733331,-0.4856011,-0.1786074,0.009250402,-1.546667,-4.700361,-1.858179,0.4823569,1.255971,0.3852372,-1.0368,0.7897289,2.7,52.2,-0.2085718,-0.1376765,0.2090175,-0.4452262,1.174773,1.263777,0.6831547,1.348252,0.3393314,-0.08498877,0.07662796,-0.2034369,-1.269088,0.3793236,0.02292715,0.8032925,1.361633,0.2283664,0.208711,1.366566,0.2853763,287.8857,77.05654,175.0735,True
2,2.744442,-0.4621799,-0.173252,0.00599217,-1.544999,-4.699897,-1.853884,0.4817961,1.256831,0.384928,-1.028873,0.7122816,2.7,52.2,-0.1905115,-0.1312746,0.2014421,-0.4457663,1.16986,1.269723,0.6829385,1.348165,0.3391621,-0.08280306,0.05749781,-0.1948791,-1.271018,0.3796588,0.0235988,0.8031819,1.361451,0.2281907,0.2074514,1.366912,0.2845518,287.6672,77.32299,174.7302,True
2,2.755553,-0.4387414,-0.1742744,0.007041052,-1.542951,-4.699166,-1.849749,0.4811828,1.257724,0.3843424,-1.020698,0.7357733,2.7,52.2,-0.1745122,-0.1249295,0.201353,-0.4461887,1.164031,1.276389,0.682663,1.348182,0.3389566,-0.07740808,0.05111965,-0.1885301,-1.272939,0.3801394,0.02394555,0.8029797,1.361163,0.2280114,0.2062074,1.367131,0.2838031,287.4666,77.62058,174.3324,True
2,2.766664,-0.3907725,-0.1858512,0.01134542,-1.540682,-4.698229,-1.8471,0.480653,1.258384,0.3840849,-1.012245,0.760896,2.7,52.2,-0.1575682,-0.09924307,0.1811723,-0.4460752,1.16109,1.280103,0.6824543,1.348156,0.3385906,-0.07515061,0.05117255,-0.1768482,-1.274677,0.3810407,0.02441986,0.8027614,1.360815,0.2278998,0.2049853,1.367155,0.2831762,287.2903,77.82709,174.0349,True
2,2.777775,-0.3598609,-0.1954134,0.006067041,-1.538283,-4.697554,-1.84401,0.4800953,1.259115,0.3838606,-1.003891,0.7516764,2.7,52.2,-0.1512818,-0.08952907,0.1662866,-0.4462105,1.157701,1.284665,0.6820575,1.348157,0.3383071,-0.07618412,0.05227626,-0.1747265,-1.276804,0.3821655,0.02492,0.8025415,1.36046,0.2277772,0.2037212,1.367013,0.2826374,287.0691,77.87297,174.0099,True
2,2.788886,-0.3055272,-0.1996342,-0.004601549,-1.533819,-4.696615,-1.838663,0.4790792,1.260312,0.3833296,-0.9968814,0.6288833,4.2,71.5,-0.1632497,-0.09885913,0.141814,-0.44781,1.150816,1.294757,0.6813165,1.348151,0.3379173,-0.07280058,0.05874464,-0.1566793,-1.27975,0.3842016,0.02614159,0.802014,1.359926,0.2273927,0.202411,1.36672,0.2820785,286.8071,77.93781,174.0401,True
2,2.799997,-0.2842385,-0.1943,-0.009988569,-1.53184,-4.696383,-1.836241,0.4785606,1.260824,0.3830202,-0.9852455,1.052957,4.2,71.5,-0.1484708,-0.09449898,0.1257406,-0.4484284,1.148086,1.298296,0.6809669,1.348125,0.3376997,-0.07278384,0.04597509,-0.1523763,-1.28128,0.3842912,0.02691737,0.8017341,1.359659,0.2271602,0.2010124,1.366253,0.2814274,286.5462,78.16119,173.8912,True
2,2.811108,-0.2842385,-0.1943,-0.009988569,-1.53184,-4.696383,-1.836241,0.4785606,1.260824,0.3830202,-0.9801306,0.4530408,4.2,71.5,-0.1484708,-0.09449898,0.1257406,-0.4484284,1.148086,1.298296,0.6809669,1.348125,0.3376997,-0.07278384,0.04597509,-0.1523763,-1.28128,0.3842912,0.02691737,0.8017341,1.359659,0.2271602,0.1992893,1.365891,0.2805578,286.1184,78.66452,173.4236,True
2,2.822219,-0.2182803,-0.1558571,-0.01674317,-1.529301,-4.696333,-1.833134,0.4775542,1.261574,0.3825679,-0.9745247,0.5034366,5.3,68.2,-0.1123417,-0.07422695,0.1095972,-0.448945,1.142949,1.304422,0.6802263,1.34808,0.337292,-0.06930047,0.01521386,-0.1203615,-1.283216,0.3843654,0.02814189,0.8011324,1.359149,0.2269413,0.1979541,1.36523,0.2796661,285.7936,79.06973,172.8263,True
2,2.83333,-0.2182803,-0.1558571,-0.01674317,-1.529301,-4.696333,-1.833134,0.4775542,1.261574,0.3825679,-0.9618816,1.14563,5.3,68.2,-0.1123417,-0.07422695,0.1095972,-0.448945,1.142949,1.304422,0.6802263,1.34808,0.337292,-0.06930047,0.01521386,-0.1203615,-1.283216,0.3843654,0.02814189,0.8011324,1.359149,0.2269413,0.1969357,1.364096,0.2789473,285.6129,79.136,172.5452,True
2,2.844441,-0.1619336,-0.1066988,-0.01290833,-1.528275,-4.696177,-1.831006,0.4766045,1.26216,0.3820424,-0.95691,0.4386416,5.3,68.2,-0.1082341,-0.06874151,0.09042925,-0.4498473,1.138912,1.310346,0.6795297,1.347924,0.3365934,-0.07134524,0.02386694,-0.1129508,-1.286137,0.3866851,0.0293222,0.8007149,1.358746,0.2264032,0.1955373,1.362895,0.2783052,285.2399,79.39199,172.2319,True
2,2.855552,-0.1619336,-0.1066988,-0.01290833,-1.528275,-4.696177,-1.831006,0.4766045,1.26216,0.3820424,-0.9463724,0.9542356,5.3,68.2,-0.1082341,-0.06874151,0.09042925,-0.4498473,1.138912,1.310346,0.6795297,1.347924,0.3365934,-0.07134524,0.02386694,-0.1129508,-1.286137,0.3866851,0.0293222,0.8007149,1.358746,0.2264032,0.1942051,1.361376,0.277865,284.8659,79.37728,172.1823,True
2,2.866663,-0.1150943,-0.09276275,-0.01625533,-1.526676,-4.696216,-1.829819,0.4755809,1.262478,0.381623,-0.9394162,0.6215784,5.3,68.2,-0.08700185,-0.04843448,0.0754891,-0.4500039,1.136028,1.314298,0.6787334,1.347687,0.3359344,-0.06065939,0.01538784,-0.108784,-1.288539,0.3876365,0.03001383,0.8000665,1.358266,0.2256665,0.1925454,1.359777,0.2775578,284.3744,79.20655,172.3699,True
2,2.877774,-0.1150943,-0.09276275,-0.01625533,-1.526676,-4.696216,-1.829819,0.4755809,1.262478,0.381623,-0.9292536,0.9180758,5.3,68.2,-0.08700185,-0.04843448,0.0754891,-0.4500039,1.136028,1.314298,0.6787334,1.347687,0.3359344,-0.06065939,0.01538784,-0.108784,-1.288539,0.3876365,0.03001383,0.8000665,1.358266,0.2256665,0.1909675,1.357891,0.2774353,283.9006,78.96285,172.6599,True
2,2.888885,-0.09269972,-0.1055435,-0.02257023,-1.524987,-4.696243,-1.829553,0.4750988,1.262576,0.3813984,-0.9215294,0.6922588,6.3,66.1,-0.06576603,-0.04202425,0.06575924,-0.4501531,1.13494,1.315279,0.6782903,1.34762,0.3355999,-0.05737605,0.003695959,-0.09812862,-1.289315,0.3872814,0.03064047,0.7997493,1.358035,0.2253392,0.1891556,1.355916,0.2773936,283.3659,78.68759,173.0466,True
2,2.899997,-0.07030097,-0.1194134,-0.03207747,-1.523028,-4.696484,-1.829504,0.4746285,1.26275,0.3811512,-0.9117017,0.8867466,6.3,66.1,-0.06151342,-0.02814535,0.06051352,-0.4499363,1.13394,1.316815,0.6779528,1.347512,0.3353901,-0.05192919,-0.00159914,-0.08538041,-1.289753,0.3871682,0.03113795,0.7992449,1.357879,0.2250876,0.187551,1.353689,0.2774619,282.7912,78.32454,173.4896,True
2,2.911108,-0.05538636,-0.122632,-0.03952395,-1.521397,-4.69678,-1.829391,0.4741872,1.262833,0.3808908,-0.9031365,0.7693079,6.3,66.1,-0.06258999,-0.009966195,0.05322822,-0.4493355,1.133486,1.317955,0.6775143,1.347493,0.3351071,-0.05923047,-0.008987439,-0.06929737,-1.289945,0.3867728,0.03219362,0.7988628,1.35768,0.224813,0.1858476,1.351428,0.2775467,282.2041,78.09937,173.8507,True
2,2.922219,-0.02876095,-0.1226118,-0.04487038,-1.519968,-4.697022,-1.829889,0.473877,1.262783,0.3807795,-0.8941457,0.8092691,6.3,66.1,-0.06570217,0.008134339,0.05554949,-0.4484694,1.132304,1.319827,0.6770047,1.34739,0.3348198,-0.07077128,-0.007861732,-0.05319059,-1.289976,0.3864803,0.03349378,0.7981308,1.357171,0.2248032,0.1841344,1.34911,0.2775796,281.657,78.06266,174.0427,True
2,2.93333,-0.008543858,-0.1097989,-0.04605042,-1.519006,-4.697275,-1.830512,0.4734484,1.262639,0.3805137,-0.8846765,0.8524898,7.1,57.4,-0.06567717,0.02841487,0.05147091,-0.4473471,1.13177,1.321049,0.6765652,1.347352,0.3345466,-0.07587141,0.009222463,-0.03720686,-1.289825,0.3868726,0.0341886,0.7976204,1.356986,0.2246957,0.1824268,1.346725,0.2775202,281.1151,78.08267,174.1416,True
2,2.944441,0.01485922,-0.09482326,-0.04512101,-1.518368,-4.697594,-1.831472,0.4730453,1.26254,0.380312,-0.8757315,0.8041331,7.1,57.4,-0.06792326,0.03387106,0.03662106,-0.4469914,1.132401,1.321203,0.6762056,1.34744,0.3341887,-0.08434619,0.01457943,-0.03393623,-1.290074,0.3872602,0.0353002,0.7972113,1.356767,0.2244842,0.1807882,1.344239,0.2773758,280.5648,78.05047,174.223,True
2,2.955552,0.02762873,-0.08730042,-0.03986114,-1.517554,-4.697581,-1.832147,0.4726024,1.262474,0.3801129,-0.8662709,0.8517198,7.1,57.4,-0.06575397,0.03382962,0.04086153,-0.4464757,1.131298,1.322857,0.6757879,1.347407,0.3339677,-0.08015642,0.008135419,-0.0392914,-1.290779,0.3867497,0.03617239,0.7970355,1.356557,0.2241905,0.1792732,1.3416,0.2771903,280.0346,77.9449,174.3267,True
2,2.966663,0.04991673,-0.0499403,-0.03697113,-1.518219,-4.698082,-1.833478,0.4721621,1.262272,0.3799331,-0.8568742,0.8453363,7.1,57.4,-0.06368541,0.03067546,0.03548475,-0.4461572,1.130893,1.323901,0.6754494,1.347258,0.3338242,-0.07065687,-0.004687939,-0.04467973,-1.291447,0.3862758,0.03677666,0.7966265,1.356343,0.2239881,0.1777608,1.338825,0.2769813,279.5005,77.62941,174.6392,True
2,2.977774,0.06052562,-0.02968027,-0.03713409,-1.518337,-4.698513,-1.834447,0.4716711,1.262058,0.3797653,-0.8467973,0.9075688,7.1,57.4,-0.06376861,0.02006768,0.0300622,-0.4462984,1.13053,1.324924,0.67496,1.347158,0.3334875,-0.07070652,-0.00686679,-0.05000411,-1.292261,0.3857304,0.03754924,0.7963496,1.356126,0.223877,0.1761995,1.335925,0.2767792,278.9192,77.17253,175.0926,True
2,2.988885,0.07113612,-0.008293472,-0.02984995,-1.518929,-4.69874,-1.835602,0.4712179,1.261851,0.3796148,-0.837586,0.8278433,9,59.2,-0.05426884,0.008367533,0.02454187,-0.4465658,1.130154,1.325535,0.6745085,1.347092,0.3333251,-0.07072216,-0.003677819,-0.05214499,-1.292901,0.3858109,0.03830025,0.7959015,1.355959,0.2237513,0.1745624,1.332936,0.2765987,278.2785,76.51714,175.7464,True
2,2.999996,0.07962693,0.0109543,-0.02254552,-1.519526,-4.698902,-1.836791,0.470735,1.261637,0.3794694,-0.8273946,0.9181868,9,59.2,-0.0468903,0.0009380877,0.019082,-0.4467176,1.129879,1.326107,0.6740394,1.346924,0.333147,-0.07060527,0.004858728,-0.04365403,-1.293102,0.3859802,0.03898335,0.795625,1.35589,0.2234509,0.1728736,1.329864,0.2765028,277.6454,75.42574,176.8258,True
2,3.011107,0.08598261,0.0269562,-0.02160835,-1.520301,-4.699323,-1.837934,0.4702436,1.261428,0.3793135,-0.8176016,0.8809161,9,59.2,-0.03635518,-0.01073684,0.01035607,-0.44732,1.130019,1.326003,0.6735178,1.34686,0.3329961,-0.07163095,0.007002145,-0.04045376,-1.293436,0.3861424,0.03976659,0.7951733,1.355756,0.2233095,0.1711494,1.326713,0.2765177,276.9978,74.07996,178.1937,True
2,3.022218,0.09021477,0.03974022,-0.02277396,-1.521014,-4.699826,-1.839063,0.469703,1.261295,0.3792305,-0.8077112,0.8902015,9,59.2,-0.03633606,0.005284285,0.006243763,-0.4466696,1.130282,1.326094,0.6728792,1.346786,0.3327353,-0.07051956,0.01231718,-0.0394175,-1.293831,0.3863007,0.04015568,0.7945243,1.355773,0.2232652,0.1694437,1.323507,0.2766401,276.3383,72.19167,180.146,True
2,3.033329,0.09873183,0.04298187,-0.01960941,-1.521523,-4.700052,-1.840416,0.469228,1.26114,0.3791385,-0.79785,0.8875692,9,59.2,-0.03316794,0.009579645,0.001995401,-0.446349,1.130553,1.326154,0.6723493,1.346752,0.3325489,-0.06622021,0.01018679,-0.03626684,-1.294208,0.3863517,0.04061268,0.7940542,1.355665,0.2231147,0.1677665,1.320279,0.2768407,275.6849,69.71177,182.7264,True
2,3.04444,0.1040726,0.03768412,-0.01744323,-1.521729,-4.700226,-1.841706,0.468695,1.260997,0.379081,-0.7881199,0.8756467,8.7,64.7,-0.03744745,0.02029626,-0.00426623,-0.4459602,1.131581,1.325678,0.6718323,1.346721,0.3323579,-0.06191192,0.009101093,-0.03098435,-1.294388,0.3860172,0.04135969,0.7935767,1.355689,0.2229764,0.1661046,1.317083,0.2770979,275.0422,66.59538,185.9481,True
2,3.055551,0.09345563,0.01627049,-0.02792218,-1.521229,-4.700973,-1.843408,0.4675617,1.260697,0.3789885,-0.7787083,0.8467876,8.7,64.7,-0.02992904,0.03303526,-0.002100846,-0.4449593,1.132429,1.325372,0.6705568,1.34674,0.3321471,-0.04882532,0.01446554,-0.004515655,-1.29391,0.386155,0.04203027,0.7923105,1.355779,0.2227449,0.1644684,1.31396,0.2774028,274.4252,62.73209,189.9127,True
2,3.066662,0.09453653,0.009844754,-0.03213655,-1.520981,-4.701419,-1.844529,0.4669344,1.260653,0.3789515,-0.770028,0.7801495,8.7,64.7,-0.02558047,0.04148187,0.004323363,-0.4442893,1.132305,1.325615,0.6699392,1.346718,0.3320882,-0.05087848,0.01980083,0.0008286955,-1.293563,0.3863693,0.04250671,0.7915637,1.355743,0.2226939,0.1628325,1.31092,0.2777174,273.9063,58.4074,194.3558,True
2,3.077773,0.08601025,0.009792469,-0.0363897,-1.520949,-4.701978,-1.845155,0.466276,1.260538,0.3789496,-0.7591857,0.978396,7.8,64.3,-0.01821985,0.04261909,-0.006389089,-0.4438536,1.133527,1.324474,0.6692037,1.346689,0.3320305,-0.04757081,0.0283433,0.009288093,-1.293118,0.3869845,0.04275013,0.7908229,1.355767,0.2226613,0.1610466,1.307905,0.278001,273.4941,54.01707,198.8527,True
2,3.088884,0.08388631,0.005514754,-0.03742728,-1.520685,-4.702449,-1.845962,0.4655559,1.260242,0.3788626,-0.7499611,0.8287999,7.8,64.3,-0.01195883,0.03310452,-0.01719787,-0.4440885,1.135181,1.322915,0.6684749,1.346611,0.332015,-0.04332979,0.02937872,0.006037824,-1.2933,0.3871954,0.04288062,0.7901152,1.355794,0.2226193,0.1593204,1.304845,0.2782683,272.9983,47.57554,205.3721,True
2,3.099995,0.07961424,0.009757746,-0.03852116,-1.520803,-4.702972,-1.846683,0.4648575,1.260103,0.3788433,-0.7402166,0.8779047,7.8,64.3,-0.01003784,0.02688751,-0.03751379,-0.4442739,1.137879,1.320527,0.66764,1.346625,0.3320146,-0.04005015,0.03578366,0.01237376,-1.292915,0.387823,0.04305027,0.7893487,1.355834,0.2225697,0.1576935,1.301799,0.2785279,272.5125,37.80839,215.203,True
2,3.111106,0.07961424,0.009757746,-0.03852116,-1.520803,-4.702972,-1.846683,0.4648575,1.260103,0.3788433,-0.7311123,0.8188148,7.8,64.3,-0.01003784,0.02688751,-0.03751379,-0.4442739,1.137879,1.320527,0.66764,1.346625,0.3320146,-0.04005015,0.03578366,0.01237376,-1.292915,0.387823,0.04305027,0.7893487,1.355834,0.2225697,0.156148,1.298814,0.2787884,272.1594,24.6997,228.3802,True
2,3.122217,0.07428439,0.01185291,-0.04173193,-1.520852,-4.703659,-1.847394,0.4639,1.260026,0.3789527,-0.7211435,0.8984368,7.8,64.3,0.002757583,0.03325301,-0.03864318,-0.4437359,1.139222,1.318825,0.6667681,1.346681,0.3320634,-0.03571947,0.02620801,0.0208853,-1.292321,0.3876395,0.04335573,0.7883554,1.355907,0.2225091,0.1547985,1.29586,0.2790383,271.9805,8.552031,244.6135,True
2,3.133328,0.07216866,0.006521061,-0.0416928,-1.520584,-4.704131,-1.84815,0.4630917,1.259866,0.3790994,-0.7126901,0.75923,7.8,64.3,0.003833588,0.04499842,-0.0417477,-0.4429769,1.141126,1.317031,0.6658285,1.34677,0.3320529,-0.03129343,0.02198226,0.03788519,-1.291519,0.387558,0.04373523,0.7875395,1.35604,0.2226448,0.153772,1.292991,0.2792566,271.9875,349.5434,263.7015,True
2,3.144439,0.07110524,0.006534975,-0.03956135,-1.520543,-4.7045,-1.84889,0.4622018,1.259792,0.3791921,-0.7036684,0.8124129,6.5,68.2,0.006982349,0.03969077,-0.04502076,-0.4428869,1.142685,1.315466,0.6648514,1.346864,0.3320563,-0.03227387,0.03372033,0.04318433,-1.29084,0.3883207,0.04390407,0.7865624,1.356185,0.2226906,0.1525654,1.290333,0.2794394,272.1266,335.4212,277.8458,True
2,3.15555,0.0668479,0.001132835,-0.048033,-1.520175,-4.705156,-1.849442,0.4613352,1.259799,0.3794572,-0.6945876,0.8172875,6.5,68.2,0.002708301,0.03865873,-0.04604757,-0.4424821,1.143976,1.314428,0.6638644,1.346899,0.3319557,-0.03424978,0.04656297,0.05593508,-1.289999,0.3894335,0.04424283,0.7857193,1.356444,0.2227104,0.1510707,1.287835,0.2796507,272.3204,325.3135,287.9223,True
2,3.166661,0.0658,-0.006326472,-0.04797504,-1.51973,-4.705596,-1.850142,0.4603109,1.259786,0.3795612,-0.6854609,0.8213944,6.5,68.2,0.002766214,0.05356271,-0.04484937,-0.4415457,1.145697,1.312843,0.6626507,1.347054,0.3319552,-0.03201804,0.06042749,0.06225795,-1.289078,0.3905743,0.04420155,0.7846308,1.356643,0.2227986,0.1494793,1.285357,0.2799399,272.5699,317.4189,295.8105,True
2,3.177772,0.06260623,-0.01059552,-0.04793551,-1.519366,-4.705977,-1.850628,0.4593161,1.259718,0.3797138,-0.6761963,0.8340597,6.5,68.2,0.001722813,0.06423859,-0.04580831,-0.4404874,1.147607,1.311159,0.6615871,1.34718,0.3319635,-0.03192415,0.07004513,0.06863531,-1.287859,0.3917474,0.04417891,0.7833999,1.356992,0.2229049,0.1478565,1.282837,0.2803124,272.9057,310.4824,302.7799,True
2,3.188883,0.06475176,-0.01698218,-0.0478886,-1.518819,-4.706379,-1.851409,0.4582082,1.259745,0.3798122,-0.6672459,0.8052413,5.8,59.8,-0.006878428,0.06754681,-0.05528683,-0.4398866,1.150231,1.309151,0.6603673,1.347367,0.3319755,-0.02866342,0.07325085,0.07391641,-1.28681,0.3926781,0.04414296,0.7822713,1.357224,0.2229989,0.1462413,1.280254,0.2807857,273.3068,304.2328,309.0879,True
2,3.199994,0.06049,-0.01591178,-0.04576067,-1.518567,-4.706747,-1.851929,0.4570386,1.259805,0.379962,-0.657992,0.833235,5.8,59.8,-0.0185849,0.08574232,-0.06034125,-0.4386216,1.153027,1.307161,0.6590209,1.34755,0.3318977,-0.02859222,0.07751797,0.08029228,-1.28572,0.393402,0.04437066,0.7808659,1.357158,0.2230415,0.144605,1.277609,0.2813248,273.7484,299.478,313.9559,True
2,3.211105,0.06048791,-0.01375679,-0.04258111,-1.518398,-4.707083,-1.852581,0.4558893,1.259833,0.3800528,-0.6492185,0.7890288,5.8,59.8,-0.0206746,0.09532671,-0.0591706,-0.437445,1.155294,1.305401,0.6577663,1.347711,0.3319101,-0.02638607,0.0754067,0.0877329,-1.284455,0.3941326,0.04437013,0.7796265,1.357395,0.2231483,0.1429631,1.274898,0.281887,274.234,295.792,317.7775,True
2,3.222216,0.05514746,-0.007364731,-0.04049527,-1.518348,-4.707509,-1.852989,0.4543321,1.259964,0.3801053,-0.6399491,0.8347838,5.8,59.8,-0.01423775,0.1080983,-0.059118,-0.4359424,1.157839,1.302949,0.6561687,1.34801,0.332011,-0.0219285,0.09035233,0.1036206,-1.282606,0.3954497,0.04422285,0.7780949,1.357754,0.2234442,0.1412641,1.272147,0.2824263,274.7542,292.6935,321.0078,True
2,3.233327,0.05300121,-0.003097627,-0.03945743,-1.518368,-4.707906,-1.853405,0.4530754,1.26,0.3802476,-0.6310163,0.8036506,5.8,59.8,-0.01320715,0.1091958,-0.06337483,-0.4349778,1.160383,1.300717,0.6547725,1.348249,0.3321035,-0.02501949,0.0989363,0.1132079,-1.281081,0.3971824,0.04438424,0.7770468,1.358103,0.2235096,0.1395154,1.269386,0.282922,275.3179,290.1693,323.6404,True
2,3.244438,0.05192872,0.006617526,-0.02248547,-1.518847,-4.707686,-1.85396,0.4516935,1.260072,0.3802977,-0.6217719,0.8323751,6,53.1,-0.01116884,0.1050019,-0.0719596,-0.4343504,1.163714,1.297752,0.6532493,1.348325,0.3323605,-0.02392131,0.1032019,0.1153128,-1.279648,0.3984776,0.04421966,0.7755932,1.358431,0.2237337,0.1376937,1.26665,0.2833523,275.8904,288.1902,325.7176,True
2,3.255549,0.05295223,0.02799907,-0.01199541,-1.519787,-4.70775,-1.854575,0.4503252,1.26011,0.3803191,-0.6127449,0.8122628,6,53.1,-0.006933026,0.1188973,-0.0782617,-0.4328627,1.167139,1.294722,0.6517748,1.3485,0.3324447,-0.02385657,0.103239,0.1216995,-1.278124,0.3998262,0.04416693,0.774094,1.358717,0.2240422,0.1357089,1.263986,0.283709,276.4646,286.5315,327.446,True
2,3.26666,0.05611144,0.0461648,-0.005745096,-1.520916,-4.707944,-1.855304,0.4488527,1.260151,0.380352,-0.6038547,0.7999831,6,53.1,-0.01232488,0.1264564,-0.08773219,-0.431578,1.171265,1.2913,0.6501619,1.348757,0.3325808,-0.02160753,0.109657,0.1312425,-1.276294,0.4012703,0.04390514,0.7725312,1.359085,0.2243302,0.1338159,1.261372,0.2840171,277.028,285.2723,328.7523,True
2,3.277771,0.05608217,0.06113792,0.001597378,-1.522094,-4.70806,-1.855887,0.4473785,1.260283,0.380445,-0.5949363,0.8026419,6,53.1,-0.0165758,0.1371523,-0.08973438,-0.4299556,1.175224,1.28809,0.6484199,1.348914,0.3327928,-0.02261698,0.1182655,0.1365321,-1.274805,0.4038628,0.04374748,0.7713348,1.359573,0.2245331,0.1320127,1.25882,0.2842481,277.5854,284.5565,329.5298,True
2,3.288882,0.05714547,0.06981719,0.02177139,-1.523398,-4.707471,-1.85657,0.445815,1.260394,0.3804882,-0.5860472,0.7998939,5.2,45.8,-0.01531968,0.1871871,-0.08610297,-0.4264807,1.179755,1.284081,0.6467,1.349182,0.3330512,-0.02135251,0.1247102,0.1535432,-1.272431,0.4054492,0.04347983,0.7696937,1.359988,0.2248869,0.1302672,1.256324,0.2843936,278.1229,284.1091,330.0188,True
2,3.299993,0.05928515,0.0731541,0.03985739,-1.524465,-4.706676,-1.857319,0.4443007,1.26055,0.3805556,-0.5768854,0.8248518,5.2,45.8,-0.01548561,0.1905597,-0.1052427,-0.4248418,1.185289,1.279166,0.6451045,1.349426,0.3332083,-0.02232718,0.1237262,0.1642144,-1.270177,0.4073398,0.04349395,0.7678373,1.360374,0.2252703,0.1285055,1.253874,0.2844794,278.6489,283.6933,330.429,True
2,3.311104,0.05291142,0.07330764,0.06223566,-1.525598,-4.705536,-1.857719,0.4426702,1.260685,0.3806152,-0.5679159,0.8070647,5.2,45.8,-0.007067069,0.1820917,-0.1139173,-0.4236588,1.189942,1.274685,0.643422,1.349623,0.3334796,-0.01372644,0.1173449,0.1726655,-1.267978,0.4084198,0.04302736,0.7661266,1.360866,0.2256927,0.1267199,1.251465,0.2845404,279.1886,283.2889,330.8108,True
2,3.322215,0.04974693,0.06161517,0.0665919,-1.526151,-4.704762,-1.858217,0.440932,1.260833,0.3807278,-0.558964,0.8056558,5.2,45.8,0.0002131909,0.1555219,-0.1238167,-0.4233254,1.194598,1.270222,0.6417091,1.349837,0.3338027,-0.0008521378,0.1173832,0.183172,-1.265685,0.4101532,0.04241484,0.764348,1.361319,0.2259469,0.1249318,1.249084,0.2845581,279.7257,283.0105,331.0981,True
2,3.333326,0.04773226,0.01260112,0.06590278,-1.525025,-4.703736,-1.858755,0.4390751,1.261059,0.3808649,-0.5495976,0.8434857,5.2,45.8,0.002237931,0.138514,-0.1293098,-0.4229068,1.19882,1.266323,0.6399447,1.350229,0.3340113,0.01429465,0.122796,0.2042885,-1.26276,0.4124079,0.04124837,0.7624787,1.362021,0.2263832,0.1231849,1.246707,0.2845032,280.2524,282.7191,331.4074,True
2,3.344437,0.04142487,-0.02255122,0.06830762,-1.523882,-4.702554,-1.859066,0.4372664,1.261242,0.380964,-0.5406819,0.8020297,5.6,42.6,-0.002174214,0.1194386,-0.1390278,-0.4228445,1.203581,1.26212,0.6380503,1.350579,0.3343487,0.013329,0.1260224,0.2128112,-1.260073,0.4138576,0.0406939,0.7606676,1.362516,0.2267842,0.1214073,1.244333,0.2843504,280.7763,282.3512,331.7655,True
2,3.355548,0.01587693,-0.03113528,0.0683886,-1.5236,-4.701771,-1.858433,0.4353007,1.261509,0.381099,-0.531862,0.793815,5.6,42.6,-0.009774461,0.1025074,-0.1486928,-0.4227065,1.20849,1.258081,0.635967,1.350865,0.3346822,0.01234633,0.1388445,0.2159719,-1.257643,0.4161133,0.03968483,0.7586014,1.363102,0.2274222,0.1195382,1.241953,0.2841297,281.2682,281.641,332.4094,True
2,3.366659,-0.001162933,-0.03113445,0.07373032,-1.523555,-4.700708,-1.857874,0.4333977,1.261736,0.3812275,-0.5228952,0.8073612,5.6,42.6,0.0008036643,0.1228472,-0.1635251,-0.4215411,1.215308,1.251479,0.6338294,1.351232,0.3350041,0.0135904,0.1612516,0.2276038,-1.254673,0.4186239,0.03872503,0.756551,1.363661,0.2279699,0.1175972,1.239541,0.2838853,281.7298,280.5656,333.3942,True
2,3.37777,-0.0245761,-0.03753871,0.08019026,-1.523182,-4.699483,-1.856962,0.4313259,1.262008,0.3813214,-0.5133509,0.8601145,5.6,42.6,-0.005505502,0.1494985,-0.1632311,-0.4196615,1.221464,1.246153,0.6317071,1.351624,0.3353736,-0.001188979,0.1858321,0.2340715,-1.251848,0.4217446,0.03811543,0.7545052,1.364236,0.228581,0.1156275,1.237103,0.2836529,282.2359,279.6406,334.2289,True
2,3.388881,-0.02558984,-0.06639887,0.06762438,-1.521492,-4.697817,-1.856426,0.4272109,1.262898,0.3816831,-0.5048714,0.76247,5.3,41.7,-0.03732546,0.1804467,-0.1583965,-0.4163916,1.233005,1.237455,0.627205,1.352577,0.3360434,-0.008399606,0.217882,0.2489533,-1.24588,0.42768,0.03645149,0.750127,1.365553,0.2296789,0.1135739,1.234734,0.2834708,282.8354,279.012,334.7792,True
2,3.399992,-0.02233548,-0.09413196,0.06250053,-1.519673,-4.696837,-1.856316,0.4250483,1.2635,0.3818302,-0.495904,0.8079951,5.3,41.7,-0.04253283,0.2049245,-0.1538684,-0.4140363,1.239123,1.232427,0.6248223,1.353119,0.3364058,-0.007237196,0.2200381,0.2574564,-1.242665,0.4302092,0.03567757,0.7479331,1.366215,0.2302618,0.1110916,1.232548,0.2833202,283.4484,278.4677,335.2719,True
2,3.411103,-0.01156436,-0.1496291,0.04694597,-1.516277,-4.695678,-1.856633,0.4226083,1.264339,0.3820007,-0.4886645,0.6497955,5.3,41.7,-0.04991825,0.2070142,-0.1463244,-0.412227,1.244461,1.228342,0.6222863,1.353636,0.3367794,-0.005052328,0.2211262,0.2627543,-1.239484,0.4327584,0.03490898,0.7453684,1.366777,0.2308164,0.10767,1.23068,0.2831414,284.0404,277.7295,335.9727,True
2,3.422215,-0.01043339,-0.1805586,0.04291569,-1.513516,-4.694536,-1.856543,0.4203991,1.26495,0.3821688,-0.4817935,0.6188028,5.3,41.7,-0.05629975,0.1963338,-0.1410359,-0.4110461,1.249311,1.224777,0.6198857,1.353934,0.3371704,-0.00723654,0.2264435,0.2563545,-1.236981,0.4355781,0.03412122,0.74309,1.367418,0.2313848,0.1047625,1.229095,0.2830403,284.4925,276.9334,336.7311,False
2,3.433326,-0.01994153,-0.2179386,0.03362162,-1.510012,-4.693456,-1.856056,0.417926,1.265699,0.3823252,-0.4760225,0.5189379,3.8,37,-0.07442437,0.1728978,-0.1346832,-0.4103979,1.253313,1.222533,0.6173298,1.354488,0.3374515,-0.007088944,0.2403274,0.2669607,-1.233582,0.4387591,0.03313505,0.7406796,1.368153,0.2319705,0.1024146,1.227801,0.2830331,284.8437,276.1181,337.522,False
2,3.444437,-0.04119531,-0.2468833,0.01681048,-1.506482,-4.692865,-1.854952,0.4152569,1.266402,0.3824992,-0.4703025,0.5156664,3.8,37,-0.09788078,0.1644498,-0.1345325,-0.4094205,1.257957,1.220016,0.6147813,1.355059,0.3376443,-0.006008446,0.249934,0.2669156,-1.23054,0.4421786,0.03212119,0.7382696,1.368886,0.2325587,0.1003422,1.226786,0.2830966,285.092,275.175,338.4551,False
2,3.455548,-0.06143461,-0.2523546,0.00408221,-1.503508,-4.69242,-1.853652,0.412529,1.267175,0.3826494,-0.4652771,0.4525509,3.8,37,-0.1352982,0.1540091,-0.1449297,-0.4087968,1.263908,1.217487,0.6119034,1.355719,0.337868,-0.01951528,0.277749,0.2925383,-1.226297,0.4462873,0.03143515,0.7356054,1.369689,0.2331672,0.09836646,1.226019,0.2832033,285.2755,274.4263,339.2093,False
2,3.466659,-0.07315863,-0.2502888,-0.0001742318,-1.500875,-4.691616,-1.852561,0.409817,1.267866,0.3827713,-0.46077,0.4061546,3.8,37,-0.1255336,0.2104412,-0.1445168,-0.4053065,1.27143,1.211539,0.6089045,1.356349,0.3380527,-0.028835,0.2895769,0.3149607,-1.222087,0.4500974,0.03079307,0.7330582,1.370444,0.2338574,0.09613144,1.2255,0.283316,285.434,273.6153,340.0253,False
2,3.47777,-0.07426251,-0.2332303,0.001825355,-1.498958,-4.690961,-1.851734,0.4069253,1.268712,0.3828773,-0.4572594,0.3158579,3.8,37,-0.1360433,0.279792,-0.1523221,-0.4008377,1.281115,1.204487,0.605795,1.35705,0.3382385,-0.04257813,0.309868,0.3203688,-1.218138,0.4544186,0.03023806,0.7303511,1.371268,0.2345119,0.09350561,1.22525,0.2834466,285.5834,272.8067,340.8189,False
2,3.488881,-0.07537365,-0.2097325,0.01017018,-1.497555,-4.690093,-1.850974,0.4039693,1.269632,0.3829262,-0.4546687,0.23275,2.4,33.1,-0.1679532,0.3161746,-0.1591581,-0.3973032,1.290286,1.198965,0.6027363,1.357742,0.3384485,-0.05652985,0.3066778,0.3120016,-1.214953,0.4577819,0.0302077,0.7274672,1.372134,0.2351937,0.0906253,1.225303,0.2836119,285.7021,272.1783,341.4498,False
2,3.499992,-0.07009758,-0.1818866,0.02806226,-1.49666,-4.688897,-1.850464,0.4010752,1.270448,0.382982,-0.4525941,0.1864626,2.4,33.1,-0.1849738,0.3172742,-0.1568583,-0.3945489,1.297794,1.194697,0.599677,1.358432,0.3386803,-0.05755809,0.3077563,0.3152052,-1.2112,0.4613968,0.02963406,0.7247024,1.372985,0.2358859,0.08767392,1.225642,0.2837827,285.7513,271.7623,341.9082,False
2,3.511103,-0.07227245,-0.1616191,0.03217053,-1.495639,-4.688125,-1.849669,0.3980498,1.271267,0.3830101,-0.450618,0.1779636,2.4,33.1,-0.1913491,0.3044582,-0.1505212,-0.3924711,1.303968,1.191295,0.5964633,1.359058,0.3389287,-0.06146175,0.3430172,0.3396223,-1.206604,0.4667635,0.02839249,0.7217143,1.37411,0.2365215,0.08467591,1.22624,0.2839136,285.7645,271.5329,342.1957,False
2,3.522214,-0.0786999,-0.1434648,0.03843316,-1.494923,-4.687256,-1.848671,0.3949473,1.272204,0.3831127,-0.449058,0.1401017,2.4,33.1,-0.1966976,0.2970222,-0.1505297,-0.3901467,1.31093,1.187168,0.5932298,1.359731,0.339113,-0.06018859,0.3568696,0.3534217,-1.202029,0.4707305,0.02729634,0.7184538,1.374774,0.2373514,0.08170363,1.227049,0.2839523,285.7316,271.4173,342.3687,False
