loc,t,aDotUA,bDotUA,gDotUA,aUA,bUA,gUA,xUA,yUA,zUA,qE,qDotE,emgA,emgB,aDotSH,bDotSH,gDotSH,aSH,bSH,gSH,xSH,ySH,zSH,aDotUB,bDotUB,gDotUB,aUB,bUB,gUB,xUB,yUB,zUB,xHand,yHand,zHand,aHand,bHand,gHand,enable
1,0,-0.3960159,-1.402796,-0.4991964,-1.288243,-4.071867,2.965399,0.6322678,1.135265,0.440465,-1.569219,0.0007936518,0.4,6.7,-0.4313477,0.1580141,-0.1179874,-0.4258187,-4.639546,0.320803,0.6969496,1.350865,0.3508229,-0.1835189,0.2385318,-0.07299118,-0.9689794,0.09636235,-0.004618454,0.7659656,1.399338,0.2043869,0.468806,0.9834685,0.2746176,301.8381,226.5161,4.74994,False
1,0.01111111,-0.3792313,-1.221152,-0.4324249,-1.286947,-4.06335,2.96687,0.6309907,1.135361,0.4399118,-1.569343,-0.01141285,0.2,5.9,-0.4225098,0.1876116,-0.09754508,-0.425187,-4.631927,0.3182736,0.6967982,1.350834,0.3506141,-0.1793413,0.2310625,-0.07833691,-0.9700016,0.09944976,-0.004498345,0.7663653,1.399151,0.2044334,0.4703025,0.9827296,0.2705489,303.1255,220.4976,8.330607,False
1,0.02222222,-0.3645313,-1.038411,-0.3625009,-1.286011,-4.057127,2.968661,0.6298858,1.135534,0.4392605,-1.56948,-0.01238375,0.2,5.9,-0.4148743,0.1767383,-0.07749383,-0.4249595,-4.628121,0.3191521,0.6966648,1.350859,0.3504212,-0.1836378,0.2236107,-0.08039603,-0.9710024,0.1021633,-0.003935087,0.7669352,1.399,0.2044358,0.4730336,0.9808461,0.2656129,304.0139,219.1138,7.566093,False
1,0.03333334,-0.3562117,-0.8695031,-0.2870979,-1.285969,-4.052267,2.97108,0.6288817,1.135711,0.4387097,-1.569685,-0.01878402,0.2,5.9,-0.4040611,0.1487692,-0.05338544,-0.4246629,-4.626343,0.3217008,0.6964987,1.35087,0.3503315,-0.1889477,0.2247161,-0.07926296,-0.971755,0.1056515,-0.003606453,0.7674637,1.398941,0.2045169,0.4763,0.9783357,0.2605844,304.9047,218.257,6.058034,False
1,0.04444445,-0.352136,-0.7156265,-0.227588,-1.285652,-4.048616,2.973821,0.6279194,1.135804,0.4381101,-1.569933,-0.02260916,0.2,5.9,-0.3880976,0.1177438,-0.04533342,-0.4247971,-4.625337,0.3245512,0.6963546,1.350805,0.3502271,-0.1974969,0.2407061,-0.08560479,-0.9728906,0.1096421,-0.003405384,0.7678586,1.398771,0.2048035,0.4794132,0.9757869,0.2560209,305.8241,217.4426,4.698918,False
1,0.05555556,-0.3533225,-0.6183784,-0.1878597,-1.285352,-4.044047,2.976586,0.6269658,1.135773,0.4376075,-1.569616,0.02917837,0.2,5.9,-0.3753378,0.1048963,-0.04346104,-0.4249547,-4.623334,0.3265217,0.6962668,1.350755,0.3501027,-0.2038617,0.2503118,-0.08556262,-0.9738584,0.1134657,-0.003022688,0.7683553,1.398643,0.2049308,0.4818218,0.9737225,0.2523197,306.6335,216.8125,3.620031,False
1,0.06666667,-0.3492423,-0.4902667,-0.1526175,-1.284962,-4.042631,2.980082,0.6264299,1.135846,0.4371285,-1.569508,0.009477334,0.2,4.5,-0.3444556,0.1112037,-0.04585535,-0.4251193,-4.619194,0.3257408,0.6961792,1.350632,0.3499961,-0.2070438,0.2631054,-0.08770689,-0.9750237,0.1176277,-0.002988333,0.7689688,1.398459,0.2049458,0.4831673,0.9724974,0.2496608,307.187,216.4066,2.923208,False
1,0.07777778,-0.3515295,-0.3631081,-0.102467,-1.285384,-4.04273,2.984143,0.625949,1.135637,0.4366989,-1.569163,0.03147651,0.2,4.5,-0.3284894,0.1111649,-0.04708815,-0.4252472,-4.615741,0.3258087,0.6960936,1.350618,0.3498335,-0.2070685,0.2630985,-0.08983734,-0.9761103,0.1211753,-0.002665558,0.7694789,1.398314,0.2050486,0.4832968,0.9722401,0.2480162,307.3851,216.1092,2.757545,False
1,0.08888889,-0.3515295,-0.3631081,-0.102467,-1.285384,-4.04273,2.984143,0.625949,1.135637,0.4366989,-1.569246,-0.007885665,0.2,4.5,-0.3284894,0.1111649,-0.04708815,-0.4252472,-4.615741,0.3258087,0.6960936,1.350618,0.3498335,-0.2070685,0.2630985,-0.08983734,-0.9761103,0.1211753,-0.002665558,0.7694789,1.398314,0.2050486,0.4824021,0.9729187,0.247261,307.2409,215.9161,3.036383,False
1,0.1,-0.3538405,-0.2349898,-0.06509569,-1.285568,-4.044142,2.988771,0.6254655,1.135443,0.4362841,-1.573006,-0.343695,0.2,4.5,-0.3241314,0.1025091,-0.03550233,-0.4250405,-4.613848,0.3275025,0.6960591,1.350502,0.3496928,-0.2029338,0.2513199,-0.09836352,-0.9773982,0.1236811,-0.002002963,0.769893,1.397955,0.2052004,0.4808475,0.974446,0.2473023,306.821,215.8862,3.560478,False
1,0.1111111,-0.3496898,-0.1452609,-0.03490514,-1.285845,-4.045521,2.992872,0.6250304,1.135285,0.4358652,-1.569145,0.3557308,0.2,4.5,-0.3134176,0.08210945,-0.02303158,-0.4248493,-4.613354,0.3302666,0.6960379,1.350454,0.3495781,-0.1986555,0.2491812,-0.09627616,-0.9784203,0.1269378,-0.00172706,0.7703405,1.397879,0.2053273,0.479099,0.9764956,0.2480845,306.0959,215.9495,4.2558,False
1,0.1222222,-0.3476995,-0.02775885,0.00893724,-1.287018,-4.04926,2.99776,0.6246421,1.135136,0.4354956,-1.568348,0.06939731,0.1,3.4,-0.2974458,0.06709841,-0.01908015,-0.4248232,-4.612729,0.3324813,0.6960518,1.35034,0.3494918,-0.198605,0.2576994,-0.09417471,-0.9794025,0.1305889,-0.001577657,0.7708718,1.397704,0.2054939,0.4769281,0.9784942,0.248925,305.4044,216.1572,4.947087,False
1,0.1333333,-0.34465,0.08545044,0.04534586,-1.287914,-4.054114,3.002913,0.624364,1.13484,0.4351797,-1.568863,-0.04737995,0.1,3.4,-0.2794432,0.05217856,-0.0247422,-0.4252818,-4.611941,0.3342943,0.696034,1.350237,0.349407,-0.2060645,0.2726193,-0.09839864,-0.9806648,0.1348888,-0.001499093,0.7713829,1.397487,0.2056787,0.474541,0.9802605,0.2494955,304.8511,216.3538,5.595463,False
1,0.1444445,-0.3415591,0.1720042,0.07876715,-1.289225,-4.059419,3.008052,0.6240698,1.13457,0.4348199,-1.568836,0.002956773,0.1,3.4,-0.2603988,0.03406483,-0.0315089,-0.4259098,-4.612127,0.33668,0.6959966,1.35008,0.3493569,-0.2007692,0.2725776,-0.1016497,-0.9818356,0.1382003,-0.001410676,0.7718576,1.397283,0.2058637,0.4723004,0.9817548,0.2497054,304.4227,216.546,6.060333,False
1,0.1555556,-0.3362911,0.2222265,0.09754556,-1.290183,-4.063786,3.012633,0.6237819,1.134356,0.4344413,-1.568887,-0.004654174,0.1,3.4,-0.2562958,0.02136642,-0.04233323,-0.4267854,-4.611899,0.3392604,0.6959728,1.349998,0.3493004,-0.2008049,0.2672406,-0.1037633,-0.9830388,0.1414004,-0.001041296,0.7723432,1.397128,0.2059617,0.4703609,0.9829907,0.2495584,304.0683,216.8005,6.228095,False
1,0.1666667,-0.3331884,0.2905701,0.1193851,-1.291459,-4.069537,3.017899,0.6236708,1.134189,0.4340138,-1.569038,-0.01376898,0.1,3.4,-0.25639,0.01504225,-0.04878653,-0.4274821,-4.611254,0.3415525,0.6959453,1.349952,0.3492949,-0.1976666,0.2544248,-0.105875,-0.984071,0.1438923,-0.0004255731,0.7727836,1.396924,0.2061062,0.4687699,0.9839941,0.2491383,303.7523,217.0112,6.239425,False
1,0.1777778,-0.3120264,0.402727,0.1547283,-1.294253,-4.082135,3.027604,0.6233615,1.133759,0.4331903,-1.569338,-0.02736987,0.1,3.2,-0.2797489,0.01611516,-0.0410789,-0.4279593,-4.609805,0.347102,0.6959389,1.349779,0.3491094,-0.1924697,0.2447828,-0.1165499,-0.9867805,0.1498401,7.510114E-05,0.7738173,1.396697,0.2064791,0.4674907,0.9848119,0.2485238,303.4975,217.192,6.153656,False
1,0.1888889,-0.3120264,0.402727,0.1547283,-1.294253,-4.082135,3.027604,0.6233615,1.133759,0.4331903,-1.565881,0.3163551,0.1,3.2,-0.2797489,0.01611516,-0.0410789,-0.4279593,-4.609805,0.347102,0.6959389,1.349779,0.3491094,-0.1924697,0.2447828,-0.1165499,-0.9867805,0.1498401,7.510114E-05,0.7738173,1.396697,0.2064791,0.4663218,0.9854706,0.2477267,303.3174,217.4055,5.91864,False
1,0.2,-0.299311,0.4561163,0.1713563,-1.297264,-4.094172,3.037061,0.6230369,1.133336,0.4325471,-1.572486,-0.6065397,0.1,3.2,-0.2873326,0.008777022,-0.05066643,-0.4293271,-4.608605,0.352577,0.6959761,1.349539,0.3489769,-0.1999398,0.2426438,-0.1175161,-0.9892466,0.1557322,0.001353951,0.7746216,1.396349,0.2068803,0.4649003,0.9861794,0.2467927,303.2023,217.8298,5.566411,False
1,0.2111111,-0.2961478,0.4774262,0.1733157,-1.298641,-4.100231,3.041822,0.6228858,1.133237,0.432162,-1.567081,0.4996237,0.1,3.1,-0.2853846,0.008946121,-0.06879701,-0.4306076,-4.607172,0.3542606,0.6960112,1.349354,0.3489256,-0.197816,0.2490194,-0.1196894,-0.9906033,0.1591823,0.00151454,0.7752772,1.396249,0.2070553,0.4639398,0.9870645,0.2461349,302.9492,217.8229,5.587578,False
1,0.2222222,-0.2940369,0.484827,0.1647379,-1.299611,-4.106254,3.046622,0.6227116,1.132918,0.4317636,-1.569494,-0.2254309,0.1,3.1,-0.2725951,0.02492875,-0.07303809,-0.431194,-4.604332,0.3543312,0.6959671,1.349201,0.348881,-0.195671,0.2564642,-0.1197363,-0.9918411,0.1627918,0.001690308,0.7757258,1.39615,0.207247,0.4624012,0.9879861,0.2454257,302.7137,218.2887,5.195134,False
1,0.2333333,-0.2897727,0.4762189,0.1541437,-1.300541,-4.111357,3.05108,0.6225315,1.132628,0.4314413,-1.569748,-0.0208536,0.1,3.1,-0.2661479,0.03447318,-0.07088039,-0.431643,-4.602116,0.3550209,0.6959094,1.349066,0.3487778,-0.1913879,0.2532327,-0.117617,-0.9927082,0.1655257,0.002027465,0.7760147,1.395846,0.2074351,0.460844,0.9891303,0.2450491,302.3819,218.5268,5.167015,False
1,0.2444444,-0.285515,0.4740001,0.141376,-1.301107,-4.116848,3.055479,0.6223438,1.132447,0.4312358,-1.569606,0.01287719,0.1,3.1,-0.2702805,0.04398862,-0.06115056,-0.4316207,-4.599933,0.3562508,0.6958487,1.348948,0.3486543,-0.1903194,0.2404559,-0.1143905,-0.9938438,0.1681499,0.00265384,0.7764579,1.395673,0.2076528,0.4592746,0.9903992,0.2449434,302.0111,218.6986,5.304877,False
1,0.2555556,-0.2801971,0.4685357,0.1243795,-1.301381,-4.12199,3.059661,0.6221896,1.132335,0.4309022,-1.5696,0.0003411912,0.1,3.1,-0.2765536,0.05779329,-0.05455929,-0.4315951,-4.597153,0.3569877,0.6957511,1.348807,0.3485892,-0.1796617,0.2457196,-0.1155777,-0.9948877,0.1711431,0.002559564,0.7767689,1.395521,0.2078667,0.4576557,0.9916632,0.245017,301.5931,218.8662,5.510146,False
1,0.2666667,-0.2759847,0.490762,0.1039529,-1.301302,-4.128382,3.064367,0.6220328,1.132158,0.4305589,-1.569683,-0.007629995,0.1,2.8,-0.2627593,0.03642544,-0.05278296,-0.4321943,-4.597225,0.3594916,0.6954306,1.348767,0.3485818,-0.1838079,0.2564,-0.1091652,-0.9957927,0.1749317,0.002521747,0.7772027,1.395224,0.2080541,0.4560614,0.9928412,0.2452198,301.2063,219.0447,5.710131,False
1,0.2777778,-0.2770946,0.5184121,0.09841262,-1.301723,-4.135321,3.069328,0.6217874,1.13193,0.4301982,-1.569729,-0.004250184,0.1,2.8,-0.26286,0.03652826,-0.06236955,-0.4329767,-4.595225,0.3606322,0.6952218,1.348728,0.3485394,-0.1858937,0.2606413,-0.105946,-0.9966534,0.1779857,0.003017894,0.7775338,1.395005,0.2082534,0.4545086,0.9938947,0.2455121,300.905,219.2323,5.881117,False
1,0.2888889,-0.2729562,0.5918391,0.08826014,-1.301784,-4.144602,3.074724,0.6215979,1.131873,0.4298377,-1.569463,0.02438081,0.1,2.8,-0.287413,0.05909768,-0.07467268,-0.4335882,-4.591355,0.3611151,0.6950551,1.348653,0.3484666,-0.1837121,0.2638125,-0.1027631,-0.9974034,0.1811784,0.003139601,0.7778661,1.394878,0.2084093,0.4529727,0.9948082,0.2458179,300.6801,219.4122,6.055355,False
1,0.3,-0.2772543,0.6152343,0.0838246,-1.30199,-4.152489,3.080013,0.6213976,1.131785,0.4296389,-1.56926,0.01823393,0.1,2.8,-0.2979624,0.07934374,-0.07116926,-0.4336867,-4.587358,0.3611968,0.6948845,1.348572,0.3484612,-0.1794123,0.2606162,-0.09854323,-0.998385,0.1844852,0.003239203,0.7782722,1.394604,0.2085345,0.4513472,0.9955922,0.2460922,300.4942,219.6106,6.176147,False
1,0.3111111,-0.2836879,0.6386098,0.07832415,-1.302275,-4.160616,3.085532,0.6212229,1.131713,0.4292357,-1.569385,-0.01158578,0.1,2.8,-0.2989154,0.0920651,-0.06464226,-0.4336526,-4.583845,0.3613329,0.6946769,1.348534,0.348366,-0.1783419,0.2499637,-0.09638866,-0.9993746,0.1873337,0.003554255,0.778914,1.394616,0.2086873,0.449553,0.9963091,0.2463397,300.3427,219.8988,6.183053,False
1,0.3222222,-0.2986289,0.6501903,0.06226888,-1.302,-4.168602,3.091425,0.6210102,1.13167,0.4287992,-1.569101,0.02605361,0,3.2,-0.3008686,0.1090102,-0.05273351,-0.4331472,-4.579422,0.3608192,0.694552,1.34859,0.3483274,-0.171991,0.2329082,-0.09533853,-1.000362,0.1898261,0.003976898,0.77926,1.394485,0.2088475,0.4475853,0.9970813,0.2466857,300.2058,220.2074,6.178702,False
1,0.3333333,-0.3242452,0.6638111,0.03874372,-1.30132,-4.176553,3.098162,0.6207139,1.131599,0.4284136,-1.568885,0.01955191,0,3.2,-0.2857251,0.1108804,-0.03157489,-0.4325069,-4.576795,0.3610967,0.694517,1.348487,0.348244,-0.1613889,0.2104749,-0.0953683,-1.001146,0.1912299,0.004499677,0.7793984,1.394337,0.2089915,0.4455527,0.9979888,0.2472018,300.0298,220.5176,6.259187,False
1,0.3444445,-0.3434227,0.6615747,0.02812573,-1.301005,-4.184167,3.104624,0.6203904,1.131597,0.4280612,-1.568472,0.03754646,0,3.2,-0.2579558,0.09254977,-0.01925924,-0.4322225,-4.575965,0.3622733,0.6945292,1.348464,0.3482063,-0.1518558,0.1902197,-0.09435863,-1.002292,0.1932017,0.005022988,0.7800056,1.394095,0.2091627,0.4434505,0.9990535,0.2478042,299.8111,220.838,6.435819,False
1,0.3555556,-0.3796654,0.6591838,0.002602026,-1.299965,-4.191517,3.112117,0.6200654,1.13165,0.4276726,-1.567656,0.07434626,0,3.2,-0.2366312,0.06680641,-0.009078844,-0.432026,-4.576491,0.3646501,0.6945289,1.348432,0.3481815,-0.1475926,0.1806298,-0.09224632,-1.003248,0.1952789,0.005367601,0.7803882,1.39389,0.2093003,0.4412777,1.000275,0.2484128,299.5507,221.0529,6.734826,False
1,0.3666667,-0.3796654,0.6591838,0.002602026,-1.299965,-4.191517,3.112117,0.6200654,1.13165,0.4276726,-1.56789,-0.02190067,0,3.2,-0.2366312,0.06680641,-0.009078844,-0.432026,-4.576491,0.3646501,0.6945289,1.348432,0.3481815,-0.1475926,0.1806298,-0.09224632,-1.003248,0.1952789,0.005367601,0.7803882,1.39389,0.2093003,0.4390221,1.001663,0.2489745,299.26,221.1899,7.069179,False
1,0.3777778,-0.4510701,0.6641778,-0.02614094,-1.29846,-4.206922,3.128129,0.6194723,1.131801,0.42693,-1.572362,-0.408612,0,2.8,-0.2050183,-0.01525359,-0.01553742,-0.4335221,-4.581248,0.3726149,0.6946487,1.348522,0.3481722,-0.1295725,0.1507632,-0.09236484,-1.005364,0.1985577,0.006140184,0.7811084,1.393764,0.209486,0.4369904,1.003261,0.2495451,298.8957,221.3139,7.460693,False
1,0.3888889,-0.4819524,0.6480154,-0.04197194,-1.297518,-4.213662,3.136211,0.6190909,1.131924,0.4264784,-1.561645,0.9834504,0,2.8,-0.200699,-0.03028575,-0.005073801,-0.4335024,-4.583243,0.3765092,0.6947179,1.348569,0.3481536,-0.1147597,0.1326058,-0.09674687,-1.006681,0.19974,0.006339655,0.7814332,1.393599,0.2095363,0.4355446,1.004837,0.2500706,298.424,221.1951,7.942893,False
1,0.4,-0.5202715,0.6244211,-0.05561095,-1.296507,-4.220097,-3.138444,0.6186326,1.132173,0.4260085,-1.565978,-0.4046727,0,2.8,-0.1909287,-0.03689896,0.01500111,-0.4329725,-4.585014,0.3799487,0.6948162,1.348677,0.3480809,-0.1053114,0.1069971,-0.102096,-1.007907,0.2002451,0.007035273,0.7817277,1.393484,0.209584,0.4331744,1.006397,0.2501573,298.2655,221.2822,8.049739,False
1,0.4111111,-0.542616,0.5976346,-0.07030082,-1.295404,-4.225966,-3.130178,0.6180941,1.132262,0.4255629,-1.566942,-0.08341924,0,2.8,-0.1801089,-0.04243153,0.03188009,-0.432386,-4.587265,0.3834715,0.6948863,1.34864,0.348068,-0.0957661,0.09104015,-0.1021827,-1.009414,0.2016294,0.007089601,0.7821383,1.393479,0.2095928,0.4305413,1.008334,0.2501912,297.9976,221.2695,8.385977,False
1,0.4222222,-0.5702204,0.5292648,-0.09000038,-1.293822,-4.229774,-3.122026,0.617521,1.132286,0.4251666,-1.566754,0.017727,0,1.7,-0.1609255,-0.05532933,0.03687793,-0.4323067,-4.589958,0.3870409,0.6950731,1.348647,0.3480608,-0.08406784,0.07184589,-0.09905811,-1.010364,0.2019117,0.007526626,0.7824055,1.393376,0.2096097,0.4280249,1.010629,0.2502457,297.5661,221.1467,8.924571,False
1,0.4333333,-0.6224358,0.5387887,-0.08683506,-1.293221,-4.236203,-3.111731,0.6171465,1.132321,0.4248328,-1.567106,-0.0322582,0,1.7,-0.1395693,-0.06399613,0.04402813,-0.4320569,-4.592688,0.3902926,0.6950998,1.348643,0.3480465,-0.07769943,0.06549539,-0.09809741,-1.012119,0.2034515,0.007681089,0.7828088,1.393191,0.2095699,0.4257022,1.013198,0.2502656,297.0208,220.8891,9.579127,False
1,0.4444444,-0.6938506,0.5609936,-0.09441164,-1.292139,-4.243646,-3.099835,0.6167407,1.132558,0.424377,-1.56696,0.01386179,0,1.7,-0.1150242,-0.05877768,0.04595949,-0.4316835,-4.594328,0.3922522,0.6952777,1.348668,0.3480182,-0.06710833,0.04522245,-0.09815326,-1.013193,0.2032056,0.008265919,0.7830629,1.393182,0.2095146,0.4235866,1.01589,0.2502064,296.3697,220.4478,10.35849,False
1,0.4555556,-0.7183306,0.5460254,-0.09640944,-1.291283,-4.249512,-3.089421,0.6162257,1.132771,0.4238985,-1.565802,0.1058838,0,1.7,-0.1098127,-0.05654622,0.03420559,-0.4319221,-4.595377,0.3942972,0.6953955,1.348624,0.3478971,-0.05963902,0.03674802,-0.09398991,-1.014642,0.2042377,0.008355401,0.783335,1.392932,0.2094395,0.4217033,1.018543,0.250025,295.7183,219.882,11.15776,False
1,0.4666667,-0.7331729,0.4947128,-0.116254,-1.289557,-4.253485,-3.079957,0.6156548,1.133108,0.4232454,-1.564754,0.09526551,0,0.7,-0.1036845,-0.0841106,0.01789378,-0.4328968,-4.599252,0.3987745,0.6955048,1.348665,0.3478322,-0.04899129,0.02612374,-0.09090367,-1.015856,0.205002,0.008352206,0.7834821,1.392796,0.2094119,0.4198596,1.021138,0.2497268,295.175,219.4672,11.71233,False
1,0.4777778,-0.7288289,0.4306329,-0.1381406,-1.287459,-4.256307,-3.071161,0.6149195,1.133414,0.4226425,-1.566149,-0.1279553,0,0.7,-0.104821,-0.09151618,0.01357062,-0.4333208,-4.60182,0.4023331,0.6956557,1.348615,0.34782,-0.04477517,0.02078059,-0.09306189,-1.016926,0.2051461,0.008711733,0.7836651,1.392822,0.2093072,0.4178587,1.023786,0.2493258,294.7571,219.0892,12.23562,False
1,0.4888889,-0.7084624,0.3345344,-0.1683243,-1.284521,-4.256718,-3.063848,0.6141394,1.133663,0.4220986,-1.567121,-0.08747844,0,0.7,-0.1038595,-0.09996846,0.00602239,-0.4339909,-4.604681,0.4060357,0.6957701,1.348677,0.3477063,-0.04163073,0.01548027,-0.09524344,-1.018513,0.2058634,0.008901349,0.7837074,1.392625,0.2092502,0.4158102,1.026558,0.2488613,294.3181,218.6176,12.92737,False
1,0.5,-0.677433,0.2342537,-0.1942064,-1.281591,-4.256475,-3.057304,0.6131778,1.134087,0.4216428,-1.566328,0.07125322,0,0.7,-0.1028553,-0.1020507,0.0006619357,-0.4346561,-4.607124,0.4093095,0.6958303,1.348741,0.3476062,-0.03952999,0.008015417,-0.09524094,-1.019561,0.2056954,0.009497099,0.7838653,1.392667,0.2092657,0.4138684,1.029359,0.2483108,293.8004,217.8826,13.90412,True
1,0.5111111,-0.6667222,0.1969877,-0.1928618,-1.279669,-4.257754,-3.049759,0.6124061,1.134364,0.4211006,-1.564527,0.161176,0,0.7,-0.1071129,-0.1041814,0.001751397,-0.4351051,-4.610003,0.4132861,0.695857,1.348766,0.3475032,-0.03418042,0.01122396,-0.0921335,-1.020712,0.2062778,0.009726929,0.7839106,1.392372,0.2092237,0.4121315,1.031969,0.247673,293.2186,216.8923,15.06248,True
1,0.5222223,-0.6527809,0.1394945,-0.1913699,-1.277607,-4.257737,-3.042914,0.6115579,1.134624,0.4205945,-1.561269,0.292945,0,0.3,-0.1165724,-0.07968559,0.006349601,-0.4349485,-4.610221,0.4151602,0.6958073,1.348743,0.347429,-0.03729726,0.01444726,-0.08571394,-1.021419,0.2065781,0.0101549,0.7839845,1.392404,0.2092068,0.4107121,1.034112,0.2469648,292.6893,215.7439,16.25567,True
1,0.5333334,-0.6463168,0.09371893,-0.1867689,-1.275642,-4.257442,-3.035939,0.6108592,1.134858,0.4200938,-1.555894,0.4848549,0,0.3,-0.1271278,-0.04554898,0.00466943,-0.434655,-4.609086,0.4159402,0.6957271,1.348779,0.3472786,-0.03722136,0.01978555,-0.08040211,-1.022083,0.2069588,0.01038819,0.7839237,1.392292,0.2092042,0.4095144,1.035588,0.2462014,292.3384,214.7733,17.13565,True
1,0.5444446,-0.6494514,0.06183365,-0.1758569,-1.274187,-4.257425,-3.028665,0.6102019,1.135121,0.4196618,-1.550546,0.4805571,0,0.3,-0.1366444,-0.007106662,-0.001249925,-0.4344622,-4.606534,0.415431,0.6955607,1.348748,0.3472519,-0.04143323,0.02725949,-0.07824904,-1.02291,0.2076018,0.01061962,0.7839814,1.39229,0.2092466,0.4083894,1.03634,0.2454354,292.1867,214.2207,17.57993,True
1,0.5555557,-0.6536818,0.04914926,-0.1619076,-1.272892,-4.257698,-3.021246,0.609499,1.135372,0.4191246,-1.544262,0.5660674,0,0.3,-0.1441181,0.006829947,-0.007428021,-0.4345027,-4.60505,0.4159245,0.6954163,1.348792,0.3471663,-0.05095939,0.03690825,-0.07500099,-1.024013,0.2088603,0.01092482,0.7843515,1.392364,0.2091839,0.4073322,1.036407,0.2447095,292.2361,213.9213,17.8,True
1,0.5666668,-0.6472751,0.04608525,-0.1459025,-1.271939,-4.25842,-3.014077,0.6088333,1.135781,0.4185672,-1.537631,0.5969238,0.1,0.6,-0.1600797,0.04961878,-0.0196186,-0.4342295,-4.600356,0.4139338,0.695313,1.34891,0.3471959,-0.04984338,0.03588684,-0.07076412,-1.024882,0.2098173,0.01086943,0.7845386,1.392421,0.2091792,0.4063838,1.035918,0.244053,292.4685,213.8711,17.78023,True
1,0.577778,-0.623804,0.03565659,-0.1223968,-1.27142,-4.258663,-3.007863,0.6080147,1.136176,0.4180932,-1.531074,0.5900879,0.1,0.6,-0.1717649,0.06245831,-0.02043935,-0.4340047,-4.597752,0.4138497,0.6952094,1.348904,0.3470671,-0.05404397,0.03698125,-0.06646335,-1.025597,0.2102418,0.01144866,0.7846392,1.392357,0.2091858,0.4054745,1.035093,0.2434572,292.8288,214.0673,17.51119,True
1,0.5888891,-0.6035491,0.03363954,-0.1106724,-1.270685,-4.258992,-3.001834,0.6071937,1.136452,0.4175322,-1.524904,0.5547101,0.1,0.6,-0.170727,0.06034198,-0.02259714,-0.434026,-4.596365,0.4143788,0.6951355,1.348872,0.3469667,-0.06254435,0.04125494,-0.06529884,-1.026029,0.2108632,0.01197863,0.7845649,1.392048,0.2091427,0.4044889,1.034181,0.2428838,293.2523,214.4029,17.12501,True
1,0.6000003,-0.5534549,0.02961223,-0.09044489,-1.270308,-4.259256,-2.997294,0.6063077,1.136564,0.4169807,-1.519231,0.5097465,0.1,0.6,-0.1569553,0.04540464,-0.02502315,-0.4343855,-4.595916,0.4152712,0.6950445,1.348825,0.3468177,-0.05610564,0.044439,-0.0621888,-1.026626,0.2114993,0.01204122,0.7846966,1.391798,0.2090244,0.4034099,1.033435,0.242344,293.6584,214.7646,16.73193,True
1,0.6111114,-0.5310843,0.03081703,-0.07555969,-1.269951,-4.259609,-2.991835,0.6055144,1.136773,0.4163706,-1.513119,0.5503091,0.1,0.6,-0.1420706,0.03041852,-0.02319719,-0.434662,-4.595996,0.4164177,0.6948891,1.348745,0.3466992,-0.05403865,0.03701259,-0.06435917,-1.027974,0.21242,0.01235014,0.7850622,1.391701,0.2088907,0.40224,1.032993,0.2418403,293.9238,215.0031,16.49135,True
1,0.6222225,-0.498069,0.04378479,-0.05969521,-1.270014,-4.260704,-2.987017,0.6046913,1.136935,0.4159596,-1.508418,0.4211657,0.8,5.3,-0.1410732,0.02834126,-0.02855303,-0.4349512,-4.59482,0.4169844,0.6947746,1.348779,0.3466241,-0.04228145,0.03272711,-0.06021761,-1.028477,0.2126101,0.01228916,0.7851623,1.391693,0.208818,0.4009829,1.032869,0.2413546,294.0137,215.053,16.48578,True
1,0.6333337,-0.4714653,0.07063434,-0.03542095,-1.270599,-4.262271,-2.982083,0.6039523,1.137014,0.4154737,-1.501716,0.6053948,0.8,5.3,-0.1357738,0.0144574,-0.02661398,-0.4352814,-4.595149,0.4186212,0.6946372,1.348866,0.3464947,-0.03695437,0.02315404,-0.05813573,-1.029293,0.2129051,0.01232831,0.7851908,1.391843,0.208765,0.3997115,1.032976,0.2409069,293.9399,214.9924,16.62209,True
1,0.6444448,-0.4544387,0.09209525,-0.01962022,-1.2711,-4.264094,-2.97703,0.6032005,1.13719,0.4149239,-1.497233,0.4017212,0.8,5.3,-0.1346458,0.01332681,-0.02024428,-0.4352266,-4.594849,0.4198047,0.6944551,1.348891,0.3464065,-0.04437178,0.02211293,-0.05485239,-1.02983,0.2130489,0.01294722,0.7852722,1.391816,0.2087994,0.3984504,1.033246,0.2404768,293.8555,214.9542,16.73982,True
1,0.655556,-0.4374508,0.1435077,0.01407042,-1.272962,-4.267226,-2.971779,0.6025902,1.137329,0.4145203,-1.49281,0.3985266,0.8,5.3,-0.1356858,0.00796245,-0.01602458,-0.4352947,-4.595018,0.4215038,0.694303,1.348922,0.3463151,-0.05180677,0.03596756,-0.05693514,-1.030439,0.2139759,0.01323218,0.7850087,1.391686,0.2088935,0.3972084,1.033653,0.2400957,293.7487,214.9317,16.81212,True
1,0.6666671,-0.4279448,0.2162635,0.05293743,-1.275691,-4.271906,-2.965903,0.601927,1.137489,0.4141483,-1.488838,0.3575785,0.8,5.3,-0.1398106,0.01961607,-0.007342293,-0.4348175,-4.593732,0.4219787,0.6940496,1.348971,0.3462186,-0.06335755,0.05736519,-0.04728906,-1.030697,0.2159882,0.01332246,0.7849728,1.39169,0.2088237,0.3959518,1.034165,0.2397535,293.6266,215.0021,16.83202,True
1,0.6777782,-0.4056131,0.2537795,0.07820192,-1.277981,-4.275706,-2.960918,0.6012496,1.137612,0.4136417,-1.485633,0.2882658,1.2,13.3,-0.1535568,0.04201369,-0.004851337,-0.4343349,-4.591017,0.4216897,0.6938683,1.349004,0.3461835,-0.06652546,0.07121492,-0.04836383,-1.031273,0.2173543,0.01344017,0.7850584,1.391596,0.2089386,0.3946582,1.034787,0.2394281,293.5222,215.1364,16.80366,True
1,0.6888894,-0.3736444,0.2496584,0.08992687,-1.27979,-4.278129,-2.956944,0.6004463,1.137887,0.413142,-1.482561,0.2768124,1.2,13.3,-0.1503294,0.047317,-0.003768699,-0.4340899,-4.589561,0.4219244,0.6936769,1.349098,0.3460987,-0.06766853,0.06270173,-0.05366044,-1.032215,0.2182018,0.01368918,0.7850912,1.391583,0.2089522,0.3933249,1.035564,0.2391664,293.3882,215.4451,16.5836,True
1,0.7000005,-0.3554842,0.2198622,0.09013623,-1.280946,-4.279435,-2.953181,0.5996839,1.137953,0.4127009,-1.480648,0.1711142,1.2,13.3,-0.1461276,0.03987865,-0.00708132,-0.4341799,-4.588941,0.4228431,0.6935076,1.34909,0.346035,-0.05294067,0.04663791,-0.06549304,-1.033286,0.2181257,0.01390383,0.785177,1.391382,0.2088544,0.3918389,1.036541,0.2389787,293.2054,215.8575,16.3113,True
1,0.7111117,-0.3458536,0.1813973,0.07337384,-1.281308,-4.28019,-2.94937,0.5990028,1.138099,0.4122691,-1.479114,0.1376497,1.2,13.3,-0.1471328,0.03126894,0.001368375,-0.4339099,-4.589395,0.4249004,0.6934584,1.349142,0.3459408,-0.04868053,0.04451615,-0.06554231,-1.034107,0.2189767,0.01379118,0.785227,1.391403,0.2088795,0.3902693,1.037691,0.2388413,292.9734,216.1393,16.26784,True
1,0.7222228,-0.3340856,0.142987,0.06195027,-1.281841,-4.280597,-2.945892,0.5982204,1.13817,0.411999,-1.477108,0.1811054,2.5,27.8,-0.1418365,0.02272686,0.001226712,-0.4339504,-4.589517,0.4264038,0.6932493,1.349129,0.3457649,-0.04328037,0.05303212,-0.06136827,-1.034589,0.219957,0.01357174,0.7852609,1.391218,0.2089045,0.3887603,1.038928,0.2387016,292.6963,216.199,16.47202,True
1,0.7333339,-0.3308201,0.08964107,0.05169576,-1.281919,-4.279724,-2.942489,0.5975738,1.138203,0.4116781,-1.475182,0.1735387,2.5,27.8,-0.1399393,0.01011211,-0.01702878,-0.4348537,-4.589488,0.4278693,0.6929524,1.349044,0.3457153,-0.04733493,0.07334334,-0.04861423,-1.034834,0.2219323,0.01320981,0.7852244,1.391243,0.2090147,0.3874511,1.040114,0.2385038,292.387,216.0571,16.83979,True
1,0.7444451,-0.3361286,0.07465503,0.04222608,-1.282173,-4.280222,-2.938474,0.5968681,1.13818,0.411366,-1.47393,0.1122562,2.5,27.8,-0.138024,0.009236917,-0.03729996,-0.4357672,-4.588333,0.4283245,0.6926533,1.348943,0.345721,-0.05574922,0.09256922,-0.0443252,-1.035251,0.2239731,0.01301194,0.7851835,1.391165,0.2090766,0.3863783,1.041163,0.2381918,292.1332,215.8063,17.20819,True
1,0.7555562,-0.3381824,0.02548793,0.02784213,-1.282064,-4.279418,-2.934919,0.5960571,1.138149,0.4111197,-1.472417,0.1366983,2.5,27.8,-0.1424522,0.02437851,-0.05841796,-0.4366876,-4.585235,0.4272222,0.6923251,1.348845,0.3457639,-0.05565031,0.1053705,-0.03904219,-1.035518,0.2257825,0.01269502,0.7851677,1.391089,0.2091706,0.3855133,1.042026,0.2377477,291.9247,215.5611,17.46908,True
1,0.7666674,-0.3424447,0.0212518,0.02666406,-1.282206,-4.279022,-2.931167,0.5953688,1.138207,0.4108915,-1.471108,0.1179669,2.5,27.8,-0.1498887,0.05216739,-0.06552069,-0.4369076,-4.581509,0.4257558,0.6920125,1.348808,0.3457282,-0.05776006,0.1118072,-0.03693507,-1.036218,0.227936,0.01260607,0.7852523,1.390939,0.2092137,0.3848382,1.042681,0.2371333,291.786,215.3172,17.66608,True
1,0.7777785,-0.3402797,0.001025304,0.02681521,-1.282388,-4.27844,-2.927662,0.5946511,1.138295,0.4106979,-1.47029,0.07337915,3.8,45,-0.1572156,0.07238454,-0.05992547,-0.4368207,-4.577892,0.4244237,0.6916952,1.348758,0.3457057,-0.05245477,0.1085957,-0.0380492,-1.036632,0.2292566,0.01233257,0.7852538,1.390851,0.2093265,0.3841802,1.043172,0.236343,291.71,215.0844,17.76223,True
1,0.7888896,-0.3360277,0.008483145,0.02675772,-1.282782,-4.278679,-2.924026,0.5939944,1.138376,0.4104133,-1.469473,0.07370906,3.8,45,-0.1613665,0.08405162,-0.05337565,-0.4366668,-4.574841,0.4235632,0.6914033,1.348686,0.345679,-0.04609731,0.1064587,-0.04025775,-1.037313,0.2308491,0.01187237,0.7851603,1.390735,0.2094326,0.3835386,1.043567,0.2354384,291.6815,214.8396,17.81653,True
1,0.8000008,-0.3285926,0.02666323,0.03407143,-1.283597,-4.279474,-2.920413,0.593361,1.138499,0.4102073,-1.469015,0.04084377,3.8,45,-0.1643808,0.07961601,-0.0342168,-0.4362055,-4.573421,0.4242511,0.6911397,1.348672,0.345696,-0.04080778,0.09577943,-0.04135054,-1.037824,0.2315227,0.01174188,0.785121,1.390741,0.2095861,0.3829392,1.043966,0.2345068,291.6848,214.658,17.78897,True
1,0.8111119,-0.3115787,0.04802335,0.03816244,-1.284518,-4.280602,-2.91722,0.5926993,1.138615,0.4099488,-1.468574,0.03971384,3.8,45,-0.1600971,0.06461309,-0.02695025,-0.4361752,-4.573015,0.4255388,0.6907962,1.348642,0.3457208,-0.03978542,0.09045092,-0.04348876,-1.038548,0.232619,0.0116468,0.7848891,1.390633,0.2097328,0.3823514,1.044454,0.2336051,291.6732,214.4928,17.75984,True
1,0.8222231,-0.3041695,0.07894014,0.03899008,-1.285415,-4.282458,-2.913564,0.592104,1.138696,0.4097812,-1.468261,0.02794493,3.8,55.1,-0.1527681,0.0444077,-0.03255434,-0.4367765,-4.572597,0.4266014,0.690598,1.348533,0.3457463,-0.03451764,0.08828576,-0.04780273,-1.039208,0.2336008,0.01139993,0.7848231,1.390617,0.2098594,0.3817145,1.045098,0.2327832,291.6176,214.3494,17.74327,True
1,0.8333342,-0.2924753,0.09282461,0.04100735,-1.28629,-4.283847,-2.910248,0.5914226,1.138842,0.4095514,-1.468325,-0.006406374,3.8,55.1,-0.1380067,0.01457028,-0.03726079,-0.4376415,-4.573871,0.4288304,0.690342,1.348513,0.3458209,-0.03237164,0.09362784,-0.04679666,-1.039903,0.2353358,0.01095198,0.7847031,1.390509,0.210011,0.3809877,1.045936,0.2321022,291.5002,214.2313,17.7469,True
1,0.8444453,-0.2839768,0.1056709,0.04729272,-1.287323,-4.28523,-2.906846,0.5908772,1.138906,0.4093473,-1.467193,0.1026576,3.8,55.1,-0.1274466,0.001797989,-0.04176281,-0.4384106,-4.573897,0.4299495,0.6901124,1.348423,0.3459101,-0.03125688,0.08832046,-0.0414649,-1.040169,0.2363377,0.01072615,0.7844454,1.390562,0.2102487,0.3801403,1.046935,0.2316043,291.2967,214.0508,17.87505,True
1,0.8555565,-0.2743748,0.09176473,0.0378029,-1.287523,-4.285735,-2.903972,0.5902357,1.138961,0.4091659,-1.465997,0.1072059,3.8,55.1,-0.116778,-0.003589854,-0.03979211,-0.4388096,-4.573996,0.4308268,0.6900368,1.348586,0.3459775,-0.02705068,0.07339067,-0.04252943,-1.040681,0.2366971,0.01073334,0.78435,1.390503,0.2104011,0.3791599,1.048013,0.2313337,291.0437,213.8596,18.08423,True
1,0.8666676,-0.2711723,0.08753048,0.03996119,-1.288222,-4.286513,-2.900779,0.5897094,1.139046,0.4089496,-1.464058,0.174729,3.8,55.1,-0.1145758,-0.009009674,-0.03134149,-0.4389502,-4.57464,0.4326015,0.6897576,1.348567,0.3460453,-0.02818156,0.06697882,-0.04676415,-1.041466,0.2372093,0.01081696,0.7841464,1.39061,0.2106922,0.3780694,1.049072,0.2312685,290.7734,213.7224,18.33823,True
1,0.8777788,-0.2626338,0.07793908,0.03789477,-1.288698,-4.286994,-2.898086,0.5891787,1.13903,0.4087334,-1.462006,0.1842389,3.9,80,-0.1102872,-0.01332239,-0.02716999,-0.4392298,-4.574909,0.4339206,0.6895055,1.348508,0.3459992,-0.02604808,0.06803797,-0.0467921,-1.04198,0.2381369,0.01055677,0.7840179,1.390554,0.2108724,0.376972,1.049993,0.2313733,290.5084,213.6316,18.62761,True
1,0.8888899,-0.2605214,0.08330496,0.0421082,-1.289507,-4.288011,-2.894814,0.5886402,1.139078,0.4085538,-1.458959,0.2748236,3.9,80,-0.1135076,-0.009015501,-0.03135418,-0.4396783,-4.574515,0.4348886,0.6892437,1.348469,0.3460658,-0.02596918,0.06911923,-0.04040556,-1.042189,0.239027,0.01037568,0.7838463,1.390501,0.2110095,0.3759223,1.050652,0.2315605,290.3021,213.543,18.93092,True
1,0.900001,-0.2583769,0.0769366,0.04428418,-1.290212,-4.288573,-2.891889,0.5880995,1.139062,0.4083858,-1.456057,0.2604509,3.9,80,-0.1061179,0.004916891,-0.04195163,-0.44022,-4.572384,0.4339514,0.6889545,1.348419,0.3462148,-0.0281496,0.06271672,-0.04248851,-1.042677,0.2394015,0.01067608,0.7837119,1.390426,0.211129,0.3749532,1.050988,0.2317529,290.1791,213.6417,19.03641,True
1,0.9111122,-0.2541237,0.07589089,0.0453498,-1.290868,-4.28932,-2.888862,0.5876209,1.139118,0.4082189,-1.451868,0.3778108,3.9,80,-0.1028525,0.01445822,-0.03869784,-0.4403569,-4.571162,0.4338476,0.6887478,1.348335,0.3462996,-0.02495739,0.05526985,-0.04037555,-1.043124,0.2400253,0.01064252,0.7836769,1.390315,0.2113042,0.3740709,1.050959,0.231889,290.1376,213.8382,18.99018,True
1,0.9222233,-0.2530532,0.07270049,0.04537767,-1.291591,-4.289948,-2.885914,0.5870386,1.13923,0.4081235,-1.447789,0.3665647,6.9,90.2,-0.1016062,0.02924911,-0.02578095,-0.4398003,-4.569361,0.4333616,0.6884653,1.348388,0.3464472,-0.02286164,0.04887632,-0.04145343,-1.043746,0.240574,0.01060844,0.7836143,1.390431,0.2114487,0.3732232,1.050591,0.2319415,290.1993,214.1858,18.72418,True
1,0.9333345,-0.2434668,0.06736965,0.04327795,-1.292076,-4.290357,-2.883338,0.5865263,1.139273,0.4080198,-1.443001,0.4311247,6.9,90.2,-0.09617959,0.0259258,-0.01522059,-0.4396208,-4.569203,0.434066,0.6881806,1.348308,0.34658,-0.02381709,0.05316857,-0.03293362,-1.043819,0.2414349,0.01046862,0.783499,1.390414,0.2116706,0.3724307,1.049934,0.2319234,290.3356,214.5904,18.35763,True
1,0.9444456,-0.239205,0.06526259,0.04435649,-1.292768,-4.290999,-2.8806,0.5859634,1.139409,0.407836,-1.437818,0.4663963,6.9,90.2,-0.09297599,0.01628999,-0.01108918,-0.4397119,-4.569445,0.4352223,0.6879085,1.348305,0.3466504,-0.02383112,0.05423128,-0.03400583,-1.044277,0.2421883,0.01044012,0.7832584,1.390317,0.2118058,0.3716896,1.049065,0.2318646,290.547,215.0484,17.89101,True
1,0.9555568,-0.2307121,0.08770332,0.05163638,-1.294016,-4.292536,-2.87791,0.5854348,1.139444,0.4077365,-1.432383,0.4886443,6.9,90.2,-0.08774351,-0.006080255,-0.01349747,-0.440376,-4.571153,0.437457,0.687598,1.348261,0.3468046,-0.02390428,0.04995261,-0.03931778,-1.044878,0.242668,0.01048779,0.7831253,1.390269,0.2120228,0.3709623,1.048064,0.2318031,290.7893,215.5124,17.38805,True
1,0.9666679,-0.2232836,0.10912,0.06424003,-1.295444,-4.29419,-2.875156,0.584915,1.139422,0.4076426,-1.426091,0.566732,6.9,90.2,-0.08143947,-0.0220499,-0.01691869,-0.4410147,-4.572423,0.4392599,0.6872524,1.348256,0.3468807,-0.02391381,0.04887661,-0.03931192,-1.045268,0.2430991,0.01064093,0.7828555,1.390202,0.2121158,0.3702536,1.046975,0.2317835,291.0276,215.966,16.90964,True
1,0.977779,-0.2179541,0.1102118,0.066356,-1.296476,-4.295213,-2.872685,0.5843925,1.139422,0.4075997,-1.419609,0.582872,9.1,99.2,-0.07942766,-0.01767091,-0.02968499,-0.4417598,-4.571687,0.4394397,0.6869937,1.348196,0.3470857,-0.02498511,0.0467491,-0.03929264,-1.045694,0.2436127,0.01069952,0.782728,1.390141,0.212301,0.3694878,1.045838,0.2318153,291.2663,216.4875,16.37734,True
1,0.9888902,-0.2147814,0.1241243,0.07370295,-1.297975,-4.296815,-2.86986,0.5838384,1.139372,0.4075086,-1.412371,0.6516409,9.1,99.2,-0.07521338,-0.01977265,-0.03401295,-0.4423681,-4.57175,0.4401377,0.6866527,1.348127,0.3472145,-0.02173265,0.04143392,-0.032917,-1.045802,0.2439092,0.01068593,0.7825107,1.390083,0.2124524,0.3686447,1.044672,0.2319705,291.463,217.0758,15.79845,True
1,1.000001,-0.2094367,0.1091631,0.06635631,-1.2986,-4.297318,-2.867569,0.5832749,1.139383,0.4074836,-1.40471,0.6893248,9.1,99.2,-0.0761409,-0.009210669,-0.02430988,-0.4421945,-4.571334,0.4406501,0.6863589,1.348053,0.3473337,-0.01859856,0.03181146,-0.03611383,-1.046274,0.2437308,0.01084945,0.7822222,1.38991,0.2126129,0.3677327,1.043454,0.2322939,291.633,217.6905,15.25579,True
1,1.011112,-0.2083556,0.1006674,0.06855039,-1.299675,-4.298038,-2.865079,0.5825657,1.13943,0.4073894,-1.396298,0.7574247,9.1,99.2,-0.08137809,0.00354632,-0.01986956,-0.4420815,-4.570329,0.4408304,0.686069,1.348026,0.3474345,-0.01217673,0.02115767,-0.03082528,-1.046428,0.2436121,0.01085638,0.782093,1.389814,0.2127211,0.366786,1.042142,0.2327831,291.8136,218.2981,14.77671,True
1,1.022224,-0.2040752,0.08679467,0.06439418,-1.300398,-4.298388,-2.862874,0.582032,1.139498,0.4073291,-1.387772,0.7668448,9.1,99.2,-0.08349019,0.00567589,-0.01876372,-0.4422301,-4.569807,0.4413564,0.6857771,1.348079,0.3476031,-0.01012913,0.01686681,-0.0372292,-1.047058,0.2436494,0.0108641,0.781962,1.389766,0.2128906,0.3657803,1.040702,0.2333989,292.0199,218.9813,14.27379,True
1,1.033335,-0.2019264,0.06110652,0.04753685,-1.300226,-4.298325,-2.860575,0.581545,1.139755,0.4071507,-1.378452,0.8391477,11,84.9,-0.08461045,0.004662365,-0.0240893,-0.4426872,-4.569504,0.4420171,0.6857336,1.348071,0.3476768,-0.009128567,0.009402913,-0.04040593,-1.047537,0.2436461,0.01105052,0.7818331,1.389736,0.2129426,0.3647742,1.039095,0.2340968,292.2837,219.6354,13.81898,True
1,1.044446,-0.2019195,0.06112355,0.04966733,-1.301088,-4.298926,-2.858198,0.5809651,1.139943,0.4070098,-1.368892,0.8600898,11,84.9,-0.07913338,0.01305402,-0.01234677,-0.442302,-4.568715,0.4420261,0.6855081,1.348155,0.3477893,0.001517121,-0.00660616,-0.03727606,-1.047817,0.2428578,0.01105478,0.7816483,1.38964,0.2130566,0.3637457,1.037311,0.2348072,292.6048,220.3807,13.27848,True
1,1.055557,-0.1955227,0.05793777,0.04968663,-1.301765,-4.299293,-2.856126,0.58042,1.14011,0.4068277,-1.358517,0.9341842,11,84.9,-0.07154575,0.01610728,-0.0006760599,-0.4418397,-4.568562,0.4424541,0.685343,1.348173,0.3478928,0.01006943,-0.01726609,-0.03201184,-1.048008,0.242233,0.01098234,0.7815191,1.389587,0.21311,0.3628472,1.035353,0.2355268,292.9883,221.115,12.76314,True
1,1.066668,-0.1976344,0.04728394,0.04976562,-1.302333,-4.299364,-2.853883,0.579869,1.140373,0.4067433,-1.348006,0.9457294,11,84.9,-0.05113693,0.006257184,0.01818976,-0.4412549,-4.570089,0.4436315,0.6853536,1.348247,0.3479524,0.02809018,-0.04714277,-0.0331812,-1.048368,0.2406387,0.01076663,0.7813073,1.389606,0.213166,0.3620786,1.033244,0.2361894,293.4606,221.794,12.26464,True
1,1.077779,-0.2072216,0.04291881,0.03808168,-1.302361,-4.299698,-2.851206,0.5793599,1.140544,0.4064445,-1.337324,0.9610539,10.3,60.3,-0.02869526,-0.02274761,0.03471376,-0.4410152,-4.573547,0.4463804,0.6853863,1.348298,0.3480604,0.04500967,-0.07916532,-0.03646892,-1.04898,0.2383756,0.01081323,0.781197,1.389583,0.2131865,0.3613543,1.031028,0.2367642,293.9438,222.5594,11.62165,True
1,1.08889,-0.2231935,0.03646936,0.03388397,-1.302692,-4.299824,-2.848209,0.5788292,1.140718,0.4062207,-1.325862,1.032112,10.3,60.3,-0.01486564,-0.04949982,0.04176334,-0.4410573,-4.577302,0.4494928,0.6853698,1.348307,0.3482008,0.05133943,-0.09837282,-0.03753144,-1.049282,0.2362726,0.01103001,0.7809203,1.389571,0.2131021,0.3606987,1.028726,0.2372704,294.4283,223.2857,10.98556,True
1,1.100002,-0.2359677,0.026839,0.02971429,-1.303039,-4.299857,-2.845158,0.5783694,1.140985,0.4060776,-1.313995,1.068405,10.3,60.3,0.01790334,-0.1113656,0.03762268,-0.4422254,-4.584736,0.454881,0.685445,1.348288,0.3482783,0.06299239,-0.1186468,-0.03865559,-1.04966,0.2341273,0.01093893,0.7806484,1.389492,0.213033,0.3601101,1.02636,0.2377263,294.9329,223.927,10.41406,True
1,1.111113,-0.2476788,0.01716845,0.02127343,-1.302961,-4.299775,-2.842022,0.5779587,1.14117,0.4058661,-1.301934,1.085722,10.3,60.3,0.0337003,-0.1379672,0.02867472,-0.4432209,-4.58964,0.4584405,0.685419,1.348309,0.3483353,0.06612102,-0.1250619,-0.04293159,-1.050308,0.2322569,0.0110135,0.780491,1.389435,0.2129872,0.3595272,1.023949,0.2381211,295.4488,224.4904,9.921972,True
1,1.122224,-0.2679155,0.01283198,0.01599333,-1.302941,-4.299728,-2.838428,0.577521,1.141336,0.4057097,-1.290023,1.071847,10.3,60.3,0.04103778,-0.1432174,0.01895544,-0.4440432,-4.592698,0.4605785,0.6853861,1.348273,0.3484213,0.06720704,-0.1282566,-0.04080759,-1.050777,0.2304634,0.01104999,0.7803072,1.389344,0.2129118,0.3589751,1.021546,0.2384894,295.98,225.0684,9.391783,True
1,1.133335,-0.2828396,0.02028185,0.01807883,-1.303308,-4.300087,-2.83473,0.5770866,1.141443,0.4055765,-1.277967,1.08514,6.6,37.7,0.04844806,-0.1314419,0.01047133,-0.4446723,-4.594653,0.4615463,0.685293,1.348239,0.3484769,0.0577483,-0.1196638,-0.03220227,-1.050799,0.2295356,0.01110964,0.7800906,1.38934,0.2128484,0.3585064,1.019208,0.2388762,296.5058,225.6144,8.89209,True
1,1.144446,-0.2924273,0.01704712,0.01491334,-1.303372,-4.300162,-2.831162,0.5766691,1.141387,0.4054303,-1.265577,1.115679,6.6,37.7,0.05272198,-0.1154356,0.006324012,-0.4450174,-4.596047,0.4620798,0.6851622,1.348243,0.3485374,0.0567148,-0.1122134,-0.03007318,-1.050926,0.2281284,0.01140898,0.7797957,1.389135,0.212734,0.3580969,1.016944,0.2392835,296.9969,226.0631,8.497282,True
1,1.155557,-0.3062839,0.0310116,0.03292844,-1.304598,-4.300684,-2.827161,0.5762396,1.14147,0.4053068,-1.253626,1.075287,6.6,37.7,0.04113691,-0.0823795,0.007832833,-0.4447522,-4.595441,0.4614622,0.6849365,1.348215,0.3485644,0.03968951,-0.1100297,-0.02882047,-1.051241,0.2268397,0.01219648,0.7796292,1.389067,0.2127249,0.3576806,1.01476,0.2397083,297.4603,226.4932,8.109949,True
1,1.166668,-0.3169407,0.03532345,0.04143266,-1.305487,-4.300938,-2.823197,0.5757637,1.141612,0.4051776,-1.241905,1.05472,6.6,37.7,0.03069384,-0.04727153,0.01680693,-0.4440272,-4.594545,0.4607463,0.6848432,1.348334,0.3486078,0.03658069,-0.09722263,-0.02350115,-1.051321,0.2259652,0.01244522,0.779489,1.389042,0.2126641,0.3572165,1.012657,0.2401607,297.8699,226.9299,7.73489,True
1,1.17778,-0.3201614,0.05994808,0.05829333,-1.307115,-4.302013,-2.819264,0.5753291,1.141747,0.4050272,-1.229941,1.077229,6.6,37.7,0.01482968,-0.02701426,0.021431,-0.443485,-4.594009,0.4606392,0.6846626,1.348358,0.3485854,0.02598876,-0.08865984,-0.02021248,-1.051452,0.2251451,0.01289955,0.7793354,1.388994,0.2127235,0.3567178,1.010606,0.2406447,298.2465,227.374,7.379434,True
1,1.188891,-0.3244413,0.07595729,0.06244142,-1.308393,-4.303148,-2.815267,0.574875,1.141901,0.4048455,-1.218453,1.033817,4.2,20.5,9.462237E-07,-0.02704838,0.03010635,-0.443109,-4.595484,0.4625343,0.6846186,1.34831,0.3486583,0.01645141,-0.07582667,-0.01908859,-1.051737,0.2249327,0.01312965,0.7792788,1.388993,0.2127514,0.3561847,1.008636,0.2411423,298.6551,227.9507,6.921419,True
1,1.200002,-0.3415001,0.08873747,0.06661824,-1.309676,-4.304127,-2.810655,0.5744907,1.142028,0.4047287,-1.207483,0.9869031,4.2,20.5,-0.01599542,-0.01949386,0.02608922,-0.4429663,-4.595629,0.4633749,0.6844425,1.348276,0.348712,0.002652273,-0.04490827,-0.02222953,-1.052099,0.2254844,0.01334563,0.7791212,1.38889,0.2128482,0.3556252,1.006783,0.2416227,299.0818,228.5119,6.491003,True
1,1.211113,-0.3756134,0.1036606,0.07505354,-1.311198,-4.305326,-2.804947,0.5742135,1.142215,0.4046268,-1.196535,0.9855721,4.2,20.5,-0.02881643,-0.00231131,0.01680223,-0.4428155,-4.594438,0.4630393,0.6841887,1.348278,0.3487597,-0.004768919,-0.02571375,-0.02327394,-1.052409,0.2259082,0.01352859,0.7788022,1.388816,0.2129002,0.3550416,1.005082,0.2420819,299.4733,229.0865,6.050513,True
1,1.222224,-0.3937011,0.08874689,0.07837632,-1.312285,-4.305501,-2.799994,0.5738403,1.142317,0.4045939,-1.185353,1.007279,4.2,20.5,-0.04157385,0.01053973,0.01493034,-0.4424714,-4.593406,0.4629274,0.6839877,1.348262,0.3488107,-0.005780542,-0.01291355,-0.02119122,-1.052805,0.2262808,0.01352433,0.7786412,1.388822,0.2127986,0.3544445,1.003539,0.2425214,299.8145,229.5828,5.684707,True
1,1.233335,-0.4341744,0.09741617,0.1060401,-1.314726,-4.3061,-2.793679,0.5734148,1.142485,0.404515,-1.174148,1.00942,8.9,10.7,-0.05851972,0.02867661,0.01848027,-0.441779,-4.591804,0.4627171,0.683807,1.348329,0.3489139,-0.003665214,-0.009730951,-0.02335664,-1.053121,0.2263054,0.01347932,0.7786108,1.388762,0.2128732,0.3538763,1.002175,0.2429445,300.122,230.0407,5.351412,True
1,1.244446,-0.4458853,0.08996917,0.1103636,-1.316181,-4.306342,-2.788274,0.5728974,1.14268,0.4045057,-1.164939,0.8274093,8.9,10.7,-0.05502739,0.05403622,0.03893507,-0.4401683,-4.589913,0.4615183,0.6836971,1.348396,0.3490801,-0.008001506,-0.01718719,-0.02754549,-1.053604,0.2258206,0.01402953,0.7783844,1.388643,0.2129645,0.3533286,1.001041,0.2433146,300.4114,230.4769,5.044009,True
1,1.255558,-0.4415755,0.05043165,0.0936152,-1.316376,-4.305396,-2.783771,0.5722011,1.14297,0.4041333,-1.154706,0.9230557,8.9,10.7,-0.0461657,0.06544362,0.06772589,-0.4380836,-4.589374,0.4612195,0.6837085,1.348518,0.3492119,-0.01765889,-0.03314554,-0.02951319,-1.054026,0.2247482,0.01506524,0.7783157,1.388598,0.213074,0.3527895,1.000144,0.2435761,300.6359,230.844,4.782446,True
1,1.266669,-0.4670788,0.01534157,0.1066827,-1.317416,-4.303729,-2.77824,0.5717012,1.143168,0.4038196,-1.146824,0.707404,8.9,10.7,-0.03445103,0.03440115,0.07795232,-0.4373598,-4.591971,0.4636337,0.6837673,1.348557,0.3493457,-0.01131545,-0.03637066,-0.03276961,-1.054453,0.2241776,0.01526231,0.7780942,1.388332,0.2133546,0.3521667,0.9995128,0.2436448,300.8354,231.2774,4.436087,True
1,1.27778,-0.5491653,0.05466197,0.1107093,-1.319516,-4.305141,-2.769068,0.571477,1.143315,0.4035878,-1.139429,0.6652114,8.9,10.7,-0.02286321,-0.001856964,0.07747838,-0.4371701,-4.595429,0.466671,0.6837801,1.348491,0.349453,-0.01131568,-0.0448859,-0.03061065,-1.054732,0.223271,0.01583515,0.7779863,1.388261,0.2134953,0.3514531,0.9991433,0.2434994,300.9611,231.5021,4.266735,True
1,1.288891,-0.5928401,0.03944361,0.07996342,-1.319295,-4.305161,-2.76096,0.5710129,1.143457,0.4032812,-1.130609,0.7959692,16,9.8,-0.01992012,-0.0390399,0.06536123,-0.4377235,-4.599437,0.4703947,0.6838318,1.348413,0.3496449,-0.002674043,-0.03953647,-0.02114793,-1.054764,0.2232713,0.01568948,0.7778916,1.38825,0.2136557,0.3507073,0.9989628,0.2431146,301.0028,231.5213,4.290403,True
1,1.300002,-0.5565425,-0.02247075,0.05590391,-1.318281,-4.302893,-2.756758,0.5700486,1.143667,0.40292,-1.120556,0.9079948,16,9.8,-0.01941466,-0.09622681,0.03070277,-0.4399004,-4.604804,0.4754765,0.6838251,1.34832,0.3499227,-0.000558272,-0.02784298,-0.02547444,-1.055216,0.2233238,0.01560053,0.7777778,1.388199,0.2138972,0.3500822,0.9989467,0.2425094,300.9947,231.6216,4.176702,True
1,1.311113,-0.6650861,-0.101534,0.04806468,-1.317146,-4.299047,-2.747372,0.569716,1.144155,0.4026115,-1.114671,0.5265979,16,9.8,-0.02198219,-0.1353526,0.001580149,-0.4420943,-4.60972,0.4802127,0.6837213,1.348244,0.350174,-0.004928023,-0.009749815,-0.03935333,-1.056358,0.2241484,0.01542023,0.7777355,1.388059,0.214102,0.3494108,0.9991785,0.2416955,301.0189,231.807,3.908215,True
1,1.322224,-0.7012996,-0.1112794,0.03538166,-1.316554,-4.297565,-2.738663,0.5691882,1.144561,0.4024293,-1.112645,0.1781155,16,9.8,-0.02623245,-0.1300006,0.0006104484,-0.4425609,-4.612066,0.482736,0.6836014,1.348259,0.3504071,-0.006021183,-0.006539702,-0.04254971,-1.056933,0.2245045,0.01535525,0.7775187,1.388181,0.2142417,0.3485616,0.9997144,0.2406826,301.0065,231.6031,3.956176,False
1,1.333336,-0.7225975,-0.1220105,0.02908514,-1.316023,-4.295753,-2.730114,0.5681721,1.145123,0.401897,-1.102714,0.9038172,17.6,9.7,-0.04532365,-0.1129111,0.003106903,-0.4427558,-4.613543,0.4852264,0.6835114,1.348251,0.3505771,-0.01237867,0.005197162,-0.04251597,-1.057424,0.2250723,0.01541145,0.7774515,1.388099,0.21452,0.3477424,1.000493,0.2395758,300.8366,231.1299,4.24645,False
1,1.344447,-0.5487215,-0.278497,0.00883837,-1.312508,-4.28839,-2.731706,0.5666386,1.145695,0.4015696,-1.099458,0.2875826,17.6,9.7,-0.05589515,-0.1086787,0.009650715,-0.4429625,-4.616168,0.4885691,0.6834337,1.348273,0.3507354,-0.01457528,0.01052134,-0.04891681,-1.058382,0.2255899,0.01549374,0.7773305,1.388067,0.2147763,0.3471118,1.001577,0.2383478,300.7624,230.7544,4.459635,False
1,1.355558,-0.3941244,-0.3689255,-0.006573097,-1.309214,-4.28179,-2.734201,0.5653723,1.146214,0.4010947,-1.09648,0.2686412,17.6,9.7,-0.07906826,-0.09387958,0.03028112,-0.4422286,-4.618426,0.4922704,0.6832021,1.348167,0.3508465,-0.0178069,0.02329301,-0.05531438,-1.059217,0.2264208,0.01539653,0.777279,1.387967,0.215035,0.3463411,1.003055,0.2369217,300.6596,230.4306,4.54715,False
1,1.366669,-0.3162277,-0.4703752,-0.05380678,-1.303851,-4.274524,-2.735031,0.5643102,1.146817,0.400568,-1.102196,-0.5265782,17.6,9.7,-0.0908094,-0.08099663,0.02413646,-0.4424491,-4.619635,0.4947495,0.6829056,1.34803,0.3510401,-0.01034167,0.04030791,-0.05865369,-1.059968,0.2276011,0.01471743,0.7770009,1.387904,0.215313,0.3452125,1.00492,0.2352355,300.4573,229.9162,4.824585,False
1,1.37778,-0.7062953,-0.3893604,-0.1073915,-1.300307,-4.273674,-2.715237,0.563817,1.147753,0.4004805,-1.101042,0.1081682,17.6,9.7,-0.1026342,-0.07016291,0.0105135,-0.4429513,-4.620018,0.4966207,0.6825943,1.347999,0.3512504,-0.01248062,0.0541488,-0.06293654,-1.060799,0.2288494,0.01431076,0.7768939,1.38782,0.2156417,0.3443075,1.006824,0.2335071,299.873,228.7303,5.693325,False
1,1.388891,-0.7829927,-0.3580375,-0.03512755,-1.301265,-4.270214,-2.704785,0.5632453,1.148092,0.4001071,-1.096104,0.4480287,15.2,8.5,-0.1378416,-0.04648325,-0.001673795,-0.4432256,-4.619082,0.4985118,0.6823514,1.348156,0.3514297,-0.03373401,0.0797626,-0.06596281,-1.061409,0.2307754,0.01427135,0.7765948,1.387916,0.2160184,0.343893,1.008193,0.2319264,299.2191,227.5035,6.568957,False
1,1.400002,-0.8148831,-0.4104508,-0.05602,-1.297235,-4.26462,-2.696191,0.5616249,1.149221,0.399724,-1.074764,1.94597,15.2,8.5,-0.1696611,-0.02619235,0.005247392,-0.4427436,-4.618531,0.5010138,0.6820773,1.348293,0.3516459,-0.04758516,0.08299683,-0.06688742,-1.062248,0.2319087,0.01468733,0.7765809,1.387678,0.2162549,0.3438463,1.008705,0.2305726,298.9692,226.4282,7.177966,False
1,1.411114,-0.8096014,-0.3459324,0.02125804,-1.298688,-4.261548,-2.68885,0.5609244,1.149697,0.3992639,-1.080449,-0.5364227,15.2,8.5,-0.1946493,-0.009552822,0.05574688,-0.4404783,-4.620425,0.5057929,0.6820207,1.348383,0.3517816,-0.05624976,0.07978725,-0.07849716,-1.063515,0.232809,0.01516564,0.7764988,1.38758,0.2165632,0.3432333,1.009053,0.229184,299.6601,226.4045,6.817322,False
1,1.422225,-0.8064523,-0.3030266,0.05714233,-1.299421,-4.259187,-2.680515,0.560109,1.150297,0.3991957,-1.082314,-0.1643241,15.2,8.5,-0.1858036,0.01149073,0.07929899,-0.4387526,-4.620708,0.5076256,0.681819,1.348506,0.3519623,-0.05737551,0.08084143,-0.08381231,-1.064593,0.2339424,0.01531504,0.7764436,1.387368,0.2167177,0.3422068,1.010098,0.2275872,300.223,226.4659,6.622316,False
1,1.433336,-0.7755407,-0.3092894,0.06781986,-1.298784,-4.255307,-2.673936,0.5588107,1.151099,0.3987396,-1.083727,-0.128526,15.2,8.5,-0.1812984,0.02407008,0.09855342,-0.4368202,-4.621202,0.5099035,0.681627,1.348542,0.352139,-0.05103486,0.07973839,-0.08814484,-1.065726,0.2348284,0.01519333,0.7763987,1.387202,0.2170522,0.3408642,1.012051,0.2256808,300.3814,225.9236,7.002001,False
1,1.444447,-0.6817546,-0.3325202,0.07643238,-1.29753,-4.250583,-2.670753,0.5574212,1.151984,0.3984168,-1.082316,0.1292604,11.3,5.8,-0.1826068,-0.007757634,0.0854682,-0.4371398,-4.624272,0.5147142,0.6814418,1.348573,0.3524191,-0.05317238,0.08292893,-0.09025586,-1.066667,0.2359414,0.01520505,0.7761853,1.387092,0.2174895,0.3397508,1.01492,0.2236797,299.8716,225.4983,7.23665,False
1,1.455558,-0.7371072,-0.3852076,0.02360497,-1.293295,-4.245224,-2.663002,0.5565964,1.152591,0.3983395,-1.08277,-0.04329643,11.3,5.8,-0.1861712,-0.07045935,0.07103799,-0.4384458,-4.630894,0.5228885,0.6812184,1.348565,0.352639,-0.06064088,0.0872049,-0.09231565,-1.067743,0.2372371,0.01550572,0.7761104,1.386959,0.2178216,0.3387827,1.01842,0.2216316,299.0675,224.8985,7.549749,False
1,1.466669,-0.7615364,-0.4137036,0.06431159,-1.292933,-4.239211,-2.654503,0.5548707,1.153775,0.3976607,-1.085226,-0.2245559,11.3,5.8,-0.1905867,-0.09488031,0.0644551,-0.4388543,-4.635293,0.5291669,0.6808522,1.3486,0.3528826,-0.0616893,0.09465592,-0.09339256,-1.068788,0.2386577,0.01545166,0.775942,1.386842,0.2181904,0.3377517,1.022196,0.2194775,298.2213,223.8962,8.214808,False
1,1.47778,-0.7433621,-0.4541863,0.06140409,-1.290506,-4.23275,-2.649137,0.5538303,1.154577,0.397604,-1.079969,0.4819888,11.3,5.8,-0.1980491,-0.08415814,0.06037828,-0.4386093,-4.636923,0.5330959,0.6805813,1.348643,0.3531191,-0.06583993,0.1021448,-0.08591723,-1.069536,0.2401584,0.01555819,0.7758471,1.386819,0.2187128,0.3369062,1.025841,0.2174322,297.2943,222.4723,9.241579,False
1,1.488891,-0.7412145,-0.4562401,0.07207134,-1.288969,-4.22753,-2.642447,0.5527587,1.155175,0.3974943,-1.077936,0.1812492,6.9,3.9,-0.2010224,-0.04908917,0.07035038,-0.437208,-4.637031,0.5355891,0.6803813,1.348817,0.3532529,-0.06692752,0.1042685,-0.08803823,-1.070501,0.2415104,0.01575473,0.7756534,1.38675,0.2190378,0.336139,1.029054,0.2154936,296.66,221.1511,10.18414,False
1,1.500003,-0.7379835,-0.4797154,0.0669192,-1.28651,-4.221653,-2.635913,0.5513385,1.156151,0.397155,-1.080496,-0.235523,6.9,3.9,-0.2008722,-0.02250312,0.07594232,-0.4359232,-4.636995,0.5377753,0.6801846,1.348874,0.3533778,-0.07539143,0.116013,-0.0858531,-1.07141,0.243387,0.01596858,0.7756124,1.386657,0.2194655,0.3351531,1.031928,0.2133757,296.3586,220.4175,10.64436,False
1,1.511114,-0.7293975,-0.5331799,0.03961698,-1.282326,-4.214783,-2.629924,0.5502219,1.157007,0.3968956,-1.079502,0.09290072,6.9,3.9,-0.2071176,-0.003379866,0.08365289,-0.4345736,-4.636965,0.5403029,0.6799492,1.348908,0.3535376,-0.0754326,0.1202516,-0.09118534,-1.072471,0.2450148,0.01592757,0.7754866,1.386545,0.2197564,0.3345383,1.034507,0.2113359,296.0215,219.4322,11.29484,False
1,1.522225,-0.7111804,-0.6230323,-0.01191845,-1.275725,-4.206488,-2.62498,0.5488033,1.158117,0.3963549,-1.078989,0.0456409,6.9,3.9,-0.2081835,-0.0161978,0.08780055,-0.4339291,-4.639728,0.545176,0.679788,1.348892,0.3536432,-0.06694816,0.1148873,-0.09340835,-1.073784,0.2461894,0.0157795,0.7755036,1.386403,0.2201705,0.3340908,1.036731,0.2093342,295.7464,218.5259,11.79042,False
1,1.533336,-0.6876566,-0.6989259,-0.05185097,-1.269216,-4.198359,-2.620462,0.5476433,1.159171,0.3959951,-1.078931,0.004817812,6.9,3.9,-0.2061374,-0.01505618,0.07926731,-0.4335078,-4.640778,0.548335,0.6795594,1.348918,0.3538306,-0.0637164,0.1106174,-0.09023137,-1.074618,0.247281,0.01570866,0.7753822,1.386254,0.2206213,0.3336375,1.038674,0.2073044,295.6376,217.5491,12.3403,False
1,1.544447,-0.6566703,-0.7705318,-0.08755469,-1.262167,-4.189679,-2.616765,0.5462494,1.160414,0.3954723,-1.079275,-0.03162267,3.4,2.3,-0.2029898,-0.004328668,0.07081123,-0.4329549,-4.640425,0.5501068,0.6794237,1.348961,0.3539562,-0.06152825,0.1042301,-0.08383568,-1.075207,0.2481805,0.01583089,0.775281,1.386098,0.220964,0.333288,1.040421,0.2052842,295.6301,216.2896,13.18884,False
1,1.555558,-0.6320684,-0.8398472,-0.1019652,-1.255022,-4.180011,-2.613642,0.5446554,1.161767,0.3950105,-1.079461,-0.0168988,3.4,2.3,-0.1976916,-0.008593798,0.06964774,-0.4324366,-4.641688,0.5532768,0.6792481,1.349012,0.3541348,-0.06143468,0.1021248,-0.0753103,-1.07584,0.2493772,0.01588869,0.7752375,1.385948,0.2212803,0.332997,1.042026,0.2032142,295.707,214.7758,14.2616,False
1,1.566669,-0.60527,-0.9560919,-0.1234931,-1.245947,-4.167829,-2.611443,0.542901,1.163277,0.3943934,-1.079769,-0.02825112,3.4,2.3,-0.2041069,-0.003204539,0.06549984,-0.4319269,-4.642148,0.5561684,0.6790222,1.349029,0.3543208,-0.06138355,0.0968137,-0.06994845,-1.076201,0.2504084,0.01600107,0.7749214,1.385828,0.2216451,0.3328538,1.043561,0.2011677,295.7921,213.3081,15.24595,False
1,1.577781,-0.5912743,-1.044474,-0.1207099,-1.237348,-4.155059,-2.609368,0.5410613,1.16474,0.3936203,-1.079683,0.007840802,3.4,2.3,-0.2062636,-0.001034901,0.06234281,-0.4314332,-4.642699,0.5590835,0.6787894,1.349163,0.3545818,-0.05503273,0.08294103,-0.06997732,-1.077048,0.2508878,0.01618776,0.7748211,1.385694,0.2219748,0.3327231,1.045056,0.1990822,295.9083,211.8749,16.17235,False
1,1.588892,-0.6007693,-1.105269,-0.1277063,-1.22876,-4.142938,-2.60634,0.5393111,1.166071,0.3928168,-1.079398,0.02569514,2,1.6,-0.2082598,-0.005439654,0.07723764,-0.4303887,-4.645066,0.5637092,0.6785355,1.349278,0.3547971,-0.05188454,0.07012875,-0.07102624,-1.07774,0.2510841,0.01652012,0.7747217,1.385697,0.222295,0.3325759,1.046529,0.1969187,296.0551,210.368,17.1746,False
1,1.600003,-0.6433942,-1.081748,-0.1065724,-1.22241,-4.133068,-2.601171,0.5375358,1.167451,0.3919816,-1.078911,0.04405805,2,1.6,-0.2133963,0.04036368,0.07987044,-0.4285388,-4.642295,0.5636724,0.678308,1.349489,0.3550735,-0.05295561,0.06053265,-0.06990178,-1.078265,0.2513156,0.01691773,0.774574,1.38563,0.2226245,0.3324597,1.047958,0.1945847,296.2473,208.6656,18.38703,False
1,1.611114,-0.673259,-1.054003,-0.0939813,-1.216157,-4.123466,-2.59587,0.53586,1.168682,0.3910079,-1.077795,0.1014506,2,1.6,-0.2303303,0.08948708,0.07413666,-0.4265958,-4.637719,0.5626612,0.6780452,1.349535,0.3551841,-0.05176627,0.05737259,-0.05818572,-1.078515,0.2519546,0.01716594,0.7745019,1.385572,0.2229521,0.332407,1.049332,0.1919952,296.4276,206.9828,19.54816,False
1,1.622225,-0.71707,-0.9729687,-0.07645777,-1.21167,-4.116309,-2.588767,0.5341377,1.169852,0.3900051,-1.076132,0.1512269,2,1.6,-0.23982,0.09583831,0.0817575,-0.424959,-4.637016,0.5650322,0.6777469,1.349531,0.3551996,-0.04532951,0.04456054,-0.05180338,-1.078601,0.2515806,0.01747992,0.7743236,1.38539,0.2232234,0.3324068,1.050693,0.1891454,296.6124,205.4412,20.46623,False
1,1.633336,-0.7939422,-0.8665648,-0.07720269,-1.207511,-4.111299,-2.579185,0.5326006,1.17068,0.3890297,-1.075917,0.01845109,2,1.6,-0.2590358,0.08739376,0.080808,-0.4238261,-4.636772,0.5683702,0.6774285,1.349534,0.3553011,-0.0377377,0.04883336,-0.04125239,-1.078754,0.2523365,0.01725622,0.7741758,1.385293,0.2235072,0.332327,1.052211,0.1860531,296.7951,204.1901,21.03805,False
1,1.644447,-0.9187977,-0.7172387,-0.02811989,-1.207235,-4.107671,-2.565991,0.5308326,1.1717,0.3878586,-1.07507,0.07751443,1.4,0.7,-0.2677053,0.07580048,0.07119556,-0.423205,-4.6365,0.5714806,0.6770084,1.349496,0.3554406,-0.03870626,0.06376103,-0.03702651,-1.078983,0.2536528,0.01702186,0.7738903,1.385218,0.2238789,0.3321536,1.054024,0.1827911,296.9034,202.9246,21.63,False
1,1.655559,-0.9967588,-0.6089554,-0.06191666,-1.203541,-4.105473,-2.553572,0.529335,1.172274,0.3866463,-1.07349,0.1440352,1.4,0.7,-0.2552459,0.06323478,0.04431058,-0.4233276,-4.635446,0.5729533,0.6764958,1.34948,0.3556106,-0.04290985,0.07656354,-0.03488852,-1.079257,0.2550993,0.01701467,0.7737242,1.385113,0.2241604,0.3317656,1.056252,0.1794396,296.8656,201.6585,22.23153,False
1,1.66667,-1.039498,-0.5085767,-0.02001539,-1.203001,-4.102419,-2.541854,0.5278066,1.173045,0.385349,-1.070665,0.2574213,1.4,0.7,-0.2524607,0.06360772,0.004867271,-0.4239369,-4.632504,0.5730177,0.6760963,1.349404,0.3558073,-0.04492481,0.09256576,-0.02958531,-1.079285,0.2568504,0.01663623,0.7734816,1.38515,0.2245529,0.3310456,1.059006,0.1760858,296.6884,200.4976,22.79671,False
1,1.677781,-1.124003,-0.2664986,0.03148629,-1.20767,-4.10594,-2.525063,0.52617,1.173685,0.3840845,-1.072284,-0.149675,1.4,0.7,-0.2505511,0.05846901,-0.01545018,-0.4243577,-4.630572,0.5739197,0.6756259,1.349332,0.3558984,-0.04377373,0.111731,-0.02751939,-1.079357,0.2587104,0.01610254,0.7732266,1.385128,0.2249238,0.3298445,1.06249,0.1726387,296.3812,199.5497,23.34799,False
1,1.688892,-1.152989,-0.1118927,0.05697617,-1.211052,-4.10843,-2.510523,0.5248652,1.174204,0.3827381,-1.073493,-0.1085082,0.7,0.3,-0.2670873,0.04195258,-0.06338471,-0.4263199,-4.627709,0.5748329,0.674885,1.349157,0.3559921,-0.04472295,0.1266694,-0.02116603,-1.079347,0.2608847,0.01560426,0.7729293,1.385119,0.2253253,0.3284306,1.066702,0.1692838,295.8821,198.0162,24.62536,False
1,1.700003,-1.192802,0.1503081,0.08378482,-1.218846,-4.116879,-2.493084,0.5236005,1.174394,0.3815026,-1.071432,0.1895666,0.7,0.3,-0.2779543,0.03257468,-0.08041505,-0.4273889,-4.625627,0.5763797,0.6743094,1.34913,0.3561432,-0.0498926,0.1586554,-0.01694191,-1.079237,0.2639358,0.01466097,0.7726079,1.385195,0.2258756,0.3269199,1.071543,0.1660503,295.1417,196.6967,25.739,False
1,1.711114,-1.192802,0.1503081,0.08378482,-1.218846,-4.116879,-2.493084,0.5236005,1.174394,0.3815026,-1.073609,-0.2004885,0.7,0.3,-0.2779543,0.03257468,-0.08041505,-0.4273889,-4.625627,0.5763797,0.6743094,1.34913,0.3561432,-0.0498926,0.1586554,-0.01694191,-1.079237,0.2639358,0.01466097,0.7726079,1.385195,0.2258756,0.3250487,1.077027,0.1628669,294.1974,195.8869,26.43131,False
1,1.722225,-1.255396,0.6714467,0.1267658,-1.239098,-4.138448,-2.456306,0.520456,1.17505,0.3787255,-1.087586,-1.275908,0.7,0.3,-0.3229263,0.03294966,-0.1023251,-0.4294507,-4.620419,0.5800213,0.6724998,1.348999,0.3562362,-0.06763563,0.2215966,-0.0009566359,-1.078533,0.2709728,0.01327453,0.7718422,1.38516,0.2266464,0.3235451,1.082964,0.1602135,293.0942,194.2603,28.11052,False
1,1.733337,-1.261974,0.7929884,0.1407733,-1.248713,-4.147521,-2.439188,0.5189171,1.175357,0.3774681,-1.059489,2.579382,0.7,0.3,-0.3548471,0.05547318,-0.1060346,-0.4297777,-4.615932,0.5810075,0.6714387,1.348981,0.3562033,-0.08041881,0.2535601,-0.009445402,-1.078953,0.2752555,0.01251153,0.7714515,1.385184,0.2271073,0.3225357,1.088525,0.1584641,291.6688,191.9909,30.19231,False
1,1.744448,-1.262196,0.9305019,0.1546441,-1.259438,-4.157439,-2.42208,0.5173444,1.175893,0.3761356,-1.072343,-1.198029,0.4,0.1,-0.3909776,0.08116677,-0.1054108,-0.4298012,-4.610836,0.5819044,0.6703157,1.348894,0.3561862,-0.09327591,0.2684662,-0.01998809,-1.079297,0.2789643,0.01216532,0.7710431,1.385236,0.2275305,0.31859,1.094456,0.155677,290.6756,193.7509,28.48347,False
1,1.755559,-1.242105,1.027544,0.1634821,-1.27035,-4.167348,-2.406029,0.5155787,1.176308,0.3748093,-1.075197,-0.2473853,0.4,0.1,-0.4260019,0.1110997,-0.1026207,-0.4293804,-4.604979,0.5824573,0.6690921,1.348915,0.3560457,-0.1019238,0.2918656,-0.03701649,-1.080246,0.2834613,0.01146864,0.7705597,1.385259,0.2279069,0.3141078,1.101158,0.1533006,289.7036,193.7654,28.90578,False
1,1.76667,-1.226203,1.074515,0.1737753,-1.280904,-4.175879,-2.390483,0.5140028,1.176705,0.3735068,-1.075814,-0.05515623,0.4,0.1,-0.439747,0.1292193,-0.09910551,-0.4291626,-4.599844,0.5829777,0.6681048,1.348909,0.3559482,-0.1093151,0.30999,-0.0369786,-1.080383,0.287841,0.010638,0.7699897,1.38526,0.2283578,0.3099766,1.108298,0.1516837,288.4724,192.7801,30.51986,False
1,1.777781,-1.196493,1.135232,0.1679931,-1.292089,-4.18559,-2.375278,0.5123851,1.177047,0.3722665,-1.076947,-0.1032198,0.4,0.1,-0.4630533,0.1526955,-0.09436783,-0.4285314,-4.593662,0.583239,0.6667044,1.34894,0.3557,-0.1176017,0.3324245,-0.02202418,-1.079822,0.2926122,0.009900302,0.7693959,1.385222,0.2287354,0.3062856,1.115615,0.1506972,287.0441,191.5965,32.33547,False
1,1.788892,-1.1561,1.184227,0.1580097,-1.303206,-4.195495,-2.361329,0.510502,1.177508,0.3708715,-1.077111,-0.01416658,0.4,0.1,-0.4959047,0.1783016,-0.08631073,-0.4274651,-4.587296,0.5839309,0.6653466,1.34893,0.3555372,-0.1260307,0.364408,-0.0220345,-1.080001,0.298324,0.008852081,0.7687322,1.385283,0.2291639,0.302915,1.122817,0.1501198,285.557,190.1453,34.39947,False
1,1.800003,-1.114643,1.225726,0.1406343,-1.314299,-4.20546,-2.347532,0.5086644,1.177932,0.3696659,-1.077678,-0.0517311,0.2,0,-0.5321035,0.1645138,-0.07967806,-0.4273569,-4.583922,0.5877565,0.6638038,1.349031,0.3552492,-0.1345163,0.3835992,-0.02413641,-1.080359,0.3037381,0.008001201,0.7680992,1.385312,0.2295651,0.2998103,1.12965,0.1497151,284.172,188.5556,36.58124,False
1,1.811115,-1.067843,1.258632,0.114787,-1.325202,-4.21585,-2.334655,0.5066932,1.178295,0.3682604,-1.078837,-0.1057095,0.2,0,-0.556623,0.134689,-0.07119448,-0.4274629,-4.582227,0.593119,0.662139,1.349158,0.3549049,-0.1569507,0.4091732,-0.03672484,-1.080809,0.3095247,0.007651528,0.767251,1.385369,0.22997,0.2967182,1.136004,0.1492527,282.9402,187.0412,38.56875,False
1,1.822226,-1.022087,1.281024,0.1039933,-1.337029,-4.225517,-2.322153,0.5047162,1.178713,0.3673234,-1.078833,0.001068463,0.2,0,-0.5746505,0.1047492,-0.05318696,-0.4272978,-4.581737,0.5994301,0.6603864,1.349274,0.3546338,-0.1698841,0.4421495,-0.059042,-1.081896,0.3159823,0.006722085,0.7663856,1.385348,0.2304096,0.2934494,1.141831,0.148655,281.8665,185.6269,40.33078,False
1,1.833337,-0.9465211,1.314001,0.0813185,-1.348684,-4.236502,-2.311563,0.5024648,1.179011,0.3660207,-1.079492,-0.06045863,0.2,0,-0.601154,0.06944835,-0.02875531,-0.427122,-4.5833,0.6084788,0.6583451,1.349477,0.3540597,-0.1836756,0.4741382,-0.06218731,-1.082667,0.3232493,0.0058499,0.7655457,1.385415,0.2306917,0.2900136,1.147127,0.148031,280.931,184.4443,41.79416,False
1,1.844448,-0.8942944,1.325752,0.0694719,-1.360163,-4.246771,-2.301163,0.5001788,1.179298,0.3647211,-1.079369,0.01147124,0.2,0,-0.6232646,0.09920132,-0.01332038,-0.4257388,-4.579563,0.6127118,0.6560312,1.349651,0.3533721,-0.1834085,0.5210332,-0.0505905,-1.082327,0.3313648,0.004018976,0.7644244,1.385566,0.2308202,0.2864183,1.151937,0.1474954,280.0945,183.5824,42.90354,False
1,1.855559,-0.7825055,1.313947,0.03965122,-1.370442,-4.256957,-2.29405,0.4974731,1.179384,0.3634851,-1.0811,-0.1584859,0.2,0,-0.6438597,0.20336,0.01989144,-0.4214138,-4.570027,0.6118546,0.6534313,1.34983,0.3525352,-0.1848982,0.5606032,-0.00489956,-1.080883,0.3399187,0.002032524,0.7631725,1.38581,0.2310696,0.2827225,1.156361,0.1472014,279.3077,183.3465,43.38265,False
1,1.86667,-0.7260218,1.31184,0.02898484,-1.381432,-4.266583,-2.285684,0.4950561,1.179586,0.36237,-1.08076,0.03194671,0.2,0,-0.6607259,0.2705719,0.01539273,-0.418455,-4.559747,0.610421,0.6509351,1.350085,0.3517687,-0.1926895,0.5938175,0.05049002,-1.07824,0.3484186,0.0003185141,0.762046,1.386087,0.2314055,0.2787441,1.16048,0.1471447,278.5236,183.0393,44.02103,False
1,1.877781,-0.6429774,1.323524,0.007528126,-1.392407,-4.27714,-2.279135,0.4925579,1.179405,0.3612473,-1.083306,-0.2334698,0.2,0,-0.6916538,0.3401878,-0.01127501,-0.4158153,-4.546622,0.6070745,0.6478583,1.350472,0.3509662,-0.2561589,0.7008681,0.1552756,-1.072826,0.3610836,-0.0009627327,0.7605295,1.386442,0.2317352,0.2744797,1.16432,0.1473459,277.7612,182.6416,44.84834,False
1,1.888893,-0.5812208,1.334171,-0.006446779,-1.403442,-4.287537,-2.27313,0.4900876,1.179315,0.3601456,-1.081486,0.1678861,0.2,0,-0.7184713,0.377868,-0.04152288,-0.4139777,-4.533197,0.6036515,0.6449445,1.350713,0.3500035,-0.2972447,0.7543427,0.1822013,-1.069896,0.372621,-0.001819205,0.7592263,1.386647,0.2319651,0.2700059,1.167773,0.1478653,276.9933,181.6485,46.31452,False
1,1.900004,-0.4821605,1.342616,-0.03852403,-1.414225,-4.298707,-2.269388,0.4872912,1.179131,0.3591251,-1.082489,-0.09375508,0.1,0,-0.7719607,0.4349015,-0.08192581,-0.4119383,-4.516561,0.5988768,0.6416203,1.351013,0.3487165,-0.3553169,0.8259647,0.2092757,-1.066679,0.3856099,-0.002313488,0.7577893,1.386971,0.2321384,0.2654502,1.170822,0.1487128,276.2484,181.8214,46.70441,False
1,1.911115,-0.3851981,1.313769,-0.07034063,-1.423479,-4.309218,-2.266906,0.4844839,1.178867,0.358099,-1.082378,0.01055932,0.1,0,-0.8471994,0.5480884,-0.08109325,-0.406987,-4.494268,0.5906209,0.6382492,1.351199,0.3472552,-0.4146059,0.8762714,0.228962,-1.063406,0.3988618,-0.002014681,0.7563692,1.387142,0.2323222,0.2608407,1.173469,0.1498535,275.5139,182.3492,46.79646,False
1,1.922226,-0.288182,1.257103,-0.1189854,-1.430828,-4.31932,-2.265422,0.4816282,1.17853,0.3572557,-1.083908,-0.140534,0.1,0,-0.8955367,0.6951262,-0.06630889,-0.3998108,-4.467635,0.5774987,0.6350757,1.351307,0.3458004,-0.4410694,0.9040542,0.2345161,-1.060604,0.4110626,-0.002523612,0.7550082,1.387236,0.2324305,0.256128,1.175751,0.1512014,274.8314,183.7574,46.02372,False
1,1.933337,-0.1932821,1.187796,-0.1473011,-1.437497,-4.3285,-2.265209,0.4789058,1.178241,0.3563912,-1.084309,-0.03607884,0.1,0,-0.9047439,0.7856524,-0.05999553,-0.3937292,-4.440777,0.5632091,0.6318855,1.351521,0.3443012,-0.4932207,0.9499876,0.2264262,-1.058417,0.4250585,-0.00216515,0.7534671,1.387437,0.2325606,0.251224,1.177646,0.1527169,274.1863,184.9313,45.47104,False
1,1.944448,-0.1015885,1.132339,-0.1746375,-1.444102,-4.33763,-2.265769,0.476343,1.178051,0.3555081,-1.084295,0.000769251,0.1,0,-0.8972119,0.8058523,-0.05981365,-0.3890266,-4.420177,0.5536091,0.6288818,1.351751,0.3429337,-0.5081224,0.956408,0.2244753,-1.055783,0.4373254,-0.002283927,0.7520071,1.387602,0.2326763,0.2462209,1.179027,0.1543938,273.6191,185.7326,45.32815,False
1,1.955559,-0.03656562,1.100388,-0.1872322,-1.45091,-4.346704,-2.26647,0.4738795,1.177821,0.354687,-1.084451,-0.01495275,0.1,0,-0.8814205,0.7910092,-0.07290953,-0.385843,-4.399994,0.5440569,0.6260128,1.351975,0.3416226,-0.5273783,0.9351488,0.2215487,-1.053583,0.4481638,-0.001344364,0.7505107,1.387896,0.2326891,0.2412422,1.179784,0.1562077,273.1761,187.3719,44.37373,False
1,1.966671,0.05091088,1.033287,-0.2027462,-1.456258,-4.354503,-2.269307,0.4714101,1.17754,0.353936,-1.084264,0.01660942,0.1,0,-0.8435609,0.7464589,-0.1057276,-0.3846095,-4.381629,0.5349942,0.6230755,1.3521,0.3401241,-0.537002,0.9042978,0.228183,-1.050566,0.4583941,-6.684534E-05,0.7489775,1.388144,0.2325602,0.2364181,1.1799,0.1580748,272.8497,192.6897,39.78244,False
1,1.977782,0.09678524,0.9874976,-0.2098971,-1.461695,-4.362559,-2.271138,0.4691329,1.177328,0.3531532,-1.083431,0.07537135,0.1,0,-0.7779185,0.6942286,-0.127174,-0.3834334,-4.364981,0.5260116,0.6204368,1.352447,0.3387134,-0.5444779,0.8393879,0.2433998,-1.047234,0.4663928,0.002250904,0.7473938,1.388375,0.2322395,0.2317969,1.179468,0.1598855,272.6874,202.5708,30.61678,False
1,1.988893,0.1864966,0.8490748,-0.2184955,-1.463543,-4.367496,-2.275868,0.4671478,1.17733,0.3526001,-1.084414,-0.09110192,0.1,0,-0.6866449,0.6055057,-0.1300878,-0.3830286,-4.353874,0.520424,0.6179256,1.352688,0.3374963,-0.5317768,0.763739,0.2563289,-1.043554,0.4731918,0.004291152,0.7456907,1.388654,0.2318699,0.2273929,1.17864,0.1615583,272.7207,214.3071,19.53766,False
1,2.000004,0.2463505,0.7222998,-0.2314433,-1.46471,-4.372385,-2.279851,0.4652454,1.177317,0.3521388,-1.082681,0.158657,0,0,-0.6336799,0.5382506,-0.1355641,-0.3825572,-4.3429,0.515694,0.6153355,1.353002,0.3360717,-0.5180397,0.7221333,0.2584674,-1.040429,0.4807656,0.005723133,0.7441181,1.388908,0.2316365,0.2232778,1.177485,0.1630404,272.8748,223.9525,10.46912,False
1,2.011115,0.2891248,0.6049728,-0.2593652,-1.464489,-4.377239,-2.283885,0.4634732,1.177203,0.351608,-1.084194,-0.1403958,0,0,-0.5667833,0.4313375,-0.1213306,-0.382864,-4.339234,0.5162495,0.613144,1.353234,0.334743,-0.4990805,0.6645376,0.2541763,-1.03773,0.48699,0.00745259,0.742502,1.389254,0.2311685,0.2195023,1.176125,0.164308,273.1868,231.7042,3.233855,False
1,2.022226,0.3009484,0.5238245,-0.2864672,-1.464214,-4.382458,-2.287064,0.46168,1.176978,0.3510628,-1.082824,0.1259969,0,0,-0.5518757,0.4152638,-0.1163298,-0.3817098,-4.326985,0.5108287,0.6103299,1.353428,0.3333232,-0.4734474,0.6357363,0.2721479,-1.033451,0.4943969,0.008517322,0.7408319,1.389409,0.2306681,0.2163709,1.174544,0.1653627,273.5311,235.0988,0.278789,False
1,2.033337,0.3032441,0.3999621,-0.3249603,-1.461111,-4.386427,-2.290091,0.4600835,1.176642,0.350672,-1.081955,0.07773336,0,0,-0.5082369,0.4365243,-0.1272326,-0.3806153,-4.311465,0.5005816,0.6079905,1.353549,0.3319159,-0.4391863,0.5984315,0.2963794,-1.02919,0.5006161,0.008967929,0.7391027,1.389735,0.2301548,0.2137176,1.172806,0.1661284,273.8861,236.4769,359.1886,False
1,2.044448,0.3225969,0.299755,-0.3369983,-1.459136,-4.389978,-2.293981,0.4581175,1.176287,0.3504469,-1.080462,0.1355234,0,0.7,-0.4924037,0.5178268,-0.1670894,-0.3794728,-4.286727,0.4828029,0.6055354,1.353621,0.3306069,-0.4039757,0.564274,0.308899,-1.025128,0.5067351,0.009019594,0.737389,1.39012,0.2298501,0.2113165,1.170985,0.1666051,274.2183,236.5275,359.2879,False
1,2.055559,0.3386568,0.2529717,-0.3281389,-1.457796,-4.393253,-2.297879,0.4565255,1.175993,0.3501916,-1.079576,0.07957146,0,0.7,-0.4776024,0.5520825,-0.1892808,-0.3787164,-4.265694,0.4680197,0.6032189,1.353678,0.3293502,-0.3699918,0.5364468,0.3054124,-1.021792,0.512317,0.008867261,0.7356322,1.390529,0.2296178,0.2089851,1.16915,0.1668817,274.5339,235.7899,0.09169704,False
1,2.06667,0.3675293,0.2031487,-0.3000895,-1.4569,-4.395382,-2.302776,0.4549676,1.175703,0.3499513,-1.079954,-0.03545054,0,0.7,-0.4352856,0.5682368,-0.2215446,-0.3790211,-4.245151,0.4524876,0.6009467,1.353609,0.3281288,-0.3478076,0.5139776,0.2945761,-1.018919,0.51797,0.008974587,0.7339805,1.390821,0.2292228,0.2067498,1.167306,0.1670836,274.8415,233.7745,2.116557,False
1,2.077781,0.3814847,0.1393062,-0.2921662,-1.454496,-4.397276,-2.307251,0.4535466,1.175288,0.3497715,-1.079646,0.02834816,0,0.7,-0.3910199,0.5589206,-0.2647225,-0.3805151,-4.22563,0.4373483,0.598904,1.353499,0.3270431,-0.3264723,0.4968891,0.3007618,-1.015454,0.5236742,0.008821988,0.7323018,1.391228,0.2289307,0.2044895,1.165488,0.1673117,275.1345,232.8673,2.996092,False
1,2.088892,0.3805164,0.07320236,-0.2991284,-1.451084,-4.398983,-2.311246,0.4522873,1.174778,0.3496368,-1.080126,-0.04436742,0,0.7,-0.3360647,0.5046318,-0.2892653,-0.3826361,-4.211941,0.4265455,0.5969567,1.353341,0.3260717,-0.2678418,0.4562789,0.3119377,-1.011643,0.5279991,0.007319432,0.730612,1.391493,0.2285237,0.202351,1.16369,0.1676838,275.4396,233.3372,2.601967,False
1,2.100003,0.3827231,0.02632068,-0.2998329,-1.44807,-4.400582,-2.315413,0.4507723,1.174156,0.3492973,-1.079388,0.06760661,0,1.6,-0.2959073,0.4631034,-0.3060812,-0.3846931,-4.19841,0.416153,0.5949142,1.35341,0.3251457,-0.2443017,0.4370597,0.3234473,-1.007708,0.5327665,0.006518885,0.7289664,1.391948,0.228132,0.2004224,1.161877,0.1681847,275.6921,233.8609,2.26702,False
1,2.111114,0.3902691,-0.02256008,-0.2845584,-1.444759,-4.401143,-2.319896,0.4497114,1.17368,0.3491707,-1.078509,0.0795142,0,1.6,-0.2175315,0.4076791,-0.3319435,-0.3879011,-4.187219,0.4055842,0.5933285,1.353262,0.32446,-0.1985141,0.3964744,0.3315756,-1.003736,0.5363123,0.005239237,0.7274334,1.39223,0.2276657,0.1987363,1.159968,0.1687588,275.9059,233.2301,3.115824,False
1,2.122225,0.4084305,-0.03403416,-0.2536015,-1.443065,-4.401834,-2.325201,0.4487852,1.172781,0.347563,-1.078371,0.01175237,0,1.6,-0.1759815,0.3979032,-0.3282319,-0.3896247,-4.173216,0.3935446,0.591685,1.353224,0.3236818,-0.1668167,0.3473406,0.3239281,-1.000193,0.5389233,0.005136172,0.7259947,1.392541,0.2267323,0.1971741,1.157946,0.1693245,276.1248,232.056,4.474466,False
1,2.133336,0.4286734,-0.01776833,-0.2196494,-1.442462,-4.403057,-2.330468,0.4480023,1.172225,0.347266,-1.078383,-0.001126196,0,1.6,-0.1205242,0.3848251,-0.3182816,-0.3911246,-4.160713,0.3814158,0.5902553,1.353175,0.3230214,-0.1297963,0.2918111,0.3151726,-0.9968089,0.540808,0.00452977,0.7246561,1.392596,0.2260025,0.1955947,1.155821,0.1698001,276.378,231.4126,5.281409,False
1,2.144447,0.4510424,0.007037494,-0.183633,-1.442476,-4.40425,-2.336128,0.447313,1.171654,0.3469255,-1.079031,-0.05943427,0,1.6,-0.08221266,0.3483776,-0.3083887,-0.3930117,-4.150561,0.3721003,0.5889726,1.353201,0.3222246,-0.1067089,0.2554488,0.2948015,-0.9939594,0.5428079,0.004033091,0.7232988,1.392814,0.2254124,0.1941847,1.153582,0.1701394,276.6539,231.7217,5.291448,False
1,2.155558,0.4595684,0.0167821,-0.1634684,-1.442053,-4.405433,-2.341408,0.446639,1.171056,0.3466165,-1.078909,0.0115366,0,1.9,-0.07040647,0.3076394,-0.2865362,-0.3945692,-4.143341,0.3658171,0.5876393,1.353196,0.3215489,-0.086871,0.2041899,0.2723663,-0.9916616,0.543585,0.003914581,0.7220854,1.39299,0.2248106,0.1929256,1.151209,0.1700713,276.9181,232.8506,4.554502,False
1,2.166669,0.4691347,0.05324523,-0.1328632,-1.442741,-4.406941,-2.34687,0.4462153,1.170198,0.3461869,-1.079032,-0.01159095,0,1.9,-0.04457122,0.2485144,-0.2405231,-0.3954789,-4.140076,0.3627143,0.5862922,1.353025,0.3207631,-0.06483069,0.1657045,0.2541268,-0.9893521,0.5441712,0.003722034,0.7209427,1.393148,0.2242596,0.1920498,1.148718,0.1697747,277.3191,233.8165,3.605269,False
1,2.17778,0.4723497,0.06079706,-0.1169262,-1.442699,-4.408084,-2.352261,0.4455835,1.169548,0.3458819,-1.078436,0.05437268,0,1.9,-0.01123622,0.2235227,-0.2016959,-0.3957777,-4.134578,0.3568037,0.5851182,1.352986,0.3201988,-0.04780735,0.1464946,0.2561171,-0.9864743,0.5454958,0.002853311,0.7197154,1.393415,0.2237797,0.1914465,1.146186,0.1693906,277.7509,234.4505,2.799718,False
1,2.188891,0.4776898,0.06426361,-0.08607665,-1.44343,-4.408563,-2.357601,0.445186,1.168781,0.3456349,-1.078394,0.003200453,0,1.9,0.01241612,0.2253749,-0.1816801,-0.3961292,-4.127366,0.3491772,0.5840069,1.352932,0.3196521,-0.03184403,0.1113156,0.2635165,-0.9831182,0.5455841,0.002621349,0.7186007,1.393514,0.2233,0.1909627,1.143669,0.1690384,278.1442,234.832,2.240185,False
1,2.200002,0.4841149,0.06016436,-0.06366552,-1.443801,-4.40881,-2.363162,0.4447288,1.168072,0.3453875,-1.078114,0.02560951,0,1.7,0.01446119,0.2404024,-0.1932891,-0.3976478,-4.116865,0.3396074,0.5828065,1.352782,0.3191016,-0.02444571,0.10276,0.2602702,-0.980292,0.5467008,0.002043443,0.7174425,1.393705,0.2229021,0.1905171,1.141188,0.1688029,278.4685,235.479,1.497833,False
1,2.211113,0.4873765,0.03698738,-0.02940434,-1.444141,-4.407894,-2.368729,0.4443695,1.167348,0.3452172,-1.077807,0.02767717,0,1.7,0.01662329,0.2713599,-0.200467,-0.3986443,-4.10516,0.3285603,0.5818629,1.352615,0.3186262,-0.009562373,0.08780688,0.261212,-0.977412,0.5472336,0.001359544,0.716463,1.393874,0.2224491,0.1900065,1.138763,0.1687058,278.7941,236.1197,0.8288057,False
1,2.222224,0.4885343,-0.005409356,-0.0003112555,-1.443778,-4.406154,-2.37444,0.4440157,1.166931,0.3454301,-1.077856,-0.004700889,0,1.7,0.01658288,0.2852894,-0.2077985,-0.4000196,-4.094057,0.3183418,0.5807518,1.35242,0.3182125,0.009469554,0.07068671,0.2525302,-0.9748229,0.5476968,0.0003696468,0.7154838,1.394041,0.2220635,0.1895395,1.136394,0.1687676,279.1072,237.0236,359.9816,False
1,2.233335,0.4854298,-0.05644295,0.01392102,-1.442621,-4.404021,-2.379986,0.4438092,1.166278,0.3452344,-1.077626,0.02095835,0,1.7,0.03684753,0.2766462,-0.2027658,-0.4011285,-4.085687,0.3095445,0.5798904,1.352286,0.3178358,0.02213274,0.0599732,0.2438883,-0.9725273,0.5481164,-0.0005925533,0.7145875,1.394253,0.2217233,0.1891312,1.134075,0.1689296,279.4033,237.8736,359.2474,False
1,2.244446,0.4791134,-0.09898396,0.02489699,-1.441344,-4.401754,-2.385458,0.4436865,1.165651,0.3450296,-1.077555,0.006306987,0,1.7,0.04851595,0.2531163,-0.1977959,-0.4025134,-4.079431,0.3031133,0.5789827,1.35221,0.3175001,0.02949893,0.05034295,0.2385128,-0.969935,0.5483926,-0.001259143,0.7136614,1.394426,0.2213039,0.188907,1.131786,0.1691312,279.7195,238.5942,358.6302,False
1,2.255557,0.4727874,-0.1362519,0.02944997,-1.439922,-4.399549,-2.390948,0.4434057,1.165022,0.344835,-1.077272,0.02578282,0,1.2,0.05798323,0.2125838,-0.196159,-0.4043067,-4.075562,0.2985513,0.5782974,1.352048,0.3171916,0.03250325,0.03751066,0.2246685,-0.9678891,0.548466,-0.00179577,0.7128488,1.394605,0.2209673,0.188912,1.129536,0.1693099,280.0481,238.9499,358.3467,False
1,2.266668,0.4643251,-0.171383,0.03397886,-1.438138,-4.396836,-2.396233,0.4434147,1.164429,0.3445916,-1.077109,0.01464824,0,1.2,0.06534475,0.1773586,-0.1933943,-0.4062466,-4.07229,0.2947158,0.577746,1.351949,0.3171203,0.04503039,0.02356672,0.2064643,-0.966075,0.5482064,-0.002469549,0.7119791,1.394771,0.2205279,0.1891054,1.127295,0.1693261,280.3198,239.0384,358.3609,False
1,2.277779,0.4537,-0.1862616,0.04155706,-1.436885,-4.394389,-2.401286,0.4434632,1.163793,0.3443058,-1.077097,0.0009917667,0,1.2,0.07170996,0.1666742,-0.192499,-0.4078514,-4.067129,0.2889559,0.5770167,1.35178,0.3168015,0.0545289,0.0203322,0.1989061,-0.9641224,0.5485906,-0.003687147,0.7112236,1.394783,0.2200058,0.1894243,1.12504,0.169086,280.5818,238.9662,358.4576,False
1,2.28889,0.4409227,-0.1873006,0.04796791,-1.435986,-4.39227,-2.406104,0.4435104,1.163144,0.3440013,-1.07682,0.02530088,0,1.2,0.08756998,0.1474764,-0.198201,-0.410204,-4.06335,0.2839465,0.5764273,1.351676,0.316509,0.06393734,0.02025261,0.1838842,-0.9624909,0.5488234,-0.004712463,0.7106801,1.394889,0.2196839,0.1897997,1.122754,0.1685745,280.8612,238.7549,358.5852,False
1,2.300001,0.4313442,-0.1861563,0.06182998,-1.43562,-4.389752,-2.411017,0.4434513,1.162453,0.3436928,-1.076608,0.0192155,0,0.7,0.08519144,0.1273851,-0.216492,-0.4131186,-4.060196,0.2801384,0.5760284,1.351438,0.3163276,0.06913707,0.01700582,0.1731778,-0.9608973,0.5489206,-0.00575083,0.7100216,1.395086,0.2193944,0.1903093,1.121677,0.1682187,280.622,236.5458,0.9202631,False
1,2.311112,0.4270828,-0.1785971,0.07669246,-1.435476,-4.387569,-2.415866,0.4434637,1.161867,0.3434076,-1.07644,0.01523959,0,0.7,0.088339,0.1039081,-0.2135559,-0.4152113,-4.057742,0.276817,0.5756437,1.351267,0.3161612,0.07419123,0.01159338,0.150764,-0.9599705,0.5488746,-0.006709834,0.7095381,1.395154,0.2190912,0.1908746,1.121182,0.1680208,280.2602,234.8142,2.794588,False
1,2.322223,0.4206839,-0.1689211,0.08942628,-1.435765,-4.385296,-2.420633,0.4435651,1.161391,0.3433528,-1.076525,-0.00786281,0,0.7,0.08829758,0.09109271,-0.2136867,-0.4174547,-4.055601,0.2738915,0.5752817,1.351189,0.3157966,0.07922149,0.002977163,0.1272973,-0.9592419,0.5485236,-0.007471232,0.7091662,1.395163,0.2187696,0.1913901,1.120811,0.1679175,279.8916,233.6091,4.150564,False
1,2.333334,0.4057657,-0.1624881,0.09791545,-1.435774,-4.383157,-2.424964,0.4437145,1.160873,0.3430262,-1.076576,-0.004557301,0,0.7,0.08292367,0.06443833,-0.2096272,-0.4196423,-4.05462,0.272243,0.5750248,1.351042,0.3156083,0.08016109,0.0008105151,0.116637,-0.9582783,0.5485044,-0.008430502,0.7087573,1.395231,0.2184618,0.191833,1.120447,0.167867,279.527,232.9597,4.955451,False
1,2.344445,0.3876288,-0.1433445,0.09779008,-1.435964,-4.381572,-2.42897,0.4439023,1.16038,0.3427114,-1.076543,0.003085942,0,0.7,0.07549597,0.05585727,-0.2032517,-0.4217201,-4.052907,0.2701974,0.5747557,1.3508,0.3154078,0.08115058,0.001847263,0.1102357,-0.9571097,0.5485278,-0.00931334,0.7083272,1.39532,0.2181554,0.1922551,1.1201,0.1678717,279.1667,232.4985,5.566007,False
1,2.355556,0.3662922,-0.1252851,0.09554354,-1.43619,-4.380277,-2.432586,0.4440058,1.159934,0.3423882,-1.076188,0.03253077,0,0.3,0.07550672,0.05368455,-0.202212,-0.4239113,-4.051129,0.2676639,0.5745087,1.350596,0.3151605,0.08221683,0.002905425,0.1102197,-0.9558788,0.5485355,-0.01028859,0.7079175,1.39536,0.2178872,0.1926908,1.11978,0.1679334,278.8,232.1411,6.085906,False
1,2.366668,0.3364592,-0.1253718,0.09024285,-1.435925,-4.378635,-2.435634,0.4440496,1.159523,0.342128,-1.075994,0.017559,0,0.3,0.06712368,0.06641416,-0.1924134,-0.4253281,-4.046914,0.263344,0.5741665,1.350406,0.3149364,0.08118179,0.009303506,0.1112768,-0.9546223,0.5489668,-0.01141591,0.7075869,1.395459,0.2175691,0.1931171,1.119466,0.1679581,278.4462,231.8858,6.537434,False
1,2.377779,0.3034602,-0.1350602,0.08396362,-1.435413,-4.376542,-2.438666,0.4438941,1.159211,0.3418622,-1.075753,0.02197697,0,0.3,0.05124512,0.07812094,-0.1868105,-0.4269127,-4.043147,0.2597613,0.574,1.350278,0.3146365,0.08431928,-0.002428334,0.1091506,-0.9534122,0.54848,-0.01217411,0.7072639,1.395589,0.217288,0.1934848,1.119171,0.1678534,278.0725,232.0346,6.528335,False
1,2.38889,0.2821703,-0.1479161,0.07875024,-1.43462,-4.374503,-2.441386,0.4439031,1.158889,0.3416133,-1.075274,0.04369421,0,0.3,0.04616009,0.08432528,-0.1653904,-0.427718,-4.039773,0.2563442,0.5737783,1.350138,0.31442,0.08209605,-0.0003209598,0.1006456,-0.9525983,0.5484992,-0.01300422,0.7069305,1.395627,0.2170308,0.193816,1.118904,0.1677313,277.825,231.0032,7.676923,False
1,2.400001,0.2470167,-0.1587005,0.06926887,-1.433571,-4.372566,-2.443154,0.4439574,1.158714,0.3413465,-1.075342,-0.006428564,0,0.1,0.04209211,0.09590696,-0.1492548,-0.4283641,-4.035778,0.25249,0.5736003,1.349846,0.3140328,0.07565343,0.009265173,0.09430189,-0.951727,0.5490918,-0.01389744,0.7067145,1.395615,0.2167175,0.1940838,1.118672,0.1675816,277.6394,229.8699,8.901722,False
1,2.411112,0.2097277,-0.1631147,0.05654924,-1.432527,-4.37093,-2.444536,0.4439919,1.15856,0.3411052,-1.07526,0.007735361,0,0.1,0.04110026,0.0883617,-0.1397284,-0.4294102,-4.033264,0.2497662,0.573511,1.349709,0.313813,0.07242382,0.01458727,0.0900607,-0.9508976,0.549554,-0.01486124,0.7065771,1.395634,0.2164581,0.1943102,1.118461,0.1674035,277.4951,228.707,10.14762,False
1,2.422223,0.1884037,-0.1568168,0.04799536,-1.431774,-4.369657,-2.446161,0.4440734,1.158336,0.3409002,-1.074547,0.06532709,0,0.1,0.04114164,0.08511743,-0.1333637,-0.4303918,-4.030258,0.2467222,0.573328,1.349554,0.3136244,0.07330811,0.00815177,0.07515799,-0.9505275,0.5494696,-0.01576964,0.7063712,1.395508,0.2162833,0.1945777,1.118271,0.1672266,277.3569,227.3245,11.6382,False
1,2.433334,0.1510741,-0.1367387,0.03402907,-1.431157,-4.369069,-2.44665,0.4441114,1.158281,0.3407061,-1.074406,0.01253515,0,0.1,0.03581605,0.07231109,-0.1291703,-0.4315408,-4.028611,0.2449948,0.5733476,1.349506,0.3134925,0.06986326,-0.0163906,0.05929169,-0.950447,0.5482555,-0.01573422,0.7064058,1.395619,0.2161391,0.1948399,1.118144,0.167036,277.269,225.7668,13.31308,False
1,2.444445,0.1190737,-0.1144736,0.02643385,-1.430845,-4.368635,-2.446974,0.4441321,1.158286,0.3405557,-1.07499,-0.05324204,0,0.1,0.03269231,0.05729515,-0.1164922,-0.4322518,-4.027541,0.243871,0.5734053,1.349508,0.3133857,0.06973772,-0.0260021,0.05295045,-0.9497498,0.547475,-0.01572677,0.7062861,1.395731,0.2157841,0.1950701,1.118058,0.1668413,277.2226,224.14,15.03699,False
1,2.455556,0.1019868,-0.09326656,0.01670323,-1.430544,-4.368495,-2.447532,0.4441369,1.158288,0.3404059,-1.074305,0.06327087,0,0.3,0.03401079,0.04102599,-0.0868311,-0.432157,-4.027895,0.2437586,0.5735524,1.34951,0.3133101,0.0568393,-0.03345063,0.04459547,-0.9495826,0.5466965,-0.01547563,0.7063016,1.395789,0.2156279,0.1952683,1.117976,0.1666848,277.1774,222.727,16.52499,False
1,2.466667,0.07421556,-0.05499249,0.01218562,-1.431062,-4.368922,-2.447402,0.4441989,1.158365,0.3403676,-1.074388,-0.007907663,0,0.3,0.02891385,0.0226721,-0.05817992,-0.4317144,-4.028466,0.2441671,0.5736937,1.349515,0.313241,0.04926439,-0.03772144,0.03511219,-0.9494366,0.5460315,-0.01541731,0.7063408,1.395671,0.2155647,0.1954227,1.117893,0.1667698,277.0506,222.5941,16.71979,False
1,2.477778,0.04219627,-0.02313322,0.005586041,-1.431436,-4.369593,-2.446708,0.4442355,1.158533,0.3403718,-1.074989,-0.05461678,0,0.3,0.02903542,-0.003089768,-0.03712559,-0.4316824,-4.030282,0.2456628,0.5738266,1.349525,0.3132038,0.04799308,-0.03777596,0.01701349,-0.9499117,0.5454988,-0.0155992,0.7064611,1.395682,0.215487,0.1953455,1.117947,0.1666327,277.1414,222.7717,16.57915,False
1,2.488889,0.00805559,0.003365839,-0.005234429,-1.431726,-4.370606,-2.445499,0.4442478,1.158756,0.3404222,-1.074724,0.02488984,0,0.3,0.0301721,-0.03414955,-0.02039023,-0.4317352,-4.033894,0.248585,0.5740598,1.349554,0.3132055,0.041286,-0.03785373,-0.01060859,-0.9509147,0.544825,-0.0154996,0.7067618,1.395638,0.2154663,0.1953032,1.117973,0.1665198,277.2177,222.4793,16.86337,False
1,2.5,-0.03033434,0.02346213,-0.01706802,-1.431876,-4.371647,-2.443906,0.4442621,1.159019,0.3405249,-1.07444,0.02589091,0.1,0.2,0.0334423,-0.03850482,-0.01087506,-0.4316174,-4.034837,0.2490876,0.574221,1.349581,0.3131454,0.04227288,-0.04213925,-0.01592808,-0.9511128,0.5439855,-0.01545672,0.7069676,1.395616,0.215045,0.1952459,1.118035,0.1664782,277.295,222.5033,16.82903,False
1,2.511111,-0.06977666,0.03073061,-0.03413326,-1.431533,-4.372671,-2.441756,0.4442484,1.159377,0.3406708,-1.074258,0.01664619,0.1,0.2,0.03462125,-0.04075176,0.0008105505,-0.4313256,-4.036356,0.2500357,0.5745479,1.349617,0.3131721,0.04752296,-0.04749743,-0.02129844,-0.9515256,0.5431048,-0.01566098,0.7072495,1.395586,0.2149131,0.1950225,1.118104,0.1665991,277.3484,224.4579,14.85418,False
1,2.522222,-0.09642686,0.03487008,-0.04479261,-1.431229,-4.373548,-2.439745,0.4442419,1.159711,0.3408136,-1.074198,0.005609828,0.1,0.2,0.02949197,-0.03984035,0.02005384,-0.430492,-4.037296,0.2508024,0.5748649,1.349637,0.3131015,0.04635044,-0.05499511,-0.03086255,-0.952316,0.5418137,-0.01571718,0.7075057,1.39553,0.2150688,0.1947609,1.118272,0.1668546,277.403,226.7686,12.52706,False
1,2.533333,-0.1347831,0.03573602,-0.06076295,-1.430193,-4.374608,-2.43697,0.4443575,1.159795,0.3399994,-1.073988,0.01943464,0.1,0.2,0.02646542,-0.05066931,0.04022253,-0.4296685,-4.039829,0.2529521,0.5752963,1.349702,0.3131409,0.05150407,-0.06358846,-0.04476118,-0.9534671,0.5403571,-0.01577231,0.7079091,1.395542,0.2150273,0.1945084,1.118464,0.1670782,277.4962,228.6255,10.62193,False
1,2.544444,-0.1731426,0.03230378,-0.08413669,-1.429087,-4.375829,-2.433744,0.4443709,1.160266,0.3402565,-1.074435,-0.04077404,0.1,0.2,0.02982746,-0.07006992,0.06237412,-0.42864,-4.044033,0.256334,0.5758368,1.349792,0.3132694,0.05458296,-0.07534462,-0.05328477,-0.9543108,0.5388435,-0.01581119,0.7082638,1.395455,0.2149677,0.1942781,1.118666,0.1671915,277.6616,229.5218,9.631818,False
1,2.555555,-0.2104541,0.03634048,-0.1065061,-1.427976,-4.377527,-2.429931,0.4445216,1.160807,0.3404901,-1.074095,0.03167776,0.1,0.2,0.03626032,-0.09043291,0.07276636,-0.4279721,-4.048667,0.2599235,0.5763789,1.349824,0.3133283,0.05552348,-0.0807161,-0.06287196,-0.9553568,0.5373059,-0.01556511,0.70868,1.395473,0.2149477,0.1940954,1.11887,0.1671471,277.8391,229.9725,9.185164,False
1,2.566666,-0.2413875,0.05214161,-0.1247097,-1.4273,-4.379701,-2.426152,0.4446409,1.161348,0.3406706,-1.073978,0.01065567,0.1,0.2,0.05332012,-0.1161521,0.08299629,-0.4272786,-4.054162,0.2638753,0.5771623,1.349933,0.3135772,0.06075848,-0.09779213,-0.06714045,-0.9561686,0.5352712,-0.01530172,0.7092437,1.395416,0.2148776,0.194038,1.118996,0.1669741,277.9967,229.6626,9.542194,False
1,2.577777,-0.2616453,0.05631573,-0.1321813,-1.426532,-4.38134,-2.422423,0.44486,1.161885,0.3409772,-1.073828,0.01394535,0.1,0.2,0.06188488,-0.130134,0.09128539,-0.4268541,-4.059919,0.2681968,0.5778095,1.350139,0.3138542,0.06061863,-0.1084876,-0.07777718,-0.9576264,0.5331865,-0.0149438,0.7097694,1.395378,0.2148058,0.1939131,1.119257,0.1668433,278.2572,228.6969,10.43606,False
1,2.588888,-0.2904165,0.05404382,-0.1449228,-1.425359,-4.383091,-2.417978,0.4450326,1.162589,0.341393,-1.074289,-0.0420619,0.1,0.2,0.07380456,-0.1389095,0.1134515,-0.4254176,-4.065488,0.2720443,0.5786543,1.350247,0.3141026,0.07103145,-0.1320039,-0.09273995,-0.9591316,0.5303634,-0.01440903,0.710506,1.395367,0.2146759,0.1936596,1.119598,0.1668292,278.5652,228.4214,10.57204,False
1,2.599999,-0.3148979,0.03474409,-0.1564768,-1.423626,-4.384305,-2.413519,0.4452347,1.163362,0.3418572,-1.07466,-0.03317326,0.1,0.2,0.08461927,-0.1476645,0.1313602,-0.4242245,-4.072038,0.2767216,0.5794065,1.35051,0.3143873,0.07626954,-0.1448369,-0.09810033,-0.9604973,0.5276485,-0.0139816,0.7111753,1.395321,0.2145817,0.1933193,1.119943,0.1668925,278.8708,228.9575,9.892966,False
1,2.61111,-0.3372542,0.01755907,-0.170178,-1.421673,-4.38555,-2.408933,0.44552,1.164181,0.3423572,-1.074311,0.03230521,0,0.2,0.09879972,-0.1672519,0.169386,-0.4218554,-4.079993,0.282408,0.5805621,1.350614,0.3146346,0.08345561,-0.1715436,-0.1151453,-0.9623263,0.5241837,-0.01318531,0.7119256,1.39521,0.2144783,0.1929895,1.120272,0.1670048,279.1475,229.7778,8.956616,False
1,2.622221,-0.3521639,0.01000579,-0.1796834,-1.420077,-4.386871,-2.404491,0.445702,1.164899,0.3428774,-1.074494,-0.0168638,0,0.2,0.1107058,-0.1877585,0.1946377,-0.4197291,-4.087971,0.2882161,0.581516,1.35086,0.3147843,0.09073748,-0.1865198,-0.1269037,-0.9641042,0.521018,-0.01263244,0.7126017,1.395111,0.2143233,0.1926605,1.120625,0.1671348,279.4361,230.5177,8.096004,False
1,2.633332,-0.3713338,-0.001853943,-0.1944928,-1.417835,-4.388363,-2.399516,0.4460897,1.165767,0.3434145,-1.074711,-0.01934882,0,0.2,0.1331273,-0.2209951,0.2100666,-0.4181067,-4.097748,0.2949946,0.5826493,1.350997,0.3150065,0.1159429,-0.2090486,-0.1526919,-0.9666044,0.5171453,-0.01253949,0.7135224,1.394857,0.2140739,0.192372,1.121017,0.1672615,279.7467,231.006,7.502409,False
1,2.644443,-0.3862498,-0.007290822,-0.206158,-1.415699,-4.389995,-2.394495,0.4465008,1.166645,0.3439584,-1.075167,-0.0413912,0,0.2,0.1414953,-0.2507981,0.2043674,-0.4172651,-4.108251,0.3027292,0.5837752,1.351139,0.3153183,0.1157787,-0.2218637,-0.1632963,-0.9686093,0.5136954,-0.01173895,0.7142991,1.394735,0.2139153,0.1924525,1.121467,0.16737,280.3619,231.8138,6.299202,False
1,2.655554,-0.392644,-0.01164044,-0.2167735,-1.413473,-4.391697,-2.389643,0.4468936,1.167495,0.3444948,-1.074962,0.0193167,0.1,0.4,0.1636803,-0.2848892,0.1974207,-0.4167016,-4.119587,0.3106463,0.585025,1.351228,0.315599,0.1178074,-0.2314643,-0.1696784,-0.9706391,0.5104343,-0.01127076,0.7152438,1.394392,0.213485,0.1925437,1.121828,0.1673858,280.7444,231.3549,6.565934,False
1,2.666665,-0.4032738,-0.03092252,-0.2283391,-1.410751,-4.392973,-2.384723,0.4475814,1.168567,0.345094,-1.075152,-0.01742964,0.1,0.4,0.1679741,-0.2849336,0.2005723,-0.4154766,-4.128887,0.3171471,0.5862776,1.351377,0.3159175,0.1261844,-0.258127,-0.1728734,-0.9724107,0.5059652,-0.009940515,0.716291,1.394343,0.2131014,0.1928282,1.122187,0.1674339,281.2714,232.0822,5.502775,False
1,2.677776,-0.4096485,-0.04484134,-0.2367549,-1.40805,-4.394343,-2.379833,0.4481602,1.169559,0.3456686,-1.075582,-0.03896633,0.1,0.4,0.1723185,-0.2754051,0.2059472,-0.4138888,-4.136902,0.3225067,0.5875514,1.35138,0.3162305,0.1314751,-0.2687962,-0.1739704,-0.9743867,0.5018988,-0.009372463,0.7171823,1.394406,0.2131214,0.1931442,1.122594,0.1675395,281.8694,230.6962,6.676349,False
1,2.688887,-0.4128375,-0.05342431,-0.2441454,-1.405313,-4.395778,-2.374898,0.4488185,1.170478,0.3463178,-1.075685,-0.008957612,0.1,0.4,0.1755244,-0.2690137,0.2049101,-0.4126318,-4.145243,0.3281009,0.5889422,1.351513,0.3165584,0.1292153,-0.2815901,-0.1792169,-0.9762983,0.4976197,-0.007871771,0.7183675,1.394186,0.2128935,0.193532,1.123091,0.1677778,282.4734,229.5344,7.670862,False
1,2.699998,-0.4117665,-0.06199699,-0.2504798,-1.402406,-4.397215,-2.370065,0.4495793,1.171191,0.3466048,-1.075899,-0.01943486,0.1,0.4,0.1798358,-0.2647924,0.209172,-0.4111026,-4.15351,0.333635,0.5903243,1.351623,0.3168156,0.1322977,-0.284798,-0.1866824,-0.9783186,0.4940354,-0.007158311,0.7195216,1.393942,0.2128203,0.1939666,1.123845,0.168178,282.84,228.3583,8.757783,False
1,2.711109,-0.4171059,-0.05563775,-0.2537183,-1.400018,-4.399013,-2.364915,0.450415,1.172036,0.3472962,-1.076032,-0.01187228,0,0.5,0.2025231,-0.2384387,0.2315692,-0.4085001,-4.160366,0.3369336,0.5919351,1.351627,0.3170621,0.1375695,-0.2954727,-0.1888403,-0.9804795,0.4896052,-0.006392119,0.7206495,1.393761,0.2125745,0.1943835,1.125016,0.1688,283.1194,227.2882,9.802815,False
1,2.72222,-0.413934,-0.05034113,-0.2590792,-1.397728,-4.400933,-2.359919,0.4512268,1.172836,0.3480258,-1.076269,-0.02146931,0,0.5,0.2090493,-0.231105,0.2422299,-0.4063542,-4.16853,0.3418585,0.5935366,1.351723,0.317414,0.1577553,-0.3189553,-0.1868615,-0.9823682,0.4844548,-0.005752428,0.7217833,1.393619,0.2126224,0.194804,1.126674,0.1696534,283.1673,226.1877,10.97883,False
1,2.733331,-0.412883,-0.040744,-0.2580862,-1.395586,-4.402883,-2.355002,0.4522495,1.173633,0.3488333,-1.076143,0.01170467,0,0.5,0.2326479,-0.258045,0.2662317,-0.4040953,-4.180887,0.3498368,0.5953107,1.351707,0.3178229,0.1725102,-0.3318144,-0.1976446,-0.9849281,0.4794336,-0.005410744,0.7229582,1.393404,0.2123959,0.1952997,1.128984,0.1706346,282.883,225.0761,12.23124,False
1,2.744442,-0.4075486,-0.04179369,-0.2570084,-1.393329,-4.404463,-2.350413,0.453307,1.174378,0.3497534,-1.076401,-0.02362033,0,0.5,0.258524,-0.282994,0.3040794,-0.4011317,-4.194558,0.3586807,0.5973114,1.351553,0.3182664,0.1999244,-0.3489864,-0.2160007,-0.9877441,0.474224,-0.005350557,0.7242895,1.393026,0.211987,0.1958946,1.132258,0.1715239,281.9179,225.5382,11.72103,False
1,2.755553,-0.4096784,-0.05353107,-0.2611333,-1.391065,-4.40572,-2.345438,0.4544334,1.175305,0.3508723,-1.076597,-0.01760084,0,0.5,0.2725386,-0.2928011,0.3230117,-0.3985144,-4.2064,0.3661418,0.5992243,1.351496,0.3187521,0.2434553,-0.3853322,-0.2195758,-0.9901313,0.4677622,-0.005915413,0.7256249,1.392698,0.2116094,0.1966732,1.136156,0.1723651,280.9363,224.0279,13.14891,False
1,2.766664,-0.4053813,-0.09734152,-0.2810382,-1.386813,-4.406624,-2.340745,0.4559109,1.176034,0.3521016,-1.076928,-0.03013466,0,0.5,0.3309521,-0.3718998,0.3301751,-0.3972653,-4.2263,0.3788594,0.6015427,1.3514,0.3193974,0.2773206,-0.4184881,-0.2283727,-0.9927189,0.4608244,-0.005882657,0.7269741,1.392405,0.2112575,0.1976665,1.140236,0.1732685,280.0396,220.7844,16.35142,False
