loc,t,aDotUA,bDotUA,gDotUA,aUA,bUA,gUA,xUA,yUA,zUA,qE,qDotE,emgA,emgB,aDotSH,bDotSH,gDotSH,aSH,bSH,gSH,xSH,ySH,zSH,aDotUB,bDotUB,gDotUB,aUB,bUB,gUB,xUB,yUB,zUB,xHand,yHand,zHand,aHand,bHand,gHand,enable
1,0,0.1556955,-0.211461,-0.03564653,-1.215083,-3.971145,-2.995345,0.5937873,1.254067,0.4711168,-1.209558,-0.2177909,9.7,30.7,0.001726065,0.05615217,0.01506961,-0.6074143,-4.681318,0.07525481,0.7005417,1.444893,0.4142523,-0.0331008,0.06425815,0.05952912,-0.9033554,0.07767535,-0.1208452,0.7557099,1.489402,0.2244959,0.4138183,1.065141,0.2659708,308.61,209.6481,10.51903,True
1,0.01111111,0.1599704,-0.213568,-0.03458472,-1.214384,-3.968676,-2.998176,0.5937269,1.254043,0.4714308,-1.21145,-0.1700347,9.7,30.7,-0.01305097,0.07000733,0.02278963,-0.6068678,-4.679083,0.07410725,0.7002034,1.444869,0.4142087,-0.03206999,0.05252848,0.05742884,-0.9028542,0.07797203,-0.1207176,0.7555321,1.489408,0.2245135,0.4144741,1.065092,0.2658849,308.6368,209.2287,10.68266,True
1,0.02222222,0.1589035,-0.2178508,-0.0377437,-1.2136,-3.966,-3.000777,0.5936363,1.254079,0.4717622,-1.21346,-0.1813714,9.7,30.7,-0.01826225,0.06992788,0.03456493,-0.6059698,-4.677975,0.07358208,0.6999474,1.444895,0.4141517,-0.0342318,0.05039448,0.05426529,-0.90237,0.07877724,-0.1207549,0.7553539,1.489422,0.2245414,0.4151896,1.064771,0.265922,308.7295,209.0127,10.65454,True
1,0.03333334,0.1621208,-0.2381349,-0.04829208,-1.212281,-3.962764,-3.00382,0.5934979,1.254093,0.4721372,-1.215044,-0.1424824,9.7,30.7,-0.01922814,0.0687771,0.04521266,-0.6051559,-4.676786,0.07284252,0.6996434,1.444873,0.4140759,-0.03310072,0.05254246,0.0606357,-0.9016004,0.07967765,-0.1210633,0.7551734,1.489394,0.2244072,0.4158852,1.064229,0.2660932,308.8876,208.9008,10.55134,True
1,0.04444445,0.1664563,-0.2754628,-0.05661169,-1.210873,-3.958221,-3.007359,0.5933388,1.254216,0.4724724,-1.216033,-0.08855829,9.7,25.7,-0.01289455,0.06558809,0.04086204,-0.6048044,-4.675774,0.07192559,0.6994447,1.444868,0.4141254,-0.02974221,0.05898438,0.07762785,-0.9002938,0.08092015,-0.1216732,0.7550751,1.489439,0.2244568,0.4165412,1.063526,0.2664011,309.093,208.8165,10.47201,True
1,0.05555556,0.1697663,-0.3341345,-0.07227549,-1.208778,-3.952455,-3.011443,0.5930809,1.254438,0.4728053,-1.217351,-0.1190623,9.7,25.7,-0.002335709,0.05920599,0.03431183,-0.6046068,-4.674972,0.07097138,0.6992196,1.444958,0.414211,-0.03073923,0.06114157,0.08508656,-0.8991924,0.08201791,-0.1219677,0.7548982,1.489482,0.2245488,0.4171447,1.062738,0.2668186,309.3401,208.7261,10.43255,True
1,0.06666667,0.1719734,-0.3736018,-0.08164612,-1.206891,-3.946803,-3.015424,0.5927992,1.254631,0.4730842,-1.218361,-0.09077546,9.7,25.7,0.01026637,0.04005665,0.02443214,-0.6046819,-4.675303,0.07067151,0.6989726,1.444989,0.4142687,-0.03288838,0.06326775,0.08296864,-0.8984536,0.08317398,-0.1222157,0.7547641,1.489518,0.2246351,0.4177262,1.061928,0.2673309,309.5934,208.58,10.47113,True
1,0.07777778,0.1795497,-0.4279619,-0.09201963,-1.204706,-3.940094,-3.020122,0.5925634,1.254847,0.4733145,-1.21927,-0.08194098,9.7,25.7,0.01549025,0.02942925,0.01895879,-0.6046846,-4.675289,0.07031864,0.6987336,1.445089,0.4142609,-0.03404846,0.06216548,0.07232872,-0.8981149,0.08406042,-0.1223496,0.7546346,1.48955,0.2246804,0.4183658,1.06114,0.2678915,309.8585,208.3841,10.58422,True
1,0.08888889,0.1923853,-0.4609998,-0.1025309,-1.202575,-3.933973,-3.024803,0.5923519,1.255057,0.4735694,-1.219888,-0.05547257,9.7,25.7,0.01768719,0.03042325,0.02533939,-0.6041524,-4.67485,0.0696856,0.6984624,1.445247,0.4143026,-0.04274551,0.05252679,0.0543301,-0.8981617,0.08439571,-0.12176,0.7544463,1.489629,0.2247293,0.4190941,1.060372,0.2684204,310.1308,208.1062,10.74418,True
1,0.1,0.1998853,-0.4769468,-0.1003418,-1.200804,-3.927982,-3.029269,0.5921321,1.255287,0.4738097,-1.220778,-0.08060116,9.2,21.6,0.01272144,0.04082403,0.05743577,-0.6024134,-4.673565,0.06874497,0.6980617,1.445338,0.4143047,-0.04482381,0.04935103,0.06074873,-0.8973585,0.08499971,-0.1215848,0.7542392,1.489698,0.2249079,0.4198987,1.059615,0.2688442,310.384,207.822,10.88096,True
1,0.1111111,0.2009527,-0.4705456,-0.09507503,-1.199132,-3.922458,-3.033577,0.5920035,1.255408,0.4740736,-1.221462,-0.06164444,9.2,21.6,-0.00170818,0.05437547,0.1003081,-0.5998749,-4.671904,0.06788291,0.6977574,1.445544,0.4143388,-0.04467054,0.04620794,0.07780205,-0.895995,0.08560478,-0.1215853,0.7540543,1.489803,0.2249584,0.4208451,1.058853,0.2691539,310.6115,207.4813,11.02653,True
1,0.1222222,0.2020173,-0.4619865,-0.08872887,-1.197918,-3.917328,-3.037726,0.591775,1.255536,0.4743485,-1.221681,-0.01931896,9.2,21.6,-0.01947446,0.06377536,0.131464,-0.5973523,-4.670513,0.06761846,0.6973946,1.445643,0.4143417,-0.04779731,0.04730352,0.08528538,-0.8948589,0.08650719,-0.1215331,0.7538527,1.48987,0.2250304,0.421916,1.058064,0.2693703,310.8245,207.1326,11.09709,True
1,0.1333333,0.1998848,-0.4502287,-0.08133642,-1.196738,-3.912536,-3.041692,0.5915328,1.25576,0.4745831,-1.221985,-0.0274594,9.2,21.6,-0.02351253,0.08178833,0.1455058,-0.5953022,-4.667957,0.06585145,0.6970882,1.445816,0.4143896,-0.05097366,0.05051021,0.0874331,-0.8939065,0.08753172,-0.1214409,0.7537022,1.489909,0.2250412,0.4230625,1.057237,0.269519,311.0358,206.8162,11.09119,True
1,0.1444445,0.2041558,-0.4480473,-0.07603903,-1.1956,-3.907469,-3.045914,0.5913324,1.255927,0.4747748,-1.222247,-0.02357762,12.5,16.2,-0.01906331,0.09017439,0.1593845,-0.592981,-4.665853,0.06397552,0.6967248,1.445938,0.4143822,-0.05967431,0.05151512,0.06726424,-0.8939475,0.0882469,-0.1208923,0.7535833,1.489936,0.225096,0.4242302,1.056362,0.2696416,311.2413,206.5221,11.04023,True
1,0.1555556,0.2073759,-0.4469291,-0.0696682,-1.194583,-3.902313,-3.050289,0.5910865,1.256138,0.4749944,-1.222428,-0.01622175,12.5,16.2,-0.02547013,0.1019799,0.1531564,-0.5914438,-4.663268,0.0624197,0.6965418,1.445909,0.4143739,-0.05450722,0.0439912,0.05019899,-0.8940056,0.08858739,-0.1207395,0.7534411,1.489933,0.2250919,0.4253379,1.055451,0.2697672,311.4708,206.2851,10.92792,True
1,0.1666667,0.2052292,-0.4480633,-0.07605234,-1.192928,-3.896605,-3.054675,0.5909526,1.256222,0.4751029,-1.222787,-0.03249245,12.5,16.2,-0.02989262,0.1149765,0.1309398,-0.5906247,-4.660216,0.06035522,0.6962854,1.445902,0.4143772,-0.05666694,0.0322754,0.04919731,-0.8934351,0.08868712,-0.1200439,0.7532353,1.490006,0.2251291,0.4263479,1.054548,0.2699337,311.7277,206.0832,10.82358,True
1,0.1777778,0.2020323,-0.4491619,-0.07921827,-1.191668,-3.891168,-3.05893,0.5905973,1.256404,0.47525,-1.223093,-0.02762982,12.5,16.2,-0.03226884,0.1098568,0.1085434,-0.5901517,-4.658353,0.05925906,0.6960444,1.445929,0.4144299,-0.05340149,0.03016267,0.05663288,-0.8925638,0.0891059,-0.1199083,0.7530373,1.490107,0.2252879,0.4272823,1.05368,0.2701697,311.9738,205.88,10.78188,True
1,0.1888889,0.2030756,-0.4427733,-0.08032331,-1.190367,-3.886205,-3.063078,0.590418,1.256504,0.475352,-1.223048,0.00442188,12.5,16.2,-0.02828532,0.09511197,0.08706798,-0.5898929,-4.657381,0.05860472,0.6958894,1.445978,0.4145191,-0.05329273,0.04085345,0.06724736,-0.8915517,0.09035866,-0.1200984,0.752843,1.490147,0.2253852,0.4281717,1.052842,0.2704832,312.1898,205.664,10.81111,True
1,0.2,0.1955808,-0.4161042,-0.06978874,-1.189698,-3.882168,-3.066516,0.5902361,1.256623,0.4754131,-1.223117,-0.006357027,14,15,-0.004063357,0.0706446,0.06956812,-0.5896798,-4.657516,0.05784998,0.6957586,1.446083,0.4146245,-0.05532807,0.0536733,0.07680585,-0.8905398,0.09185722,-0.12025,0.7527078,1.490123,0.2254188,0.429027,1.051984,0.2708288,312.4063,205.4098,10.89832,True
1,0.2111111,0.1912458,-0.3637925,-0.04876402,-1.189746,-3.879693,-3.069399,0.5901166,1.256797,0.4755681,-1.223294,-0.01603757,14,15,0.0117328,0.05897053,0.05652527,-0.5894561,-4.6569,0.05670908,0.6954893,1.446257,0.4146459,-0.05847234,0.05689251,0.08214902,-0.8895331,0.09297401,-0.120202,0.7525556,1.490164,0.2255204,0.4298198,1.051102,0.271171,312.6439,205.1966,10.92373,True
1,0.2222222,0.192234,-0.3136057,-0.02774639,-1.189962,-3.877692,-3.072167,0.5900633,1.256875,0.4756176,-1.223045,0.02301267,14,15,0.01600217,0.07926287,0.04813647,-0.5891184,-4.654203,0.05419746,0.6951796,1.446407,0.4147007,-0.06605926,0.0579112,0.06730256,-0.8893093,0.09373128,-0.119646,0.7523956,1.490236,0.22563,0.4305723,1.050214,0.2715148,312.8804,205.0463,10.91047,True
1,0.2333333,0.1824951,-0.2175659,0.004765138,-1.191154,-3.878598,-3.073542,0.5901533,1.256856,0.4757409,-1.223146,-0.00937577,14,15,0.01407586,0.095139,0.06107307,-0.5879503,-4.651471,0.05181073,0.6948777,1.446596,0.4146743,-0.06296553,0.05253997,0.05664077,-0.8890926,0.09424887,-0.1194044,0.7522473,1.490379,0.2257378,0.4312612,1.049366,0.271838,313.1324,205.0101,10.80007,True
1,0.2444444,0.1695338,-0.1108723,0.03937178,-1.192981,-3.88102,-3.074076,0.5902609,1.256678,0.4758382,-1.223326,-0.01623585,14,15,-0.01008617,0.1131544,0.08597568,-0.5859961,-4.648084,0.04971296,0.6944468,1.446715,0.4146872,-0.06737652,0.03757566,0.04182165,-0.889051,0.09405553,-0.1184041,0.7521051,1.490406,0.2257838,0.4318709,1.048637,0.2721554,313.3571,205.0691,10.62776,True
1,0.2555556,0.1480565,-0.01489449,0.06555246,-1.194841,-3.883981,-3.074033,0.5903141,1.256505,0.4760866,-1.223129,0.01818229,12.3,10.8,-0.01949307,0.1130401,0.1041772,-0.5842608,-4.646093,0.04854969,0.6941737,1.446814,0.4147584,-0.06735738,0.03864363,0.04394048,-0.8886148,0.094659,-0.1180313,0.7521203,1.490473,0.2258863,0.4323616,1.048038,0.2724465,313.5171,205.1697,10.45727,True
1,0.2666667,0.121267,0.06397061,0.08223759,-1.196506,-3.887325,-3.073284,0.590294,1.256342,0.4762316,-1.22293,0.01807913,12.3,10.8,-0.01721846,0.110756,0.1201168,-0.5823311,-4.644298,0.04721492,0.693944,1.446887,0.4147716,-0.07045543,0.0482696,0.05352189,-0.8878372,0.09587247,-0.117908,0.7519808,1.490504,0.2259629,0.4326369,1.047592,0.2727179,313.5879,205.4008,10.20275,True
1,0.2777778,0.1031016,0.09378969,0.09067231,-1.197921,-3.889293,-3.073231,0.5902384,1.256179,0.4763293,-1.222663,0.02435762,12.3,10.8,-0.004488818,0.1075381,0.1157091,-0.5811247,-4.64243,0.04517893,0.6937293,1.4469,0.4148006,-0.06936143,0.05466285,0.05561424,-0.8873259,0.09691922,-0.1178675,0.7518272,1.49055,0.2260635,0.4326231,1.047299,0.2729796,313.5738,205.7039,9.941501,True
1,0.2888889,0.08281819,0.1172064,0.0959361,-1.199269,-3.891471,-3.072813,0.5900761,1.256083,0.4762113,-1.222235,0.03905149,12.3,10.8,0.01434168,0.1131007,0.07828275,-0.5814821,-4.63974,0.0420838,0.6934853,1.446897,0.4148831,-0.07146312,0.06213035,0.05773707,-0.8867373,0.09824961,-0.1178236,0.7517226,1.490577,0.2261469,0.4323255,1.047171,0.2732819,313.5195,205.9937,9.742113,True
1,0.3,0.05506793,0.1266835,0.08959495,-1.200241,-3.893246,-3.071828,0.5897878,1.256001,0.4760468,-1.222574,-0.03116044,12.3,10.8,0.01687608,0.1136569,0.01220841,-0.5835071,-4.637297,0.03994768,0.6931064,1.446933,0.4149454,-0.07049706,0.0535695,0.04816785,-0.8866148,0.09856665,-0.1172055,0.751596,1.490536,0.2261655,0.4317471,1.047206,0.2736018,313.4548,206.2607,9.655828,True
1,0.3111111,0.03471667,0.149998,0.07675339,-1.200897,-3.895907,-3.070669,0.5896451,1.255965,0.4757943,-1.222517,0.005714835,11.6,8.1,0.006845966,0.1023258,-0.02721032,-0.5850033,-4.635718,0.03890852,0.6928387,1.446959,0.415077,-0.0727935,0.04285616,0.03117974,-0.8868119,0.0986564,-0.1163623,0.751572,1.490445,0.2261651,0.4310181,1.047378,0.2739125,313.369,206.4795,9.703798,True
1,0.3222222,0.003667176,0.188192,0.06386307,-1.201445,-3.899464,-3.068428,0.5895145,1.255968,0.4754937,-1.221988,0.04835139,11.6,8.1,-0.01166705,0.07602626,-0.05602214,-0.5865319,-4.635682,0.03956579,0.6925932,1.446984,0.4151185,-0.07836691,0.04063682,0.003533674,-0.8877829,0.0990584,-0.1155652,0.7515341,1.490435,0.2262244,0.4301738,1.047623,0.2741036,313.2871,206.6929,9.780913,True
1,0.3333333,-0.02096385,0.2232361,0.05523315,-1.202081,-3.903417,-3.066003,0.5893563,1.255891,0.4753425,-1.222299,-0.02866433,11.6,8.1,-0.02245004,0.0644256,-0.06347445,-0.5874044,-4.634887,0.0395317,0.6922565,1.447096,0.415189,-0.08169642,0.0448388,-0.01350301,-0.8886234,0.09974444,-0.1151332,0.7514893,1.49047,0.2263482,0.4292682,1.047922,0.2741116,313.2191,206.8755,9.850655,True
1,0.3444445,-0.06699219,0.2858761,0.04438001,-1.202396,-3.908745,-3.061721,0.5892045,1.255712,0.4751296,-1.221816,0.04458247,11.6,8.1,-0.04563745,0.07928666,-0.04500256,-0.5872275,-4.632479,0.03880998,0.6918896,1.447062,0.4152002,-0.08069503,0.05439968,-0.0220663,-0.8892305,0.1009668,-0.1150129,0.7514353,1.490446,0.2264287,0.4283677,1.048313,0.2739643,313.1355,207.0366,9.881453,True
1,0.3555556,-0.1172235,0.3379343,0.0519402,-1.203509,-3.913966,-3.057735,0.5888969,1.25558,0.475019,-1.221965,-0.01388063,11.8,8.1,-0.05392664,0.09944674,-0.03089513,-0.5870049,-4.629175,0.03687253,0.6915203,1.44708,0.4151728,-0.08393282,0.07141594,-0.0295592,-0.8899752,0.1024985,-0.1149468,0.7514296,1.490488,0.2264328,0.4274445,1.048821,0.2736867,313.0282,207.1896,9.85283,True
1,0.3666667,-0.1694394,0.3602179,0.05284405,-1.204573,-3.919638,-3.051441,0.5883638,1.255564,0.4748886,-1.220918,0.09617352,11.8,8.1,-0.06882248,0.1027056,-0.03071522,-0.5872206,-4.627003,0.03628557,0.6912181,1.447136,0.4151945,-0.08717743,0.08417934,-0.03703484,-0.8907741,0.1041311,-0.1149095,0.7514331,1.490476,0.2264972,0.4264556,1.049452,0.2733425,312.8456,207.3077,9.804367,True
1,0.3777778,-0.2099252,0.361166,0.05298249,-1.20555,-3.923829,-3.046346,0.5878168,1.255602,0.4745817,-1.221383,-0.04319024,11.8,8.1,-0.06916691,0.08161678,-0.05539752,-0.5886758,-4.626516,0.03666693,0.6908497,1.447143,0.4152434,-0.1063861,0.09697615,-0.04223563,-0.8915912,0.1060768,-0.1142874,0.7514337,1.490493,0.2265475,0.4252504,1.050196,0.2729295,312.6471,207.4574,9.724985,True
1,0.3888889,-0.2333703,0.3589463,0.04775591,-1.20628,-3.928103,-3.041564,0.5873111,1.255669,0.4743392,-1.219694,0.1552563,11.8,8.1,-0.07379244,0.05093835,-0.07799131,-0.5903312,-4.627266,0.03827468,0.6905111,1.447183,0.4152808,-0.1181122,0.1097614,-0.04537351,-0.8923528,0.1079961,-0.1138339,0.7514354,1.490563,0.2265813,0.4238097,1.051103,0.2725032,312.4222,207.6461,9.63165,True
1,0.4,-0.2622434,0.372611,0.03073587,-1.206516,-3.932931,-3.035823,0.5868782,1.2557,0.4738584,-1.22061,-0.084828,11.8,8.1,-0.08717619,0.003391892,-0.1166293,-0.5930689,-4.629979,0.04191922,0.6900229,1.447207,0.4152472,-0.1136738,0.1534889,-0.03171446,-0.8925904,0.1122566,-0.1153575,0.7514554,1.490599,0.2266073,0.4220411,1.052223,0.2719886,312.2438,207.8908,9.574734,True
1,0.4111111,-0.2976143,0.4278159,0.01351076,-1.206848,-3.940081,-3.028852,0.586487,1.255708,0.4734423,-1.221497,-0.07985024,10.9,9,-0.1043021,-0.01357074,-0.1166019,-0.5942551,-4.63097,0.04451447,0.6895174,1.447219,0.415091,-0.120776,0.1813149,0.003405455,-0.8917302,0.1160705,-0.1163165,0.7514625,1.49069,0.2265644,0.4201173,1.053638,0.2713874,312.0016,208.0444,9.706763,True
1,0.4222222,-0.3373329,0.531036,0.0120109,-1.208073,-3.95003,-3.020203,0.5861589,1.255568,0.4730892,-1.221171,0.03060688,10.9,9,-0.1378216,0.03527701,-0.08068873,-0.5938455,-4.627433,0.04430301,0.6890174,1.447215,0.4149365,-0.1579246,0.1782312,0.01972774,-0.8911566,0.1186028,-0.1148653,0.7514387,1.490659,0.2266045,0.4181851,1.055321,0.2707368,311.6369,208.1122,9.940852,True
1,0.4333333,-0.3930241,0.6556061,0.0264295,-1.21025,-3.961941,-3.009936,0.5858605,1.255356,0.4728682,-1.221065,0.009635666,10.9,9,-0.1731918,0.09459285,-0.02229423,-0.5921107,-4.622345,0.0430982,0.6883923,1.44719,0.4147646,-0.1708886,0.1866931,-0.002554576,-0.8922064,0.1214397,-0.1144475,0.7514138,1.490624,0.2266874,0.4161955,1.057166,0.2699769,311.2164,208.159,10.16166,True
1,0.4444444,-0.4304919,0.7365255,0.03783721,-1.21246,-3.972995,-3.000171,0.5853829,1.255081,0.4727669,-1.22074,0.02988193,10.9,9,-0.1907046,0.1433534,0.01559042,-0.5905411,-4.616711,0.04111415,0.687803,1.447057,0.4145999,-0.1752777,0.1898417,-0.01744166,-0.8931512,0.1241883,-0.1140696,0.7514383,1.490607,0.2267547,0.4140275,1.059144,0.2691502,310.7554,208.2727,10.23349,True
1,0.4555556,-0.4775339,0.8238667,0.05989209,-1.215594,-3.985339,-2.989021,0.5848151,1.25477,0.4726074,-1.220178,0.0514713,9.7,10.1,-0.2012609,0.1540211,0.02004646,-0.5902902,-4.613264,0.04068538,0.687202,1.44689,0.4145944,-0.179682,0.1929793,-0.03446853,-0.8944301,0.1267781,-0.1136658,0.751492,1.490467,0.2268829,0.4115284,1.061275,0.2683515,310.2388,208.5555,10.14087,True
1,0.4666667,-0.5180479,0.8611502,0.07900354,-1.218751,-3.996396,-2.97825,0.5841776,1.25449,0.4723632,-1.220736,-0.05105713,9.7,10.1,-0.2027588,0.1223182,-0.008979224,-0.5913293,-4.612684,0.04251231,0.6867412,1.446612,0.4145713,-0.178688,0.1961434,-0.04301137,-0.8954788,0.1295705,-0.1134768,0.7515074,1.490384,0.2270112,0.4086377,1.063615,0.2676895,309.6689,208.9556,10.03662,True
1,0.4777778,-0.5563967,0.8642555,0.08125708,-1.221427,-4.006387,-2.96755,0.5835025,1.254276,0.4720097,-1.220281,0.04242485,9.7,10.1,-0.1899079,0.0675161,-0.0841632,-0.5948958,-4.614265,0.04552088,0.6862804,1.44645,0.4146535,-0.1818067,0.2132055,-0.0366454,-0.8958336,0.1331776,-0.1135902,0.7515093,1.490194,0.2270753,0.40541,1.06616,0.2672279,309.036,209.3369,10.07168,True
1,0.4888889,-0.5745037,0.8556434,0.07391393,-1.223624,-4.01599,-2.957383,0.5827368,1.254052,0.471554,-1.220557,-0.02537005,9.7,10.1,-0.1759421,0.01373142,-0.1550849,-0.5989971,-4.61671,0.04906581,0.6858089,1.446166,0.4147241,-0.1881541,0.2249403,-0.03343686,-0.8964429,0.1367078,-0.1135343,0.7515754,1.490015,0.2271688,0.4018514,1.068889,0.2669153,308.3813,209.8307,10.15091,True
1,0.5,-0.5809281,0.8544898,0.06647077,-1.225572,-4.025347,-2.947501,0.5822864,1.253706,0.4710648,-1.220702,-0.01266562,9.7,10.1,-0.1746397,-0.01442371,-0.2267149,-0.6035527,-4.618138,0.0519849,0.6852784,1.445998,0.4147213,-0.1892612,0.2366408,-0.0398549,-0.8973702,0.1404925,-0.1137609,0.7515997,1.489928,0.2273088,0.3981425,1.071782,0.2666813,307.7119,210.3125,10.3814,True
1,0.5111111,-0.5873252,0.8469734,0.05907783,-1.227784,-4.034728,-2.937617,0.5814457,1.2536,0.4704006,-1.221481,-0.07088388,6.2,13,-0.1867053,-0.008716285,-0.263832,-0.6075102,-4.617281,0.05380917,0.6847363,1.445828,0.4145753,-0.2063031,0.2377304,-0.03970663,-0.8981,0.1437702,-0.1129745,0.7516872,1.489844,0.2274535,0.3944541,1.074784,0.2664039,307.046,210.6856,10.74328,True
1,0.5222223,-0.5915867,0.8373337,0.05168739,-1.229998,-4.043972,-2.927839,0.5806957,1.2536,0.4697378,-1.222069,-0.0529236,6.2,13,-0.224774,0.02116874,-0.2493472,-0.609695,-4.614758,0.05547285,0.6840419,1.445727,0.414535,-0.2107061,0.2312919,-0.05455607,-0.8994038,0.1465675,-0.1122248,0.7517701,1.489737,0.2275968,0.3909299,1.077815,0.2660145,306.339,210.933,11.16232,True
1,0.5333334,-0.5989878,0.8042299,0.04124469,-1.231767,-4.051965,-2.918278,0.579671,1.253615,0.4689839,-1.222364,-0.02646323,6.2,13,-0.2601602,0.05911198,-0.1826167,-0.6093435,-4.611385,0.0567011,0.683362,1.445717,0.4144042,-0.2097234,0.2195541,-0.06090911,-0.900452,0.1491352,-0.1114565,0.751821,1.489609,0.2276614,0.3876957,1.080785,0.2654964,305.627,211.1375,11.51435,True
1,0.5444446,-0.6180773,0.7593762,0.02984414,-1.233377,-4.059173,-2.908376,0.5786541,1.25347,0.4682748,-1.222638,-0.02464576,6.2,13,-0.2932364,0.09260789,-0.09570292,-0.6074899,-4.607776,0.05810245,0.6826752,1.445733,0.4142873,-0.2182347,0.2067949,-0.05758752,-0.9011083,0.1513893,-0.1101435,0.7518836,1.48953,0.227834,0.3846233,1.083624,0.2647499,305.0163,211.3752,11.68137,True
1,0.5555557,-0.6382557,0.7241026,0.02053773,-1.234957,-4.066239,-2.898244,0.5775789,1.253559,0.4678187,-1.222626,0.001386498,3.3,14.7,-0.3126949,0.1176926,-0.02817533,-0.6057951,-4.604329,0.05921406,0.681976,1.445714,0.4141848,-0.2234921,0.2228051,-0.05227296,-0.9018422,0.155341,-0.10993,0.7519788,1.489401,0.228132,0.3817064,1.086352,0.263809,304.4812,211.5757,11.77527,True
1,0.5666668,-0.6594731,0.679244,0.01020905,-1.23632,-4.072589,-2.888098,0.5763476,1.253639,0.4669833,-1.222193,0.03968683,3.3,14.7,-0.3198523,0.1388561,-0.007678626,-0.6050734,-4.60042,0.05981326,0.6812979,1.445719,0.4141047,-0.224491,0.2185749,-0.04479252,-0.9023604,0.158207,-0.1092525,0.752093,1.489324,0.2283692,0.3788632,1.088955,0.2626614,303.9721,211.6434,11.91587,True
1,0.577778,-0.670064,0.6439996,0.0008620024,-1.237701,-4.078837,-2.878263,0.5751837,1.253727,0.4660821,-1.22207,0.01101194,3.3,14.7,-0.3483705,0.1494742,0.0118706,-0.6044278,-4.59702,0.06171929,0.680792,1.445617,0.4141383,-0.2171113,0.2259875,-0.05447365,-0.9036041,0.161546,-0.1090802,0.7522728,1.489265,0.2285757,0.3761322,1.091474,0.2613916,303.4788,211.6271,12.04751,True
1,0.5888891,-0.6646931,0.6302023,0.004132181,-1.239794,-4.085833,-2.868639,0.5739925,1.253763,0.4654384,-1.222039,0.002980631,3.3,14.7,-0.3726657,0.1697336,0.02400523,-0.6036875,-4.592484,0.06300852,0.6801773,1.445729,0.4141805,-0.2247308,0.2248709,-0.07357881,-0.9053006,0.1645462,-0.1082618,0.7524258,1.489137,0.2288117,0.3734864,1.094004,0.2600917,303.0397,211.6203,12.10888,True
1,0.6000003,-0.6615043,0.6441144,0.01257122,-1.242394,-4.093615,-2.858889,0.5727714,1.253869,0.4645574,-1.222533,-0.0449824,3.3,14.7,-0.3818173,0.174743,0.06568962,-0.6014877,-4.588981,0.06471907,0.6795996,1.445927,0.4142325,-0.2185424,0.2226515,-0.0959992,-0.9073283,0.1672967,-0.1076607,0.7525806,1.488914,0.2290583,0.3707705,1.096589,0.2586858,302.6308,211.6281,12.21657,True
1,0.6111114,-0.6498357,0.6698401,0.02735135,-1.246148,-4.102349,-2.848924,0.5715243,1.254288,0.4639759,-1.223211,-0.06150761,2.1,16.4,-0.3771495,0.1872012,0.1009093,-0.5990546,-4.584861,0.06530843,0.6790487,1.446105,0.4142549,-0.1964483,0.2193165,-0.1270791,-0.909992,0.1699162,-0.1078977,0.7527514,1.488803,0.2293744,0.3680337,1.099298,0.2572374,302.1779,211.6017,12.36429,True
1,0.6222225,-0.6509466,0.6954523,0.03573981,-1.249288,-4.110706,-2.839078,0.5703672,1.254415,0.4630957,-1.223505,-0.02631464,2.1,16.4,-0.3595505,0.1930587,0.1540579,-0.595445,-4.580978,0.0653846,0.67857,1.446319,0.4142103,-0.1943874,0.2256677,-0.1356453,-0.9120112,0.172932,-0.1076527,0.7529092,1.488714,0.22961,0.3652692,1.102156,0.2558588,301.6385,211.6252,12.43397,True
1,0.6333337,-0.6457601,0.7691332,0.0598461,-1.254451,-4.121663,-2.82856,0.5691283,1.254738,0.4622223,-1.223663,-0.01422052,2.1,16.4,-0.3423376,0.1639576,0.1845316,-0.5924569,-4.579886,0.0676845,0.6779617,1.446244,0.4141397,-0.2070404,0.2150876,-0.1195176,-0.9129705,0.1753508,-0.106433,0.7530805,1.488599,0.2298474,0.362385,1.10517,0.2545964,301.0906,211.7842,12.38375,True
1,0.6444448,-0.6383533,0.8108025,0.07663625,-1.259052,-4.131554,-2.818885,0.5679258,1.254789,0.4612908,-1.223697,-0.002973315,2.1,16.4,-0.3371841,0.1223702,0.1862504,-0.5903323,-4.580527,0.07166753,0.6773867,1.446156,0.4139802,-0.2198004,0.1885375,-0.110766,-0.9137375,0.1772367,-0.1045115,0.7531846,1.488314,0.2300706,0.3593706,1.108393,0.2535569,300.5211,212.0496,12.30077,True
1,0.655556,-0.6501275,0.8353457,0.08613625,-1.263784,-4.141427,-2.808098,0.5667276,1.254743,0.4604545,-1.223841,-0.013157,2.1,16.4,-0.3738891,0.09729737,0.1491116,-0.5899562,-4.579995,0.07666149,0.6766332,1.445941,0.413835,-0.2219443,0.1906652,-0.1128857,-0.9153056,0.1797937,-0.1035853,0.7533133,1.488276,0.2303782,0.3561389,1.111762,0.2526799,299.9054,212.3419,12.31969,True
1,0.6666671,-0.7001783,0.8223929,0.0831908,-1.267379,-4.149416,-2.796106,0.5654665,1.254638,0.4597819,-1.224331,-0.04461525,1.2,17.6,-0.4227127,0.1111321,0.05382914,-0.5924633,-4.576701,0.08025702,0.6758299,1.445596,0.4138005,-0.209203,0.2129838,-0.1226482,-0.9172033,0.1836236,-0.1042921,0.7532282,1.488486,0.2305386,0.3526191,1.115282,0.2519631,299.2339,212.8351,12.23511,True
1,0.6777782,-0.763979,0.7582284,0.06993836,-1.270128,-4.155417,-2.783583,0.5640032,1.254598,0.4591427,-1.223233,0.1008239,1.2,17.6,-0.4424393,0.1363252,-0.01394082,-0.5946689,-4.571774,0.08155425,0.675026,1.445356,0.413862,-0.1878063,0.2257695,-0.1143641,-0.9185019,0.187176,-0.105103,0.7534164,1.48833,0.2308393,0.3489545,1.118849,0.2514273,298.4538,213.2372,12.35024,True
1,0.6888894,-0.8095927,0.6717638,0.05779013,-1.272194,-4.160032,-2.771705,0.5625118,1.254616,0.4583106,-1.221411,0.1657067,1.2,17.6,-0.440787,0.1720331,-0.07863572,-0.5976427,-4.565693,0.08135558,0.6742141,1.445056,0.4140847,-0.1715558,0.2184012,-0.08359119,-0.9186355,0.1898635,-0.105474,0.7534863,1.488167,0.2310963,0.3452716,1.122364,0.2510389,297.6622,213.5531,12.5857,True
1,0.7000005,-0.8264402,0.584287,0.04448065,-1.273563,-4.163465,-2.761023,0.5608841,1.254823,0.4575551,-1.220366,0.0943344,1.2,17.6,-0.4094254,0.1735035,-0.1407243,-0.6008853,-4.561579,0.08111243,0.6734596,1.444876,0.4142532,-0.1584832,0.2419224,-0.05502938,-0.918707,0.1942303,-0.1068063,0.7535976,1.488058,0.2314959,0.3416822,1.125794,0.2506714,296.972,213.7238,12.94793,True
1,0.7111117,-0.8209837,0.5267168,0.03411123,-1.274972,-4.167179,-2.751146,0.5593706,1.254971,0.4566607,-1.220892,-0.0484708,2.1,19.1,-0.3959972,0.1492079,-0.1719645,-0.6038526,-4.559817,0.08353564,0.6727881,1.444678,0.4143696,-0.1616343,0.2547224,-0.05291831,-0.9196258,0.1983015,-0.1074716,0.7537065,1.488061,0.2319517,0.3382415,1.129191,0.2501101,296.4093,213.7876,13.37554,True
1,0.7222228,-0.810205,0.4681014,0.0226731,-1.276093,-4.170464,-2.74169,0.5578061,1.25548,0.4558802,-1.222166,-0.1156817,2.1,19.1,-0.3815241,0.0832074,-0.1854588,-0.6062271,-4.56192,0.08910937,0.672269,1.444656,0.4144011,-0.1692518,0.2727614,-0.07315917,-0.9216295,0.2024317,-0.1077515,0.7539749,1.488089,0.2323296,0.3350624,1.132621,0.249191,295.901,213.703,13.85678,True
1,0.7333339,-0.8079987,0.422223,0.008001357,-1.276996,-4.173774,-2.731692,0.5562801,1.255822,0.4550412,-1.223415,-0.1130154,2.1,19.1,-0.3783563,0.06183249,-0.1782156,-0.6078718,-4.561469,0.09293633,0.6716385,1.444551,0.4144626,-0.1565452,0.275903,-0.08287615,-0.9232774,0.2062145,-0.1087675,0.7541878,1.487894,0.2325573,0.3322491,1.136104,0.2478816,295.3672,213.3935,14.37162,True
1,0.7444451,-0.806893,0.397692,0.001737416,-1.278338,-4.177505,-2.721431,0.5548402,1.256195,0.4542539,-1.22393,-0.04623668,2.1,19.1,-0.3970823,0.05509827,-0.1290758,-0.6074441,-4.560678,0.09748874,0.6709738,1.44457,0.4144115,-0.1322206,0.2651729,-0.09904477,-0.9252573,0.2094299,-0.1097952,0.7540212,1.487809,0.2328591,0.329818,1.139603,0.246246,294.7857,212.9346,14.83697,True
1,0.7555562,-0.7993676,0.3657207,-0.004505575,-1.279303,-4.180367,-2.71198,0.5533432,1.256599,0.4534693,-1.223477,0.04172951,2.1,19.1,-0.4191152,0.04421258,-0.08953731,-0.6070409,-4.560327,0.1027157,0.670337,1.444478,0.4142926,-0.1302221,0.2629873,-0.1139712,-0.9273872,0.212723,-0.110433,0.7541733,1.48769,0.2330732,0.3276968,1.143086,0.2444039,294.218,212.3266,15.27979,True
1,0.7666674,-0.7961211,0.3359056,-0.009656131,-1.280581,-4.183437,-2.702205,0.5518759,1.256952,0.4529779,-1.223331,0.01302685,1.5,18.8,-0.4416671,0.05639195,-0.007176289,-0.6042148,-4.558984,0.1071627,0.6696322,1.444484,0.4141057,-0.1473358,0.2416824,-0.1190415,-0.9287524,0.2148685,-0.1095699,0.7543995,1.487409,0.2333765,0.325714,1.146516,0.2424473,293.6634,211.6367,15.72965,True
1,0.7777785,-0.7907233,0.315715,-0.005286276,-1.282081,-4.186181,-2.692782,0.550464,1.257281,0.4524138,-1.223936,-0.05530784,1.5,18.8,-0.4317052,0.07527626,0.02165138,-0.6030744,-4.556475,0.1094884,0.6689981,1.4444,0.4140885,-0.1611782,0.2417185,-0.1179084,-0.9309011,0.2182113,-0.1091134,0.7542384,1.487299,0.233614,0.3237671,1.149918,0.2405092,293.135,210.9891,16.14177,True
1,0.7888896,-0.7810668,0.2965813,-0.00310415,-1.28312,-4.188719,-2.683668,0.5490481,1.25759,0.4516087,-1.22377,0.01560155,1.5,18.8,-0.4284541,0.08483946,0.02276772,-0.6026521,-4.554303,0.1123846,0.668283,1.444423,0.4140399,-0.1683736,0.2450323,-0.09015787,-0.9313655,0.2218585,-0.1092847,0.7543018,1.48728,0.233959,0.3218335,1.153278,0.2387124,292.6136,210.2713,16.65067,True
1,0.8000008,-0.7682687,0.2977434,0.00430274,-1.285001,-4.192051,-2.674362,0.5477344,1.258,0.4509535,-1.224015,-0.02255674,1.5,18.8,-0.4368616,0.09440318,0.03039305,-0.6019847,-4.552025,0.1158259,0.667609,1.444446,0.4139471,-0.173565,0.2589386,-0.07631427,-0.9322203,0.2259564,-0.1095646,0.7545489,1.487241,0.2342079,0.3198963,1.156594,0.2371824,292.0959,209.6119,17.14382,True
1,0.8111119,-0.7448668,0.3212908,0.01260331,-1.287289,-4.19592,-2.665764,0.5463932,1.258335,0.450171,-1.224289,-0.02480691,1.3,16.6,-0.4250651,0.1178223,0.02728245,-0.6015735,-4.548263,0.1170656,0.6669102,1.444386,0.4140153,-0.1809976,0.2578996,-0.07411152,-0.9332632,0.229538,-0.1094887,0.7546297,1.487207,0.2345521,0.317892,1.159853,0.2359018,291.5801,209.0726,17.66842,True
1,0.8222231,-0.7267854,0.3405972,0.02416673,-1.290141,-4.199931,-2.656922,0.5450444,1.258746,0.4495976,-1.224319,-0.002536762,1.3,16.6,-0.4057454,0.1464864,0.02840613,-0.6009215,-4.543729,0.1171828,0.666237,1.444392,0.4139307,-0.1832023,0.245099,-0.08043869,-0.934688,0.2322093,-0.108971,0.754807,1.487103,0.234844,0.3157862,1.163033,0.2347852,291.1025,208.6091,18.23629,True
1,0.8333342,-0.7023546,0.375931,0.0388484,-1.294108,-4.204763,-2.648305,0.5437581,1.259333,0.4490912,-1.225106,-0.07206839,1.3,16.6,-0.401452,0.160349,0.02528925,-0.6004821,-4.539665,0.1181969,0.6655822,1.444429,0.413888,-0.1790723,0.2333277,-0.09321811,-0.9364244,0.2347141,-0.1085864,0.7549418,1.487002,0.235086,0.3136069,1.166177,0.2338213,290.6588,208.3423,18.64004,True
1,0.8444453,-0.6863418,0.3835253,0.05261046,-1.297356,-4.208499,-2.640165,0.5423455,1.259877,0.4483387,-1.224877,0.02147346,1.3,16.6,-0.4240221,0.1338776,0.01782245,-0.6004336,-4.538796,0.1230806,0.6649588,1.444475,0.4137561,-0.1631666,0.2247599,-0.1007748,-0.937919,0.237386,-0.1089646,0.7550372,1.486979,0.2354074,0.3113473,1.169297,0.232987,290.1954,208.1588,18.97156,True
1,0.8555565,-0.6820752,0.3686195,0.04841942,-1.299626,-4.211865,-2.631378,0.5409939,1.260555,0.447506,-1.225155,-0.02569916,1.3,16.6,-0.4336993,0.1168878,0.01670298,-0.6002185,-4.537507,0.1271572,0.6643198,1.444518,0.4137342,-0.152551,0.2076902,-0.1029266,-0.9391771,0.2393706,-0.108845,0.7551692,1.486859,0.2356286,0.309056,1.172429,0.2323122,289.7538,208.153,19.1053,True
1,0.8666676,-0.6788438,0.3462017,0.0389252,-1.301071,-4.21461,-2.62327,0.5397342,1.260897,0.4465904,-1.225215,-0.005354367,1.3,20.3,-0.4300931,0.1165117,0.05821424,-0.5980245,-4.535794,0.1304344,0.6637462,1.444582,0.4136636,-0.1504139,0.207693,-0.1029456,-0.9405742,0.2421254,-0.1089374,0.7552733,1.486777,0.2358,0.3067217,1.175637,0.2317807,289.3074,208.314,19.12762,True
1,0.8777788,-0.6713368,0.3291653,0.03472683,-1.30279,-4.217258,-2.615674,0.5384458,1.261434,0.4456775,-1.224341,0.07979243,1.3,20.3,-0.3923525,0.1394535,0.09426866,-0.5954562,-4.532176,0.1305415,0.6633385,1.44465,0.4136431,-0.1493291,0.2023577,-0.0997058,-0.9413433,0.2442573,-0.1086516,0.755597,1.486819,0.2359228,0.3043306,1.178898,0.2312492,288.8425,208.3243,19.41311,True
1,0.8888899,-0.6585258,0.3099751,0.02625403,-1.304062,-4.219651,-2.608356,0.5372432,1.26188,0.4446657,-1.224666,-0.03049028,1.3,20.3,-0.3647642,0.1437067,0.08124885,-0.5947946,-4.529099,0.1311135,0.6628807,1.444672,0.4135137,-0.1545821,0.1832318,-0.08893847,-0.942073,0.245863,-0.1077661,0.7557074,1.48675,0.2360682,0.3019814,1.182197,0.2306084,288.381,208.0382,20.03561,True
1,0.900001,-0.6456716,0.2897806,0.02737892,-1.305576,-4.22176,-2.601233,0.536065,1.262397,0.4437418,-1.225111,-0.04031999,1.3,20.3,-0.3596177,0.1299468,0.06829183,-0.5944644,-4.527541,0.1335213,0.6623867,1.444693,0.4133987,-0.1512866,0.168346,-0.07712983,-0.9418951,0.2473896,-0.1074034,0.7558234,1.486426,0.2362063,0.2998204,1.185456,0.2298051,287.8747,207.461,20.89091,True
1,0.9111122,-0.6349826,0.2813027,0.02951077,-1.307339,-4.224103,-2.593914,0.53487,1.26303,0.4429543,-1.225235,-0.01113863,1.1,22.6,-0.3630672,0.1120034,0.05112461,-0.5943797,-4.526398,0.1367653,0.6619798,1.444717,0.413326,-0.1363041,0.1672865,-0.06980447,-0.9426504,0.2495763,-0.1077187,0.7559408,1.486354,0.2363884,0.2978933,1.188621,0.2288119,287.3756,206.8617,21.65965,True
1,0.9222233,-0.6296387,0.2770587,0.02844948,-1.309159,-4.226627,-2.586505,0.5336456,1.263587,0.4421246,-1.225212,0.002018605,1.1,22.6,-0.3590756,0.08762732,0.03489372,-0.5944223,-4.52592,0.1402128,0.6615024,1.444733,0.4131916,-0.126773,0.1651296,-0.0751996,-0.9437614,0.2517944,-0.1078471,0.7558002,1.486302,0.23647,0.2962168,1.191624,0.2276291,286.9156,206.1898,22.40397,True
1,0.9333345,-0.6338544,0.2632038,0.02960333,-1.310726,-4.228549,-2.57884,0.5325255,1.264143,0.4413683,-1.224928,0.02585753,1.1,22.6,-0.3614919,0.06543007,0.01660646,-0.594914,-4.525758,0.1441987,0.6610457,1.444812,0.4131641,-0.1193598,0.1619078,-0.07951549,-0.9449652,0.2537407,-0.107882,0.7558731,1.486289,0.2366743,0.2947674,1.194457,0.2263004,286.5342,205.5627,22.97618,True
1,0.9444456,-0.6423703,0.2503513,0.02011961,-1.311963,-4.230716,-2.570858,0.5314132,1.2647,0.440707,-1.224732,0.01762424,1.1,22.6,-0.3820131,0.04651684,-0.002529725,-0.5955616,-4.525751,0.1492191,0.6606106,1.444866,0.4130902,-0.1162398,0.1490995,-0.08583392,-0.9455905,0.2551913,-0.107589,0.7561301,1.486132,0.2368762,0.2934237,1.197176,0.2248896,286.2246,205.0096,23.37362,True
1,0.9555568,-0.6445003,0.2460661,0.01695535,-1.313425,-4.232877,-2.563129,0.5303195,1.265216,0.4399137,-1.224216,0.04697943,1.1,22.6,-0.3732492,0.05269048,0.01768073,-0.5944889,-4.524577,0.1518681,0.660189,1.444936,0.412904,-0.1142064,0.1479944,-0.09650183,-0.9471916,0.2569415,-0.107425,0.7562301,1.486075,0.2369974,0.2920803,1.19984,0.2234724,285.9319,204.4417,23.77855,True
1,0.9666679,-0.6370209,0.243972,0.0169282,-1.315004,-4.235184,-2.555919,0.5293669,1.26578,0.4391472,-1.22387,0.03124849,0.5,20.1,-0.3474471,0.07162109,0.03250585,-0.59343,-4.522224,0.152931,0.6597534,1.444984,0.4127476,-0.1078485,0.1362543,-0.09862688,-0.9481919,0.2580662,-0.1071611,0.7561992,1.486263,0.2370121,0.2907582,1.202502,0.2221376,285.6529,203.8158,24.27863,True
1,0.977779,-0.6221201,0.2514732,0.01684621,-1.316971,-4.237706,-2.548897,0.5283301,1.266294,0.438375,-1.224084,-0.01974382,0.5,20.1,-0.3323347,0.08529055,0.04526194,-0.5922939,-4.519949,0.1541885,0.6592504,1.445001,0.4126027,-0.1024971,0.1266663,-0.09330505,-0.9490036,0.2591977,-0.1067493,0.7562252,1.486271,0.2370532,0.2894094,1.205229,0.2209255,285.3742,203.1311,24.87929,True
1,0.9888902,-0.6072042,0.2568672,0.02102008,-1.318962,-4.240131,-2.541961,0.5272945,1.266884,0.4376738,-1.224643,-0.05094288,0.5,20.1,-0.3269365,0.0873425,0.05161611,-0.5913789,-4.518298,0.1563707,0.6588668,1.445019,0.4124193,-0.1013684,0.1203006,-0.08583828,-0.949875,0.260536,-0.1064884,0.7562842,1.486241,0.2371385,0.2880169,1.208064,0.2198445,285.0548,202.4821,25.52496,True
1,1.000001,-0.6007831,0.2611975,0.0284318,-1.321197,-4.242453,-2.535019,0.5262945,1.267516,0.4369869,-1.224872,-0.02062379,0.5,20.1,-0.3238263,0.07028046,0.05144682,-0.5906662,-4.518162,0.1599103,0.6585938,1.445014,0.4123645,-0.09801565,0.1224775,-0.06877989,-0.9496118,0.2622242,-0.1065757,0.7565454,1.486122,0.2372897,0.2866304,1.210998,0.2189198,284.6837,201.7991,26.26105,True
1,1.011112,-0.5996534,0.2463188,0.03490707,-1.323007,-4.243981,-2.527939,0.5253024,1.268102,0.4363706,-1.224849,0.002193195,0.5,20.1,-0.3325089,0.05655691,0.04182358,-0.5905091,-4.51786,0.1636797,0.6582307,1.445071,0.412231,-0.09154356,0.117175,-0.05923244,-0.9500753,0.2636037,-0.1065933,0.756574,1.486103,0.2374187,0.2851996,1.213996,0.2181204,284.2674,201.0766,27.05916,True
1,1.022224,-0.5963984,0.2314372,0.03710677,-1.324592,-4.24552,-2.521169,0.5242451,1.268633,0.4357615,-1.224706,0.01294816,0.4,21.1,-0.338195,0.01838806,0.02343922,-0.5910375,-4.519703,0.1691054,0.6579053,1.445142,0.4121327,-0.08524218,0.1054227,-0.06670869,-0.9511603,0.264442,-0.1062609,0.756353,1.486057,0.2375293,0.2837377,1.217023,0.217435,283.8502,200.3717,27.85931,True
1,1.033335,-0.5931605,0.218666,0.03822842,-1.326092,-4.246899,-2.514325,0.5232314,1.269276,0.4351468,-1.224273,0.03941179,0.4,21.1,-0.3489089,0.01207307,0.02029074,-0.5909991,-4.519894,0.173518,0.6575484,1.445307,0.412071,-0.08424144,0.09687677,-0.07308514,-0.9523299,0.2652483,-0.105878,0.7564089,1.485937,0.2375157,0.2822877,1.220049,0.216836,283.4394,199.6802,28.68168,True
1,1.044446,-0.569614,0.1825195,0.03833364,-1.326846,-4.24744,-2.508771,0.5222207,1.269995,0.4344759,-1.224482,-0.01947393,0.4,21.1,-0.344409,0.01611423,0.04265459,-0.5896841,-4.519666,0.1769766,0.6571264,1.445444,0.4119508,-0.08761905,0.08937217,-0.09115709,-0.9542511,0.2661006,-0.1051373,0.7562054,1.485956,0.2376502,0.2809013,1.223038,0.2162568,283.0438,198.8542,29.65483,True
1,1.055557,-0.567454,0.1718723,0.038386,-1.328085,-4.248432,-2.502422,0.5212383,1.27062,0.4338078,-1.224347,0.01256458,0.4,21.1,-0.3110284,0.0348998,0.06912331,-0.5878459,-4.518404,0.1780928,0.6568608,1.445647,0.4118173,-0.08445716,0.08083764,-0.09328718,-0.9553856,0.2666782,-0.1046252,0.7562157,1.485803,0.2376091,0.2795776,1.22596,0.2156326,282.6667,197.8923,30.73171,True
1,1.066668,-0.5492623,0.1420734,0.0342121,-1.328466,-4.248797,-2.497006,0.5203125,1.271365,0.4331617,-1.225334,-0.0904514,0.4,26.5,-0.2960984,0.04551417,0.06586541,-0.5871647,-4.517021,0.1797285,0.6564859,1.445739,0.4116197,-0.08114938,0.0808869,-0.07947755,-0.9559789,0.2678478,-0.1043549,0.7563188,1.485759,0.2377305,0.2783408,1.228811,0.2149242,282.3388,196.9761,31.74055,True
1,1.077779,-0.5375155,0.1196722,0.02257226,-1.328704,-4.249455,-2.491309,0.5193828,1.272019,0.4324815,-1.224279,0.09660202,0.4,26.5,-0.3089242,0.04453138,0.06278792,-0.5865447,-4.516518,0.1833208,0.6561537,1.445823,0.4113972,-0.08855884,0.08518644,-0.07304977,-0.9569004,0.268945,-0.1035312,0.7567207,1.485646,0.2378025,0.2772471,1.231532,0.2141098,282.0266,195.81,32.96096,True
1,1.08889,-0.5279148,0.1015242,0.01198675,-1.328884,-4.25003,-2.485527,0.5184194,1.272619,0.4317753,-1.224115,0.01329152,0.4,26.5,-0.3281009,0.05318063,0.05879089,-0.5858475,-4.515099,0.1864452,0.6557834,1.445873,0.4111767,-0.09594158,0.09906679,-0.06663716,-0.9575838,0.2708086,-0.1032585,0.7567645,1.485579,0.2378232,0.2762532,1.234084,0.2131768,281.741,194.7014,34.06522,True
1,1.100002,-0.5183057,0.09088206,0.01094627,-1.329421,-4.250491,-2.479826,0.5174294,1.273221,0.4311149,-1.222796,0.1195166,0.4,26.5,-0.3344832,0.05000615,0.05989525,-0.5850065,-4.514493,0.1896714,0.655423,1.445948,0.4110222,-0.1032893,0.1087189,-0.05489413,-0.9581164,0.2728555,-0.1029171,0.7569227,1.485534,0.2378922,0.2753839,1.23642,0.2121595,281.5094,193.4251,35.28782,True
1,1.111113,-0.5065648,0.07917367,0.00777179,-1.329702,-4.250896,-2.474407,0.5164647,1.273775,0.430387,-1.221079,0.1544915,0.4,26.5,-0.337597,0.05209073,0.06739494,-0.5839673,-4.513614,0.192864,0.6550099,1.446117,0.4109259,-0.1065329,0.1001843,-0.05910067,-0.9590443,0.2737321,-0.1021437,0.7569615,1.485433,0.2379594,0.2745416,1.238506,0.2110708,281.3236,192.125,36.48674,True
1,1.122224,-0.4947954,0.07821839,0.0205223,-1.330824,-4.251241,-2.469212,0.5155305,1.274245,0.4297991,-1.2192,0.1689771,0.4,27.2,-0.3246114,0.06896624,0.07913312,-0.5824397,-4.511825,0.1944177,0.6546698,1.446298,0.4108045,-0.1067316,0.0969314,-0.07933068,-0.9607481,0.2748863,-0.1014473,0.7570316,1.485427,0.2380157,0.2736475,1.240344,0.2099412,281.1801,191.0515,37.43452,True
1,1.133335,-0.4766955,0.09108806,0.02677169,-1.332083,-4.252124,-2.46424,0.5146463,1.274791,0.4291239,-1.217254,0.1748494,0.4,27.2,-0.3139145,0.08278841,0.07701212,-0.5814698,-4.509532,0.1956153,0.6542529,1.446458,0.4107969,-0.1089449,0.09903371,-0.0889056,-0.9621778,0.2761749,-0.1009125,0.7570481,1.485394,0.2381442,0.2726782,1.241959,0.2088203,281.0688,190.3179,38.05727,True
1,1.144446,-0.4692198,0.1028922,0.04051885,-1.33359,-4.252696,-2.459194,0.5138142,1.275435,0.4283357,-1.214995,0.2031766,0.4,27.2,-0.310835,0.08073437,0.06630961,-0.5809718,-4.508224,0.1978649,0.6538101,1.446529,0.4106903,-0.1088127,0.1107991,-0.07510021,-0.9627019,0.278119,-0.1007343,0.7573303,1.48537,0.2382243,0.2716637,1.243366,0.2077594,280.9823,189.7794,38.51415,True
1,1.155557,-0.4553607,0.1189911,0.05529889,-1.335644,-4.253452,-2.454361,0.5129714,1.276,0.4277978,-1.21262,0.2133755,0.4,27.2,-0.3090262,0.0628317,0.04162632,-0.5813393,-4.507879,0.2008774,0.6533183,1.44662,0.4105189,-0.1107062,0.1098333,-0.04844525,-0.9624579,0.2797104,-0.1003306,0.7574794,1.485355,0.2383165,0.270637,1.244594,0.2068159,280.8918,189.6032,38.62653,True
1,1.166668,-0.4447433,0.1403602,0.06153446,-1.337762,-4.254664,-2.449552,0.5121087,1.276515,0.4272976,-1.209552,0.2765808,1.9,29.2,-0.3208579,0.05442697,0.03420748,-0.5811529,-4.507366,0.2043688,0.6528777,1.446656,0.4103243,-0.1137978,0.09923308,-0.03559665,-0.9625341,0.2806872,-0.09957267,0.7575185,1.485307,0.2384336,0.2695553,1.245702,0.2059831,280.8186,189.7905,38.43381,True
1,1.17778,-0.4383617,0.1382371,0.05940641,-1.339246,-4.255402,-2.444648,0.5112623,1.276989,0.4267454,-1.206667,0.2592373,1.9,29.2,-0.3432884,0.05351371,0.02909896,-0.5807747,-4.50637,0.2081106,0.6523389,1.446713,0.4100757,-0.1169719,0.1067028,-0.03348695,-0.9633107,0.2823228,-0.09900008,0.7576239,1.485145,0.2385027,0.2684302,1.246766,0.2052323,280.7646,190.2531,38.00939,True
1,1.188891,-0.4341158,0.1339556,0.05303764,-1.340566,-4.256218,-2.439714,0.5103924,1.2774,0.4262745,-1.203559,0.2796789,1.9,29.2,-0.3624457,0.06856427,0.02408958,-0.580445,-4.504145,0.2109269,0.6517943,1.446742,0.4099278,-0.122332,0.113089,-0.03878805,-0.9641021,0.2841125,-0.09855533,0.7577026,1.485092,0.2386296,0.2673023,1.247828,0.2046003,280.6849,190.6508,37.62098,True
1,1.200002,-0.4319697,0.1211828,0.05206198,-1.341892,-4.256563,-2.434676,0.5094411,1.27783,0.4258556,-1.199982,0.3222815,1.9,29.2,-0.3633205,0.1026249,0.02759246,-0.5795539,-4.500431,0.2118933,0.6513628,1.446814,0.4097745,-0.1246173,0.1236887,-0.05691896,-0.9655999,0.2861577,-0.09817557,0.7577721,1.485092,0.2387056,0.2661344,1.248906,0.2040927,280.5671,190.8228,37.471,True
1,1.211113,-0.4223506,0.1084197,0.051034,-1.342751,-4.256785,-2.430343,0.5086098,1.278201,0.4253511,-1.196482,0.3148996,1.9,29.2,-0.3461289,0.1141858,0.0371041,-0.5785946,-4.497678,0.2127959,0.6508988,1.446899,0.4097197,-0.1278537,0.1311337,-0.06330872,-0.966696,0.2881182,-0.09788795,0.757811,1.485084,0.2389429,0.2649306,1.249983,0.2036744,280.4395,190.7485,37.61612,True
1,1.222224,-0.4095492,0.1084817,0.05525436,-1.344175,-4.257222,-2.426173,0.5077897,1.2787,0.4247258,-1.192741,0.3369272,2.2,30.4,-0.3003912,0.1001419,0.03547593,-0.5780492,-4.496781,0.213695,0.6504495,1.446891,0.409749,-0.1360843,0.1674591,-0.03568768,-0.9667951,0.2918289,-0.09809567,0.7578346,1.484925,0.2391503,0.2636994,1.251038,0.2033145,280.3104,190.5811,37.86144,True
1,1.233335,-0.3989039,0.1181282,0.06048885,-1.345891,-4.257917,-2.421988,0.507013,1.279115,0.4241686,-1.189797,0.2638752,2.2,30.4,-0.2834307,0.09585777,0.02887865,-0.5777616,-4.49519,0.2148755,0.6500233,1.446922,0.4096668,-0.1392136,0.1664258,-0.02819792,-0.9669975,0.2940359,-0.09773029,0.7578535,1.484948,0.2394273,0.2624597,1.252065,0.2029622,280.182,190.521,38.02168,True
1,1.244446,-0.3829306,0.1320638,0.06782112,-1.348064,-4.258759,-2.418165,0.5062116,1.279612,0.4236085,-1.18639,0.3068286,2.2,30.4,-0.2839701,0.06103906,-0.009765392,-0.5791992,-4.495596,0.2183462,0.6495109,1.446973,0.4095955,-0.1285917,0.1568343,-0.03041854,-0.9679185,0.2958701,-0.09768395,0.7577984,1.485062,0.2395542,0.2612841,1.253022,0.2025749,280.0587,190.4817,38.18725,True
1,1.255558,-0.3701388,0.1342495,0.07201833,-1.349733,-4.259321,-2.414259,0.505457,1.279944,0.4228506,-1.182673,0.3346601,2.2,30.4,-0.3134876,0.01799229,-0.0652537,-0.5820807,-4.496657,0.223848,0.6490284,1.447013,0.4093738,-0.1211679,0.1514871,-0.03366588,-0.9686199,0.2976108,-0.09761125,0.7578754,1.484961,0.2396016,0.2601565,1.253905,0.2020954,279.9445,190.6785,38.09072,True
1,1.266669,-0.3562615,0.1150739,0.06568235,-1.35052,-4.259455,-2.410631,0.5047659,1.280354,0.4222507,-1.179223,0.3099576,2.2,30.4,-0.3394301,0.003460437,-0.09601578,-0.5842342,-4.496744,0.2287011,0.6485622,1.447079,0.4091833,-0.1254871,0.1408328,-0.03471202,-0.9698364,0.2989025,-0.09629431,0.7582229,1.484914,0.2396648,0.2590812,1.254708,0.2015363,279.8411,191.0335,37.77083,True
1,1.27778,-0.347715,0.08946082,0.05407742,-1.350739,-4.259379,-2.406913,0.5040355,1.280706,0.4217606,-1.175226,0.3601729,1.8,42.9,-0.3889835,-0.003314972,-0.1478002,-0.5876217,-4.495795,0.2340045,0.6481024,1.447042,0.4088612,-0.1256275,0.1204578,-0.05487875,-0.9709821,0.2984655,-0.09551907,0.7579957,1.484391,0.2398398,0.258021,1.255438,0.2009069,279.7319,191.4212,37.40095,True
1,1.288891,-0.3252859,0.03290751,0.02661672,-1.349269,-4.258686,-2.404176,0.5034108,1.281084,0.421356,-1.171344,0.3490007,1.8,42.9,-0.4002486,0.03699285,-0.1207083,-0.587798,-4.492438,0.2360714,0.6475942,1.447227,0.4087751,-0.1344284,0.1150417,-0.08567591,-0.9730983,0.2996364,-0.09442078,0.7581101,1.484346,0.239985,0.2570008,1.256053,0.200201,279.6362,191.5973,37.26794,True
1,1.300002,-0.312446,0.01056228,0.02456804,-1.349101,-4.258116,-2.401228,0.5028284,1.281432,0.420882,-1.167042,0.3874801,1.8,42.9,-0.3760544,0.06830716,-0.05994957,-0.5860046,-4.489913,0.2371572,0.647214,1.447338,0.4086599,-0.1409735,0.1331002,-0.104804,-0.9744208,0.3022019,-0.09404101,0.7577091,1.484382,0.2400696,0.2561094,1.256502,0.1994685,279.603,191.5072,37.35412,True
1,1.311113,-0.2858159,0.02240149,0.03292892,-1.350006,-4.258128,-2.398992,0.5023965,1.281687,0.4203382,-1.163545,0.3135338,1.8,42.9,-0.2934806,0.05568439,-0.0001506871,-0.5839844,-4.490426,0.2378155,0.6467806,1.447446,0.4085286,-0.1578592,0.1342655,-0.08759815,-0.9749039,0.3041074,-0.09289265,0.7577566,1.48425,0.2403021,0.2553507,1.256758,0.1987469,279.6317,191.2471,37.55744,True
1,1.322224,-0.2614067,0.0715398,0.04428843,-1.352473,-4.259434,-2.396711,0.5019101,1.281868,0.4197671,-1.158989,0.4108039,4.7,56.3,-0.262418,0.04896989,0.01973253,-0.5830693,-4.490381,0.2395516,0.6462491,1.447533,0.4083126,-0.1598656,0.1300526,-0.0726624,-0.9753295,0.3056009,-0.09185882,0.7579279,1.484366,0.240396,0.2547533,1.256772,0.1980819,279.7142,190.8881,37.83481,True
1,1.333336,-0.2307295,0.1964653,0.07969306,-1.358429,-4.262954,-2.394531,0.5017042,1.281705,0.4191346,-1.15521,0.3388101,4.7,56.3,-0.2902108,0.05347243,0.008320852,-0.5833042,-4.488677,0.2424228,0.645661,1.447584,0.4080565,-0.1735975,0.1396924,-0.06086518,-0.9759346,0.3076453,-0.09064841,0.7581495,1.484436,0.2404792,0.2541959,1.256581,0.19744,279.7812,191.3216,37.33225,True
1,1.344447,-0.2075638,0.3448259,0.1181888,-1.366299,-4.267799,-2.391987,0.5014747,1.281474,0.4186337,-1.150824,0.3949538,4.7,56.3,-0.3223701,0.06663632,-0.01788166,-0.5840642,-4.486137,0.2449064,0.6451167,1.44758,0.4078093,-0.1788048,0.1429398,-0.04804557,-0.9761881,0.3096797,-0.08963507,0.7581247,1.484435,0.2406344,0.2535976,1.256223,0.1968249,279.8103,192.3539,36.2482,True
1,1.355558,-0.2077566,0.4568679,0.1505889,-1.37415,-4.272347,-2.388716,0.5011468,1.281225,0.4184642,-1.14659,0.3804028,4.7,56.3,-0.3618795,0.1096984,-0.04695493,-0.5849681,-4.480643,0.2456822,0.6445937,1.447599,0.4076242,-0.1754816,0.1419158,-0.03316612,-0.9763266,0.3113941,-0.08876609,0.7583082,1.484437,0.2407677,0.2528126,1.255762,0.1962856,279.7876,194.016,34.52112,True
1,1.366669,-0.2194644,0.4750356,0.1665149,-1.379843,-4.274935,-2.385462,0.5007474,1.280938,0.4182525,-1.141509,0.4578889,4.7,56.3,-0.352047,0.1372485,-0.03510262,-0.5844136,-4.476319,0.2455672,0.6440673,1.447547,0.4074829,-0.167933,0.1461995,-0.0236604,-0.9763708,0.3134968,-0.08838925,0.7583336,1.484375,0.2408795,0.2517988,1.255246,0.1959992,279.6476,196.5228,31.96962,True
1,1.37778,-0.2342884,0.4505402,0.1763223,-1.384221,-4.275948,-2.382055,0.5002455,1.280779,0.4183249,-1.135506,0.5412733,8.2,43.9,-0.2995189,0.1709305,-0.01720273,-0.5830991,-4.471293,0.2428201,0.6436741,1.44748,0.4074185,-0.1584127,0.1568071,-0.03230239,-0.9772198,0.3159023,-0.08823452,0.7584065,1.484245,0.2408652,0.2504961,1.254724,0.1961161,279.4742,199.6143,28.89596,True
1,1.388891,-0.24591,0.402515,0.167046,-1.387253,-4.276903,-2.378722,0.4997455,1.280741,0.4180181,-1.129806,0.5130402,8.2,43.9,-0.2306346,0.1356218,-0.03736971,-0.5841271,-4.470395,0.2422047,0.643307,1.447305,0.4073894,-0.1531312,0.1589118,-0.03768372,-0.9779927,0.3180362,-0.08792932,0.7584449,1.484175,0.2409601,0.2489576,1.254232,0.1966991,279.3384,202.6965,26.00045,True
1,1.400002,-0.2416202,0.3640562,0.1459398,-1.389691,-4.278224,-2.375977,0.4992232,1.280806,0.4176705,-1.124054,0.5180705,8.2,43.9,-0.189839,0.08261257,-0.08937643,-0.5871114,-4.470785,0.243214,0.6429399,1.447202,0.4072897,-0.1552218,0.1504107,-0.03123777,-0.978097,0.3195816,-0.08690214,0.7583203,1.484014,0.2410836,0.2473541,1.253758,0.1976151,279.2556,205.2283,23.86242,True
1,1.411114,-0.2202237,0.2936411,0.1164287,-1.390285,-4.278571,-2.374266,0.4986042,1.281106,0.4172778,-1.118761,0.4759933,8.2,43.9,-0.1711367,0.04122646,-0.11763,-0.5896068,-4.471329,0.24503,0.6426092,1.447011,0.4072168,-0.1488541,0.1493278,-0.03449118,-0.9787676,0.3215168,-0.08665393,0.758341,1.483961,0.241174,0.2458223,1.253313,0.1986326,279.224,207.474,22.10861,True
1,1.422225,-0.2030625,0.1911394,0.06901169,-1.388974,-4.278157,-2.372842,0.4978872,1.281706,0.4169893,-1.113901,0.436442,8.2,46.3,-0.1696653,-0.01489946,-0.1575473,-0.5930306,-4.473517,0.2487893,0.6423367,1.446961,0.4071469,-0.1350797,0.1407576,-0.04097539,-0.9795431,0.3229307,-0.08633596,0.7583379,1.483843,0.2413428,0.2443495,1.252927,0.1994503,279.2302,209.3776,20.70491,True
1,1.433336,-0.1965937,0.1324367,0.04588168,-1.388774,-4.278115,-2.370742,0.4972632,1.281996,0.4167521,-1.109038,0.4368966,8.2,46.3,-0.1866886,-0.02873398,-0.1489791,-0.5944239,-4.473839,0.2517529,0.6419515,1.446874,0.4070044,-0.1266034,0.1354049,-0.04529379,-0.9803154,0.3244663,-0.0860502,0.7583405,1.483794,0.2414801,0.2429831,1.252571,0.1999382,279.2561,210.7507,19.70589,True
1,1.444447,-0.2007253,0.04917299,0.01759882,-1.386629,-4.276986,-2.368564,0.4965371,1.282548,0.4164858,-1.10323,0.5230881,8.2,46.3,-0.2074037,-0.01097172,-0.0974813,-0.5937012,-4.473337,0.2544118,0.6415801,1.446911,0.4068661,-0.1074361,0.1385716,-0.0465323,-0.9808869,0.3264484,-0.08659028,0.7582271,1.483679,0.2416604,0.2417998,1.252151,0.2000424,279.3336,211.2798,19.38488,True
1,1.455558,-0.197426,-0.02124842,-0.005460169,-1.384502,-4.275898,-2.366526,0.4958946,1.282988,0.4163396,-1.096408,0.6150111,8.2,46.3,-0.2042131,0.03193147,-0.009781454,-0.5905592,-4.471294,0.254945,0.6411256,1.446962,0.4066913,-0.09778377,0.1439121,-0.0402492,-0.981337,0.3286418,-0.08697378,0.7582024,1.483624,0.2417276,0.2408426,1.251572,0.1997966,279.48,211.1593,19.51038,True
1,1.466669,-0.2005772,-0.0468668,-0.01276217,-1.383245,-4.275148,-2.364336,0.4951931,1.283503,0.4160783,-1.089755,0.5986888,8.2,46.3,-0.2013199,0.06868738,0.05016886,-0.5876819,-4.468969,0.2551212,0.6407257,1.447064,0.4065292,-0.09453811,0.1524446,-0.03604633,-0.9817663,0.3309843,-0.08734236,0.7581515,1.483583,0.2418783,0.2400742,1.250791,0.1992928,279.6507,211.2391,19.30653,True
1,1.47778,-0.2037272,-0.07141215,-0.02006924,-1.382008,-4.274426,-2.362194,0.4944515,1.284117,0.4158273,-1.083505,0.5621586,7.2,41.9,-0.2095602,0.08879979,0.06960563,-0.5860291,-4.466772,0.2559348,0.6403862,1.447069,0.4064136,-0.08593778,0.1524664,-0.02653016,-0.9818223,0.3329981,-0.08769816,0.7580223,1.483504,0.242079,0.2394427,1.249818,0.1985811,279.932,211.1246,19.24109,True
1,1.488891,-0.2069095,-0.06926171,-0.01474267,-1.381526,-4.273897,-2.35988,0.4936896,1.284754,0.4154875,-1.076988,0.5867826,7.2,41.9,-0.2298976,0.07507612,0.0664877,-0.5854081,-4.466439,0.2589152,0.6400561,1.447197,0.4063177,-0.08589782,0.1397049,-0.02009447,-0.9819043,0.3343089,-0.08748564,0.757961,1.483468,0.2421937,0.238917,1.248683,0.1977802,280.274,211.0941,19.03066,True
1,1.500003,-0.2111835,-0.06822001,-0.01686448,-1.3809,-4.273588,-2.357455,0.4929153,1.285364,0.4151649,-1.070508,0.5829986,7.2,41.9,-0.2534763,0.04536785,0.06539579,-0.5849282,-4.467757,0.2634796,0.6397617,1.447114,0.4062042,-0.07107914,0.1151673,-0.02653857,-0.9825174,0.3348624,-0.08744676,0.7579254,1.48348,0.2422717,0.2383294,1.247488,0.196951,280.6512,211.5453,18.33138,True
1,1.511114,-0.2133127,-0.06715654,-0.0157965,-1.380314,-4.273152,-2.355078,0.4921491,1.28598,0.4148583,-1.063794,0.6044943,7.2,41.9,-0.2459194,0.03669083,0.07909954,-0.5835556,-4.468079,0.2661214,0.6394167,1.447125,0.4061384,-0.06793807,0.1119482,-0.03295158,-0.9832737,0.336219,-0.08763824,0.7578485,1.483478,0.2423751,0.237603,1.246326,0.1961748,281.0464,212.2058,17.46526,True
1,1.522225,-0.2388923,-0.07901545,-0.02947875,-1.378999,-4.272788,-2.351743,0.4912771,1.286532,0.4146168,-1.057076,0.6047001,9.9,42.9,-0.2393138,0.04181962,0.0982563,-0.5817324,-4.467811,0.268322,0.6390384,1.447082,0.406009,-0.07651363,0.1066156,-0.03712026,-0.9839933,0.3373647,-0.08700334,0.757773,1.483449,0.2423825,0.2367043,1.245283,0.1955087,281.4118,212.9756,16.56764,True
1,1.533336,-0.2559138,-0.09292818,-0.03253426,-1.377696,-4.272069,-2.348458,0.4903582,1.287174,0.4143634,-1.050415,0.5993434,9.9,42.9,-0.2339916,0.05143125,0.09295671,-0.5807731,-4.466544,0.269648,0.6386982,1.447055,0.4058316,-0.07429615,0.1045193,-0.02754519,-0.9840689,0.3387538,-0.08707045,0.7576863,1.483448,0.2425046,0.2356751,1.244393,0.1950143,281.7209,213.6016,15.88848,True
1,1.544447,-0.2910604,-0.1069214,-0.04085241,-1.37598,-4.271408,-2.344176,0.4894526,1.287776,0.4140182,-1.042908,0.6770148,9.9,42.9,-0.2277166,0.05792315,0.07803618,-0.5802048,-4.465168,0.2707766,0.6382972,1.447024,0.4057353,-0.05808143,0.1109893,-0.001082311,-0.9833051,0.3407247,-0.0879501,0.7577003,1.483508,0.2425506,0.2345657,1.243654,0.1947127,281.9624,214.0133,15.48573,True
1,1.555558,-0.3091859,-0.09952848,-0.04188747,-1.375073,-4.271056,-2.340432,0.4884871,1.288381,0.4134834,-1.036356,0.5889902,9.9,42.9,-0.225006,0.0326615,0.04156151,-0.5810937,-4.465642,0.2736819,0.6379083,1.447039,0.4056239,-0.05267316,0.1152794,0.008433181,-0.9831975,0.3425342,-0.08840869,0.7577162,1.483513,0.2426057,0.2333465,1.243074,0.1945588,282.1865,214.2585,15.29102,True
1,1.566669,-0.3209561,-0.07396521,-0.03666147,-1.374891,-4.271219,-2.336433,0.4876003,1.289018,0.4130921,-1.029082,0.6561233,9.9,42.9,-0.2221011,0.01578872,0.02007776,-0.581718,-4.466104,0.2764364,0.6375263,1.447022,0.4055104,-0.05045318,0.1248933,0.01690301,-0.9828374,0.3446478,-0.08909339,0.7575978,1.483494,0.2426615,0.2320454,1.242671,0.1944877,282.3854,214.4743,15.18626,True
1,1.577781,-0.3316495,-0.06015163,-0.03776754,-1.374409,-4.271408,-2.332441,0.486721,1.289642,0.4127071,-1.023377,0.5119214,12.4,48,-0.2190639,0.005209401,0.009304095,-0.581939,-4.466574,0.2792007,0.637049,1.447044,0.405324,-0.04837889,0.1312714,0.01046362,-0.983247,0.3467918,-0.08967876,0.7575383,1.483474,0.2426934,0.2306596,1.242473,0.194383,282.5706,214.7329,15.09669,True
1,1.588892,-0.3508887,-0.03462148,-0.0357132,-1.374535,-4.272025,-2.327736,0.4858675,1.29029,0.4123638,-1.017142,0.5617431,12.4,48,-0.2415012,-0.006390318,0.00835594,-0.5820035,-4.467273,0.2832647,0.6366301,1.447088,0.4051564,-0.05162912,0.1333844,0.004093459,-0.9835661,0.3486493,-0.0900239,0.7574713,1.483458,0.2427275,0.2292346,1.242484,0.1941754,282.6925,215.0643,14.92539,True
1,1.600003,-0.3690501,-0.01337074,-0.03469588,-1.374634,-4.27253,-2.322997,0.4849659,1.290987,0.4119942,-1.011002,0.5524988,12.4,48,-0.2540039,0.01054053,0.02781244,-0.5807886,-4.466691,0.2859092,0.6362609,1.447266,0.4049382,-0.05058795,0.1291492,0.003029706,-0.9838032,0.3506731,-0.09047717,0.7574855,1.483526,0.2427585,0.2278824,1.24267,0.1939059,282.7602,215.3793,14.70456,True
1,1.611114,-0.3871725,0.004742529,-0.02407648,-1.375129,-4.272905,-2.318015,0.484059,1.291743,0.4116173,-1.004279,0.6059758,12.4,48,-0.2587578,0.02931376,0.07704289,-0.5779768,-4.466308,0.2885897,0.6359458,1.447377,0.4047313,-0.04951841,0.1153054,0.005193941,-0.9837685,0.3515957,-0.09054375,0.7574489,1.483471,0.2427177,0.2266267,1.242979,0.1935968,282.7919,215.4835,14.63362,True
1,1.622225,-0.3967681,0.01541956,-0.01770528,-1.375543,-4.273103,-2.313295,0.4831609,1.2925,0.4112108,-0.9981144,0.5544388,12.4,48,-0.2616181,0.03117061,0.1101143,-0.5756428,-4.466763,0.291948,0.6356107,1.447493,0.4045479,-0.05488919,0.09935478,0.004219139,-0.9840146,0.3526305,-0.09014001,0.7574633,1.483469,0.2427478,0.2254093,1.243399,0.1932606,282.8255,215.638,14.47354,True
1,1.633336,-0.4127539,0.01534417,-0.01870101,-1.37552,-4.273402,-2.308133,0.4822575,1.293415,0.4108171,-0.9918496,0.5641556,15.6,58.3,-0.263768,0.02156453,0.1132545,-0.5744172,-4.467679,0.2957829,0.6353101,1.447575,0.4043477,-0.04960124,0.1014787,0.0009522587,-0.984454,0.3542337,-0.09045586,0.7574905,1.483468,0.2428057,0.2241784,1.24393,0.1928938,282.8608,215.8329,14.27776,True
1,1.644447,-0.426584,-0.0006973408,-0.02602673,-1.374745,-4.273428,-2.302979,0.4813279,1.294329,0.4103894,-0.9860759,0.5191066,15.6,58.3,-0.26829,-0.01776436,0.1054975,-0.5739884,-4.470892,0.3015814,0.6350167,1.447653,0.4040802,-0.03150452,0.1131872,-0.002454888,-0.9849014,0.3566026,-0.0920005,0.7574997,1.483472,0.2428379,0.222931,1.244571,0.1924919,282.8899,216.1102,14.02591,True
1,1.655559,-0.4425906,-0.01470995,-0.04505948,-1.373539,-4.273738,-2.297621,0.4803825,1.295185,0.4097664,-0.9797157,0.573157,15.6,58.3,-0.2770274,-0.04748781,0.09786322,-0.5737296,-4.473938,0.3074814,0.6345798,1.44771,0.403831,-0.02406292,0.1206185,-0.005730663,-0.9849829,0.3584177,-0.09302342,0.7571037,1.483431,0.2427962,0.2216987,1.245295,0.1920533,282.9023,216.2968,13.8769,True
1,1.66667,-0.4628511,-0.0255004,-0.05877339,-1.372351,-4.274147,-2.291749,0.4793919,1.29613,0.4092863,-0.9736773,0.543259,15.6,58.3,-0.2822621,-0.04754159,0.1074968,-0.5725045,-4.475559,0.3121699,0.6341172,1.447824,0.4035454,-0.03253132,0.1249101,-0.0003428916,-0.9849547,0.3602706,-0.09341756,0.7570451,1.48345,0.2427554,0.220473,1.246092,0.191575,282.9373,216.3017,13.89501,True
1,1.677781,-0.4714471,-0.01386824,-0.07052841,-1.371765,-4.275178,-2.286144,0.4783945,1.297051,0.4086046,-0.9675946,0.54761,18,83.3,-0.2895051,-0.02950828,0.1205134,-0.5706664,-4.476013,0.315938,0.6336792,1.447985,0.4032362,-0.05375503,0.1207048,0.009455815,-0.984494,0.361581,-0.09282634,0.7569422,1.48343,0.2426879,0.2192322,1.246937,0.1910436,282.9624,216.0416,14.1795,True
1,1.688892,-0.4853206,-0.006458662,-0.07158372,-1.371351,-4.275925,-2.280186,0.4773352,1.298022,0.4081404,-0.9611775,0.578133,18,83.3,-0.3180209,0.01105726,0.1264751,-0.5686957,-4.474303,0.3189745,0.6331406,1.448149,0.4029219,-0.06968247,0.1164883,0.01600517,-0.9841807,0.3629951,-0.09228493,0.7568728,1.48343,0.2426779,0.2179326,1.2478,0.1904445,282.9824,215.6639,14.56821,True
1,1.700003,-0.4949105,-0.005387358,-0.06943679,-1.370957,-4.276733,-2.274101,0.4762728,1.299136,0.4077544,-0.9556205,0.4992211,18,83.3,-0.3421016,0.05680013,0.1473549,-0.5658296,-4.471907,0.3215607,0.6327248,1.448309,0.4026043,-0.08449057,0.125067,0.0257031,-0.9836604,0.3651338,-0.09217813,0.7567852,1.483375,0.2426283,0.2165564,1.248698,0.1898137,283.0328,215.4318,14.78293,True
1,1.711114,-0.506606,-0.01073106,-0.06723548,-1.370318,-4.277049,-2.267963,0.4750483,1.300287,0.4072628,-0.949239,0.5751742,18,83.3,-0.3418921,0.06838116,0.1634261,-0.563282,-4.471252,0.3248135,0.6322765,1.448396,0.4022691,-0.07912254,0.1442033,0.02561764,-0.9831874,0.3673616,-0.09302261,0.7564485,1.483309,0.2427113,0.2150859,1.249641,0.18919,283.0688,215.3515,14.84844,True
1,1.722225,-0.5310187,-0.04170071,-0.066962,-1.368782,-4.276446,-2.261431,0.4737752,1.301517,0.4065547,-0.9429407,0.566731,18,83.3,-0.3335724,0.04178116,0.1556613,-0.5619131,-4.47283,0.3295513,0.6318525,1.44855,0.401979,-0.06528527,0.1431146,0.02443198,-0.9830952,0.3692461,-0.09380799,0.7563772,1.483279,0.2427473,0.2135779,1.250634,0.1886496,283.119,215.3707,14.80491,True
1,1.733337,-0.5395266,-0.06416716,-0.07958142,-1.366985,-4.2765,-2.25506,0.4725529,1.302793,0.4059396,-0.9365464,0.5756409,17.2,81.9,-0.3413925,0.01111419,0.133092,-0.5616031,-4.475061,0.3354843,0.6315017,1.448691,0.4016829,-0.07717633,0.1409008,0.004320337,-0.9836071,0.3705108,-0.09339786,0.7563251,1.48329,0.242815,0.2120237,1.25171,0.188209,283.1847,215.408,14.77338,True
1,1.744448,-0.5437874,-0.07809083,-0.09013931,-1.365109,-4.276717,-2.248744,0.4713622,1.304073,0.405359,-0.9296494,0.6214094,17.2,81.9,-0.3640305,-0.01849599,0.1202712,-0.561176,-4.477843,0.3427432,0.631098,1.44883,0.4013839,-0.0975242,0.1387584,-0.007208565,-0.9842218,0.3722491,-0.09259918,0.7562916,1.483271,0.2428422,0.2103597,1.252879,0.187777,283.2322,215.389,14.89326,True
1,1.755559,-0.5469493,-0.110151,-0.1069956,-1.362248,-4.276648,-2.24261,0.4701659,1.305505,0.4046514,-0.9233899,0.5625581,17.2,81.9,-0.3714547,-0.02382736,0.1256202,-0.5597134,-4.479324,0.3483337,0.6306488,1.449039,0.4010162,-0.1038798,0.1376961,-0.003926151,-0.9839155,0.373844,-0.09225296,0.7565099,1.483217,0.2428932,0.2086341,1.254135,0.1872355,283.285,215.1947,15.25149,True
1,1.76667,-0.5565093,-0.1390314,-0.1217094,-1.359143,-4.276518,-2.23604,0.4689007,1.306898,0.4041188,-0.9168203,0.5913498,17.2,81.9,-0.3733646,-0.01224181,0.1427815,-0.5576393,-4.480116,0.353321,0.6301813,1.449224,0.4007354,-0.09646713,0.1461874,-0.01041429,-0.9844055,0.3761338,-0.09271848,0.7564961,1.483218,0.2429945,0.2069596,1.255453,0.1866091,283.3257,214.7586,15.77427,True
1,1.777781,-0.5607377,-0.1550392,-0.1258699,-1.356478,-4.2764,-2.229734,0.4677042,1.308174,0.4032009,-0.9100602,0.6082935,15.7,81.8,-0.3719777,0.005661786,0.1663591,-0.5549367,-4.480495,0.3576852,0.6296399,1.449429,0.4004524,-0.09752336,0.1546993,-0.01041108,-0.9844306,0.3783509,-0.0928077,0.756518,1.483254,0.2430384,0.2053678,1.256789,0.1859418,283.354,214.2139,16.34004,True
1,1.788892,-0.5670743,-0.1720874,-0.1236217,-1.353675,-4.275867,-2.223226,0.4664291,1.309551,0.4026661,-0.9024505,0.6855761,15.7,81.8,-0.3717769,0.002278253,0.1886947,-0.5522522,-4.482454,0.3635529,0.6291416,1.449586,0.4001443,-0.1026837,0.1664748,0.005587134,-0.9838766,0.3810222,-0.0930085,0.7564479,1.483214,0.2430673,0.2038339,1.258086,0.1852365,283.402,213.4366,17.10517,True
1,1.800003,-0.5702461,-0.1731501,-0.1193391,-1.351358,-4.275543,-2.216855,0.4651457,1.31086,0.4017217,-0.8952477,0.6475824,15.7,81.8,-0.3986769,-0.01340783,0.1696494,-0.5512956,-4.484497,0.3707216,0.6285565,1.449783,0.3998733,-0.1025636,0.1633259,0.01944625,-0.9833653,0.3831977,-0.09306123,0.756384,1.4832,0.2431791,0.2022995,1.259301,0.1845009,283.4624,212.6838,17.84336,True
1,1.811115,-0.5670254,-0.1719994,-0.1108572,-1.349155,-4.275231,-2.210738,0.4639394,1.312125,0.4008656,-0.8873562,0.7107879,15.7,81.8,-0.4105662,-0.01854712,0.1547967,-0.550371,-4.48598,0.3768959,0.628103,1.449867,0.3995907,-0.09935611,0.1665092,0.02047096,-0.9833094,0.3853645,-0.09325165,0.7563246,1.483236,0.2433186,0.2007415,1.260389,0.1837012,283.5221,212.1171,18.42931,True
1,1.822226,-0.5627503,-0.1688074,-0.1066063,-1.347182,-4.274979,-2.204643,0.4627057,1.313437,0.4002414,-0.8795627,0.7009678,15.7,81.8,-0.42162,-0.02776831,0.1186016,-0.550469,-4.487123,0.3829708,0.6275713,1.450036,0.3992841,-0.1015743,0.1654142,0.01090652,-0.9836359,0.3875147,-0.09327216,0.7562967,1.483238,0.2434094,0.1991833,1.261328,0.182863,283.632,211.716,18.82934,True
1,1.833337,-0.5584822,-0.1688231,-0.1065993,-1.345012,-4.274748,-2.198647,0.4614517,1.31458,0.3992546,-0.8716004,0.7163748,15.5,62.5,-0.4206811,-0.02231792,0.1037262,-0.5497936,-4.487701,0.3881262,0.62703,1.450172,0.3989656,-0.1101931,0.1664546,-0.0007227147,-0.9840343,0.3898315,-0.09313846,0.7564602,1.483234,0.2434986,0.1975702,1.262115,0.1819311,283.7634,211.5073,19.07342,True
1,1.844448,-0.5552638,-0.1794291,-0.1065739,-1.342326,-4.274338,-2.192681,0.4603021,1.315753,0.3987105,-0.8631497,0.7606894,15.5,62.5,-0.4260072,-0.01266173,0.09959141,-0.5489068,-4.487845,0.3931832,0.626457,1.450358,0.3986244,-0.1284307,0.1568491,-0.01331019,-0.9847246,0.3914555,-0.09196614,0.7564926,1.483228,0.243593,0.1960089,1.262729,0.1809783,283.9236,211.3351,19.23173,True
1,1.855559,-0.5520278,-0.191146,-0.1065044,-1.33969,-4.273832,-2.186757,0.4592219,1.316942,0.3981888,-0.8545141,0.777061,15.5,62.5,-0.4278889,-3.71933E-05,0.1188993,-0.5468999,-4.488657,0.3987367,0.6258953,1.450512,0.3983231,-0.1316681,0.1642752,-0.01862772,-0.985172,0.3936159,-0.09157918,0.7564676,1.483155,0.24367,0.1944833,1.263173,0.1800583,284.1068,211.2227,19.29559,True
1,1.86667,-0.5509343,-0.1921809,-0.1001052,-1.337356,-4.273296,-2.180752,0.4581648,1.317984,0.3977454,-0.845583,0.8039228,15.5,62.5,-0.4016856,0.04099521,0.1637458,-0.5430921,-4.487941,0.401733,0.6253621,1.450649,0.3980272,-0.1295451,0.1727873,-0.02080628,-0.9856924,0.3962491,-0.09165721,0.7564517,1.483117,0.2437532,0.1929466,1.263434,0.1791613,284.303,211.0621,19.42851,True
1,1.877781,-0.5424278,-0.1729188,-0.09067002,-1.335885,-4.273248,-2.175148,0.4572441,1.31916,0.3969972,-0.8365106,0.8164313,13.5,57.6,-0.3715181,0.05552529,0.1912729,-0.5399234,-4.488371,0.4051885,0.6248866,1.45083,0.3976734,-0.1463818,0.1941854,-0.001532665,-0.985181,0.3998188,-0.09155921,0.7564598,1.483191,0.2437487,0.1915277,1.263511,0.1784169,284.5558,210.8622,19.55781,True
1,1.888893,-0.5254315,-0.1312395,-0.0728463,-1.335804,-4.273413,-2.169809,0.4562993,1.320107,0.3965197,-0.8272055,0.8376203,13.5,57.6,-0.3618143,0.05217011,0.2049929,-0.5373007,-4.489614,0.4100469,0.6243665,1.450936,0.3973401,-0.1547589,0.1921249,0.01452934,-0.9846958,0.4024496,-0.0910335,0.7564216,1.483193,0.2438941,0.1901963,1.26344,0.177848,284.8409,210.7993,19.56322,True
1,1.900004,-0.502076,-0.06602885,-0.0445427,-1.337045,-4.273878,-2.16485,0.4554631,1.320998,0.3956289,-0.8183686,0.7945117,13.5,57.6,-0.3602092,0.01947542,0.1663392,-0.5370429,-4.491641,0.4156537,0.6238861,1.451076,0.3970141,-0.159963,0.1975033,0.02735342,-0.9840534,0.4053424,-0.09069928,0.7564526,1.483306,0.2440207,0.188873,1.263274,0.1774148,285.1354,211.0562,19.32409,True
1,1.911115,-0.487173,-0.05098578,-0.03297263,-1.336845,-4.273905,-2.159686,0.4545396,1.321966,0.3953063,-0.8092681,0.818935,13.5,57.6,-0.3617113,0.000621736,0.129964,-0.5370845,-4.492846,0.4206657,0.6233141,1.451228,0.3967097,-0.1534892,0.2145625,0.03362131,-0.9839469,0.4089484,-0.09124043,0.7564662,1.483175,0.2441628,0.187509,1.263079,0.1770442,285.4189,211.6191,18.85093,True
1,1.922226,-0.4701204,-0.03702395,-0.02032583,-1.337045,-4.273796,-2.155034,0.4536024,1.32276,0.3948157,-0.8001468,0.8205097,13.5,57.6,-0.3526751,-0.01391056,0.08074132,-0.5380437,-4.493348,0.4247262,0.6227406,1.451319,0.3964422,-0.1440143,0.2166367,0.02074478,-0.9843416,0.4119234,-0.09160928,0.7565197,1.483191,0.2442808,0.1861126,1.262869,0.1767227,285.6234,212.454,18.13613,True
1,1.933337,-0.4520239,-0.03591807,-0.02360093,-1.336465,-4.274062,-2.150495,0.4526601,1.323548,0.394268,-0.7903122,0.8858605,11.2,52.9,-0.3283841,-0.008487493,0.05604325,-0.5380816,-4.493078,0.4272784,0.6220889,1.45144,0.3961902,-0.1442443,0.1963181,-0.002614304,-0.985148,0.4136327,-0.09102445,0.7564292,1.483113,0.2443461,0.1847036,1.262636,0.1763838,285.7849,213.3443,17.39183,True
1,1.944448,-0.4392441,-0.04016624,-0.0278855,-1.335724,-4.274133,-2.146043,0.451728,1.324325,0.3938677,-0.7812372,0.8158551,11.2,52.9,-0.3228829,0.01058778,0.06467838,-0.5368549,-4.492542,0.4302068,0.621443,1.451569,0.3959241,-0.1464606,0.1899008,-0.01109556,-0.9857286,0.4158407,-0.09054375,0.7564323,1.483116,0.2444158,0.1833751,1.262352,0.1760848,285.9843,213.831,16.95775,True
1,1.955559,-0.4242785,-0.04648231,-0.02151703,-1.335016,-4.273753,-2.14204,0.4508345,1.324921,0.3929148,-0.7720158,0.829986,11.2,52.9,-0.3107177,0.04972045,0.09047107,-0.5342429,-4.490831,0.4316806,0.6208115,1.45167,0.3956478,-0.1581149,0.1984589,-0.00568468,-0.9856902,0.4189439,-0.09015279,0.7564415,1.482952,0.2445989,0.1820683,1.261993,0.1757922,286.1613,214.198,16.633,True
1,1.966671,-0.4050455,-0.05596738,-0.01301149,-1.334307,-4.273116,-2.138416,0.4499463,1.325683,0.3925021,-0.7626388,0.8440388,11.2,52.9,-0.2795336,0.1017345,0.09488417,-0.531936,-4.486714,0.4301333,0.6202483,1.451733,0.395328,-0.1631766,0.2092121,0.02202393,-0.9847182,0.4223053,-0.09003615,0.7563922,1.482934,0.2446172,0.1807532,1.261518,0.1755138,286.3562,214.4644,16.39554,True
1,1.977782,-0.39219,-0.07294495,-0.007638026,-1.333197,-4.272305,-2.134715,0.4490094,1.326457,0.3919134,-0.7535782,0.8149727,11.2,52.9,-0.2540081,0.1144945,0.08302475,-0.5308468,-4.484251,0.4298073,0.6197636,1.451843,0.395041,-0.1458221,0.1933271,0.05815951,-0.9827528,0.4243525,-0.09029607,0.7564383,1.482964,0.2447307,0.1794254,1.260907,0.1752518,286.5682,214.815,16.12841,True
1,1.988893,-0.3623084,-0.09203445,-0.006573755,-1.331721,-4.271412,-2.131752,0.4483511,1.326955,0.3910692,-0.744671,0.8014597,11.1,54.9,-0.2413278,0.1038271,0.07748412,-0.5298961,-4.483591,0.4315402,0.6192836,1.451923,0.3947008,-0.132951,0.1805646,0.06980473,-0.9816869,0.4263415,-0.09039701,0.7564269,1.482996,0.2447426,0.1781067,1.260131,0.174904,286.8033,215.283,15.81555,True
1,2.000004,-0.3516669,-0.09202376,-0.009807862,-1.330749,-4.271051,-2.128347,0.4475873,1.327651,0.3905828,-0.7354681,0.828639,11.1,54.9,-0.220181,0.08889773,0.06649173,-0.5294588,-4.483369,0.4328164,0.6189501,1.452017,0.3943806,-0.1267053,0.1634635,0.05596804,-0.9816545,0.4277881,-0.09005612,0.7564803,1.483099,0.2446172,0.1769442,1.259201,0.1745278,287.1107,215.7401,15.42128,True
1,2.011115,-0.3282929,-0.07814524,-0.01636366,-1.330225,-4.271229,-2.125533,0.4470232,1.328177,0.3900795,-0.727174,0.7453551,11.1,54.9,-0.2149378,0.07075591,0.06629218,-0.5286231,-4.483983,0.4355246,0.6185179,1.4521,0.3940265,-0.1386991,0.1495363,0.02735583,-0.9825264,0.429123,-0.08882068,0.7565366,1.483145,0.2445302,0.175889,1.25815,0.1740711,287.4514,216.1392,15.08648,True
1,2.022226,-0.300698,-0.04932199,-0.01982233,-1.33045,-4.271869,-2.122762,0.4466181,1.328513,0.3894207,-0.7180468,0.8223873,11.1,54.9,-0.2090409,0.09591059,0.1101357,-0.525317,-4.48289,0.4364713,0.6182944,1.452175,0.3936474,-0.1334676,0.140973,0.01775395,-0.9826809,0.430661,-0.08838845,0.7564187,1.483215,0.2443204,0.1750113,1.256966,0.1735394,287.7779,216.4135,14.84929,True
1,2.033337,-0.2879315,-0.04075741,-0.01778163,-1.330205,-4.271769,-2.11999,0.4460576,1.328964,0.3886888,-0.7099295,0.7293302,10.1,41.7,-0.2043725,0.1222866,0.1369638,-0.522149,-4.480808,0.4365408,0.6180321,1.452219,0.3933442,-0.1205189,0.1388916,0.0357544,-0.9817914,0.4326637,-0.08870696,0.756322,1.483298,0.2442753,0.174258,1.255708,0.1730074,288.1517,216.7746,14.39765,True
1,2.044448,-0.281495,-0.05671762,-0.0177155,-1.329142,-4.271316,-2.117236,0.4456145,1.329632,0.3883734,-0.7015576,0.7537592,10.1,41.7,-0.197445,0.1463859,0.1797213,-0.5179247,-4.479273,0.4371126,0.6179772,1.452283,0.3930333,-0.09145592,0.1197963,0.07177202,-0.9799133,0.4337227,-0.08925504,0.7562443,1.483234,0.2441418,0.1736009,1.254415,0.1725747,288.4811,217.2199,13.86169,True
1,2.055559,-0.2718378,-0.0854781,-0.02185142,-1.327204,-4.270597,-2.114799,0.4451541,1.3304,0.387939,-0.6929769,0.772632,10.1,41.7,-0.1856507,0.1216834,0.1964409,-0.5153717,-4.480888,0.4397888,0.6178632,1.452346,0.392674,-0.0785453,0.1059878,0.08766827,-0.9787303,0.4347731,-0.08940924,0.7563293,1.483239,0.2441044,0.1729428,1.253093,0.17224,288.7703,217.7989,13.28752,True
1,2.06667,-0.2536141,-0.1440959,-0.03543553,-1.323528,-4.269361,-2.113011,0.4448754,1.33113,0.3875127,-0.6846715,0.7474278,10.1,41.7,-0.1481039,0.02165876,0.1632279,-0.5162442,-4.487273,0.4457229,0.617995,1.452351,0.3923545,-0.08081432,0.08251536,0.07604825,-0.9782728,0.4348979,-0.08853999,0.7563986,1.48327,0.2439616,0.1722528,1.25177,0.171956,289.1193,218.3074,12.8285,True
1,2.077781,-0.2322702,-0.1878523,-0.05870094,-1.319729,-4.268687,-2.111346,0.4446606,1.331662,0.3867481,-0.6768727,0.7015224,10.1,41.7,-0.1240592,-0.02938707,0.1401797,-0.5163369,-4.49139,0.4497978,0.6177715,1.452535,0.3919976,-0.1057595,0.06641883,0.02945249,-0.9796214,0.4351292,-0.08658602,0.7564359,1.483212,0.2437685,0.1716587,1.250517,0.1717878,289.5438,218.6123,12.54304,True
1,2.088892,-0.2003191,-0.2027569,-0.07258096,-1.316687,-4.26833,-2.110346,0.4444959,1.332107,0.3864064,-0.6694979,0.66317,9.4,38.5,-0.1021112,-0.0676262,0.1151356,-0.5168125,-4.49553,0.4537292,0.6175747,1.452673,0.3916879,-0.1220564,0.05887091,-0.004466286,-0.9808934,0.4354581,-0.08483367,0.7565264,1.48319,0.2436564,0.1711441,1.249373,0.1717086,289.9585,218.6625,12.53913,True
1,2.100003,-0.1779452,-0.1845534,-0.0631652,-1.315398,-4.267843,-2.109275,0.4443159,1.332423,0.3857884,-0.6619681,0.6776748,9.4,38.5,-0.1201448,-0.04299857,0.1112676,-0.5154746,-4.495576,0.455771,0.6171948,1.452813,0.3912783,-0.1350815,0.05453686,-0.03096265,-0.9820609,0.4359006,-0.08322858,0.7565067,1.483043,0.2434967,0.1707456,1.248284,0.1716965,290.2866,218.4078,12.89805,True
1,2.111114,-0.159977,-0.1247243,-0.04868975,-1.31556,-4.268286,-2.10797,0.4441071,1.332255,0.3848228,-0.6549453,0.6311655,9.4,38.5,-0.1445427,-0.005536534,0.1043691,-0.5141302,-4.493998,0.4568807,0.6169049,1.452932,0.3909342,-0.1318451,0.05667098,-0.02674764,-0.9822739,0.4366536,-0.08234601,0.7565534,1.483127,0.24351,0.1703881,1.247148,0.1716858,290.5354,218.1217,13.28376,True
1,2.122225,-0.1493298,-0.08409664,-0.02337007,-1.316438,-4.267915,-2.106745,0.4438208,1.332442,0.3845451,-0.6473021,0.6885548,9.4,38.5,-0.2132634,0.07027049,0.1227495,-0.5108433,-4.489582,0.4577862,0.6167175,1.452929,0.3905873,-0.1166992,0.07164201,-0.003496714,-0.9816188,0.4382992,-0.08250553,0.7565173,1.483122,0.2435195,0.1701013,1.245878,0.1717461,290.7406,218.0746,13.37173,True
1,2.133336,-0.141877,-0.04663335,0.004088118,-1.317741,-4.267463,-2.105603,0.4435225,1.332569,0.3842771,-0.6398628,0.6694645,9.6,24.3,-0.2268971,0.09367764,0.1337363,-0.5085461,-4.488286,0.459472,0.6166452,1.452999,0.390367,-0.09526699,0.08656488,0.007978346,-0.9812779,0.4401191,-0.08323097,0.7565131,1.483123,0.2435164,0.1697301,1.244404,0.1717492,290.9324,218.4982,13.09121,True
1,2.144447,-0.132316,0.007914992,0.03890516,-1.320196,-4.266862,-2.104544,0.4432081,1.332474,0.3839002,-0.632513,0.661679,9.6,24.3,-0.2068401,0.09053512,0.116466,-0.507508,-4.487225,0.4601732,0.6165136,1.452941,0.3901396,-0.06854319,0.08762717,0.01838369,-0.9808449,0.4414493,-0.08405469,0.7566074,1.483167,0.2434859,0.1692528,1.24269,0.1716153,291.1669,219.1824,12.55931,True
1,2.155558,-0.1248581,0.02611475,0.05155507,-1.32119,-4.266469,-2.103535,0.4430209,1.332435,0.3831141,-0.6255174,0.6294412,9.6,24.3,-0.1761949,0.0499576,0.1104878,-0.5070073,-4.489788,0.4633072,0.6165469,1.452889,0.389957,-0.06647085,0.08228187,0.01304294,-0.9811532,0.4422634,-0.08371913,0.7567151,1.482981,0.2433498,0.1688939,1.240834,0.171468,291.5424,219.9383,11.81646,True
1,2.166669,-0.118476,0.03788672,0.05785696,-1.322316,-4.266127,-2.102517,0.4428165,1.332395,0.3827617,-0.6186747,0.6157849,9.6,24.3,-0.1559309,0.02630937,0.1239333,-0.5055766,-4.492236,0.4665517,0.6164581,1.452739,0.3898845,-0.06553282,0.07371525,0.0002789926,-0.9816087,0.4428724,-0.08338517,0.7567616,1.482912,0.2432637,0.1686473,1.238933,0.1713158,291.95,220.7152,11.02018,True
1,2.17778,-0.1152989,0.04963217,0.06203592,-1.323359,-4.265857,-2.101359,0.4426551,1.332217,0.3818419,-0.6121292,0.589011,9.6,24.3,-0.1398752,0.01654117,0.1364751,-0.5038338,-4.494058,0.4692788,0.6162937,1.452563,0.3896506,-0.05271424,0.06305967,0.005516694,-0.9815522,0.443323,-0.08348317,0.7568705,1.482883,0.243154,0.1684474,1.237049,0.171084,292.3076,221.5527,10.2479,True
1,2.188891,-0.1152634,0.04540742,0.06845169,-1.324195,-4.265193,-2.100251,0.4423838,1.332248,0.3815227,-0.6057141,0.5774137,9.2,15.2,-0.1345939,0.02511505,0.1279733,-0.5025513,-4.493942,0.4705129,0.6162432,1.452217,0.3895066,-0.03773069,0.05135218,0.01500893,-0.9810627,0.4435621,-0.08372872,0.7568716,1.482818,0.2431066,0.1683009,1.235218,0.1707186,292.6576,222.1196,9.75268,True
1,2.200002,-0.1236684,0.01239843,0.0761299,-1.323865,-4.263661,-2.098916,0.4419901,1.332556,0.3813939,-0.5993614,0.5719326,9.2,15.2,-0.1265633,0.01588511,0.08199923,-0.5032246,-4.493447,0.4712181,0.6161438,1.451903,0.3894262,-0.004568759,0.0481633,0.03070565,-0.9801487,0.4442468,-0.08516896,0.7567835,1.482756,0.2430704,0.1682273,1.233482,0.1702778,292.9708,222.561,9.308622,True
1,2.211113,-0.1310249,-0.02598459,0.07424425,-1.322851,-4.262132,-2.097576,0.4416808,1.332756,0.3810499,-0.5933778,0.5384848,9.2,15.2,-0.1121228,-0.004090898,0.04333058,-0.5043281,-4.49402,0.4724717,0.6160622,1.451579,0.3893723,0.01251897,0.04815523,0.03480856,-0.9797615,0.4449962,-0.08633276,0.7567902,1.482715,0.2430212,0.168144,1.231858,0.1697134,293.2593,222.973,8.876594,True
1,2.222224,-0.1361923,-0.1006513,0.05977523,-1.319751,-4.260078,-2.096434,0.4414311,1.332947,0.3803711,-0.5873011,0.5475121,9.2,15.2,-0.09499396,-0.06321417,-0.02873062,-0.5080406,-4.496409,0.4749676,0.6160468,1.451268,0.3893707,0.03274876,0.04280917,0.03570823,-0.9793738,0.4454725,-0.08742039,0.7567574,1.482729,0.2429729,0.1681442,1.230409,0.1691644,293.5764,223.2127,8.474032,True
1,2.233335,-0.1360588,-0.1839058,0.03148366,-1.315316,-4.258159,-2.095493,0.4411806,1.333105,0.3793483,-0.5818805,0.4876139,9.2,15.2,-0.08035384,-0.09834324,-0.03983384,-0.5095953,-4.499742,0.4783826,0.6159163,1.451091,0.3892403,0.06778529,0.03846072,0.02368088,-0.9796869,0.4458654,-0.08942069,0.7568409,1.482637,0.2428174,0.1681775,1.229196,0.1686839,293.9096,223.2524,8.251083,True
1,2.244446,-0.131719,-0.252247,0.0009618998,-1.310325,-4.256415,-2.094621,0.440863,1.333466,0.3788607,-0.5767912,0.4578887,5.4,12.7,-0.06462742,-0.1227987,-0.05404943,-0.5116151,-4.502808,0.4812236,0.615716,1.450927,0.3890998,0.07945718,0.03310312,0.01933228,-0.9796129,0.446076,-0.09083217,0.7568871,1.48261,0.2426631,0.1681608,1.22821,0.1682349,294.1566,223.1147,8.335641,True
1,2.255557,-0.130641,-0.2714844,-0.01064976,-1.307188,-4.255029,-2.093602,0.4405331,1.333711,0.3782034,-0.5725232,0.3838924,5.4,12.7,-0.05606583,-0.1014861,-0.05927472,-0.5123746,-4.502398,0.4813658,0.615546,1.450844,0.3889782,0.06233365,0.02564914,0.01205692,-0.9796609,0.4461797,-0.09090354,0.7568458,1.482627,0.2426453,0.168045,1.227379,0.1677092,294.3365,222.7147,8.825409,True
1,2.266668,-0.1253804,-0.2437544,-0.007630549,-1.305587,-4.254079,-2.092623,0.440168,1.333911,0.3777323,-0.5687601,0.3386758,5.4,12.7,-0.06632082,-0.04188351,-0.04694514,-0.5118042,-4.499383,0.4797703,0.6151259,1.451039,0.3887711,0.01959705,0.01075679,0.0007732278,-0.9800283,0.4456872,-0.08936849,0.7568361,1.482619,0.2425039,0.1678537,1.226639,0.1670579,294.5097,222.0759,9.511757,True
1,2.277779,-0.1148088,-0.1892773,0.01225803,-1.305708,-4.253262,-2.091868,0.439759,1.333901,0.3772659,-0.5653513,0.3069592,5.4,12.7,-0.08100383,-0.01207186,-0.03695149,-0.511476,-4.497961,0.4800295,0.6148589,1.450955,0.3885808,-0.006067248,-0.0009482605,-0.007484161,-0.9804044,0.445252,-0.0881501,0.7567047,1.482718,0.2424204,0.1676804,1.226003,0.1664206,294.7074,221.448,10.0241,True
1,2.28889,-0.1052616,-0.1497263,0.03117394,-1.305858,-4.252199,-2.091276,0.4393767,1.334047,0.376894,-0.5626013,0.2472108,6.3,15,-0.10078,0.03040398,-0.009753672,-0.509891,-4.495543,0.4797115,0.6145183,1.45108,0.388212,-0.02090069,0.01933355,-0.002094809,-0.9803873,0.4463847,-0.08816395,0.7565871,1.482795,0.2423608,0.1674618,1.225496,0.165818,294.8776,221.1938,10.16258,True
1,2.300001,-0.1021039,-0.1101839,0.05118227,-1.306599,-4.251088,-2.09049,0.4390152,1.334439,0.3768642,-0.5603786,0.199764,6.3,15,-0.1139595,0.06731318,0.04076523,-0.5072091,-4.494183,0.4801754,0.6143154,1.450981,0.3880091,-0.03343983,0.03967284,0.02244915,-0.9794808,0.4477876,-0.08813439,0.7566227,1.482899,0.242305,0.167194,1.225139,0.1652769,294.9792,221.219,10.06989,True
1,2.311112,-0.09892738,-0.07382869,0.07333593,-1.30789,-4.24989,-2.089819,0.4385834,1.33463,0.3765609,-0.5583365,0.1838516,6.3,15,-0.1199518,0.08731377,0.07189141,-0.5048501,-4.49298,0.480642,0.6140284,1.451054,0.3877468,-0.03975058,0.04716794,0.03099876,-0.9790334,0.448706,-0.08795808,0.7566612,1.482974,0.2422085,0.1668916,1.224911,0.1647732,295.0027,221.3973,9.894994,True
1,2.322223,-0.1021049,-0.07272215,0.08078653,-1.30759,-4.248672,-2.088778,0.4382871,1.33494,0.376091,-0.556264,0.1868695,6.3,15,-0.1236095,0.1028422,0.1264012,-0.501224,-4.493152,0.4823784,0.6138218,1.451022,0.3874469,-0.04181609,0.0525189,0.03739149,-0.9784598,0.4496934,-0.08796101,0.7566057,1.482986,0.2421269,0.1666687,1.224812,0.1643224,295.0468,221.539,9.741333,True
1,2.333334,-0.1052581,-0.09085266,0.07877033,-1.306537,-4.247126,-2.087924,0.4378586,1.33522,0.3756707,-0.5547263,0.1381359,6.3,15,-0.1161003,0.1016955,0.1316465,-0.4994332,-4.492718,0.4829166,0.6136209,1.450953,0.3871319,-0.0418043,0.04507136,0.04061408,-0.9779383,0.4499853,-0.08759855,0.7566519,1.48291,0.2419147,0.1665429,1.224879,0.1639301,295.113,221.6991,9.53738,True
1,2.344445,-0.1105569,-0.1132927,0.06932939,-1.305007,-4.245689,-2.086902,0.4374302,1.335523,0.3751695,-0.5529958,0.1563091,5.6,11.1,-0.1057788,0.07840387,0.1089706,-0.4989805,-4.493005,0.484013,0.6133293,1.450805,0.3868759,-0.05043873,0.03332965,0.03007779,-0.9779639,0.4499207,-0.086704,0.7566639,1.48289,0.2418668,0.1663837,1.22508,0.1634677,295.1215,221.8489,9.414142,True
1,2.355556,-0.1169685,-0.1315291,0.05028062,-1.303155,-4.244731,-2.08569,0.4370306,1.335724,0.3746424,-0.5519012,0.09815296,5.6,11.1,-0.09767468,0.0712522,0.06941275,-0.4992569,-4.491288,0.4832748,0.6130077,1.450692,0.3867064,-0.06551619,0.03222276,0.01210541,-0.9785061,0.4502421,-0.085643,0.756706,1.482834,0.2418354,0.166198,1.225388,0.1628731,295.1243,221.7374,9.560758,True
1,2.366668,-0.1266143,-0.1359261,0.03116537,-1.301598,-4.244139,-2.084147,0.4366377,1.335816,0.3741016,-0.5507976,0.09956018,5.6,11.1,-0.1049393,0.07098291,-0.01894881,-0.5018056,-4.486701,0.4806423,0.6125442,1.450479,0.3866584,-0.0806187,0.03217485,-0.009067019,-0.9793754,0.4506364,-0.08452474,0.7567527,1.482852,0.2417872,0.1659705,1.225762,0.1621296,295.1046,221.4027,9.858122,True
1,2.377779,-0.1320455,-0.1157653,0.01935203,-1.301052,-4.24396,-2.08252,0.4361511,1.336089,0.3737586,-0.5498895,0.08175026,5.6,11.1,-0.1136644,0.075478,-0.04119509,-0.5022626,-4.483857,0.4797815,0.6122693,1.450252,0.3863971,-0.07643665,0.03533694,-0.01763657,-0.9798558,0.4512318,-0.08407067,0.7567749,1.482885,0.2416763,0.1657041,1.226169,0.1612665,295.068,220.9933,10.17338,True
1,2.38889,-0.1363488,-0.105142,0.01611082,-1.300363,-4.243482,-2.081005,0.4357333,1.336135,0.3733268,-0.5489569,0.08424891,5.1,7.6,-0.1187527,0.08385147,-0.02083422,-0.5012953,-4.482016,0.4796603,0.6118749,1.449878,0.3863041,-0.075288,0.03323697,-0.008051757,-0.9796513,0.4516046,-0.08347971,0.7567979,1.482868,0.2416019,0.1653988,1.226578,0.1603552,295.0085,220.5611,10.47552,True
1,2.400001,-0.1449033,-0.09557868,0.01608311,-1.29976,-4.24297,-2.079196,0.4353174,1.336045,0.3725643,-0.5483822,0.0515173,5.1,7.6,-0.1161955,0.08132505,0.02386251,-0.4992932,-4.482209,0.4810321,0.6116179,1.449433,0.3860898,-0.06769195,0.02263021,0.008957164,-0.9789823,0.4515728,-0.08297797,0.7568247,1.482863,0.2415922,0.1650465,1.226987,0.159473,294.9681,220.2449,10.63516,True
1,2.411112,-0.1544463,-0.1019609,0.02148083,-1.298807,-4.241907,-2.077593,0.4347143,1.335881,0.3716302,-0.5479326,0.04040227,5.1,7.6,-0.1044621,0.06200548,0.03423516,-0.4987142,-4.482728,0.4822034,0.6112337,1.448846,0.3858869,-0.06120623,0.01626918,0.02063498,-0.9784709,0.4516195,-0.08247863,0.7569121,1.482823,0.2414494,0.1646448,1.22744,0.1587033,294.9417,220.081,10.65738,True
1,2.422223,-0.1693087,-0.1104826,0.02904148,-1.297773,-4.240647,-2.075563,0.434067,1.335825,0.3711238,-0.5472285,0.06381424,5.1,7.6,-0.06554194,0.006631166,0.00993586,-0.5000618,-4.485464,0.4840452,0.6109421,1.448061,0.3858097,-0.03985403,0.008803081,0.02685974,-0.9779463,0.4514833,-0.0826528,0.7569979,1.482756,0.2413571,0.1641802,1.227907,0.1580229,294.8596,219.9376,10.79757,True
1,2.433334,-0.1842275,-0.1148141,0.02485773,-1.296545,-4.239806,-2.073272,0.4333147,1.335727,0.3704467,-0.5469217,0.02737108,5.1,7.6,-0.05013276,-0.03252536,-0.02890794,-0.5021859,-4.486724,0.4853483,0.61043,1.44741,0.3856378,-0.02812574,0.0002750866,0.02890838,-0.9776598,0.4512511,-0.0826315,0.7569744,1.482589,0.2412632,0.1635848,1.228332,0.1572766,294.7522,219.816,11.05787,True
1,2.444445,-0.1948673,-0.1180338,0.0259806,-1.29547,-4.238786,-2.071021,0.432591,1.335544,0.3699093,-0.5461882,0.06671518,4.9,5.4,-0.04577974,-0.08945613,-0.1008241,-0.5067213,-4.488648,0.4873694,0.6099318,1.446769,0.3855391,-0.02282466,-0.00400088,0.02674433,-0.9774131,0.4510521,-0.08246159,0.7570645,1.482553,0.2411692,0.1629063,1.228674,0.1563641,294.6624,219.5977,11.38311,True
1,2.455556,-0.2002554,-0.0977867,0.02694741,-1.295403,-4.238454,-2.06865,0.4318146,1.335563,0.3701804,-0.5457994,0.03486972,4.9,5.4,-0.03977663,-0.1009143,-0.1340052,-0.5094531,-4.488703,0.4878464,0.6095399,1.446324,0.3854342,-0.04207573,0.003459264,0.01730483,-0.977558,0.4515511,-0.08155851,0.7571179,1.48253,0.2411106,0.1622676,1.22897,0.1553408,294.633,219.3193,11.61588,True
1,2.466667,-0.2024631,-0.06474453,0.03102841,-1.295865,-4.238164,-2.066401,0.4311848,1.335185,0.3697343,-0.5456476,0.01357309,4.9,5.4,-0.02413379,-0.08999555,-0.1734834,-0.5127144,-4.486677,0.4857787,0.6089016,1.445898,0.3852544,-0.07839336,0.03115548,0.001552719,-0.9782819,0.4530326,-0.08038832,0.7571238,1.482496,0.24101,0.1616139,1.229265,0.1542242,294.6244,219.0009,11.80381,True
1,2.477778,-0.201483,-0.02314959,0.03931111,-1.297125,-4.238027,-2.064247,0.4307451,1.334862,0.3692291,-0.5456167,0.002650122,4.9,5.4,-0.01472395,-0.0278428,-0.2209792,-0.5153094,-4.479499,0.4793607,0.6084427,1.445608,0.3849046,-0.1240299,0.06109206,0.0167777,-0.9777316,0.454976,-0.07853103,0.7572271,1.482536,0.2409656,0.1610529,1.22962,0.1531686,294.6078,218.6418,11.90395,True
1,2.488889,-0.1898786,0.03983109,0.05595528,-1.299985,-4.238205,-2.062434,0.4303395,1.334547,0.3689339,-0.5456674,-0.004681302,4.9,5.4,-0.04629314,0.02973118,-0.2084547,-0.5160306,-4.47346,0.4757207,0.6078142,1.445561,0.3845546,-0.1398025,0.07610025,0.0371103,-0.9767186,0.4567156,-0.07752942,0.757128,1.48261,0.2410204,0.1605797,1.230102,0.1523691,294.5351,218.4102,11.83994,True
1,2.5,-0.1548058,0.08152013,0.06516974,-1.30223,-4.238335,-2.061817,0.4300352,1.334217,0.3680522,-0.545728,-0.005547076,6,5.6,-0.09091119,0.06633124,-0.1043605,-0.5131166,-4.472258,0.4772536,0.6072744,1.445446,0.3840668,-0.1587279,0.1454281,0.0540935,-0.9758397,0.4614977,-0.07777469,0.7569676,1.482659,0.2411275,0.1600262,1.230659,0.1517098,294.3582,218.3976,11.8257,True
1,2.511111,-0.1228803,0.08903671,0.06074897,-1.303381,-4.238359,-2.061479,0.4295146,1.333919,0.3672075,-0.5460604,-0.03043198,6,5.6,-0.1128153,0.09610856,0.03781017,-0.5078515,-4.473583,0.480341,0.6068584,1.445238,0.3835886,-0.1490135,0.1720734,0.06351246,-0.9750243,0.464747,-0.07836911,0.7569715,1.482624,0.2410667,0.1594898,1.231263,0.1511265,294.1577,218.5809,11.7583,True
1,2.522222,-0.1132559,0.05916274,0.04810012,-1.3032,-4.238099,-2.060604,0.4289066,1.333864,0.3670413,-0.5471241,-0.09711717,6,5.6,-0.09573777,0.1346445,0.13067,-0.5025539,-4.472856,0.4802055,0.606432,1.445154,0.3831251,-0.1329136,0.1763545,0.07613718,-0.9739015,0.467446,-0.07893796,0.7568856,1.482587,0.2410281,0.1590115,1.231882,0.150539,293.9376,218.9542,11.55008,True
1,2.533333,-0.1163922,0.02821513,0.0397623,-1.302635,-4.237626,-2.059296,0.4283336,1.333777,0.3667824,-0.5472589,-0.01168267,6,5.6,-0.07214692,0.1622119,0.1328028,-0.5004095,-4.469043,0.4767716,0.6059452,1.444851,0.3827436,-0.1361604,0.1688748,0.07087761,-0.9732873,0.4691659,-0.07833848,0.7568837,1.482497,0.2409043,0.1585339,1.232395,0.1497821,293.6984,219.1595,11.53031,True
1,2.544444,-0.1163325,-0.01127906,0.026138,-1.301253,-4.23707,-2.058144,0.4277654,1.333898,0.3665326,-0.5464008,0.07829324,9,7.9,-0.0630793,0.1829503,0.0700354,-0.5003744,-4.462645,0.4715129,0.6055084,1.444831,0.3823643,-0.1447978,0.1688443,0.05817148,-0.9732133,0.4714456,-0.0777145,0.7568254,1.482464,0.240824,0.1580675,1.232689,0.1488758,293.5235,218.9854,11.67302,True
1,2.555555,-0.09924411,-0.05824082,0.002912495,-1.299105,-4.236578,-2.057685,0.4272316,1.334188,0.3664739,-0.5456359,0.06910735,9,7.9,-0.07643022,0.1653286,0.02100375,-0.501135,-4.458935,0.4696746,0.6049952,1.444769,0.3820534,-0.1683711,0.1581658,0.04354223,-0.9728948,0.4730305,-0.07603271,0.7568525,1.482554,0.240773,0.1576907,1.23278,0.1480405,293.4858,218.6108,11.78385,True
1,2.566666,-0.06938787,-0.1073305,-0.02674606,-1.296003,-4.236365,-2.057928,0.4269075,1.334531,0.3663838,-0.5455901,0.003571276,9,7.9,-0.08298954,0.1344847,0.01867054,-0.5008277,-4.458225,0.4702258,0.6046073,1.444763,0.3816876,-0.1780595,0.1613387,0.03190145,-0.9730397,0.4754116,-0.0750524,0.7568034,1.482619,0.2406735,0.1573231,1.232745,0.1473529,293.5648,218.3288,11.81996,True
1,2.577777,-0.04916788,-0.1383186,-0.05540208,-1.293305,-4.236637,-2.057946,0.42654,1.334718,0.3664935,-0.546208,-0.05651936,9,7.9,-0.08269806,0.09572644,0.06626488,-0.498768,-4.461011,0.4734909,0.6041141,1.444857,0.3813851,-0.1780949,0.1559963,0.02874049,-0.9726977,0.4772373,-0.07415678,0.7566458,1.482504,0.2406085,0.1569439,1.2327,0.1468662,293.7336,218.0662,11.91284,True
1,2.588888,-0.03959612,-0.2046626,-0.111524,-1.288059,-4.237339,-2.057657,0.4261532,1.334961,0.3662508,-0.5469019,-0.06303465,9,7.9,-0.07805356,0.06863245,0.1181885,-0.4960143,-4.463871,0.476713,0.6037988,1.445,0.3809068,-0.1640269,0.1539375,0.05519405,-0.9719489,0.4793304,-0.07378927,0.7561932,1.482541,0.2405348,0.1565901,1.232721,0.1466621,293.9003,217.701,12.17021,True
1,2.599999,-0.04170306,-0.2484961,-0.1379001,-1.283218,-4.237506,-2.057079,0.4256735,1.335251,0.3662512,-0.5466724,0.0213232,11.9,9.5,-0.06062433,0.07249153,0.1553397,-0.4929154,-4.465139,0.4779021,0.6034142,1.445048,0.3804975,-0.1683247,0.1549945,0.0509678,-0.9716187,0.4815257,-0.07304971,0.7560581,1.482515,0.2404013,0.1562602,1.232798,0.1467871,293.9872,217.2136,12.60666,True
1,2.61111,-0.04483792,-0.2890716,-0.1525703,-1.278153,-4.237287,-2.056538,0.4251966,1.335546,0.3662486,-0.5462506,0.03817161,11.9,9.5,-0.04881978,0.1172921,0.1428286,-0.4905979,-4.460593,0.4740262,0.6030205,1.445079,0.3800755,-0.1780718,0.1453764,0.03614731,-0.9721752,0.4831255,-0.07149256,0.7559382,1.482553,0.2403183,0.1557925,1.232863,0.1472021,294.0103,216.7247,13.11602,True
1,2.622221,-0.02980833,-0.3241593,-0.1481693,-1.273342,-4.236354,-2.056967,0.4248343,1.335765,0.3659546,-0.545621,0.05713518,11.9,9.5,-0.03610022,0.1729105,0.1101596,-0.4888712,-4.453235,0.4675672,0.6026843,1.445337,0.3798168,-0.1770823,0.1251164,0.03088011,-0.9720655,0.4839533,-0.07001424,0.7557891,1.482566,0.2402034,0.1550377,1.232863,0.1478131,294.0941,216.0842,13.86874,True
1,2.633332,-0.01059483,-0.3154941,-0.133378,-1.270283,-4.235812,-2.057734,0.4244263,1.336282,0.3663478,-0.5453904,0.02055167,11.9,9.5,-0.03176662,0.1835246,0.1123387,-0.4866661,-4.450334,0.4652385,0.602354,1.445626,0.3795297,-0.1665775,0.09948713,0.01808194,-0.972376,0.484183,-0.06869917,0.755839,1.482556,0.2400224,0.1540787,1.23283,0.1485929,294.2425,215.5672,14.56585,True
1,2.644443,0.02876766,-0.2673194,-0.1114248,-1.268918,-4.235573,-2.059466,0.4243494,1.336548,0.3663812,-0.5460562,-0.06104099,12.3,10.6,-0.03743049,0.1346403,0.101318,-0.4860477,-4.451289,0.4666689,0.6022589,1.445777,0.3792543,-0.1450662,0.09208699,0.04134895,-0.9712873,0.48542,-0.06852739,0.7557451,1.482591,0.2398577,0.1530496,1.232799,0.1494388,294.4027,215.2092,15.2352,True
1,2.655554,0.04891559,-0.2192667,-0.1000598,-1.267744,-4.235908,-2.060522,0.4242581,1.336572,0.3660142,-0.5464599,-0.03646455,12.3,10.6,-0.04958674,0.090151,0.07867974,-0.486233,-4.452487,0.4688077,0.6021475,1.445878,0.3788497,-0.1204145,0.08464916,0.06032616,-0.9700564,0.4862453,-0.06829437,0.7557963,1.482701,0.2396488,0.1521783,1.232765,0.1502348,294.5447,214.9416,15.83003,True
1,2.666665,0.07098719,-0.09983903,-0.09123329,-1.270073,-4.23799,-2.061525,0.4243324,1.336348,0.3660026,-0.5473558,-0.0817899,12.3,10.6,-0.07659975,0.02321569,0.07196864,-0.486747,-4.456965,0.4745305,0.6021005,1.446084,0.3785918,-0.1076961,0.0665085,0.05601317,-0.9696005,0.4864794,-0.06764828,0.7556959,1.48273,0.2395101,0.1516522,1.232761,0.1510095,294.655,214.8896,16.07126,True
1,2.677776,0.06979868,-0.04761294,-0.08619974,-1.270587,-4.239249,-2.06184,0.4243116,1.33626,0.3658767,-0.5467044,0.06003836,12.3,10.6,-0.08294518,0.01357377,0.08153732,-0.4856365,-4.458396,0.4769253,0.6019386,1.446293,0.3782687,-0.1194455,0.07182616,0.05184017,-0.9692372,0.4875326,-0.06648102,0.7557437,1.48269,0.2394013,0.1514142,1.232705,0.1516353,294.6389,214.9858,16.19047,True
1,2.688887,0.06861646,0.002488457,-0.08008914,-1.271851,-4.240786,-2.062117,0.424187,1.336027,0.3659377,-0.5468476,-0.01385491,12.3,10.6,-0.06747952,0.05045663,0.1200564,-0.4824039,-4.457477,0.4763317,0.6016925,1.446479,0.3780408,-0.1227349,0.07712699,0.04013312,-0.9692628,0.4889975,-0.0658677,0.7556784,1.482709,0.2393188,0.151278,1.232493,0.1519572,294.5922,215.1492,16.18655,True
1,2.699998,0.07394078,0.02603204,-0.06320709,-1.27236,-4.241402,-2.062916,0.4241136,1.33577,0.3656242,-0.5457509,0.1003152,13.1,9.6,-0.04285987,0.07698189,0.1189776,-0.4804694,-4.455191,0.47384,0.6014876,1.446532,0.3777795,-0.1230275,0.07488714,0.008186219,-0.9702908,0.489766,-0.06490523,0.7556274,1.482731,0.2393003,0.1512434,1.232122,0.1520784,294.5219,215.5093,15.82207,True
1,2.711109,0.0803399,0.03462044,-0.05475664,-1.272808,-4.242017,-2.063831,0.4240107,1.335539,0.3657002,-0.5455422,0.01812385,13.1,9.6,-0.01532739,0.1048079,0.08912383,-0.4796129,-4.45109,0.469506,0.6012183,1.446511,0.3775301,-0.1166238,0.07913104,0.008129482,-0.970001,0.4908527,-0.0645441,0.7555587,1.48276,0.2391307,0.1511981,1.231612,0.1520402,294.5716,215.7148,15.51124,True
1,2.72222,0.08776587,0.06349505,-0.04004023,-1.274235,-4.242888,-2.064743,0.4239414,1.335397,0.3660326,-0.545703,-0.01485724,13.1,9.6,0.004340567,0.1276816,0.01987863,-0.4804321,-4.444731,0.4631298,0.6009059,1.446405,0.3774183,-0.1069553,0.08234179,0.01655439,-0.9696341,0.4921307,-0.06442054,0.75539,1.482777,0.2390432,0.1510839,1.231032,0.1519327,294.6541,215.8831,15.22849,True
1,2.733331,0.09514967,0.1233209,-0.0137799,-1.277466,-4.243937,-2.065681,0.4239738,1.33505,0.3660512,-0.5457547,-0.004613473,13.1,9.6,0.000666149,0.1206306,-0.02489274,-0.4813903,-4.441061,0.4601564,0.6007348,1.446343,0.3772438,-0.0971587,0.0824012,0.0388439,-0.968417,0.4933054,-0.06442906,0.7552487,1.482719,0.2389441,0.1509508,1.230409,0.151793,294.7309,215.9887,15.07702,True
1,2.744442,0.1099907,0.1842352,0.01245107,-1.281603,-4.245015,-2.067077,0.4240413,1.334632,0.3660982,-0.5457382,0.001475473,13.7,8.3,-0.0106362,0.06776786,-0.06572349,-0.483784,-4.440889,0.460517,0.6006327,1.446333,0.3771582,-0.07112241,0.07508834,0.09190211,-0.9655941,0.4942983,-0.06510044,0.7550646,1.482757,0.2388854,0.1509173,1.229782,0.1517675,294.8055,216.0749,14.87485,True
1,2.755553,0.1184749,0.2098811,0.02292819,-1.284502,-4.245983,-2.068306,0.4240593,1.334356,0.3663418,-0.5457195,0.001592484,13.7,8.3,-0.007581633,0.0282985,-0.0618318,-0.4845659,-4.442656,0.461986,0.6006107,1.446476,0.3769717,-0.06066739,0.06860285,0.07159103,-0.9654731,0.4947914,-0.06493878,0.7549374,1.482846,0.2387252,0.1509636,1.229205,0.1519428,294.8528,216.417,14.4336,True
1,2.766664,0.1301591,0.2194885,0.0207006,-1.287107,-4.24723,-2.069823,0.4240991,1.333993,0.3664834,-0.546079,-0.03295489,13.7,8.3,0.007485975,0.003488794,-0.03449352,-0.4844626,-4.444914,0.4633613,0.6006286,1.446434,0.3767705,-0.0767072,0.06541336,0.06535584,-0.9650172,0.4956997,-0.06405062,0.7549461,1.482875,0.2386248,0.1509921,1.228684,0.1522325,294.8291,217.0977,13.81743,True
1,2.777775,0.1270033,0.1992098,0.01550332,-1.288318,-4.24796,-2.070914,0.4240526,1.333779,0.366631,-0.5458042,0.02535305,13.7,8.3,0.02280847,0.03301708,-0.007758914,-0.483041,-4.442647,0.4604582,0.6004751,1.446408,0.376497,-0.07065381,0.03864913,0.03236193,-0.9656973,0.4948725,-0.06290013,0.7549011,1.482751,0.2385449,0.1510227,1.228189,0.1525761,294.7643,217.7909,13.24681,True
1,2.788886,0.1207008,0.1447662,-0.001208536,-1.287811,-4.248381,-2.071934,0.4240186,1.333572,0.3667374,-0.5460168,-0.01977088,13.7,8.3,0.01658024,0.05643842,-0.002167122,-0.4822378,-4.439913,0.4580981,0.6003209,1.446338,0.3763103,-0.06347201,0.03001435,0.003563017,-0.9665144,0.4948175,-0.06235525,0.7548296,1.482752,0.2384899,0.1510456,1.227686,0.1529589,294.735,218.2418,12.86696,True
1,2.799997,0.1208581,0.07545892,-0.01146889,-1.286215,-4.24805,-2.073368,0.4239932,1.333438,0.3665855,-0.5453717,0.05906709,13,7.1,0.01981916,0.06921551,-0.003153317,-0.4818191,-4.437555,0.4557955,0.600184,1.446198,0.3762677,-0.06774697,0.02682083,0.002546839,-0.9665458,0.495042,-0.06157974,0.7547188,1.482728,0.2384291,0.151008,1.227142,0.1533739,294.7172,218.5342,12.61326,True
1,2.811108,0.1230864,0.02532937,-0.02290879,-1.284625,-4.24793,-2.074838,0.4239876,1.333394,0.3666756,-0.5450825,0.02590854,13,7.1,0.03362443,0.07774705,-0.01173733,-0.4816897,-4.434862,0.4525382,0.6000767,1.446144,0.3762412,-0.05055387,0.03536831,0.01727159,-0.9659488,0.4959591,-0.06213927,0.7546648,1.48272,0.2383413,0.1508852,1.226546,0.153813,294.7659,218.6652,12.52261,True
1,2.822219,0.1402987,-0.03855474,-0.02579973,-1.282331,-4.24696,-2.077326,0.4240333,1.333607,0.3671374,-0.5452369,-0.01431847,13,7.1,0.04923426,0.05231313,-0.03661058,-0.4829579,-4.434436,0.4511912,0.6001118,1.446168,0.3761833,-0.01618102,0.04713835,0.04675231,-0.9644963,0.4971907,-0.06381173,0.7544971,1.48277,0.2382777,0.1507013,1.225905,0.1542593,294.868,218.6163,12.66292,True
1,2.83333,0.148959,-0.0961019,-0.03296385,-1.279474,-4.246056,-2.079601,0.4241246,1.333456,0.3666108,-0.5453233,-0.007771809,13,7.1,0.05850428,0.0108229,-0.04878021,-0.484404,-4.436186,0.4518583,0.6000577,1.446246,0.376152,-0.005358212,0.05143987,0.06581435,-0.9632403,0.4979741,-0.06437419,0.7544042,1.482774,0.238131,0.1505321,1.225225,0.1546669,295.0027,218.491,12.91215,True
1,2.844441,0.1554695,-0.1344159,-0.02957289,-1.276904,-4.244818,-2.081935,0.4242173,1.33347,0.366607,-0.5460476,-0.06624324,13,7.1,0.05304071,-0.01363448,-0.05106871,-0.485465,-4.437511,0.4526138,0.6000386,1.446377,0.3760269,0.001030408,0.04930041,0.06576396,-0.9625277,0.4986322,-0.06501468,0.7543861,1.482864,0.2379625,0.1505288,1.224542,0.1551099,295.1672,218.3518,13.07394,True
1,2.855552,0.1639994,-0.1418824,-0.03382347,-1.275092,-4.244373,-2.08419,0.4243115,1.333237,0.3660214,-0.545833,0.02011465,12.9,4.6,0.04570876,-0.006229749,-0.04134531,-0.4854218,-4.436951,0.4519683,0.6000346,1.446494,0.3759599,-0.01728027,0.01623462,0.04898368,-0.9626683,0.4972522,-0.06329881,0.754447,1.482903,0.2378085,0.1507144,1.223843,0.1556103,295.3031,218.1549,13.309,True
1,2.866663,0.1671742,-0.1301372,-0.03070617,-1.274014,-4.24403,-2.086244,0.4244792,1.333076,0.3660285,-0.5456556,0.01593063,12.9,4.6,0.03573254,0.04350016,0.003928149,-0.4829488,-4.434166,0.4494798,0.599981,1.446604,0.3757539,-0.0420872,-0.0136576,0.01947501,-0.9634038,0.4958083,-0.06119465,0.7544537,1.482976,0.237741,0.1508862,1.223021,0.1559441,295.4194,217.9513,13.66493,True
1,2.877774,0.1671524,-0.1194711,-0.02863398,-1.273153,-4.243758,-2.08815,0.4245816,1.332802,0.3659647,-0.5456988,-0.004128129,12.9,4.6,0.03304158,0.09227677,0.03207741,-0.4805216,-4.430034,0.4455016,0.5998716,1.446667,0.3755741,-0.04649914,-0.01584313,0.003537443,-0.963921,0.4953977,-0.06026387,0.7544758,1.483062,0.2376456,0.1511143,1.22207,0.1561082,295.5634,217.8209,13.89539,True
1,2.888885,0.1586239,-0.09917555,-0.01486954,-1.272942,-4.243258,-2.089795,0.4246785,1.332564,0.3660431,-0.5454553,0.02221875,12.9,4.6,0.02257296,0.1114206,0.04193064,-0.4790569,-4.427009,0.4429268,0.5997573,1.446712,0.3755114,-0.0400529,0.002269156,0.006613429,-0.9637682,0.4962757,-0.06059863,0.7543989,1.483072,0.2375205,0.1513327,1.220983,0.1560459,295.7174,217.8072,13.94102,True
1,2.899997,0.1501074,-0.07887754,-4.360825E-05,-1.272916,-4.242701,-2.091445,0.424696,1.332237,0.3657198,-0.5452428,0.01917805,13.1,3,0.01883306,0.08623567,-0.0008603111,-0.4803006,-4.42565,0.4417428,0.5997801,1.446594,0.3754871,-0.02481246,0.02367488,0.0415307,-0.9625974,0.4976401,-0.06138773,0.7540613,1.483027,0.2375171,0.151685,1.219828,0.1559379,295.8925,217.8206,13.79993,True
1,2.911108,0.143736,-0.05961718,0.01799452,-1.273323,-4.241778,-2.093234,0.424554,1.33189,0.3656867,-0.5448678,0.03413261,13.1,3,0.02473159,0.06203813,-0.03948198,-0.4820226,-4.424306,0.4400703,0.5996489,1.446556,0.3754425,-0.02153601,0.02265124,0.05317312,-0.9624078,0.4979011,-0.06104551,0.7538091,1.483098,0.2375007,0.152086,1.218649,0.155845,296.0755,217.8557,13.59201,True
1,2.922219,0.1394424,-0.03828097,0.02534556,-1.273793,-4.24144,-2.094739,0.4245164,1.331516,0.3656981,-0.544822,0.003924842,13.1,3,0.02960673,0.04315461,-0.07591233,-0.4839368,-4.422697,0.4381947,0.5994768,1.446496,0.3753924,-0.02361755,0.02373751,0.05851476,-0.9615545,0.4983427,-0.06099145,0.7537005,1.48315,0.2374189,0.1524621,1.217509,0.1557833,296.2619,218.0043,13.34093,True
1,2.93333,0.1383581,-0.01691807,0.03588348,-1.274555,-4.240996,-2.096422,0.4245047,1.33121,0.36571,-0.5448716,-0.004503509,13.1,3,0.04223135,0.03682164,-0.08887012,-0.4848977,-4.420828,0.4356703,0.5992092,1.44651,0.375258,-0.03650267,0.02905399,0.04897491,-0.9620627,0.4989703,-0.0601877,0.7535579,1.483145,0.2373657,0.152694,1.216432,0.1556543,296.4235,218.1846,13.15059,True
1,2.944441,0.1340219,0.03217012,0.05266391,-1.276881,-4.240997,-2.097751,0.4245404,1.33071,0.3657341,-0.5447858,0.007904142,13.1,3,0.04034708,0.05800896,-0.07375508,-0.4845883,-4.417806,0.4326135,0.5990067,1.446493,0.3750932,-0.04294681,0.03223668,0.04262927,-0.961832,0.4995707,-0.05983298,0.7534685,1.483177,0.2373312,0.1528496,1.215442,0.1554937,296.5345,218.3187,12.9741,True
1,2.955552,0.1371491,0.07808514,0.06943302,-1.279535,-4.24107,-2.099327,0.4246439,1.330158,0.3658457,-0.5449419,-0.01436729,12.3,1.5,0.02255349,0.08349434,-0.05418266,-0.4837643,-4.414404,0.4298811,0.5989567,1.446433,0.3748846,-0.04616065,0.03968964,0.03944158,-0.9614342,0.5004908,-0.05977545,0.7536509,1.483329,0.2372613,0.1529999,1.214562,0.155377,296.6105,218.4439,12.7785,True
1,2.966663,0.1349808,0.1069083,0.08099499,-1.282074,-4.241053,-2.100732,0.4246805,1.329702,0.3658819,-0.5447538,0.01733585,12.3,1.5,0.006843872,0.1047254,-0.03679871,-0.4828774,-4.410967,0.4272592,0.5988168,1.446347,0.3747258,-0.04186919,0.04715285,0.04150945,-0.9609404,0.5015413,-0.06010142,0.7535613,1.483373,0.2372949,0.1531741,1.213796,0.155342,296.6435,218.6374,12.53704,True
1,2.977774,0.1285866,0.1314903,0.09898235,-1.284705,-4.240754,-2.10201,0.4247606,1.329139,0.3652709,-0.5450149,-0.0239781,12.3,1.5,-0.0007006824,0.1059097,-0.0463007,-0.4830958,-4.407934,0.4247785,0.5986746,1.446254,0.3745322,-0.03749633,0.05356096,0.05108266,-0.959481,0.5024852,-0.06060609,0.7538967,1.483351,0.2372236,0.1533701,1.213122,0.1553771,296.6055,219.0061,12.17405,True
1,2.988885,0.1243253,0.1261237,0.09477039,-1.28608,-4.240479,-2.103332,0.4247614,1.328835,0.3652809,-0.5448625,0.01416844,12.3,1.5,0.002194695,0.09332025,-0.07094385,-0.4843763,-4.405429,0.4224085,0.598511,1.446187,0.3744643,-0.03420044,0.06318533,0.06061861,-0.9584306,0.5039296,-0.06115843,0.7536426,1.483394,0.2370546,0.1536046,1.21249,0.1554643,296.5341,219.4057,11.81092,True
1,2.999996,0.1137044,0.09083663,0.07690047,-1.286088,-4.24016,-2.104323,0.4247048,1.328586,0.3652132,-0.5446526,0.0190563,11.6,2,0.0125013,0.06362177,-0.09154058,-0.4859997,-4.404415,0.4210873,0.5983554,1.446136,0.3743348,-0.03311846,0.06851391,0.06165628,-0.9577739,0.505158,-0.06155657,0.7536175,1.483435,0.2369859,0.1537781,1.211849,0.1554843,296.4909,219.8466,11.49627,True
1,3.011107,0.1084429,0.042798,0.06014014,-1.285287,-4.23971,-2.10541,0.4246665,1.328524,0.3653452,-0.5447171,-0.006042441,11.6,2,0.01663366,0.05194553,-0.09914185,-0.4871854,-4.402985,0.4194947,0.5982103,1.44606,0.3742251,-0.03201781,0.06745861,0.06488258,-0.9565073,0.5061185,-0.06190119,0.7534125,1.483556,0.2369063,0.1538853,1.211167,0.155282,296.497,220.2322,11.26752,True
1,3.022218,0.1095816,-0.003090724,0.04548369,-1.284011,-4.23888,-2.106908,0.4246353,1.328347,0.365257,-0.5444306,0.02632205,11.6,2,0.02718191,0.04343162,-0.1057077,-0.4883018,-4.401373,0.4174252,0.5979671,1.445957,0.3740842,-0.04276438,0.0685027,0.05432191,-0.9562943,0.507108,-0.06162448,0.7533605,1.483609,0.2368326,0.1540744,1.210478,0.154981,296.5643,220.3056,11.13235,True
1,3.033329,0.1106717,-0.02335534,0.03920993,-1.283643,-4.238221,-2.108246,0.4245687,1.328036,0.3652115,-0.5445142,-0.007850317,11.6,2,0.02946113,0.0646866,-0.1002261,-0.4885484,-4.397447,0.4136251,0.5976655,1.445913,0.3739135,-0.0470065,0.07915346,0.05225078,-0.9551118,0.5087598,-0.06225192,0.7533162,1.483503,0.2368045,0.1542992,1.209817,0.1546818,296.682,220.1531,11.0803,True
1,3.04444,0.1106631,-0.02871834,0.03284874,-1.283253,-4.237802,-2.109603,0.4246039,1.3278,0.3651412,-0.5448828,-0.0335327,11.6,2,0.01374529,0.0805773,-0.08182254,-0.4883273,-4.394496,0.4113529,0.5975022,1.445874,0.3737042,-0.04597031,0.0844693,0.0479627,-0.9548072,0.5102622,-0.06264687,0.7532479,1.483582,0.2368164,0.1545433,1.209231,0.1545122,296.8005,219.919,11.10319,True
1,3.055551,0.1127701,-0.02019453,0.03172642,-1.283617,-4.237622,-2.111017,0.4245815,1.327643,0.3651326,-0.544838,0.004356414,8.4,1.5,-0.0008560941,0.09641712,-0.05703631,-0.4874064,-4.391671,0.4093481,0.5973489,1.445865,0.3734946,-0.04587135,0.08449592,0.0575946,-0.9532993,0.5114209,-0.06301252,0.753159,1.483651,0.2367651,0.1547232,1.208677,0.1544611,296.847,219.7237,11.21307,True
1,3.066662,0.106317,0.005366314,0.03479657,-1.284575,-4.237647,-2.111954,0.4246379,1.327229,0.3646643,-0.5449312,-0.008578395,8.4,1.5,-0.01866759,0.1069357,-0.03119989,-0.486306,-4.389081,0.4079079,0.5972444,1.445876,0.3732963,-0.04579394,0.07600942,0.06720932,-0.9522899,0.5122641,-0.06301226,0.7530948,1.483699,0.2366812,0.1548285,1.208105,0.1544999,296.849,219.709,11.24513,True
1,3.077773,0.09993107,0.007497577,0.03800365,-1.284987,-4.237245,-2.113002,0.4245825,1.327,0.3645937,-0.545074,-0.01298203,8.4,1.5,-0.02192837,0.08668333,-0.02814691,-0.4863465,-4.388275,0.4075366,0.5971581,1.44585,0.3731,-0.04681341,0.06215897,0.07263866,-0.9506627,0.5123575,-0.062755,0.7530847,1.483685,0.236583,0.1549118,1.207506,0.1546137,296.8858,219.8025,11.20601,True
1,3.088884,0.09780313,0.006445954,0.04014684,-1.285323,-4.236878,-2.114038,0.4245431,1.326806,0.3647575,-0.5446798,0.0361817,8.4,1.5,-0.01457087,0.07604186,-0.03364078,-0.4867422,-4.386723,0.406009,0.5970506,1.445771,0.3729231,-0.04895466,0.05789614,0.07160063,-0.9500225,0.5130309,-0.06259148,0.7530537,1.483696,0.2364321,0.1549413,1.20688,0.1547446,296.9389,220.0332,11.07956,True
1,3.099995,0.09459581,0.002139606,0.03379121,-1.285308,-4.236639,-2.115064,0.424512,1.326591,0.3647001,-0.5446506,0.002383036,5.5,1,-0.00409507,0.06972949,-0.04871342,-0.4874661,-4.384715,0.4039381,0.5969276,1.445735,0.3727236,-0.06915475,0.06430523,0.0739363,-0.9486185,0.5140246,-0.06189027,0.753032,1.483614,0.2363238,0.154901,1.206217,0.1547697,296.9962,220.3226,10.94329,True
1,3.111106,0.09033487,-0.001094358,0.02956334,-1.285282,-4.236401,-2.116118,0.4244229,1.326422,0.3643565,-0.5446916,-0.00375534,5.5,1,-0.006389022,0.06453153,-0.06258921,-0.4883486,-4.382614,0.4022825,0.5967062,1.445659,0.372591,-0.07335173,0.07288495,0.07717817,-0.9472854,0.5162205,-0.06253182,0.7530373,1.483317,0.2360301,0.1549358,1.205565,0.1547434,297.0858,220.4399,10.84079,True
1,3.122217,0.09563313,-0.00219346,0.02102756,-1.285227,-4.236406,-2.117363,0.4244175,1.326285,0.3643045,-0.5447602,-0.006193293,5.5,1,-0.01811704,0.06459554,-0.06353909,-0.4887673,-4.380545,0.4010758,0.5965754,1.445679,0.3723533,-0.07759421,0.07928619,0.07826103,-0.9464235,0.5176416,-0.06235206,0.7530427,1.483284,0.2359152,0.1550699,1.204957,0.1547316,297.1717,220.4678,10.73324,True
1,3.133328,0.09561913,-0.002222642,0.01676363,-1.285154,-4.236325,-2.118479,0.4243971,1.32604,0.3638594,-0.5448258,-0.005932393,5.5,1,-0.02106962,0.07830386,-0.04528679,-0.4881366,-4.377975,0.3991389,0.5963471,1.445792,0.3720715,-0.07984793,0.08773583,0.06123758,-0.9459804,0.5189003,-0.06243914,0.7529421,1.48348,0.2360578,0.1551739,1.204389,0.1546907,297.2478,220.5119,10.65816,True
1,3.144439,0.08919698,0.003061558,0.01249561,-1.285326,-4.236444,-2.119225,0.4243875,1.325947,0.3637946,-0.5451049,-0.0254649,5.5,1,-0.02507164,0.09628835,-0.02805018,-0.4873574,-4.37479,0.3966557,0.5962127,1.445785,0.3718083,-0.0778428,0.0738458,0.04954591,-0.9458488,0.519325,-0.06188041,0.7529415,1.483475,0.235945,0.155204,1.203863,0.1545783,297.3225,220.5651,10.61666,True
1,3.15555,0.07960261,-0.0001733797,0.009346612,-1.285255,-4.236512,-2.119695,0.4243572,1.325921,0.3639162,-0.5449845,0.01124287,3.5,0.8,-0.03021121,0.1047063,-0.01301169,-0.4864663,-4.372139,0.3948195,0.5961394,1.445884,0.3715878,-0.08096725,0.06854929,0.05706588,-0.9447186,0.5201282,-0.06146336,0.7528734,1.48347,0.2359755,0.1552384,1.203381,0.1544594,297.36,220.5961,10.59358,True
1,3.166661,0.07641087,-0.004455427,0.007252073,-1.28509,-4.236401,-2.120457,0.4243717,1.325864,0.363847,-0.5446617,0.02938174,3.5,0.8,-0.0291869,0.09724446,-0.01308192,-0.4862948,-4.370489,0.3937135,0.5960954,1.445909,0.3712864,-0.07456255,0.05683266,0.06024184,-0.9439548,0.5204385,-0.0610535,0.7528695,1.483504,0.2358415,0.1552445,1.202909,0.1542934,297.3868,220.6411,10.57101,True
1,3.177772,0.07641324,-0.008745694,0.003013534,-1.284766,-4.236335,-2.121444,0.4244196,1.325738,0.3633685,-0.5443767,0.02582309,3.5,0.8,-0.03363708,0.07068847,-0.01966008,-0.4867087,-4.370337,0.3941055,0.5961288,1.446042,0.3710551,-0.07454416,0.05258376,0.06242255,-0.942734,0.5212813,-0.060776,0.7529035,1.483796,0.2357533,0.1553181,1.20249,0.1541825,297.4486,220.6683,10.47053,True
1,3.188883,0.08065076,-0.01305036,-0.006559113,-1.284379,-4.236424,-2.122458,0.4245208,1.32568,0.3633828,-0.5446489,-0.0250547,3.5,0.8,-0.03905188,0.05367244,-0.01975703,-0.4868951,-4.369843,0.3943825,0.5960768,1.446139,0.3708117,-0.07029231,0.04090661,0.06028497,-0.9423074,0.5223569,-0.06107054,0.7530454,1.48355,0.2352815,0.1554269,1.202162,0.1541787,297.5271,220.6757,10.37142,True
1,3.199994,0.08272834,-0.002428384,-0.01301949,-1.28446,-4.236912,-2.123299,0.4246413,1.325589,0.3633792,-0.5449637,-0.02847622,3.5,0.8,-0.04198656,0.05131769,0.007951448,-0.4858069,-4.369764,0.3948855,0.5960852,1.446284,0.3705654,-0.06716508,0.03235269,0.05496251,-0.9417758,0.5223528,-0.060323,0.7531441,1.483496,0.2351489,0.1554819,1.201911,0.1542161,297.5665,220.7115,10.37653,True
1,3.211105,0.07945576,0.01994284,-0.01420096,-1.285367,-4.237747,-2.123665,0.4247854,1.325683,0.3639448,-0.5450771,-0.01015706,4,2.4,-0.03273258,0.09235303,0.06254832,-0.4826143,-4.367047,0.3924818,0.5961126,1.446318,0.3702996,-0.07258259,0.02380867,0.04546193,-0.9414663,0.5224753,-0.05950567,0.7532827,1.483603,0.235235,0.1556272,1.20176,0.1544142,297.5136,220.6598,10.53015,True
1,3.222216,0.07620681,0.03482942,-0.01747038,-1.285951,-4.238495,-2.124203,0.4249468,1.325676,0.3640664,-0.5450228,0.005000789,4,2.4,-0.03118654,0.1208061,0.09793666,-0.4796204,-4.364305,0.3903443,0.5962171,1.446357,0.3700538,-0.05339115,0.007816076,0.04959966,-0.9407792,0.5219494,-0.05924069,0.7533714,1.483598,0.2350783,0.1556276,1.20146,0.1544014,297.5709,220.6063,10.63381,True
1,3.233327,0.06874982,0.03480881,-0.01744311,-1.286173,-4.238858,-2.124633,0.4250736,1.325687,0.3641706,-0.5446452,0.03450464,4,2.4,-0.02136311,0.1141327,0.1254804,-0.4771836,-4.364043,0.3901022,0.5963263,1.446351,0.3699188,-0.02877691,0.007813588,0.06111955,-0.939282,0.5221221,-0.05994802,0.7533804,1.483815,0.2349823,0.1557388,1.201182,0.1545258,297.5833,220.7072,10.43403,True
1,3.244438,0.05597483,0.0219474,-0.02478006,-1.285763,-4.239241,-2.124723,0.425199,1.325791,0.3642912,-0.5447773,-0.01234835,4,2.4,-0.01198155,0.09073784,0.1155987,-0.4762622,-4.364398,0.3902562,0.5965579,1.446323,0.3698192,-0.0244952,0.01314303,0.0621271,-0.9386226,0.5227147,-0.06015468,0.7534772,1.483883,0.2348533,0.1559342,1.200981,0.154885,297.6304,220.889,10.13356,True
1,3.255549,0.04323584,-0.0122561,-0.03838673,-1.284216,-4.239345,-2.124738,0.4253451,1.32596,0.3644307,-0.544618,0.01475437,4.3,2.2,-0.004073367,0.03775844,0.07777903,-0.4770765,-4.366715,0.3920562,0.5968068,1.446272,0.3698111,-6.237067E-05,-0.0178045,0.0588304,-0.9376511,0.5212137,-0.0600636,0.7535396,1.484016,0.2345808,0.1559004,1.200671,0.15547,297.77,221.1369,10.05904,True
1,3.26666,0.03901276,-0.05393587,-0.05943868,-1.281728,-4.239451,-2.125016,0.4255465,1.326191,0.3645918,-0.5443161,0.02748408,4.3,2.2,0.008179884,-0.01424558,0.04844984,-0.4780284,-4.369868,0.3943894,0.5971485,1.446367,0.3697116,0.007310899,-0.04339828,0.05351822,-0.9371504,0.519581,-0.05943616,0.7536068,1.484023,0.2343183,0.1557102,1.200117,0.1564086,298.0946,221.2015,10.25103,True
1,3.277771,0.03585479,-0.09133318,-0.07732315,-1.27901,-4.239503,-2.125324,0.4258479,1.326448,0.3647907,-0.544209,0.009635315,4.3,2.2,0.03911184,-0.003728077,0.04717229,-0.4775271,-4.36981,0.392906,0.5974563,1.446389,0.3696239,-0.001225455,-0.06043554,0.05474155,-0.9360271,0.5179779,-0.05810804,0.753976,1.484073,0.2341058,0.1556244,1.199839,0.1571552,298.1347,221.5418,10.13808,True
1,3.288882,0.03480409,-0.1105722,-0.08786218,-1.276921,-4.239681,-2.125722,0.4262295,1.32668,0.3649793,-0.5445477,-0.03097852,4.3,2.2,0.05335738,0.02688196,0.07287181,-0.4752571,-4.368289,0.3905225,0.5978166,1.44643,0.3693726,-0.02460467,-0.06890035,0.06244047,-0.9349927,0.516795,-0.05620096,0.7540706,1.484055,0.2337675,0.1556083,1.199827,0.1577172,298.1938,221.4463,10.32364,True
1,3.299993,0.03155053,-0.1010424,-0.09642757,-1.275543,-4.240424,-2.125752,0.4265954,1.326881,0.3651624,-0.5446655,-0.01045644,4.3,2.2,0.05577832,0.03731294,0.09744211,-0.4731425,-4.368243,0.3897874,0.598173,1.446546,0.3692648,-0.01588887,-0.07097629,0.08473784,-0.9331892,0.515857,-0.05564488,0.7543786,1.484028,0.2335205,0.1557011,1.200042,0.1581535,298.198,221.0582,10.71088,True
1,3.311104,0.02724681,-0.08509046,-0.09755997,-1.274682,-4.241002,-2.125832,0.4268741,1.327338,0.3655417,-0.5448407,-0.01592716,3.8,3.7,0.04498031,0.007533699,0.09729288,-0.4725598,-4.371206,0.3923979,0.5985456,1.446684,0.3690946,-0.006112166,-0.06240496,0.1038116,-0.9311253,0.5155862,-0.05579242,0.7547055,1.483951,0.233335,0.155914,1.20042,0.1585311,298.14,220.6409,11.09401,True
1,3.322215,0.02821382,-0.05956372,-0.1051673,-1.274082,-4.242377,-2.125793,0.4272187,1.327511,0.3657699,-0.5446862,0.01429217,3.8,3.7,0.03733877,-0.01152319,0.08761473,-0.4722701,-4.373363,0.3941577,0.598882,1.446779,0.3689361,-0.01160574,-0.04861263,0.08357705,-0.930852,0.5155343,-0.0554574,0.7549287,1.483924,0.2331393,0.1562032,1.200872,0.1588763,298.0348,220.3371,11.37178,True
1,3.333326,0.02711082,-0.04572766,-0.1052239,-1.273438,-4.24301,-2.12591,0.4274446,1.327526,0.3657246,-0.5447027,-0.001624156,3.8,3.7,0.0167365,-0.02074306,0.05576905,-0.4730839,-4.3739,0.3952584,0.5991033,1.446907,0.3688493,-0.02351763,-0.05505301,0.06453353,-0.9307897,0.5143768,-0.05392049,0.755038,1.483893,0.2329853,0.1565971,1.201273,0.1592064,298.0335,219.8045,11.79826,True
1,3.344437,0.02600306,-0.03188814,-0.1063647,-1.272931,-4.244159,-2.125809,0.4276966,1.327635,0.3659291,-0.5448545,-0.01383037,3.8,3.7,0.002995469,-0.01328354,0.06342766,-0.4720506,-4.374334,0.3960722,0.5993771,1.44703,0.3686602,-0.02273308,-0.06686315,0.03579968,-0.9313011,0.5128689,-0.05279797,0.7553467,1.483833,0.2327907,0.1570158,1.201608,0.1595779,298.0889,219.4259,12.04157,True
1,3.355548,0.02278621,-0.01695931,-0.1011118,-1.272609,-4.245071,-2.125691,0.4279329,1.327712,0.3658292,-0.5448343,0.001983822,3.4,3.7,0.01295035,0.006669536,0.09120804,-0.4698999,-4.374665,0.3958983,0.5996161,1.447191,0.3684862,-0.02492893,-0.0647658,0.0273109,-0.9309196,0.5119588,-0.05205095,0.755696,1.483725,0.2326658,0.1572632,1.201829,0.1599039,298.0792,219.2963,12.13114,True
1,3.366659,0.01956479,0.007600505,-0.08952268,-1.273115,-4.246083,-2.125478,0.4280761,1.32782,0.3660409,-0.5447853,0.004479891,3.4,3.7,0.01846594,0.02894036,0.09986815,-0.4682524,-4.373641,0.3945588,0.599847,1.447296,0.3682988,-0.03983441,-0.05409382,0.02634554,-0.9306885,0.5117058,-0.05097556,0.7559434,1.483615,0.2323875,0.1573348,1.201885,0.1601724,298.0769,219.1516,12.29793,True
1,3.37777,0.02062251,0.02150098,-0.08108383,-1.273404,-4.247011,-2.125472,0.4282586,1.32794,0.3662286,-0.5447208,0.005843344,3.4,3.7,0.01420429,0.04821737,0.09048843,-0.4671419,-4.371655,0.3927638,0.600136,1.447301,0.3681889,-0.04931498,-0.0402041,0.0349306,-0.9297207,0.5118572,-0.05030711,0.7562659,1.483652,0.2322834,0.1572925,1.201866,0.1604483,298.0516,219.3604,12.14813,True
1,3.388881,0.01743082,0.03540806,-0.06943356,-1.273973,-4.247796,-2.125318,0.4284298,1.328022,0.3663743,-0.5446825,0.003483017,3.4,3.7,-0.005337469,0.03044599,0.06175515,-0.4676697,-4.372109,0.3939548,0.6003815,1.44734,0.3681083,-0.05134722,-0.01883735,0.04020408,-0.929251,0.5133033,-0.05082883,0.7565081,1.483443,0.2319398,0.1572268,1.201879,0.1606611,298.0624,219.4347,12.09474,True
1,3.399992,0.01100404,0.05780405,-0.06208159,-1.274845,-4.24893,-2.1249,0.4286262,1.328058,0.3664498,-0.5448918,-0.0191348,3.4,3.7,-0.01516275,0.01786428,0.04363111,-0.4679387,-4.37251,0.3948435,0.6005836,1.447394,0.3679576,-0.0480905,0.001411736,0.04542712,-0.9287471,0.5141553,-0.05069434,0.756641,1.483418,0.2319465,0.1571712,1.201975,0.1608696,298.0625,219.6501,11.88984,True
1,3.411103,0.006683858,0.07803476,-0.06219643,-1.275618,-4.250589,-2.124347,0.4289699,1.328151,0.3662367,-0.5447512,0.01305141,2.4,4.4,-0.01941607,0.02215532,0.04264153,-0.467282,-4.371897,0.3946349,0.6007699,1.447487,0.3677945,-0.03746916,0.01521148,0.03782529,-0.9286709,0.5147408,-0.05126106,0.7570813,1.483522,0.2319498,0.1571425,1.202158,0.1611451,298.0305,219.8332,11.73778,True
1,3.422215,0.006673761,0.08443865,-0.06010258,-1.276294,-4.251745,-2.124094,0.4291889,1.328223,0.3662889,-0.544601,0.01360133,2.4,4.4,-0.01308754,0.02432034,0.03514055,-0.4670492,-4.371403,0.3941098,0.6009586,1.447554,0.3676155,-0.03437897,0.01730073,0.0260713,-0.9288238,0.5150846,-0.05119315,0.7573474,1.483511,0.2317836,0.1571365,1.202393,0.1614788,297.9858,219.9155,11.71778,True
1,3.433326,0.007723872,0.08657056,-0.05905436,-1.276712,-4.252776,-2.123734,0.4294823,1.32836,0.3661783,-0.5446468,-0.004237012,2.4,4.4,-0.007808379,0.0211255,0.03186671,-0.4667765,-4.37146,0.3940887,0.6012213,1.447707,0.3673959,-0.03341091,0.01620133,0.01646999,-0.9290768,0.5151206,-0.05075958,0.7577056,1.483489,0.2316484,0.1571404,1.202661,0.1617984,297.9476,220.01,11.7341,True
1,3.444437,0.00990059,0.07274011,-0.05685214,-1.276735,-4.253451,-2.123718,0.4297325,1.328483,0.3661296,-0.5448433,-0.01793102,2.4,4.4,-0.01226571,0.008482052,0.01795112,-0.4671568,-4.371869,0.3947414,0.6015098,1.447802,0.3672123,-0.04316536,-0.007266607,0.001715228,-0.9295604,0.5141113,-0.04936915,0.7579846,1.483446,0.23141,0.1571397,1.20296,0.1620486,297.9199,220.1592,11.71784,True
1,3.455548,0.008894408,0.05141879,-0.05778819,-1.276206,-4.253864,-2.123712,0.4300779,1.328512,0.3656197,-0.5447517,0.008549897,1.8,4.4,-0.01665274,5.748123E-05,0.008335353,-0.4674774,-4.372473,0.3955069,0.6019121,1.447802,0.3669534,-0.04216653,-0.01261437,-0.002555771,-0.9299364,0.513557,-0.04832998,0.7583449,1.483449,0.2312622,0.1571261,1.203278,0.1622687,297.8594,220.3582,11.62012,True
1,3.466659,0.01315881,0.04180631,-0.0641404,-1.275864,-4.254762,-2.123727,0.4304268,1.3286,0.3655651,-0.5449989,-0.0226457,1.8,4.4,-0.02642104,-0.009365311,-0.005500436,-0.4681342,-4.372902,0.3965306,0.6022258,1.447829,0.3667417,-0.04641927,-0.02005778,-0.0003758911,-0.9298874,0.5129167,-0.04733769,0.7585392,1.483499,0.231158,0.1571304,1.203589,0.162471,297.8145,220.4764,11.6093,True
1,3.47777,0.01531329,0.03328516,-0.06623011,-1.27563,-4.255605,-2.123846,0.4307632,1.328612,0.3655112,-0.5449722,0.002633117,1.8,4.4,-0.02422729,-0.003007922,-0.002272131,-0.4679515,-4.37242,0.3962443,0.6024911,1.447828,0.3666537,-0.0463234,0.01085865,0.006970366,-0.9299183,0.514376,-0.04740959,0.7588,1.483511,0.2310328,0.1571572,1.203847,0.1626373,297.7612,220.516,11.71518,True
1,3.488881,0.01640436,0.02476399,-0.06511621,-1.275233,-4.2561,-2.123862,0.4309768,1.328594,0.3653884,-0.5451246,-0.01396435,1.8,4.4,-0.01447613,0.006439452,0.009431943,-0.4672814,-4.371879,0.3955119,0.6027213,1.447856,0.3664787,-0.05171786,0.02149366,-0.001550445,-0.9304339,0.515073,-0.04699441,0.7589556,1.483358,0.2309909,0.1572274,1.203994,0.1627023,297.7377,220.5101,11.89304,True
