loc,t,aDotUA,bDotUA,gDotUA,aUA,bUA,gUA,xUA,yUA,zUA,qE,qDotE,emgA,emgB,aDotSH,bDotSH,gDotSH,aSH,bSH,gSH,xSH,ySH,zSH,aDotUB,bDotUB,gDotUB,aUB,bUB,gUB,xUB,yUB,zUB,xHand,yHand,zHand,aHand,bHand,gHand,enable
2,0,0.1454873,-0.5098235,0.1156704,-1.117539,-3.737429,-3.055766,0.5795966,1.265955,0.4531596,-1.171868,0.0279676,10.9,8.6,-0.04579161,0.188925,0.1229099,-0.6106831,-4.66679,0.1352532,0.7003347,1.4431,0.4022353,-0.07308212,0.04567012,0.06224572,-0.9487644,0.1156386,-0.1118014,0.7653095,1.487035,0.2154548,0.4260408,1.063301,0.244656,309.8177,196.6449,18.25785,True
2,0.01111111,0.1292989,-0.4854241,0.1165352,-1.118252,-3.731777,-3.059415,0.5793687,1.265796,0.4529548,-1.171824,0.003821587,10.9,8.6,-0.001530804,0.1165333,0.09638889,-0.6105483,-4.66852,0.1352723,0.7000059,1.443147,0.4022863,-0.06875385,0.05952282,0.06318404,-0.9481364,0.1173126,-0.1123644,0.7650636,1.487125,0.2155309,0.4281571,1.060663,0.2442661,312.0698,193.5752,19.94154,True
2,0.02222222,0.1229582,-0.4640934,0.1239109,-1.119279,-3.726377,-3.062714,0.5793399,1.265306,0.4525998,-1.171314,0.04658402,9.6,11.3,0.01406147,0.09225883,0.06090961,-0.6109606,-4.667757,0.1340678,0.699592,1.44319,0.4023507,-0.07074471,0.06491822,0.07383258,-0.9470435,0.1186494,-0.1122363,0.7647598,1.487235,0.2156122,0.4313836,1.056558,0.2438379,313.5818,193.4126,18.94073,True
2,0.03333334,0.1121567,-0.4128565,0.1459734,-1.121407,-3.723012,-3.06504,0.5791619,1.265062,0.4523861,-1.171408,-0.008974471,9.6,11.3,0.02633388,0.08842277,0.002180362,-0.6127742,-4.665798,0.1318006,0.6991076,1.443222,0.4024243,-0.07474826,0.0767438,0.09085866,-0.9456512,0.1203423,-0.1124911,0.7644114,1.4875,0.2158837,0.4351446,1.051768,0.2434509,314.9841,193.8722,17.1203,True
2,0.04444445,0.1077247,-0.3519756,0.1733003,-1.124194,-3.720508,-3.067249,0.5789334,1.26485,0.4521151,-1.171271,0.01278458,9.6,11.3,0.01546004,0.1292991,-0.04107711,-0.6140711,-4.660213,0.1275209,0.6985316,1.443349,0.4024363,-0.06723116,0.06717326,0.09720837,-0.9445156,0.1210721,-0.1125425,0.764125,1.48752,0.2157545,0.4389298,1.047009,0.2431158,316.3281,194.1578,15.49864,True
2,0.05555556,0.1001053,-0.2975493,0.1921494,-1.12684,-3.718377,-3.069114,0.5787027,1.264691,0.4518566,-1.171262,0.0007450621,9.6,11.3,-0.007875651,0.1741805,-0.04797832,-0.6143497,-4.654292,0.1235502,0.6980649,1.443449,0.4024479,-0.06316897,0.04898831,0.08554048,-0.9439495,0.1211242,-0.1119295,0.763922,1.487612,0.2157722,0.4423006,1.042827,0.2427676,317.4724,194.347,14.17639,True
2,0.06666667,0.0893358,-0.2623869,0.1994005,-1.12916,-3.716208,-3.070695,0.5785509,1.264473,0.4516289,-1.171603,-0.03121081,13,12.5,-0.02043565,0.1836368,-0.02541414,-0.6134176,-4.650465,0.1210468,0.6976259,1.443506,0.4024212,-0.05684172,0.0340475,0.08342059,-0.9430419,0.1211859,-0.1115915,0.7636144,1.487545,0.2156463,0.4449242,1.03969,0.2423934,318.3334,194.5816,13.05701,True
2,0.07777778,0.07217488,-0.2326162,0.1981824,-1.131242,-3.714332,-3.071687,0.5782955,1.264287,0.451478,-1.171529,0.007078806,13,12.5,-0.02321955,0.1747093,0.02674035,-0.6111528,-4.648101,0.1194137,0.6971952,1.443643,0.4023471,-0.05261208,0.0287047,0.08233403,-0.9421646,0.1214994,-0.1112573,0.7633686,1.487622,0.215663,0.4466184,1.037817,0.2419676,318.8132,194.7945,12.31284,True
2,0.08888889,0.04968639,-0.2114913,0.1831852,-1.132888,-3.71234,-3.072212,0.5779793,1.26471,0.4529519,-1.171286,0.02225484,13,12.5,-0.009142846,0.1530519,0.06373408,-0.6091778,-4.64688,0.1181325,0.6969049,1.443746,0.4023356,-0.04828945,0.02659272,0.08654934,-0.9411856,0.1220813,-0.1113987,0.7630861,1.487698,0.2156684,0.4474032,1.037197,0.2415076,318.8876,194.8935,12.04538,True
2,0.1,0.03473042,-0.2030652,0.1767716,-1.134564,-3.709956,-3.07314,0.5778008,1.264446,0.4527581,-1.170893,0.0357992,13,12.5,0.007832639,0.1359589,0.06239016,-0.6084993,-4.64515,0.1160422,0.6964868,1.443758,0.4022961,-0.04822592,0.02662344,0.09187353,-0.9400378,0.1226577,-0.1111846,0.7628156,1.487796,0.2157037,0.4474378,1.037614,0.2410332,318.6043,194.865,12.18921,True
2,0.1111111,0.02178261,-0.1659092,0.1637779,-1.135952,-3.709191,-3.073231,0.5776685,1.264222,0.4526517,-1.170476,0.03793266,13,12.5,0.0181049,0.1255934,0.02173622,-0.6094037,-4.643073,0.1138179,0.696102,1.44372,0.4023211,-0.04711162,0.02557862,0.09719183,-0.9388096,0.1230458,-0.1107686,0.7624561,1.487925,0.2155325,0.4470638,1.03886,0.2407714,318.0773,194.6595,12.51881,True
2,0.1222222,0.01087801,-0.1031324,0.158077,-1.137686,-3.7101,-3.072503,0.5774744,1.264049,0.4525008,-1.170838,-0.03333966,12.3,12,0.01776695,0.1173538,-0.01454293,-0.6105249,-4.641148,0.1121156,0.6957458,1.443749,0.4023168,-0.04605057,0.0298098,0.09395195,-0.9380404,0.1235986,-0.1109249,0.7622217,1.488292,0.2157285,0.4465818,1.040712,0.2410263,317.419,194.4336,12.906,True
2,0.1333333,-0.002177015,-0.02968537,0.1629411,-1.139525,-3.711571,-3.071355,0.5775406,1.263621,0.4524913,-1.170888,-0.004079267,12.3,12,0.01845612,0.1155704,-0.0582432,-0.6125484,-4.638598,0.1098061,0.6953741,1.443703,0.4023991,-0.04077756,0.03189937,0.08962004,-0.9371563,0.1242568,-0.1109318,0.7618462,1.488337,0.2158179,0.4457432,1.042393,0.2411049,316.8054,194.3665,13.48229,True
2,0.1444445,-0.01306374,0.03637326,0.171064,-1.141887,-3.714053,-3.069756,0.5773996,1.263321,0.4524729,-1.170914,-0.002212542,12.3,12,0.01708233,0.1062505,-0.09133496,-0.6144509,-4.636713,0.1080737,0.6950076,1.443683,0.402477,-0.03653727,0.02973764,0.08744362,-0.9363648,0.1245504,-0.110991,0.7616301,1.488358,0.2161422,0.4447726,1.04362,0.2409268,316.344,194.3985,13.96891,True
2,0.1555556,-0.03238068,0.0757641,0.1761762,-1.144186,-3.716163,-3.067836,0.5771722,1.263109,0.4524329,-1.170867,0.004351914,12.3,12,0.01802367,0.09566154,-0.1010168,-0.6157899,-4.635379,0.1067981,0.6946834,1.443688,0.4025247,-0.03442468,0.03290974,0.08527425,-0.9354646,0.1251836,-0.11104,0.7612965,1.488397,0.2162659,0.4438857,1.044331,0.2405553,316.0159,194.5263,14.21867,True
2,0.1666667,-0.04629224,0.0895209,0.1697222,-1.145985,-3.717578,-3.066299,0.5769793,1.262899,0.4523125,-1.170966,-0.008989619,12.8,11.3,0.01799671,0.0785871,-0.09688993,-0.6166353,-4.634553,0.1059365,0.6944082,1.44363,0.402535,-0.02907331,0.03184957,0.08734672,-0.9344771,0.1258775,-0.1113215,0.7611036,1.488346,0.2160568,0.4433011,1.044573,0.2401462,315.7921,194.7032,14.24909,True
2,0.1777778,-0.0537549,0.08300009,0.1537975,-1.147228,-3.718249,-3.065186,0.5767959,1.262702,0.4521687,-1.170639,0.03009159,12.8,11.3,0.01590421,0.0646534,-0.08632788,-0.6171732,-4.634138,0.105512,0.6941068,1.443581,0.4025517,-0.02484874,0.03075596,0.08517174,-0.9336063,0.1263057,-0.1113579,0.7608031,1.488425,0.2161596,0.4430245,1.04444,0.2397478,315.723,194.9487,14.02565,True
2,0.1888889,-0.05803518,0.07430712,0.128295,-1.147862,-3.718712,-3.064214,0.5766228,1.26258,0.4519963,-1.170846,-0.01908533,12.8,11.3,0.01277347,0.05285043,-0.07361481,-0.617586,-4.633571,0.1050124,0.6937951,1.443567,0.402602,-0.02067976,0.03494579,0.07550146,-0.9332569,0.1269368,-0.1118006,0.7605456,1.488625,0.2161784,0.4429997,1.044074,0.2393549,315.7983,195.1925,13.70351,True
2,0.2,-0.06126389,0.06880004,0.1006394,-1.148157,-3.719398,-3.063154,0.5765494,1.262447,0.4518757,-1.171129,-0.02563227,12.8,11.3,0.006494135,0.05917179,-0.06285845,-0.6178475,-4.632103,0.1039845,0.693535,1.443523,0.4026055,-0.0164732,0.04022841,0.07010221,-0.9326262,0.1277913,-0.1121947,0.7602632,1.488685,0.2162733,0.443163,1.043612,0.2389439,315.9362,195.3496,13.42126,True
2,0.2111111,-0.07095514,0.08137843,0.07395419,-1.148339,-3.720868,-3.061327,0.5763459,1.262413,0.4519346,-1.171325,-0.01759451,12.8,11.3,-0.002977766,0.07620575,-0.0562538,-0.6181788,-4.629328,0.1021131,0.6932444,1.443482,0.402699,-0.01013123,0.04018115,0.0657577,-0.9321634,0.1283154,-0.1126395,0.7600796,1.488657,0.2162502,0.4434424,1.043166,0.2385074,316.0726,195.4089,13.19264,True
2,0.2222222,-0.07744166,0.09615026,0.05363728,-1.148551,-3.722734,-3.059428,0.5761878,1.262264,0.4518576,-1.171435,-0.009823221,12,9.5,-0.002017535,0.06989533,-0.06590223,-0.6191876,-4.62801,0.101027,0.6929234,1.44336,0.4027424,-0.006980844,0.03908268,0.0635951,-0.9315152,0.1286336,-0.1126187,0.7597784,1.488664,0.216289,0.4437409,1.042825,0.2380573,316.1742,195.4011,12.99899,True
2,0.2333333,-0.0807174,0.1131424,0.04714365,-1.149036,-3.724717,-3.057539,0.5760176,1.262115,0.4519331,-1.171084,0.0322348,12,9.5,0.003172267,0.0571788,-0.07670189,-0.6203541,-4.627431,0.1003599,0.6926585,1.443273,0.4027786,-0.005897358,0.04015244,0.06357199,-0.9309644,0.1294667,-0.1132882,0.7595481,1.488703,0.2164028,0.4439597,1.042658,0.2376426,316.2169,195.3593,12.81586,True
2,0.2444444,-0.08622983,0.1578061,0.03727929,-1.149461,-3.728274,-3.054901,0.5757574,1.261976,0.4519038,-1.171231,-0.01367052,12,9.5,0.01473253,0.03698658,-0.08762196,-0.6217794,-4.627553,0.0998214,0.6922931,1.44312,0.4028459,-0.006928824,0.04229652,0.06569874,-0.9302784,0.1302226,-0.1136459,0.7592714,1.488692,0.2163911,0.4439327,1.04271,0.2372745,316.2074,195.3454,12.6347,True
2,0.2555556,-0.08738042,0.1801288,0.03605802,-1.149719,-3.730658,-3.052958,0.575626,1.261748,0.4519453,-1.171404,-0.01564679,12,9.5,0.01564732,0.02536766,-0.1005075,-0.6233491,-4.627485,0.09956574,0.6919745,1.44303,0.4028835,-0.004857048,0.04439124,0.06033496,-0.9298816,0.1310298,-0.1141457,0.7590414,1.488733,0.2164791,0.4435681,1.042974,0.2369369,316.1166,195.3644,12.5582,True
2,0.2666667,-0.08433773,0.2119785,0.01773967,-1.149622,-3.734338,-3.050602,0.5753556,1.261721,0.451961,-1.171396,0.0008876409,15.2,10,0.01230495,0.01589842,-0.1133431,-0.6250668,-4.627295,0.09948637,0.6915689,1.442954,0.4028924,-0.004911102,0.04330049,0.0560771,-0.9295183,0.1315855,-0.1144185,0.7587304,1.488782,0.2164726,0.4428881,1.043438,0.2366711,315.9553,195.4201,12.56168,True
2,0.2777778,-0.08130838,0.248099,0.0004632697,-1.1495,-3.738598,-3.048012,0.5750489,1.26189,0.45205,-1.171674,-0.02537149,15.2,10,-0.002570532,0.02659586,-0.1131253,-0.6261593,-4.626134,0.09908477,0.6912531,1.442978,0.402916,-0.008170284,0.04647313,0.05076856,-0.9292387,0.1323728,-0.1145684,0.7585015,1.488881,0.2165473,0.441869,1.04405,0.2364563,315.7448,195.518,12.64233,True
2,0.2888889,-0.08685817,0.2947847,-0.02539076,-1.148885,-3.74387,-3.044644,0.5748123,1.261928,0.4521718,-1.171864,-0.0171931,15.2,10,-0.002329368,0.04560699,-0.09273984,-0.6265172,-4.624093,0.09745865,0.690848,1.44296,0.4030061,-0.01350099,0.04540772,0.04976862,-0.9288211,0.1328706,-0.1146992,0.7583195,1.488829,0.2167144,0.4406754,1.044771,0.2363615,315.5079,195.586,12.83604,True
2,0.3,-0.09456599,0.3542947,-0.03855038,-1.148355,-3.749717,-3.040902,0.5749253,1.261773,0.4523489,-1.171908,-0.003757245,15.2,10,0.00538031,0.05922351,-0.06818765,-0.626269,-4.62245,0.09581707,0.6905788,1.44298,0.403049,-0.01572479,0.05387942,0.04122622,-0.9286975,0.1337875,-0.114815,0.7581472,1.488933,0.2167711,0.4393275,1.045568,0.2363866,315.324,195.6823,12.97741,True
2,0.3111111,-0.1022437,0.4085242,-0.04953644,-1.148112,-3.756664,-3.036659,0.5747082,1.261811,0.4524117,-1.171573,0.03061138,15.2,10,0.0229287,0.07151053,-0.01390733,-0.6244894,-4.620617,0.09342769,0.6901809,1.443062,0.4030869,-0.02005588,0.06024158,0.03271757,-0.9287865,0.1349918,-0.1153633,0.7578778,1.489048,0.2167945,0.4378315,1.046451,0.2365541,315.1698,195.8134,13.08151,True
2,0.3222222,-0.1132553,0.4967737,-0.06393117,-1.147596,-3.7654,-3.031348,0.5744818,1.26173,0.4526749,-1.171445,0.0115253,16.5,7.6,0.01335119,0.07473746,-0.01379902,-0.6246679,-4.619156,0.09248732,0.6897947,1.443069,0.4030197,-0.02331639,0.05381725,0.02853151,-0.928583,0.1351445,-0.1151538,0.7577131,1.488918,0.2167702,0.4361638,1.047391,0.236844,314.9766,195.9622,13.25337,True
2,0.3333333,-0.1241383,0.5531192,-0.07598805,-1.147251,-3.774487,-3.025834,0.5742449,1.261827,0.4529088,-1.171452,-0.0006694335,16.5,7.6,-0.01757095,0.06418683,-0.0125576,-0.6247456,-4.618511,0.09325431,0.6894875,1.443128,0.4030528,-0.01721188,0.04409286,0.0072033,-0.9292169,0.1352087,-0.1151969,0.7574915,1.488915,0.2168212,0.434381,1.048359,0.2372323,314.7599,196.1742,13.45919,True
2,0.3444445,-0.1532616,0.6348305,-0.1041616,-1.146022,-3.78472,-3.018848,0.573795,1.261998,0.4531434,-1.1712,0.0231229,16.5,7.6,-0.02181857,0.02142261,0.007373435,-0.6241928,-4.620822,0.09554064,0.6892594,1.443092,0.4030926,-0.009965389,0.03545539,-0.008814726,-0.9297884,0.1352341,-0.1154997,0.7572217,1.488795,0.2167962,0.4323915,1.04933,0.2376064,314.5766,196.4437,13.57626,True
2,0.3555556,-0.1778427,0.6473373,-0.1340227,-1.144753,-3.793026,-3.01305,0.5731352,1.262406,0.4528508,-1.171206,-0.0007375086,16.5,7.6,-0.01556024,-0.01267988,0.005981533,-0.6242998,-4.623081,0.09733268,0.6890162,1.443091,0.403137,-0.02390483,0.006735187,-0.008479883,-0.929651,0.1342175,-0.1140264,0.7569139,1.488853,0.2168221,0.4301471,1.050365,0.2380052,314.3943,196.745,13.63039,True
2,0.3666667,-0.1906608,0.6439321,-0.1595454,-1.143103,-3.800993,-3.007223,0.5726368,1.262685,0.4529464,-1.170343,0.07902286,16.5,7.6,-0.01165918,-0.06366596,-0.01469635,-0.625397,-4.627048,0.1005375,0.6887015,1.443123,0.4031813,-0.02489919,0.005700659,-0.004208602,-0.9296871,0.1343426,-0.1140973,0.7566439,1.48897,0.2169075,0.4276316,1.051556,0.2384602,314.224,197.0574,13.69121,True
2,0.3777778,-0.2108681,0.6148133,-0.2008774,-1.140236,-3.80753,-3.001611,0.5722018,1.262941,0.4529841,-1.17081,-0.04332877,14.4,5.2,-0.01844309,-0.1017646,-0.04476979,-0.6270679,-4.63107,0.1042803,0.6884559,1.443159,0.403229,-0.01197801,0.01849348,0.004092313,-0.9293537,0.135288,-0.1149633,0.7563523,1.489009,0.2169759,0.4247075,1.052956,0.238875,314.1021,197.3801,13.81611,True
2,0.3888889,-0.2289825,0.5953082,-0.2422682,-1.137084,-3.814606,-2.995474,0.5715466,1.263347,0.4529836,-1.170877,-0.005558698,14.4,5.2,-0.03154866,-0.122786,-0.07360126,-0.6291308,-4.633958,0.1074431,0.6880897,1.443111,0.4033277,-0.009863232,0.02592524,0.002962012,-0.9293804,0.1357524,-0.1148605,0.7560469,1.489284,0.2169209,0.4214923,1.054635,0.239186,313.9441,197.6246,14.15991,True
2,0.4,-0.2396773,0.59294,-0.2688729,-1.134159,-3.821921,-2.989491,0.5711623,1.263622,0.453012,-1.170663,0.01969754,14.4,5.2,-0.04988359,-0.1171567,-0.1021602,-0.6311052,-4.635154,0.1095411,0.6876864,1.443084,0.4033012,-0.01425989,0.03012561,-0.008734554,-0.9300621,0.1360901,-0.114664,0.7560109,1.489296,0.2169666,0.4183035,1.056612,0.2395379,313.6204,197.6999,14.72034,True
2,0.4111111,-0.2462026,0.6076447,-0.3009064,-1.131114,-3.830844,-2.98246,0.5705383,1.263843,0.4534738,-1.170518,0.01311434,14.4,5.2,-0.06375588,-0.1063947,-0.1094144,-0.6326472,-4.636265,0.1116155,0.6872095,1.443038,0.4032946,-0.01659803,0.04812953,-0.02798039,-0.9311082,0.1372935,-0.1147316,0.7558148,1.489331,0.2168913,0.4152635,1.058756,0.2398944,313.2383,197.6082,15.3841,True
2,0.4222222,-0.2570615,0.6523285,-0.310739,-1.129489,-3.841713,-2.974252,0.5697856,1.264561,0.4538033,-1.170947,-0.03912544,12.4,3.7,-0.09131873,-0.08398089,-0.1026081,-0.6334947,-4.636514,0.1137625,0.6866809,1.443007,0.4032502,-0.02452254,0.07028776,-0.06955309,-0.9333165,0.138803,-0.1147468,0.755652,1.489243,0.2168763,0.4123268,1.06096,0.2401865,312.8732,197.4902,15.9666,True
2,0.4333333,-0.2626472,0.7226129,-0.3154367,-1.127754,-3.853966,-2.966012,0.5692161,1.264745,0.4540513,-1.170802,0.01369908,12.4,3.7,-0.1189364,-0.0582987,-0.1043007,-0.634684,-4.636001,0.1155069,0.6860594,1.442878,0.4031801,-0.03530073,0.09048019,-0.08444111,-0.9347104,0.1405992,-0.1150803,0.7554141,1.489175,0.2170002,0.4095283,1.063165,0.2404774,312.4759,197.348,16.47262,True
2,0.4444444,-0.2639944,0.8004162,-0.3106085,-1.126555,-3.86711,-2.957353,0.5686347,1.264766,0.4543006,-1.170601,0.01829184,12.4,3.7,-0.1434258,-0.04218419,-0.1092981,-0.6361322,-4.63551,0.1175128,0.6853728,1.442772,0.4031851,-0.04065669,0.1192178,-0.09198614,-0.9360793,0.1431943,-0.1156957,0.7551872,1.489172,0.2171247,0.4067035,1.065345,0.2408465,312.1291,197.2891,16.73372,True
2,0.4555556,-0.2578706,0.8836488,-0.2930372,-1.126206,-3.881081,-2.948755,0.5679862,1.264815,0.4545796,-1.171307,-0.06440718,12.4,3.7,-0.1520583,-0.03885175,-0.1230463,-0.6379262,-4.635859,0.119769,0.6846459,1.442693,0.4031472,-0.05970962,0.1437998,-0.08762924,-0.9371738,0.1460225,-0.1160978,0.7548363,1.48913,0.2173302,0.4036193,1.067592,0.2412777,311.8505,197.4576,16.82638,True
2,0.4666667,-0.2473888,0.9381257,-0.2774257,-1.126048,-3.89494,-2.940381,0.5674069,1.26485,0.4548783,-1.171468,-0.01416956,12.4,3.7,-0.1532106,-0.04196906,-0.1315893,-0.6397771,-4.636334,0.1219214,0.6839099,1.442558,0.4032075,-0.0691573,0.156667,-0.07799146,-0.9378657,0.1486294,-0.1163783,0.7545648,1.489136,0.2175417,0.400158,1.069887,0.241792,311.4606,197.6377,17.09197,True
2,0.4777778,-0.2348353,1.013981,-0.2523633,-1.12694,-3.910448,-2.931533,0.5667784,1.264927,0.4551511,-1.17196,-0.04485779,11.7,2.7,-0.1662391,-0.0459631,-0.1592092,-0.6425111,-4.636933,0.1246525,0.6830927,1.442418,0.4032094,-0.07631924,0.1738451,-0.05775996,-0.9381422,0.1517032,-0.1171471,0.7542574,1.489106,0.2177522,0.3963467,1.072213,0.2424601,310.9872,197.8754,17.45165,True
2,0.4888889,-0.2168777,1.068506,-0.2335741,-1.12777,-3.925819,-2.923207,0.5662557,1.264853,0.4554162,-1.172207,-0.02218352,11.7,2.7,-0.1770964,-0.03824073,-0.1867513,-0.6454523,-4.636494,0.1266208,0.6821456,1.442269,0.4031622,-0.08682944,0.1941618,-0.04921756,-0.9386694,0.1551294,-0.117586,0.7539634,1.48911,0.2179058,0.3923077,1.074571,0.2433671,310.483,198.2166,17.8272,True
2,0.5,-0.2052478,1.099501,-0.2210494,-1.128069,-3.940344,-2.915041,0.5659642,1.264663,0.4557397,-1.172433,-0.02055011,11.7,2.7,-0.1835735,-0.02317213,-0.2036195,-0.6481996,-4.635577,0.1280901,0.6812699,1.442101,0.403173,-0.09639966,0.2048402,-0.05022484,-0.939592,0.1583441,-0.1180752,0.7536471,1.489025,0.2180774,0.3881774,1.076938,0.2445417,310.0044,198.6517,18.19159,True
2,0.5111111,-0.1893179,1.123124,-0.2009879,-1.129601,-3.955049,-2.907213,0.5654487,1.264503,0.456073,-1.172851,-0.03806811,11.7,2.7,-0.1824509,-0.005051821,-0.2045446,-0.6503189,-4.634001,0.1288051,0.6802298,1.441923,0.4031384,-0.1081481,0.2165889,-0.04800053,-0.940107,0.1615298,-0.1171213,0.7532334,1.489161,0.2179587,0.3839738,1.0793,0.24593,309.539,199.2144,18.4892,True
2,0.5222223,-0.178688,1.136026,-0.1893631,-1.131071,-3.96944,-2.899498,0.5648255,1.264446,0.4564271,-1.172599,0.02331776,7.2,1.7,-0.1694415,0.01820879,-0.1874235,-0.6516329,-4.631963,0.1286126,0.6790872,1.44181,0.4031992,-0.1155763,0.2208725,-0.04687091,-0.9409161,0.1645214,-0.1173905,0.7529671,1.489059,0.2180965,0.3798267,1.081605,0.2475258,309.0413,199.739,18.89653,True
2,0.5333334,-0.146767,1.16512,-0.1587152,-1.133656,-3.984697,-2.892586,0.5642794,1.264337,0.4570942,-1.172873,-0.02539308,7.2,1.7,-0.1519493,0.06046924,-0.152073,-0.6518795,-4.628577,0.1270789,0.6779436,1.44168,0.4031882,-0.1355922,0.2476487,-0.03291959,-0.9411616,0.1692133,-0.1177535,0.7525932,1.488842,0.2183373,0.3758708,1.083779,0.2492809,308.5658,200.2204,19.34636,True
2,0.5444446,-0.1361351,1.180163,-0.1460427,-1.135847,-3.999554,-2.885202,0.5637836,1.264194,0.4577219,-1.172778,0.008884714,7.2,1.7,-0.1421542,0.09017548,-0.1401936,-0.6527115,-4.624917,0.1254003,0.6767983,1.441582,0.4031298,-0.1460935,0.2648006,-0.01901862,-0.941029,0.1736587,-0.1175698,0.7521562,1.488855,0.2184632,0.3720666,1.085762,0.2510542,308.1395,200.8004,19.61592,True
2,0.5555557,-0.1138141,1.207028,-0.1238826,-1.138926,-4.01502,-2.878279,0.5633276,1.26398,0.4582,-1.17377,-0.09083477,7.2,1.7,-0.137794,0.1189169,-0.1399973,-0.653969,-4.620991,0.1237539,0.6756322,1.441513,0.4030595,-0.1542366,0.2788189,0.008710435,-0.9403084,0.1780574,-0.1182569,0.7517458,1.488838,0.2186337,0.3684147,1.087573,0.2528054,307.7821,201.4234,19.71771,True
2,0.5666668,-0.07876241,1.248874,-0.09757778,-1.142713,-4.031264,-2.871828,0.5629224,1.263782,0.4587276,-1.173051,0.06642517,7.2,1.7,-0.1420644,0.1339119,-0.1472962,-0.6556362,-4.617295,0.1225563,0.6743588,1.441496,0.402997,-0.1605195,0.2831559,0.01835971,-0.9400703,0.1822632,-0.1185362,0.7513603,1.488777,0.2189918,0.3649693,1.089265,0.2546489,307.3925,202.0578,19.70906,True
2,0.577778,-0.04482126,1.307785,-0.06924289,-1.147318,-4.048691,-2.865326,0.5626315,1.263349,0.4591849,-1.173467,-0.03881375,3.9,0.8,-0.1535597,0.147637,-0.1268452,-0.6560553,-4.613857,0.1218889,0.673041,1.441404,0.4028876,-0.1658225,0.2948789,0.01729796,-0.940335,0.1866932,-0.1191866,0.7509454,1.488718,0.2191274,0.3616287,1.090832,0.2565552,307.0339,202.727,19.67199,True
2,0.5888891,-0.02053219,1.383685,-0.04313934,-1.15248,-4.067394,-2.858315,0.5624357,1.262938,0.4596996,-1.174084,-0.05618662,3.9,0.8,-0.1615912,0.1835507,-0.08387016,-0.6551323,-4.608601,0.1197778,0.6717646,1.441389,0.4027774,-0.1798537,0.295911,0.006831057,-0.9406477,0.1905741,-0.1183405,0.7504469,1.488723,0.2192593,0.3583162,1.092307,0.2584919,306.6838,203.5024,19.5625,True
2,0.6000003,-0.001511872,1.433915,-0.030687,-1.157608,-4.085913,-2.851458,0.5621589,1.262562,0.4601431,-1.174281,-0.01766256,3.9,0.8,-0.1686954,0.2110333,-0.05375911,-0.6543488,-4.60333,0.1176787,0.6704931,1.441303,0.4026849,-0.1894643,0.2916855,0.00911369,-0.9406168,0.1944583,-0.1177924,0.7499715,1.48883,0.2195883,0.3550135,1.093721,0.2605084,306.2954,204.3754,19.37773,True
2,0.6111114,0.006879389,1.48092,-0.01608348,-1.163111,-4.104746,-2.844372,0.5619282,1.262222,0.4607027,-1.173962,0.02901174,3.9,0.8,-0.164133,0.2396009,-0.03012865,-0.6534891,-4.597227,0.1145042,0.6693124,1.441298,0.4026468,-0.1881568,0.2907284,0.02934554,-0.9399521,0.1985364,-0.1181378,0.7495382,1.488874,0.2197373,0.3516682,1.095069,0.2626509,305.8541,205.3461,19.12847,True
2,0.6222225,0.008945763,1.488485,-0.006492853,-1.168883,-4.122509,-2.837121,0.5616977,1.261968,0.4614704,-1.173671,0.02617993,3.3,0.8,-0.1608704,0.2320408,-0.01956175,-0.6531296,-4.593729,0.1133361,0.6682163,1.441253,0.4026093,-0.1922274,0.3004156,0.04426781,-0.9392341,0.2034059,-0.1186002,0.7490573,1.48893,0.2200892,0.3482368,1.096387,0.2649832,305.4247,206.4149,18.81466,True
2,0.6333337,0.00685209,1.482133,0.001008362,-1.174091,-4.139276,-2.830605,0.5614032,1.261627,0.4618936,-1.173243,0.03873882,3.3,0.8,-0.1279875,0.1743411,-0.0128451,-0.6529933,-4.593979,0.11377,0.6672487,1.44121,0.4026,-0.1901247,0.3046489,0.04102002,-0.9393885,0.2077254,-0.1191101,0.7486982,1.488968,0.2202983,0.3446846,1.097713,0.2675191,305.0365,207.5209,18.51174,True
2,0.6444448,-0.004782081,1.461854,-0.0009458661,-1.179048,-4.155538,-2.82402,0.561117,1.261242,0.4620364,-1.172374,0.07905775,3.3,0.8,-0.09216194,0.1115176,-0.03282686,-0.654058,-4.594997,0.114468,0.6662599,1.441171,0.4026804,-0.1860698,0.3056112,0.02498554,-0.9400213,0.2119089,-0.1194699,0.7482646,1.489004,0.2206795,0.3410876,1.099122,0.270309,304.6602,208.6735,18.20814,True
2,0.655556,-0.006873965,1.456508,-0.004073977,-1.18414,-4.172191,-2.817713,0.5608524,1.260968,0.4623461,-1.172464,-0.008884395,3.3,0.8,-0.07971287,0.0786534,-0.05876748,-0.6555925,-4.594996,0.1149668,0.665208,1.441066,0.4027178,-0.1797484,0.3108733,0.01741971,-0.9405321,0.2162619,-0.1203208,0.7478875,1.488992,0.220902,0.3375016,1.100659,0.2732893,304.2794,209.8645,17.96824,True
2,0.6666671,-0.01212704,1.430833,-0.01883107,-1.188258,-4.187963,-2.811516,0.5604461,1.260692,0.4622586,-1.172096,0.03375668,3.3,0.8,-0.07264714,0.07045209,-0.101512,-0.6581816,-4.593509,0.1143785,0.6642463,1.441073,0.4028242,-0.1680855,0.3086853,0.01409559,-0.9408267,0.2203373,-0.1211637,0.7474704,1.489063,0.2211478,0.3338914,1.102265,0.2762375,303.8688,210.9994,17.91081,True
2,0.6777782,-0.01419014,1.41163,-0.02294391,-1.192972,-4.203557,-2.805547,0.5600916,1.260515,0.4623718,-1.17237,-0.0254771,8.2,0.3,-0.07267332,0.08330204,-0.1099322,-0.6594876,-4.590942,0.1132014,0.6632738,1.441143,0.4029384,-0.1532151,0.2809475,0.016195,-0.9408703,0.2228806,-0.1215408,0.7470566,1.489064,0.2213328,0.3303212,1.103903,0.2789937,303.4517,212.0783,17.89728,True
2,0.6888894,-0.03428793,1.367836,-0.03115112,-1.197082,-4.217931,-2.799187,0.559409,1.260618,0.4623752,-1.172086,0.02619367,8.2,0.3,-0.06911245,0.1075385,-0.07780161,-0.6589811,-4.587554,0.1111002,0.6624413,1.441276,0.4029171,-0.1500297,0.2585915,0.0216084,-0.9406237,0.2254891,-0.1213504,0.7466403,1.489145,0.2215376,0.3268734,1.105572,0.2815358,303.018,213.0878,17.82766,True
2,0.7000005,-0.05225986,1.335782,-0.0373005,-1.201252,-4.232214,-2.792991,0.5587189,1.26054,0.4625046,-1.172125,-0.003872524,8.2,0.3,-0.07077733,0.09642082,-0.01820784,-0.6570657,-4.586659,0.1112022,0.6616474,1.441337,0.4028766,-0.1350838,0.2255672,0.03119135,-0.9401448,0.2270638,-0.1213797,0.7462624,1.489149,0.2216504,0.3235158,1.107235,0.2837996,302.6061,213.9838,17.75958,True
2,0.7111117,-0.08719307,1.264155,-0.05702692,-1.204002,-4.24424,-2.786443,0.557861,1.260733,0.4624395,-1.171248,0.08032772,8.2,0.3,-0.0745913,0.0928031,0.03612911,-0.6547355,-4.585588,0.1113012,0.6609324,1.441403,0.4028525,-0.1147934,0.1893556,0.04392984,-0.9392825,0.2281043,-0.1213949,0.7459296,1.489099,0.2218225,0.3203298,1.10892,0.2858557,302.2165,214.8476,17.58138,True
2,0.7222228,-0.1444479,1.178587,-0.08193657,-1.20628,-4.255517,-2.778977,0.5569859,1.260932,0.4624832,-1.171286,-0.004097793,16.3,0.3,-0.09651479,0.05182783,0.1073573,-0.6514092,-4.587541,0.114791,0.6602345,1.441476,0.4028497,-0.09675083,0.1764983,0.04058315,-0.9392191,0.2300116,-0.1221019,0.7455825,1.489123,0.2220111,0.3171876,1.110648,0.2876777,301.8827,215.6333,17.37142,True
2,0.7333339,-0.1900554,1.115478,-0.09637117,-1.208491,-4.266281,-2.771405,0.5560322,1.261114,0.4624336,-1.170214,0.09813122,16.3,0.3,-0.1167511,0.02303532,0.120081,-0.6497165,-4.58918,0.1181176,0.6595732,1.441588,0.4028418,-0.07759532,0.1636636,0.04148629,-0.9389172,0.2317489,-0.1229182,0.7452118,1.489132,0.2221053,0.3140835,1.112442,0.2893404,301.5189,216.2942,17.23085,True
2,0.7444451,-0.2695403,0.9925461,-0.1210058,-1.209221,-4.274236,-2.763099,0.5548093,1.261541,0.4622757,-1.169098,0.1012876,16.3,0.3,-0.1464607,-0.002625987,0.1456901,-0.6476307,-4.590866,0.1221813,0.6589197,1.44178,0.4030099,-0.06920551,0.1625129,0.03073731,-0.9391345,0.2338506,-0.1236823,0.7448974,1.489151,0.2222943,0.3110048,1.114322,0.2908256,301.2099,216.7923,17.24283,True
2,0.7555562,-0.2981587,0.9519226,-0.1302942,-1.211179,-4.28449,-2.755398,0.5537411,1.261929,0.46205,-1.169002,0.008315788,16.3,0.3,-0.1398861,-0.002823584,0.1669441,-0.6450469,-4.591428,0.1238205,0.6582723,1.442013,0.4030831,-0.06503443,0.1571344,0.02432274,-0.9392847,0.235751,-0.1241981,0.7445885,1.489208,0.2223854,0.3079517,1.116356,0.292129,300.9214,217.1873,17.31376,True
2,0.7666674,-0.341295,0.9180033,-0.1053182,-1.213968,-4.293701,-2.747265,0.5525338,1.26237,0.4617615,-1.167675,0.121655,16.3,0.3,-0.1139558,0.007432699,0.2051609,-0.6414905,-4.591293,0.1240431,0.657753,1.442338,0.4032393,-0.06070003,0.1465091,0.03285068,-0.9387962,0.2372456,-0.1245539,0.7442575,1.489247,0.2224686,0.3048905,1.11859,0.2932182,300.6023,217.4997,17.4582,True
2,0.7777785,-0.3627504,0.8956152,-0.09076291,-1.217697,-4.303924,-2.739541,0.5513874,1.262749,0.4613988,-1.169365,-0.1553541,26.4,0.3,-0.09254017,-0.01947638,0.2292679,-0.6383187,-4.593982,0.1264767,0.6573528,1.442471,0.4032023,-0.06062931,0.1295128,0.04253244,-0.9381092,0.2383935,-0.1245736,0.743934,1.489301,0.2225478,0.301791,1.121077,0.2939906,300.3247,217.6919,17.68678,True
2,0.7888896,-0.3969038,0.8922976,-0.07644242,-1.221172,-4.312662,-2.730669,0.5501035,1.263314,0.4609332,-1.169146,0.02186633,26.4,0.3,-0.1154042,-0.05312789,0.1855142,-0.6379155,-4.596764,0.1307095,0.6568404,1.442576,0.4030881,-0.05958957,0.09969962,0.04694558,-0.9374407,0.2384578,-0.1240295,0.7436446,1.489357,0.2226567,0.2987112,1.123886,0.2945359,299.9166,217.8842,17.83405,True
2,0.8000008,-0.4597677,0.8974075,-0.07847127,-1.224652,-4.323336,-2.720067,0.5487828,1.26379,0.4606411,-1.170149,-0.09172717,26.4,0.3,-0.1765381,-0.08992048,0.1527012,-0.6376945,-4.600241,0.1374521,0.656175,1.442733,0.4030983,-0.06715418,0.08583043,0.04072355,-0.9372388,0.2389769,-0.1233845,0.7433988,1.489427,0.2227068,0.2956342,1.126987,0.294889,299.3886,218.1467,17.90282,True
2,0.8111119,-0.5097653,0.8802232,-0.07400966,-1.22799,-4.332783,-2.709592,0.5475073,1.264186,0.4602945,-1.168876,0.1173598,26.4,0.3,-0.2172362,-0.1109459,0.1358273,-0.6369946,-4.603759,0.1440296,0.6554647,1.442894,0.4030347,-0.0640941,0.09213703,0.02786674,-0.9375254,0.2404318,-0.1236519,0.7431802,1.489474,0.2227559,0.2925821,1.130306,0.2951178,298.7509,218.3794,18.00777,True
2,0.8222231,-0.5724249,0.8256904,-0.07248363,-1.2305,-4.340198,-2.698882,0.5460277,1.264699,0.4597666,-1.167996,0.07955527,26.4,0.3,-0.2739033,-0.1073362,0.1097046,-0.6366872,-4.605647,0.1501775,0.6545789,1.443119,0.4028718,-0.06962173,0.08247607,0.01307216,-0.9378982,0.2410088,-0.1231374,0.7429763,1.489433,0.2228658,0.2894835,1.133773,0.2952045,298.1471,218.5197,18.16974,True
2,0.8333342,-0.6053183,0.7904395,-0.06900853,-1.233163,-4.347587,-2.688648,0.5446365,1.265087,0.4592826,-1.168056,-0.005668069,38.8,0.7,-0.2866992,-0.0859106,0.09933931,-0.6358222,-4.606554,0.1543382,0.6539037,1.443338,0.402792,-0.0805766,0.09406397,-0.01455948,-0.9390774,0.2424807,-0.1227842,0.7427243,1.489427,0.2229128,0.2862464,1.137415,0.2952481,297.5527,218.5602,18.34932,True
2,0.8444453,-0.6445187,0.7392566,-0.05689275,-1.235987,-4.354174,-2.678276,0.5431494,1.265482,0.4587719,-1.167638,0.03868314,38.8,0.7,-0.2836644,-0.04301059,0.0623727,-0.6361381,-4.604907,0.1560732,0.6527991,1.443482,0.4027379,-0.09662278,0.1153482,-0.02513697,-0.9399201,0.2446699,-0.1225382,0.7425007,1.489524,0.223001,0.2829469,1.141231,0.2953097,296.9207,218.5292,18.67543,True
2,0.8555565,-0.6529853,0.7286288,-0.04935417,-1.239265,-4.361804,-2.668299,0.5417997,1.265845,0.4583158,-1.168537,-0.0821936,38.8,0.7,-0.2807061,-0.02035375,0.02524267,-0.6369631,-4.604018,0.1584163,0.6518941,1.443661,0.4026585,-0.1124995,0.1250098,-0.01861119,-0.9401183,0.2466738,-0.1219581,0.7422386,1.489593,0.2230835,0.2796333,1.145179,0.2952929,296.2937,218.3971,19.19625,True
2,0.8666676,-0.6593547,0.7341051,-0.02272803,-1.243768,-4.369333,-2.658463,0.5403858,1.266122,0.4578629,-1.168678,-0.01184016,38.8,0.7,-0.2820662,0.00238508,-0.01930599,-0.6385296,-4.602143,0.160032,0.6505396,1.443835,0.40254,-0.132406,0.1411721,0.006043587,-0.9394407,0.2492434,-0.1213232,0.7419584,1.489625,0.2232578,0.2764525,1.149198,0.2951746,295.6107,218.1647,19.80309,True
2,0.8777788,-0.6572459,0.7555555,-0.00475499,-1.248528,-4.377687,-2.648834,0.5390166,1.266356,0.4574082,-1.169783,-0.1007256,52.4,5.2,-0.2928804,0.03358194,-0.05198615,-0.6397818,-4.599602,0.1615079,0.6490412,1.443994,0.4023438,-0.1543148,0.1701691,0.0381023,-0.9384426,0.2528833,-0.1210748,0.7416658,1.48976,0.2233515,0.2734257,1.153213,0.2949165,294.9156,217.924,20.34356,True
2,0.8888899,-0.6403846,0.8315591,0.04375491,-1.256081,-4.387699,-2.639127,0.5375758,1.266371,0.4569249,-1.170775,-0.08890011,52.4,5.2,-0.3036136,0.08608198,-0.08343561,-0.6413488,-4.59437,0.1611167,0.6474879,1.444183,0.4021077,-0.1913212,0.2012447,0.05435917,-0.9376884,0.2568924,-0.1201656,0.7413126,1.489927,0.223392,0.2705727,1.157189,0.2945851,294.2147,217.713,20.74847,True
2,0.900001,-0.6266031,0.880898,0.08499894,-1.263659,-4.397249,-2.629802,0.536001,1.26642,0.4565616,-1.172448,-0.1510547,52.4,5.2,-0.3387672,0.1845495,-0.1249622,-0.6433238,-4.584699,0.1583548,0.6457328,1.444345,0.4017889,-0.2253375,0.2130661,0.05789667,-0.9373667,0.2602082,-0.1186268,0.7409949,1.489985,0.223479,0.2678008,1.161104,0.2942166,293.5125,217.6355,20.97635,True
2,0.9111122,-0.6233525,0.8778654,0.1095143,-1.270262,-4.405143,-2.620532,0.5344863,1.266475,0.4562099,-1.17445,-0.1804162,52.4,5.2,-0.375776,0.2720775,-0.1292702,-0.643923,-4.574277,0.1555265,0.6438017,1.444506,0.4014568,-0.2391467,0.2131212,0.06125906,-0.9368463,0.2632848,-0.1172766,0.7406728,1.490077,0.2235484,0.2650056,1.164966,0.2938829,292.8119,217.6808,21.05062,True
2,0.9222233,-0.6231757,0.8546387,0.1373685,-1.27685,-4.412035,-2.611795,0.5329378,1.26644,0.4558296,-1.176645,-0.1974774,52.4,5.2,-0.409706,0.3361872,-0.1380454,-0.6447406,-4.564631,0.1533656,0.6419777,1.44485,0.4010649,-0.2827332,0.2175266,0.06815972,-0.9360292,0.2664369,-0.1145335,0.7402489,1.490227,0.223551,0.2620412,1.168816,0.2936727,292.0598,218.0506,20.82236,True
2,0.9333345,-0.6198871,0.8301954,0.1449712,-1.282801,-4.418748,-2.602963,0.5314813,1.266439,0.4554458,-1.178542,-0.1699666,64.7,9,-0.4287372,0.3607051,-0.1312943,-0.6452205,-4.556204,0.1521139,0.6401529,1.445145,0.400769,-0.3147212,0.2303669,0.06314601,-0.9358657,0.2702591,-0.1121819,0.7398764,1.49033,0.2236223,0.2589565,1.172675,0.2936595,291.3086,218.434,20.67065,True
2,0.9444456,-0.599499,0.7930333,0.1526215,-1.288273,-4.424377,-2.595566,0.5299468,1.266535,0.4549088,-1.181445,-0.2618346,64.7,9,-0.4315969,0.3796459,-0.1002133,-0.6443891,-4.548498,0.1506508,0.6384478,1.445405,0.400449,-0.3530278,0.2645322,0.05915737,-0.9358374,0.2753403,-0.1100386,0.7395804,1.490332,0.2237952,0.2559183,1.176552,0.2938104,290.5961,218.6744,20.78102,True
2,0.9555568,-0.5791604,0.7643346,0.151698,-1.293461,-4.429965,-2.588449,0.5284451,1.266618,0.45436,-1.184505,-0.2749072,64.7,9,-0.4002478,0.3929935,-0.052431,-0.642666,-4.541018,0.1478643,0.6367203,1.445697,0.4000518,-0.3794865,0.2966046,0.066757,-0.9353341,0.280899,-0.1082426,0.7391953,1.490374,0.2239096,0.2530292,1.180451,0.2940147,289.8831,218.8471,21.01365,True
2,0.9666679,-0.5279651,0.7431567,0.1400091,-1.298353,-4.436208,-2.582739,0.527064,1.266809,0.4537151,-1.189165,-0.421113,64.7,9,-0.3666957,0.3987904,0.006995425,-0.6399614,-4.533864,0.1449479,0.6350152,1.446033,0.3995657,-0.3942955,0.3264772,0.0688991,-0.93503,0.2864484,-0.1068575,0.7388533,1.490556,0.2241499,0.2503287,1.184397,0.294162,289.1954,218.969,21.28837,True
2,0.977779,-0.499134,0.7272776,0.1379256,-1.303597,-4.442054,-2.57677,0.5254949,1.266885,0.4531512,-1.19339,-0.3798147,76.4,12,-0.3621343,0.4038284,0.04001927,-0.6378196,-4.526752,0.1430719,0.6333666,1.446186,0.3990965,-0.4282863,0.3404446,0.07455277,-0.9345171,0.2916213,-0.1040526,0.7385818,1.490651,0.2243252,0.24782,1.18838,0.2941342,288.4998,218.9118,21.69288,True
2,0.9888902,-0.4681591,0.6985636,0.1284741,-1.308178,-4.447269,-2.571368,0.5238963,1.26711,0.4525261,-1.199148,-0.5202203,76.4,12,-0.3873042,0.4259942,0.07770279,-0.6348859,-4.518079,0.1412919,0.6317593,1.446409,0.3985548,-0.4314927,0.3649155,0.06806628,-0.9344819,0.2975455,-0.1028012,0.7382258,1.490717,0.224529,0.2454927,1.192375,0.2938908,287.8074,218.6958,22.15121,True
2,1.000001,-0.43919,0.6378686,0.1149582,-1.311573,-4.451133,-2.566693,0.5223016,1.267305,0.4519267,-1.203381,-0.3794053,76.4,12,-0.4337003,0.4641929,0.1178134,-0.6314169,-4.507893,0.1393763,0.6301317,1.446453,0.3980765,-0.4081221,0.3797292,0.05919217,-0.9345607,0.3035362,-0.1027144,0.7377766,1.490741,0.2247415,0.2433283,1.196334,0.2934971,287.0941,218.236,22.72578,True
2,1.011112,-0.4240451,0.557871,0.0898577,-1.313705,-4.454175,-2.561663,0.5205268,1.267676,0.4513059,-1.208468,-0.4585046,76.4,12,-0.4537197,0.4629879,0.1446057,-0.6282114,-4.499787,0.1385565,0.6287483,1.446549,0.3975971,-0.353664,0.3721918,0.07136412,-0.933733,0.308412,-0.1035093,0.737358,1.490738,0.2249944,0.2411688,1.200213,0.2929974,286.3882,217.7532,23.25668,True
2,1.022224,-0.4099205,0.4672008,0.05950379,-1.314774,-4.456455,-2.557151,0.518812,1.268058,0.4506464,-1.214026,-0.5004902,76.4,12,-0.4366701,0.4126846,0.1664283,-0.625372,-4.495546,0.1392857,0.6274905,1.446688,0.3972962,-0.3088566,0.3508111,0.08054733,-0.932696,0.3123616,-0.1039621,0.7368842,1.490649,0.2251945,0.2390284,1.203995,0.2924303,285.7425,217.1439,23.93314,True
2,1.033335,-0.4087222,0.4180903,0.04063067,-1.316402,-4.459235,-2.551958,0.5170928,1.268426,0.450053,-1.21903,-0.4493779,83.1,19.9,-0.4090028,0.3848213,0.1744968,-0.622743,-4.490495,0.1386932,0.6262525,1.446759,0.3969789,-0.2992311,0.3508027,0.0836274,-0.9320766,0.3172655,-0.1039325,0.7364316,1.490677,0.225327,0.2369778,1.207644,0.2917971,285.1707,216.2533,24.90924,True
2,1.044446,-0.410741,0.3731894,0.0142796,-1.31752,-4.462163,-2.546592,0.5151731,1.268938,0.4493868,-1.22518,-0.5542531,83.1,19.9,-0.3570119,0.3281824,0.1735944,-0.6206529,-4.48764,0.1385816,0.6250023,1.446825,0.3966417,-0.2884751,0.3380484,0.09529934,-0.9308728,0.3216178,-0.1035671,0.7358522,1.490769,0.2254491,0.2349661,1.211192,0.2910462,284.7126,215.187,26.04803,True
2,1.055557,-0.4202662,0.348583,0.002730295,-1.318901,-4.464942,-2.54088,0.5133952,1.269423,0.4487612,-1.230994,-0.5222929,83.1,19.9,-0.3098198,0.2645859,0.111952,-0.6214715,-4.486083,0.1391262,0.6237445,1.44688,0.3964264,-0.2735367,0.3135357,0.1027015,-0.9298198,0.3248158,-0.1030207,0.7354158,1.490801,0.225523,0.2330668,1.214687,0.2901791,284.3152,213.9537,27.30108,True
2,1.066668,-0.4435862,0.3133201,-0.00338158,-1.320231,-4.467025,-2.534762,0.5115668,1.269918,0.4482236,-1.237535,-0.5888957,83.1,19.9,-0.2912156,0.1998587,0.07185954,-0.6218295,-4.485609,0.1414333,0.6226381,1.44697,0.3959796,-0.2320749,0.2729484,0.1045543,-0.9287785,0.326888,-0.1031828,0.7348391,1.490939,0.2254806,0.231181,1.218245,0.2892162,283.9424,212.8038,28.39931,True
2,1.077779,-0.4764439,0.2674062,-0.005169243,-1.321023,-4.468407,-2.528008,0.5098345,1.270559,0.4478154,-1.24424,-0.6030101,83.1,19.9,-0.2786885,0.1679898,0.0544553,-0.621578,-4.48423,0.1430022,0.6215074,1.447089,0.395638,-0.2151002,0.2515947,0.1034022,-0.9278491,0.3298734,-0.1030185,0.7342427,1.491084,0.2254014,0.2292172,1.222003,0.2881908,283.5813,211.524,29.60594,True
2,1.08889,-0.5199482,0.217215,-0.001580209,-1.321651,-4.468993,-2.520473,0.5081387,1.271138,0.4474142,-1.251047,-0.6120283,90.5,17.7,-0.2680741,0.1679903,0.05010482,-0.620858,-4.480789,0.1429164,0.6204077,1.447241,0.3953004,-0.2013473,0.2291677,0.1001633,-0.9270341,0.3323186,-0.1027,0.7336762,1.491241,0.2254729,0.2273016,1.226048,0.2871782,283.1743,210.0207,31.0555,True
2,1.100002,-0.5625361,0.211751,-0.001457885,-1.323111,-4.470934,-2.512456,0.5064629,1.271744,0.44697,-1.258033,-0.6279643,90.5,17.7,-0.2464367,0.1686659,0.08827622,-0.6183077,-4.478156,0.1427204,0.619361,1.44732,0.3949485,-0.1789447,0.2046544,0.1085415,-0.9257643,0.3343302,-0.1025743,0.7329977,1.491506,0.225384,0.2255196,1.230445,0.286187,282.7174,208.1865,32.86312,True
2,1.111113,-0.6052581,0.2500229,0.00903596,-1.325901,-4.474043,-2.503491,0.5050064,1.272248,0.4465072,-1.265242,-0.6480519,90.5,17.7,-0.226831,0.1917088,0.1298378,-0.6150928,-4.473574,0.1409201,0.6182802,1.447598,0.3945603,-0.1693253,0.1918708,0.1138247,-0.9244535,0.3366348,-0.1024209,0.7323963,1.491553,0.2254326,0.223977,1.235244,0.2851925,282.2356,205.8586,35.18352,True
2,1.122224,-0.6319823,0.2829852,0.00995113,-1.328638,-4.477646,-2.494907,0.503492,1.272753,0.4460087,-1.273623,-0.7547134,90.5,17.7,-0.236129,0.2181844,0.1535636,-0.612306,-4.468485,0.1398849,0.6173962,1.447732,0.394222,-0.1585393,0.1791396,0.1276205,-0.9226271,0.3389633,-0.1023692,0.7317552,1.491694,0.2253678,0.2226587,1.240491,0.2841155,281.7124,202.9703,38.04976,True
2,1.133335,-0.6704523,0.3201607,0.01298711,-1.331799,-4.481507,-2.485178,0.5020266,1.273344,0.4455936,-1.281857,-0.7402567,95.1,22.6,-0.2518144,0.2211712,0.186745,-0.6088609,-4.464902,0.1402522,0.6165901,1.447884,0.3938861,-0.1243011,0.1493273,0.1465431,-0.9204977,0.3401235,-0.1028523,0.7311351,1.491868,0.225256,0.2214862,1.246228,0.2829733,281.1216,199.4471,41.47913,True
2,1.144446,-0.704574,0.3360635,0.01828572,-1.33471,-4.484618,-2.475794,0.5004166,1.274017,0.4451737,-1.291517,-0.8705845,95.1,22.6,-0.2549432,0.2050753,0.2026187,-0.6059821,-4.462666,0.1413707,0.6156928,1.44807,0.3936081,-0.1018796,0.1418455,0.1527086,-0.9187427,0.3420635,-0.1035506,0.7304837,1.492008,0.2252789,0.2204401,1.252459,0.2818666,280.4646,195.1585,45.64547,True
2,1.155557,-0.7343506,0.3199641,0.01311097,-1.336553,-4.48708,-2.466242,0.4987815,1.274817,0.4447339,-1.300007,-0.7621734,95.1,22.6,-0.2571137,0.1645077,0.2140269,-0.6032736,-4.462666,0.1441654,0.6149287,1.448199,0.3933661,-0.08380024,0.1300872,0.1525604,-0.9171447,0.3437192,-0.1042348,0.7298347,1.492207,0.225204,0.2194808,1.259106,0.2808865,279.8135,189.5717,51.11911,True
2,1.166668,-0.7513295,0.2953477,0.003702909,-1.33786,-4.489207,-2.456982,0.4970882,1.275693,0.4442058,-1.309829,-0.8849073,95.1,22.6,-0.2455812,0.1186796,0.2114325,-0.6010541,-4.463562,0.1472049,0.6141754,1.448409,0.3930168,-0.07551333,0.1310194,0.1332819,-0.916455,0.3456498,-0.1047621,0.7293521,1.492325,0.2251949,0.2185719,1.266104,0.2800903,279.2386,183.0274,57.59748,True
2,1.17778,-0.7576737,0.2825278,-0.0004586279,-1.339583,-4.491476,-2.448001,0.4954027,1.27654,0.4436972,-1.319527,-0.8723369,95.1,22.6,-0.2405457,0.09220651,0.1888043,-0.5996848,-4.463563,0.149786,0.6134632,1.448558,0.3927317,-0.06629845,0.1201871,0.1044678,-0.9162957,0.3469702,-0.1051203,0.7289466,1.492512,0.225116,0.2177155,1.273354,0.2794485,278.7905,175.3908,65.26474,True
2,1.188891,-0.76507,0.2611467,-0.008842841,-1.340638,-4.493459,-2.43896,0.4936997,1.277524,0.4430897,-1.329868,-0.9311965,100,24.8,-0.2428805,0.08065376,0.1695539,-0.598391,-4.462822,0.1519419,0.6127303,1.44871,0.3923807,-0.05796329,0.1083686,0.09164863,-0.9157471,0.3479295,-0.1053134,0.7285093,1.492523,0.225014,0.216962,1.280728,0.2788742,278.5517,166.9506,73.81646,True
2,1.200002,-0.7746208,0.2461332,-0.02044563,-1.34165,-4.495581,-2.42977,0.4920742,1.278569,0.4423783,-1.340477,-0.9550657,100,24.8,-0.2441972,0.06700806,0.1449502,-0.5975564,-4.462497,0.154299,0.6121086,1.448921,0.3920341,-0.042119,0.1050752,0.08188544,-0.9152379,0.3493059,-0.1060487,0.7280873,1.492643,0.2248619,0.2163461,1.288106,0.2782739,278.5309,158.1934,82.68712,True
2,1.211113,-0.7788472,0.2279268,-0.03524242,-1.342309,-4.497738,-2.42056,0.4903448,1.279654,0.4417417,-1.350741,-0.9234159,100,24.8,-0.2538788,0.05109788,0.1406426,-0.5961891,-4.462922,0.1577976,0.6114354,1.449095,0.3917346,-0.03578822,0.09651864,0.07865962,-0.9145657,0.3503574,-0.1065395,0.7276639,1.492751,0.2247255,0.2158896,1.295373,0.2776054,278.6915,149.6886,91.25952,True
2,1.222224,-0.7851682,0.2012113,-0.04784259,-1.34269,-4.499503,-2.411235,0.4887997,1.280733,0.4410808,-1.361173,-0.9386942,100,24.8,-0.2559709,0.02646968,0.1564419,-0.593918,-4.464725,0.162284,0.6108986,1.449287,0.391423,-0.03900408,0.09331986,0.0776487,-0.913851,0.3515221,-0.106695,0.7271742,1.492836,0.2245665,0.2155671,1.302476,0.2768034,279.0323,142.1813,98.80859,True
2,1.233335,-0.7840739,0.1883858,-0.05522341,-1.34317,-4.501378,-2.402033,0.487045,1.281829,0.4404142,-1.371925,-0.9677866,100,39,-0.2559204,0.01466441,0.1669995,-0.5917528,-4.465777,0.1659831,0.610191,1.449472,0.3910916,-0.04323374,0.09547333,0.07981873,-0.9130174,0.3530835,-0.1070202,0.7267709,1.492949,0.2244556,0.2153698,1.309423,0.2758375,279.5175,135.8851,105.0931,True
2,1.244446,-0.7786728,0.1638505,-0.06573626,-1.343107,-4.5029,-2.393403,0.4853413,1.28291,0.4397678,-1.382684,-0.9680554,100,39,-0.2761572,-0.001297429,0.1745067,-0.5895685,-4.467386,0.171041,0.6094741,1.449807,0.3907053,-0.05711985,0.0891078,0.07789513,-0.9122174,0.354208,-0.1066553,0.7264398,1.492994,0.2243111,0.2153049,1.316241,0.2747339,280.1165,130.5985,110.2971,True
2,1.255558,-0.7637814,0.170294,-0.06686971,-1.344055,-4.50516,-2.384754,0.4836148,1.28392,0.4390891,-1.39393,-1.0125,100,39,-0.2877075,0.007137924,0.1906548,-0.5868456,-4.467521,0.1747665,0.608758,1.450008,0.3903749,-0.06473127,0.08267546,0.06630302,-0.9119388,0.3552118,-0.1063648,0.7259248,1.493003,0.2242184,0.2154301,1.322965,0.273529,280.7909,126.0983,114.6744,True
2,1.266669,-0.7521234,0.1906039,-0.06061257,-1.345735,-4.507475,-2.376115,0.4819347,1.2851,0.4385235,-1.405672,-1.057363,100,39,-0.3036278,0.01355241,0.195107,-0.584395,-4.467561,0.178713,0.6079926,1.450302,0.3899944,-0.07545163,0.09224376,0.05892339,-0.9116325,0.3568477,-0.106144,0.7255518,1.49308,0.2242939,0.2156638,1.329669,0.2722441,281.5472,122.0909,118.5211,True
2,1.27778,-0.7425679,0.2034586,-0.05538824,-1.347322,-4.509887,-2.367556,0.4802295,1.286141,0.4379358,-1.417174,-1.035028,100,39,-0.3143895,0.03079461,0.1750936,-0.583048,-4.466477,0.1816601,0.6072966,1.45051,0.3896155,-0.07658044,0.1071235,0.05033524,-0.911468,0.3591857,-0.1066822,0.7251933,1.493119,0.2241719,0.2160451,1.336334,0.2709458,282.3903,118.4775,121.9481,True
2,1.288891,-0.7362325,0.2280772,-0.04278459,-1.349632,-4.51263,-2.35886,0.4786561,1.287185,0.4373739,-1.428574,-1.025896,100,41.7,-0.3260651,0.04362634,0.1752984,-0.5809132,-4.465313,0.1847746,0.6065741,1.450774,0.3894141,-0.06915461,0.1070845,0.04811601,-0.9110706,0.3606087,-0.1069741,0.7247918,1.493225,0.2241049,0.2165065,1.342993,0.2697253,283.246,115.2224,124.9771,True
2,1.300002,-0.7287898,0.2345247,-0.03965849,-1.351294,-4.515088,-2.350323,0.4770306,1.288279,0.4368041,-1.44011,-1.0384,100,41.7,-0.3280606,0.05204901,0.1881682,-0.5782213,-4.464771,0.188118,0.6059268,1.45107,0.3890486,-0.07126698,0.0975301,0.05246371,-0.9103036,0.3617657,-0.106679,0.7244055,1.493378,0.2240446,0.2170226,1.349691,0.2686865,284.0976,112.3096,127.6816,True
2,1.311113,-0.7191992,0.238876,-0.03011432,-1.353312,-4.517148,-2.342108,0.4754498,1.289401,0.4362156,-1.451562,-1.030554,100,41.7,-0.3172495,0.04865324,0.2093517,-0.57514,-4.464864,0.191505,0.6052536,1.451356,0.3888052,-0.07869395,0.08905068,0.05686099,-0.9095952,0.3627496,-0.10614,0.7240207,1.493476,0.2238719,0.2176116,1.356414,0.2678964,284.9942,109.6309,130.227,True
2,1.322224,-0.7053245,0.2314612,-0.03543442,-1.354571,-4.519545,-2.33419,0.4738595,1.290544,0.4355314,-1.463097,-1.038264,100,41.7,-0.3117719,0.04527792,0.2295193,-0.5719213,-4.465222,0.1952281,0.6046935,1.451593,0.3883646,-0.08829197,0.08267976,0.05700581,-0.9091185,0.3636497,-0.1054311,0.7237325,1.493541,0.223716,0.2182945,1.363155,0.2673889,285.9102,107.1503,132.6614,True
2,1.333336,-0.6946406,0.2208299,-0.03751841,-1.355749,-4.521347,-2.326447,0.4723338,1.291678,0.4349627,-1.474719,-1.046205,100,44.6,-0.3086724,0.009008095,0.2334607,-0.5694483,-4.468373,0.2011949,0.6041583,1.451807,0.3879962,-0.09787057,0.07526232,0.0592963,-0.908376,0.3645951,-0.1046252,0.723263,1.493578,0.223639,0.2190622,1.369898,0.2671093,286.8584,104.8888,134.9686,True
2,1.344447,-0.6839278,0.2016586,-0.04594401,-1.35637,-4.523184,-2.319076,0.470901,1.292843,0.4344363,-1.486407,-1.052266,100,44.6,-0.3089495,-0.01851793,0.2130041,-0.5679809,-4.470835,0.2067119,0.6034451,1.452135,0.3875499,-0.09894954,0.0805739,0.05715216,-0.9078919,0.3659022,-0.1043208,0.7228285,1.493701,0.2235909,0.2199274,1.376609,0.2669664,287.827,102.7808,137.191,True
2,1.355558,-0.6753544,0.1803404,-0.05329332,-1.356753,-4.5248,-2.311471,0.4693791,1.293953,0.4339767,-1.497707,-1.016863,100,44.6,-0.3080238,-0.02265465,0.1969808,-0.5664698,-4.472094,0.2109988,0.6026595,1.452365,0.3872237,-0.09257673,0.1018334,0.05056198,-0.9078588,0.3684039,-0.1050835,0.722271,1.493783,0.2234776,0.2208965,1.383215,0.2668605,288.8475,100.9471,139.1622,True
2,1.366669,-0.668869,0.1494544,-0.05738718,-1.356721,-4.52597,-2.30394,0.4677787,1.295147,0.4335876,-1.509241,-1.038467,100,44.6,-0.2900079,-0.00338459,0.1778084,-0.5650014,-4.471431,0.2130899,0.6018394,1.452556,0.3868508,-0.09245303,0.1018903,0.06121796,-0.9068873,0.3699276,-0.1049427,0.7218086,1.493783,0.2233918,0.2220296,1.389624,0.2667274,289.8665,99.36522,140.8414,True
2,1.37778,-0.6666363,0.1185509,-0.06146297,-1.356383,-4.526826,-2.296522,0.4661896,1.296429,0.4331634,-1.520108,-0.9774832,100,44.6,-0.2813641,0.016782,0.183219,-0.5627089,-4.470818,0.215414,0.6010783,1.452837,0.3864937,-0.09232857,0.1040684,0.0707892,-0.9059563,0.3715327,-0.1049483,0.7213808,1.493855,0.2232444,0.2233294,1.395783,0.2665116,290.8961,98.06485,142.1793,True
2,1.388891,-0.6600227,0.04503496,-0.07169075,-1.354189,-4.52669,-2.289377,0.4645312,1.297718,0.432904,-1.531023,-0.9824004,100,55.2,-0.27786,0.04320683,0.208967,-0.5592968,-4.469369,0.2173249,0.6002667,1.453165,0.3861482,-0.08694821,0.111523,0.07387882,-0.9052047,0.3734863,-0.1053198,0.7208933,1.49385,0.2230852,0.2247075,1.401712,0.2661639,291.9201,96.98353,143.2214,True
2,1.400002,-0.6492772,0.01414483,-0.07684124,-1.352951,-4.526928,-2.282459,0.4629466,1.298917,0.4324994,-1.541907,-0.9797606,100,55.2,-0.2767008,0.03989975,0.2217151,-0.5564489,-4.470246,0.2211486,0.5995211,1.453528,0.3856814,-0.0825852,0.1051791,0.08344335,-0.9041746,0.3749613,-0.1054878,0.7204434,1.49394,0.2229371,0.2260995,1.407461,0.2656514,292.9048,96.08936,144.0207,True
2,1.411114,-0.6374843,-0.01139371,-0.08204176,-1.351575,-4.52742,-2.27557,0.4613462,1.300033,0.4321065,-1.552697,-0.9711581,100,55.2,-0.2797843,0.02376963,0.2418534,-0.5531849,-4.472248,0.2260811,0.5987322,1.453822,0.3852479,-0.08466724,0.1041399,0.08773657,-0.903145,0.3764756,-0.1054183,0.7199434,1.494003,0.2228498,0.2275252,1.413037,0.2649626,293.8655,95.37273,144.6227,True
2,1.422225,-0.6204156,-0.01770992,-0.0873894,-1.350627,-4.528708,-2.268997,0.4598761,1.301269,0.4316735,-1.563616,-0.9830806,100,55.2,-0.2903878,0.01627816,0.2514703,-0.550208,-4.473536,0.2308673,0.5979528,1.454204,0.3848925,-0.1072436,0.1083723,0.0698816,-0.9030657,0.3784363,-0.1046644,0.7195321,1.49407,0.222852,0.2290617,1.418383,0.2640864,294.8358,94.8279,145.0131,True
2,1.433336,-0.6087241,-0.01023149,-0.08958206,-1.35007,-4.529605,-2.262412,0.4583482,1.30238,0.4311972,-1.574226,-0.9547931,100,55.2,-0.3073189,0.009820729,0.2675421,-0.5468135,-4.475302,0.2363156,0.5970173,1.454461,0.384444,-0.1169352,0.1126063,0.0603869,-0.9028761,0.3802584,-0.1041504,0.719022,1.494122,0.2227383,0.2307051,1.42351,0.2630596,295.7977,94.30895,145.3132,True
2,1.444447,-0.5917157,0.004804218,-0.08973214,-1.350003,-4.53146,-2.256023,0.4567247,1.303515,0.4307876,-1.584988,-0.969219,100,62.2,-0.3168053,0.02259228,0.2741221,-0.5434404,-4.475328,0.2401655,0.5960948,1.454788,0.384022,-0.1202167,0.1147089,0.05296604,-0.9025155,0.3820861,-0.1038532,0.7184944,1.494154,0.2226551,0.2324094,1.42845,0.261957,296.7468,93.86951,145.4825,True
2,1.455558,-0.5831985,0.005889209,-0.09081867,-1.349431,-4.532335,-2.249649,0.4551534,1.304657,0.4303505,-1.594996,-0.9002161,100,62.2,-0.3243065,0.02586719,0.266751,-0.5407788,-4.47602,0.2445035,0.5952494,1.455084,0.3835881,-0.1181711,0.1125436,0.04656098,-0.9023365,0.3837201,-0.1035935,0.7179431,1.49428,0.2225645,0.2341129,1.433268,0.2608867,297.672,93.50443,145.5632,True
2,1.466669,-0.5682336,-0.006833354,-0.0875669,-1.348441,-4.532639,-2.24383,0.453527,1.305843,0.4297187,-1.605261,-0.9244681,100,62.2,-0.3320026,0.01864415,0.2422523,-0.5390174,-4.476765,0.2491355,0.5942407,1.455442,0.3831766,-0.1267721,0.1221047,0.03809058,-0.9023604,0.3858432,-0.1032169,0.7173343,1.494358,0.2224948,0.2357524,1.438013,0.2599314,298.588,93.10739,145.6911,True
2,1.47778,-0.5522082,-0.02385457,-0.09174957,-1.347077,-4.533048,-2.238141,0.4518477,1.307032,0.4292741,-1.614831,-0.8607783,100,62.2,-0.3332696,0.00174357,0.2250772,-0.5373545,-4.478727,0.2544981,0.5932693,1.455762,0.3827569,-0.1405554,0.1360063,0.04031936,-0.9019653,0.3885176,-0.1028811,0.7166698,1.494482,0.2223914,0.2372661,1.442718,0.2591827,299.5031,92.70147,145.8779,True
2,1.488891,-0.5361804,-0.04188972,-0.09382566,-1.345562,-4.533803,-2.232383,0.4501925,1.308357,0.4289129,-1.624718,-0.8904999,100,100,-0.3194318,0.01667295,0.2176257,-0.534971,-4.478366,0.2573162,0.5921642,1.45616,0.382359,-0.1414222,0.1382263,0.05629637,-0.9009788,0.3906647,-0.1026792,0.7159237,1.494525,0.2223895,0.2386954,1.447345,0.2586282,300.3684,92.23623,146.2588,True
2,1.500003,-0.5073746,-0.05458256,-0.09273768,-1.344061,-4.53397,-2.227573,0.4485111,1.309464,0.4283066,-1.634163,-0.8499882,100,100,-0.3003257,0.03377743,0.2026878,-0.5329512,-4.477294,0.2592121,0.5910667,1.456463,0.3819065,-0.134946,0.1478249,0.06149613,-0.9003429,0.3932617,-0.1029424,0.7152241,1.494652,0.2223494,0.2400689,1.451859,0.258147,301.2173,91.76302,146.7447,True
2,1.511114,-0.4892741,-0.05240011,-0.09384977,-1.342997,-4.534558,-2.222604,0.4470532,1.310575,0.4277394,-1.643228,-0.8157667,100,100,-0.2962069,0.03924242,0.1835203,-0.5314546,-4.476838,0.2619267,0.5900258,1.456801,0.3814473,-0.1274447,0.1457041,0.06568392,-0.8995945,0.3954272,-0.1031061,0.7144653,1.49478,0.2222357,0.24141,1.456206,0.2576731,302.0555,91.39193,147.0943,True
2,1.522225,-0.4627116,-0.0320992,-0.09721607,-1.342544,-4.535727,-2.218102,0.4455332,1.311543,0.4271228,-1.652774,-0.860329,100,100,-0.3060032,0.03733373,0.1601467,-0.5304425,-4.476807,0.2657006,0.5889267,1.457143,0.3810079,-0.1306314,0.1393299,0.06788938,-0.8988914,0.39719,-0.1026718,0.7136957,1.494904,0.2221694,0.2427116,1.4604,0.2571743,302.8684,91.08955,147.343,True
2,1.533336,-0.438239,-0.02136862,-0.09625445,-1.342044,-4.536542,-2.213921,0.4439247,1.312587,0.4265747,-1.661235,-0.7608574,100,100,-0.3112543,0.04690306,0.1645332,-0.5282934,-4.476398,0.2689063,0.587922,1.4575,0.3804872,-0.1455885,0.1329723,0.06597114,-0.8983929,0.3989849,-0.1016563,0.712958,1.4951,0.2219913,0.2440185,1.464344,0.2566117,303.6622,90.73942,147.6462,True
2,1.544447,-0.4244053,-0.01598212,-0.09310516,-1.341529,-4.537189,-2.209467,0.4424171,1.313575,0.4260435,-1.669878,-0.7786973,100,100,-0.2949501,0.07433432,0.1912492,-0.5249761,-4.47455,0.2700142,0.5868031,1.457829,0.37994,-0.1530413,0.1308633,0.06713976,-0.897741,0.4008256,-0.1008347,0.7121665,1.495175,0.2217801,0.2453285,1.468021,0.2559732,304.4065,90.44344,147.8666,True
2,1.555558,-0.4148266,-0.009527213,-0.08783327,-1.34119,-4.537876,-2.205082,0.4410604,1.314411,0.4255455,-1.677898,-0.7217232,100,100,-0.2851506,0.0986779,0.2062784,-0.5217953,-4.47247,0.2711127,0.5857867,1.458218,0.3794177,-0.1540518,0.1276967,0.07249056,-0.8969724,0.4025524,-0.1001727,0.7114223,1.49529,0.2216022,0.2465607,1.471471,0.2552825,305.1446,90.19689,147.9869,True
2,1.566669,-0.3935305,-0.001959107,-0.07939146,-1.340968,-4.538435,-2.201311,0.4396834,1.315166,0.4250505,-1.684922,-0.6316108,100,100,-0.2766314,0.1104115,0.200975,-0.519457,-4.470417,0.2721149,0.5846757,1.458574,0.3789246,-0.1549856,0.1352073,0.08205,-0.8959231,0.4049195,-0.09990476,0.7105538,1.495417,0.2215271,0.2476411,1.474732,0.2545686,305.8375,89.96717,148.0563,True
2,1.577781,-0.3797031,0.00983247,-0.07522798,-1.341003,-4.539353,-2.197448,0.4383002,1.316025,0.4245324,-1.69195,-0.6327759,100,100,-0.2630516,0.1052864,0.16992,-0.5184211,-4.468947,0.2732201,0.5836028,1.458897,0.3784847,-0.1527142,0.1363262,0.09373023,-0.8947321,0.4070292,-0.09958092,0.7098861,1.49567,0.2213452,0.2486048,1.47778,0.2538766,306.444,89.77026,148.1111,True
2,1.588892,-0.3541781,0.02593273,-0.06897524,-1.341419,-4.540313,-2.194098,0.4370021,1.316708,0.4240923,-1.699111,-0.645187,100,100,-0.2398083,0.1117987,0.1442074,-0.51731,-4.466539,0.2730571,0.5824707,1.459172,0.3780222,-0.1505943,0.1373787,0.09263529,-0.8938857,0.4091216,-0.09928584,0.7090302,1.495861,0.2212851,0.2495237,1.480583,0.2532554,306.9912,89.60304,148.1694,True
2,1.600003,-0.3159164,0.06127249,-0.05859414,-1.342797,-4.541539,-2.191528,0.4358048,1.317177,0.423645,-1.705334,-0.5597351,100,100,-0.2099908,0.1416453,0.1292695,-0.5157217,-4.461953,0.2704589,0.5812966,1.459445,0.3776014,-0.1612639,0.1384668,0.0906262,-0.8931481,0.4113609,-0.09855907,0.7080894,1.496052,0.2210975,0.2503752,1.483192,0.252707,307.5194,89.43485,148.2443,True
2,1.611114,-0.2967862,0.0794819,-0.05234864,-1.343761,-4.542747,-2.188525,0.4345109,1.317777,0.4231911,-1.711176,-0.5265119,100,100,-0.1994557,0.1513395,0.1111472,-0.51456,-4.45833,0.269195,0.5801699,1.459685,0.3771412,-0.1652837,0.1385937,0.1109153,-0.8913952,0.4137029,-0.09798329,0.7071921,1.496294,0.2209663,0.2510866,1.485694,0.2522323,308.0323,89.27794,148.3109,True
2,1.622225,-0.2702041,0.1030819,-0.03869521,-1.345244,-4.543832,-2.186094,0.43341,1.318123,0.4228342,-1.716584,-0.4875393,100,100,-0.1963837,0.1610758,0.09202629,-0.5135885,-4.454377,0.2678789,0.5791024,1.459966,0.3766949,-0.1502193,0.1322365,0.1246212,-0.8896678,0.4155141,-0.09798462,0.7063128,1.496485,0.2208943,0.2516736,1.488001,0.2519067,308.533,89.09309,148.409,True
2,1.633336,-0.248908,0.1149539,-0.02388601,-1.34671,-4.544557,-2.183867,0.432353,1.318491,0.4224529,-1.720045,-0.310299,100,100,-0.1867579,0.1567323,0.09829599,-0.5119458,-4.45181,0.2674248,0.5780228,1.46019,0.3763018,-0.1268529,0.12577,0.120113,-0.8886159,0.4173231,-0.09845573,0.705487,1.496618,0.2207098,0.2520762,1.490063,0.2517766,309.0133,88.86138,148.5917,True
2,1.644447,-0.22014,0.117217,-0.01649169,-1.347788,-4.545294,-2.182111,0.4313733,1.318791,0.4220376,-1.723768,-0.3361263,100,100,-0.1591332,0.1492186,0.09267555,-0.5107725,-4.449489,0.2662343,0.577024,1.460445,0.3758838,-0.1162926,0.1225103,0.1136137,-0.8876768,0.419097,-0.09850846,0.704664,1.496764,0.2205837,0.2521991,1.491933,0.2517985,309.4115,88.65318,148.8156,True
2,1.655559,-0.2052247,0.1215755,-0.008018002,-1.349131,-4.54598,-2.180143,0.4304013,1.319067,0.4216504,-1.726695,-0.263187,100,100,-0.1333162,0.1756236,0.1097081,-0.5084203,-4.444743,0.2626689,0.5760535,1.460509,0.3755071,-0.1184955,0.1129044,0.1094235,-0.8867559,0.4204191,-0.09794947,0.7037853,1.49677,0.2204094,0.2521142,1.493514,0.2519858,309.7005,88.4519,149.0887,True
2,1.66667,-0.1807521,0.1344764,-0.0006832182,-1.350761,-4.546885,-2.178648,0.4295951,1.31915,0.4210124,-1.729492,-0.2523361,100,100,-0.125837,0.1798575,0.1107434,-0.5066409,-4.441035,0.2607054,0.5751418,1.460595,0.3750007,-0.1227054,0.1076171,0.1148327,-0.8853402,0.4218937,-0.09734146,0.7029454,1.496935,0.2201734,0.251835,1.494846,0.2522574,309.8834,88.26012,149.4202,True
2,1.677781,-0.1530659,0.1442173,0.00986132,-1.352573,-4.547653,-2.177649,0.4288534,1.319193,0.4205718,-1.731267,-0.159133,100,100,-0.1237389,0.1905707,0.1022887,-0.5052006,-4.436484,0.2580273,0.574286,1.46066,0.3746154,-0.09686333,0.1034194,0.1379795,-0.8831596,0.4235672,-0.09830526,0.7022295,1.497109,0.2200019,0.2514057,1.49594,0.2525233,310.0108,88.11557,149.7382,True
2,1.688892,-0.1360067,0.1443114,0.01622427,-1.354125,-4.548258,-2.176598,0.428055,1.319268,0.4202297,-1.733405,-0.1932882,100,100,-0.1131657,0.1948783,0.09157705,-0.5040326,-4.432145,0.255178,0.5734708,1.460712,0.3742263,-0.0786954,0.09807689,0.1441839,-0.8814099,0.4249204,-0.09886053,0.701466,1.497209,0.2197909,0.25086,1.496859,0.2527125,310.0804,87.98856,150.0363,True
2,1.700003,-0.1168105,0.1401502,0.02261278,-1.355583,-4.548666,-2.175821,0.4274409,1.319283,0.4199543,-1.735296,-0.1704641,100,100,-0.102679,0.1746895,0.08066387,-0.5033257,-4.429787,0.2539265,0.5727941,1.460789,0.3740222,-0.05745618,0.08309527,0.1418701,-0.8800826,0.4255726,-0.09935562,0.7007012,1.497257,0.2196422,0.2502897,1.497582,0.252793,310.1196,87.8764,150.3093,True
2,1.711114,-0.103993,0.1316945,0.02690451,-1.356761,-4.548937,-2.175104,0.426838,1.319297,0.4196589,-1.736382,-0.09737688,100,100,-0.08460827,0.1575532,0.08356893,-0.5020804,-4.42805,0.2527654,0.5721898,1.460801,0.3738561,-0.04692758,0.08301303,0.1321589,-0.8790615,0.4268654,-0.09990689,0.7000555,1.497366,0.2195961,0.2497389,1.498116,0.2527836,310.1491,87.79535,150.4656,True
2,1.722225,-0.07729531,0.111542,0.02805106,-1.357379,-4.548952,-2.175143,0.4264688,1.319208,0.4193974,-1.737537,-0.1043269,100,100,-0.05073399,0.1266344,0.07131615,-0.5016021,-4.427417,0.2516344,0.5716387,1.460783,0.3736351,-0.03848487,0.08295786,0.1256569,-0.8781465,0.4281977,-0.1006025,0.69945,1.49746,0.2194505,0.2492048,1.498528,0.252704,310.163,87.74135,150.5258,True
2,1.733337,-0.05379089,0.08921894,0.02388862,-1.357681,-4.549014,-2.175358,0.4259845,1.319128,0.4192111,-1.738377,-0.07548552,100,100,-0.03287302,0.1129201,0.04654579,-0.501845,-4.425503,0.2496117,0.5710826,1.460681,0.373446,-0.03758235,0.06584668,0.1150783,-0.8771462,0.4285545,-0.1002981,0.6989591,1.497526,0.2193389,0.2487367,1.49883,0.252598,310.1591,87.69965,150.5581,True
2,1.744448,-0.04202988,0.07217565,0.01865274,-1.357945,-4.549073,-2.175241,0.4254931,1.319098,0.4189897,-1.73972,-0.1217746,100,100,-0.01953359,0.08128602,0.0003699437,-0.503436,-4.424862,0.2489062,0.5705426,1.460653,0.3732491,-0.0344161,0.06263052,0.1139939,-0.8760911,0.4292051,-0.1005186,0.6984644,1.497591,0.2192535,0.248359,1.499048,0.252474,310.1505,87.65608,150.6137,True
2,1.755559,-0.02065107,0.05094625,0.0208828,-1.357998,-4.548663,-2.175859,0.4250863,1.318966,0.4188581,-1.740477,-0.06797878,100,100,-0.02845247,0.0560272,-0.03491077,-0.5050461,-4.424781,0.2495448,0.5700781,1.460641,0.3730912,-0.02495832,0.05934735,0.1032468,-0.8753341,0.4299673,-0.1011519,0.6979928,1.497684,0.2191343,0.2481243,1.499114,0.2523378,310.1742,87.62183,150.668,True
2,1.76667,0.002813998,0.03928155,0.01772403,-1.358191,-4.548564,-2.176657,0.4247355,1.318842,0.4187746,-1.74055,-0.005916199,100,100,-0.03262122,0.06450811,-0.02735008,-0.5047548,-4.422567,0.2481826,0.5695738,1.460548,0.3729661,-0.02291665,0.06036454,0.09576125,-0.8745528,0.430982,-0.1015929,0.6975424,1.497675,0.219053,0.2479293,1.499102,0.252158,310.2476,87.59496,150.6757,True
2,1.777781,0.01666318,0.03824338,0.01557445,-1.358557,-4.548729,-2.177251,0.424495,1.318779,0.4186738,-1.741466,-0.08349792,100,100,-0.01750702,0.1027453,-0.01971299,-0.5040815,-4.417724,0.2436574,0.5691534,1.460526,0.3727791,-0.02610935,0.06143411,0.09578744,-0.8736361,0.4319625,-0.1018268,0.6971338,1.497746,0.2189441,0.2477033,1.499075,0.2519272,310.3074,87.56642,150.6572,True
2,1.788892,0.02732854,0.03401212,0.01558025,-1.35881,-4.548712,-2.177875,0.424163,1.318607,0.4184856,-1.742017,-0.04959111,100,100,-0.01632117,0.1208012,-0.01319091,-0.5036213,-4.413801,0.2403977,0.5687153,1.460472,0.3725891,-0.02604789,0.0657199,0.1000305,-0.8723823,0.4333124,-0.102398,0.6967431,1.497774,0.2189016,0.2474724,1.498952,0.2516871,310.3439,87.53548,150.6238,True
2,1.800003,0.03485501,0.01166035,0.01464144,-1.358371,-4.548224,-2.178636,0.4239436,1.318449,0.4184537,-1.742059,-0.003360535,100,100,-0.02364029,0.1196284,0.003906883,-0.5026748,-4.411548,0.2389907,0.5683405,1.460438,0.3724382,-0.01530451,0.06679758,0.1073538,-0.8709986,0.4345136,-0.1033432,0.6963651,1.49787,0.2187512,0.2471991,1.498744,0.2514698,310.343,87.54062,150.5528,True
2,1.811115,0.05412128,-0.01490225,0.01690281,-1.357611,-4.547365,-2.180105,0.4236317,1.318436,0.4183881,-1.742164,-0.009590234,100,100,-0.0181357,0.1151687,0.02619137,-0.5015723,-4.409677,0.2373047,0.5682223,1.460407,0.3723471,-0.00481768,0.0581862,0.09555525,-0.8703653,0.4350674,-0.1039988,0.6960706,1.497919,0.2186365,0.2468538,1.49851,0.2513,310.3082,87.56932,150.4925,True
2,1.822226,0.07119505,-0.02657802,0.01482397,-1.357268,-4.546836,-2.1815,0.4234805,1.318433,0.4183352,-1.742318,-0.01386675,100,100,-0.004251242,0.1161573,0.03034868,-0.5007217,-4.40698,0.2345824,0.5679585,1.460377,0.3722386,0.001323909,0.03996696,0.0785356,-0.8700814,0.4348353,-0.1040862,0.6956819,1.497912,0.2185104,0.2464554,1.498231,0.2511787,310.2633,87.57314,150.4982,True
2,1.833337,0.08929491,-0.02549811,0.008395556,-1.357009,-4.546778,-2.183155,0.4233211,1.318334,0.4182782,-1.743029,-0.06490611,100,100,0.005393118,0.1043045,0.04295458,-0.4997129,-4.405739,0.233213,0.5677534,1.460318,0.3721802,0.002155546,0.01751026,0.06373484,-0.8697351,0.43413,-0.1036548,0.6953964,1.497779,0.2185788,0.2460577,1.497877,0.2510745,310.1861,87.57736,150.5182,True
2,1.844448,0.09673943,-0.02552203,0.0009289589,-1.356689,-4.546753,-2.184463,0.423234,1.318259,0.4182546,-1.743121,-0.007770842,100,100,0.008538872,0.08616671,0.04491918,-0.4990343,-4.405327,0.2327017,0.5675609,1.460332,0.3720865,0.006419241,0.01005218,0.06585852,-0.868836,0.4340923,-0.1037954,0.6951248,1.497769,0.2185845,0.2456451,1.497499,0.2509204,310.0926,87.58766,150.5178,True
2,1.855559,0.09781405,-0.03086588,-0.002233695,-1.356215,-4.546524,-2.18559,0.4230912,1.318155,0.4183176,-1.743459,-0.03097729,100,100,0.01479498,0.0574141,0.04143817,-0.4987893,-4.406048,0.2329925,0.5673482,1.460234,0.3720567,0.008598354,0.01007423,0.07009465,-0.8678699,0.4344809,-0.1041573,0.6948167,1.497788,0.218524,0.245238,1.497095,0.2507272,309.9861,87.63413,150.4589,True
2,1.86667,0.09677759,-0.03724622,0.001008583,-1.355812,-4.545946,-2.186791,0.4230413,1.318081,0.418359,-1.743122,0.03108383,100,100,0.02730287,0.0287618,0.02192819,-0.4993246,-4.40694,0.2331523,0.5672365,1.460087,0.3719654,0.007409528,0.007889241,0.06053438,-0.8675082,0.4344115,-0.1041056,0.6945918,1.497709,0.2184823,0.2448401,1.496643,0.2505387,309.9052,87.71043,150.3555,True
2,1.877781,0.08934063,-0.04366123,0.001061575,-1.355228,-4.545517,-2.18762,0.4229639,1.317982,0.4184263,-1.742839,0.02553889,100,100,0.0228143,0.02044682,-0.001539007,-0.5000703,-4.406427,0.2326053,0.5670831,1.459974,0.3719585,0.008384682,0.01210386,0.05197594,-0.8672574,0.4348504,-0.1045059,0.6945059,1.497764,0.2184305,0.2444471,1.49616,0.2503825,309.8172,87.79694,150.2329,True
2,1.888893,0.08723551,-0.05540993,-0.003119547,-1.354318,-4.545035,-2.188597,0.4228864,1.317875,0.4184005,-1.742821,0.001463676,100,100,0.02157093,0.01741214,-0.02179221,-0.5008937,-4.405904,0.2319102,0.5670719,1.459914,0.3719947,0.01464688,0.01309506,0.04124001,-0.8671583,0.4350906,-0.1049898,0.694463,1.497781,0.218482,0.2440702,1.495673,0.2502708,309.7108,87.86305,150.1315,True
2,1.900004,0.09043272,-0.05863186,-0.008432142,-1.353524,-4.544799,-2.189813,0.4230062,1.317772,0.4184775,-1.742514,0.02814337,94.4,100,0.03426158,0.01424633,-0.03151239,-0.5015504,-4.40546,0.2307067,0.5669181,1.459827,0.3720045,0.01982937,0.006632549,0.03055872,-0.8671902,0.4349042,-0.1052702,0.6943279,1.4978,0.2184377,0.2437416,1.495204,0.2501911,309.5902,87.90322,150.0793,True
2,1.911115,0.09363376,-0.06292128,-0.01479183,-1.352789,-4.544486,-2.191073,0.4229712,1.317582,0.4186373,-1.742662,-0.01375977,94.4,100,0.06311519,0.0247492,-0.02527531,-0.5013635,-4.404072,0.2278369,0.5668321,1.459676,0.3720262,0.01653051,0.002337769,0.02317015,-0.8670565,0.4347292,-0.1051914,0.6940835,1.497759,0.2184088,0.2434733,1.494778,0.2501157,309.4961,87.94649,150.0516,True
2,1.922226,0.09255598,-0.06187591,-0.01799029,-1.352147,-4.544344,-2.19203,0.4229888,1.317365,0.418745,-1.743008,-0.03143097,94.4,100,0.07384403,0.03105235,-0.01892436,-0.5012788,-4.402915,0.2257242,0.5666901,1.459594,0.3720727,0.01767213,0.02258347,0.02518019,-0.8667694,0.4359645,-0.1062503,0.6939237,1.497775,0.2185817,0.2432955,1.494373,0.2500144,309.4261,87.99965,150.0199,True
2,1.933337,0.09034432,-0.03309052,-0.01283357,-1.352661,-4.54458,-2.192927,0.4230509,1.317129,0.4188564,-1.743081,-0.006470431,94.4,100,0.07301394,0.05649485,-0.002737064,-0.5004911,-4.400148,0.2224336,0.5665811,1.459506,0.3720293,0.02207324,0.03221046,0.034661,-0.8661969,0.4368783,-0.1072652,0.6937727,1.497821,0.2185702,0.2432419,1.493935,0.2499148,309.3855,88.07644,149.9207,True
2,1.944448,0.09345499,-0.003223565,-0.007692934,-1.353501,-4.544978,-2.193971,0.4230538,1.316987,0.4188702,-1.742821,0.02386802,85,100,0.05820762,0.07248561,0.003911104,-0.4998716,-4.397321,0.2199334,0.5664459,1.459461,0.3720102,0.01469462,0.02800374,0.0422317,-0.8654714,0.4370974,-0.1073028,0.6936178,1.497842,0.2184532,0.243251,1.493463,0.2498368,309.3957,88.1235,149.8066,True
2,1.955559,0.09123324,0.03198728,0.002750203,-1.355017,-4.5455,-2.194819,0.4231267,1.316747,0.4189606,-1.742824,-0.0005727829,85,100,0.02627403,0.07151099,0.007369423,-0.4994956,-4.395868,0.2195001,0.5663777,1.459455,0.3720517,0.02111473,0.01630146,0.0475352,-0.8648674,0.4368944,-0.1075302,0.6933672,1.497901,0.2184265,0.2432569,1.492998,0.2497918,309.4001,88.15907,149.6959,True
2,1.966671,0.08692225,0.05119497,0.01009458,-1.356134,-4.545904,-2.195484,0.4232025,1.316513,0.4189541,-1.743026,-0.0183855,85,100,0.02723011,0.05664837,0.0008501727,-0.4996825,-4.395531,0.2188554,0.5663633,1.459388,0.3720403,0.03375067,0.008751854,0.03677253,-0.8648142,0.4366407,-0.1081824,0.6932502,1.497868,0.2183955,0.2431907,1.492625,0.2498239,309.3727,88.1751,149.6156,True
2,1.977782,0.08268472,0.04265259,0.009091756,-1.356327,-4.545918,-2.196218,0.4233063,1.316422,0.4190366,-1.742887,0.01289139,85,100,0.05152889,0.02788595,-0.01023396,-0.5002311,-4.396436,0.218363,0.566407,1.459339,0.3721805,0.03143326,-0.001969082,0.02300698,-0.8650043,0.4360695,-0.1081411,0.6932708,1.49784,0.2183733,0.2430115,1.492385,0.2499677,309.3278,88.16743,149.6013,True
2,1.988893,0.07312094,0.03301121,0.005975905,-1.356282,-4.545885,-2.196696,0.4233656,1.316302,0.4191041,-1.742676,0.01912379,85,100,0.06628702,0.00339872,-0.01908269,-0.5009843,-4.397739,0.2181837,0.566431,1.459204,0.3722551,0.01953051,0.005423922,0.00606218,-0.8655316,0.4364217,-0.1081361,0.6932714,1.497797,0.2183554,0.2427663,1.492208,0.250282,309.2657,88.11926,149.6872,True
2,2.000004,0.07313786,0.02335993,-0.003550495,-1.356012,-4.546095,-2.197537,0.4234222,1.316093,0.4191673,-1.742674,9.614495E-05,77.1,95.4,0.06826952,-0.01464196,-0.02883155,-0.5018312,-4.399136,0.2185475,0.5664231,1.459064,0.3723259,0.02067527,0.01184155,0.01134089,-0.8652765,0.436911,-0.1086847,0.69323,1.49775,0.2183561,0.2424975,1.492059,0.2507215,309.1903,88.05496,149.8784,True
2,2.011115,0.0699449,0.02120614,-0.005662076,-1.356052,-4.546299,-2.19814,0.4234644,1.315973,0.4192553,-1.742456,0.01992296,77.1,95.4,0.05217487,-0.009118395,-0.04570008,-0.5027979,-4.398222,0.2176942,0.5663645,1.458914,0.3723202,0.02818998,0.01503965,0.01549722,-0.8649292,0.4372652,-0.109502,0.6931896,1.497687,0.2184665,0.2422618,1.491904,0.2511927,309.1148,88.01563,150.0824,True
2,2.022226,0.06885889,0.02972213,-0.004640751,-1.356515,-4.546528,-2.198903,0.4234869,1.315899,0.4193199,-1.742893,-0.04003734,77.1,95.4,0.03401108,0.01345039,-0.06134121,-0.5036623,-4.395815,0.2158223,0.5662955,1.45883,0.372474,0.03666644,0.01605511,0.01112571,-0.8650171,0.4374022,-0.1103537,0.6931857,1.49765,0.2185185,0.2420926,1.491718,0.2516088,309.0679,87.99184,150.2566,True
2,2.033337,0.0592506,0.03608067,-0.004660176,-1.356958,-4.546862,-2.199179,0.4235887,1.315778,0.4194074,-1.742738,0.01454608,77.1,95.4,0.01810574,0.02733863,-0.05897037,-0.5040948,-4.394094,0.214553,0.5663155,1.458776,0.3725395,0.03987321,0.02031114,0.01106905,-0.8648701,0.437927,-0.1112384,0.6931996,1.497679,0.2186694,0.2419939,1.491466,0.2519255,309.0611,87.98878,150.3539,True
2,2.044448,0.05712368,0.03501389,-0.003585415,-1.3572,-4.54707,-2.199683,0.423632,1.315637,0.4194448,-1.742903,-0.01525133,77.1,95.4,0.01067981,0.02947258,-0.05569623,-0.5045407,-4.393088,0.2138241,0.5663475,1.458723,0.3727124,0.03764496,0.01814095,0.003651934,-0.8650485,0.4379796,-0.1115625,0.6931976,1.497746,0.218812,0.2419023,1.491226,0.2521204,309.0386,87.99504,150.3664,True
2,2.055559,0.04967948,0.03716144,0.002805886,-1.357734,-4.547174,-2.200075,0.4238118,1.315542,0.4195385,-1.74249,0.03793158,67.3,100,0.01609912,0.0186706,-0.03984977,-0.5045305,-4.393471,0.2138183,0.5664966,1.458726,0.3728273,0.03116168,0.005345838,-0.001529044,-0.8651763,0.4374716,-0.1114094,0.693329,1.497751,0.2188296,0.241796,1.491027,0.2522247,309.0007,88.0025,150.3385,True
2,2.06667,0.04649592,0.03396348,0.003897104,-1.358018,-4.547274,-2.200474,0.4240046,1.315463,0.4197385,-1.742686,-0.01822014,67.3,100,0.02905348,0.0002893992,-0.01133736,-0.5037955,-4.394979,0.2144215,0.5667069,1.458682,0.3729722,0.02893591,-0.001076143,-0.007857673,-0.865383,0.4371623,-0.1114357,0.6933516,1.497785,0.2188344,0.2417054,1.490846,0.2522867,308.9542,88.02757,150.2995,True
2,2.077781,0.04013991,0.02542683,0.006100308,-1.358073,-4.546993,-2.200849,0.4240876,1.315352,0.4198923,-1.742627,0.005629617,67.3,100,0.03660629,-0.008371916,0.003443089,-0.5033758,-4.395704,0.2143717,0.5668198,1.458664,0.3731232,0.03093818,-0.002202783,-0.01852399,-0.8658491,0.4370511,-0.1118243,0.6933869,1.497799,0.2188938,0.2416527,1.490663,0.2523304,308.9116,88.05126,150.266,True
2,2.088892,0.03373968,0.02537975,0.001853275,-1.358239,-4.547254,-2.200944,0.4243409,1.315229,0.4200583,-1.742666,-0.0035828,67.3,100,0.04512423,-0.0265667,0.01069103,-0.5030909,-4.397544,0.2151818,0.5669693,1.458646,0.373256,0.03302627,0.000963252,-0.02282224,-0.8661601,0.4371223,-0.1123217,0.6934451,1.497786,0.2190673,0.2416721,1.490474,0.2523964,308.8459,88.07705,150.2155,True
2,2.100003,0.03055802,0.01896079,-0.001297085,-1.358195,-4.547392,-2.201171,0.4245765,1.315068,0.4202528,-1.742612,0.005007885,55.7,75.2,0.0374901,-0.03705296,-0.006379769,-0.5040091,-4.398722,0.2159808,0.5670685,1.458498,0.373426,0.03402057,0.001998354,-0.02923157,-0.8666847,0.4372354,-0.1128312,0.6933913,1.497692,0.2191992,0.2417672,1.49029,0.2525113,308.8061,88.10088,150.1643,True
2,2.111114,0.02737037,0.01790609,0.001914823,-1.358452,-4.547349,-2.201381,0.4246553,1.31495,0.4204366,-1.74249,0.01113584,55.7,75.2,0.03311683,-0.02837634,-0.02331723,-0.5047372,-4.398141,0.2152809,0.5672328,1.458424,0.3735819,0.03506276,0.001986556,-0.03136794,-0.8670033,0.4372419,-0.1132997,0.6935365,1.49764,0.2193861,0.2419136,1.490125,0.252661,308.7984,88.09163,150.1593,True
2,2.122225,0.02951305,0.01472497,0.003000455,-1.358595,-4.547298,-2.201792,0.424803,1.314886,0.42062,-1.742637,-0.01350529,55.7,75.2,0.03607602,-0.03137165,-0.05000155,-0.5062701,-4.398474,0.215071,0.5673955,1.4583,0.3737686,0.04994528,0.005128063,-0.03475922,-0.8675343,0.4373788,-0.1144733,0.693654,1.497616,0.2194719,0.24212,1.489965,0.2528572,308.7986,88.10456,150.1514,True
2,2.133336,0.02953224,0.009399484,0.003032999,-1.35858,-4.547252,-2.202169,0.4250995,1.314891,0.4207902,-1.742649,-0.000973942,55.7,75.2,0.04026762,-0.03773342,-0.05541427,-0.5071325,-4.39932,0.2152409,0.5676267,1.458207,0.3739648,0.06058977,-0.000224188,-0.0348622,-0.8679498,0.4370552,-0.1153586,0.693915,1.497581,0.2196915,0.2423584,1.489822,0.2530927,308.8258,88.10748,150.1513,True
2,2.144447,0.03169492,-0.0001822729,0.00415155,-1.358298,-4.546943,-2.202656,0.4253336,1.31478,0.420877,-1.742885,-0.02152815,55.7,75.2,0.0478022,-0.04317648,-0.04380336,-0.5073791,-4.40044,0.2154617,0.5678298,1.458126,0.3741283,0.04450754,-0.01087595,-0.04100556,-0.8685857,0.4362445,-0.1147545,0.6941228,1.497555,0.2197618,0.2425547,1.489753,0.2533412,308.8596,88.06251,150.1884,True
2,2.155558,0.0327729,-0.004451764,0.002045013,-1.35813,-4.546889,-2.203112,0.4256033,1.314753,0.4211013,-1.742531,0.03207046,43.6,74.5,0.04790612,-0.06252086,-0.02264977,-0.5071926,-4.403417,0.2175741,0.5681939,1.458027,0.3742301,0.02956713,-0.02255675,-0.04076272,-0.868926,0.4353801,-0.1140531,0.6943111,1.497515,0.21981,0.2427058,1.489713,0.2535957,308.8721,88.01375,150.2497,True
2,2.166669,0.0306643,-0.01407358,-0.002151273,-1.357657,-4.546714,-2.203403,0.4258595,1.314737,0.4212513,-1.741735,0.0715654,43.6,74.5,0.03952577,-0.06796966,-0.003444094,-0.5068374,-4.405483,0.2192146,0.5684468,1.457973,0.3743591,0.03485475,-0.02790735,-0.04292747,-0.869414,0.4346701,-0.1141804,0.6944891,1.497477,0.2199199,0.2428256,1.489629,0.2538402,308.8675,87.98048,150.3304,True
2,2.17778,0.02853866,-0.01623048,-0.005324172,-1.357415,-4.546639,-2.203717,0.4259623,1.314536,0.4214888,-1.740468,0.1139983,43.6,74.5,0.03424132,-0.05623303,-0.003303204,-0.5068869,-4.405953,0.2194096,0.568687,1.457859,0.3745968,0.04233382,-0.01620779,-0.04308588,-0.8700174,0.4348879,-0.1149846,0.6945081,1.49744,0.2199824,0.2428989,1.489422,0.2540376,308.8679,87.95193,150.4003,True
2,2.188891,0.02107706,-0.01627218,-0.007442115,-1.357141,-4.54666,-2.203692,0.4261858,1.314416,0.4216406,-1.738604,0.1680713,43.6,74.5,0.02459128,-0.04651705,-0.01486353,-0.5074717,-4.406086,0.2195744,0.5688944,1.457796,0.3747599,0.04344625,-0.006613117,-0.041019,-0.8704185,0.4351805,-0.1156576,0.6947146,1.497314,0.2201185,0.2428732,1.489089,0.254182,308.8384,87.96414,150.3902,True
2,2.200002,0.02003243,-0.02481024,-0.00952043,-1.356547,-4.546503,-2.203882,0.4265051,1.314405,0.4218237,-1.73663,0.1773921,32.5,55.2,0.02130796,-0.04001074,-0.02756901,-0.5082675,-4.406159,0.2195654,0.5691373,1.457815,0.3749173,0.04657988,-0.01515995,-0.04420941,-0.8710097,0.4344432,-0.115761,0.6948395,1.497269,0.2201271,0.242707,1.488627,0.2542663,308.7881,88.01046,150.3281,True
2,2.211113,0.02221253,-0.04293836,-0.01260417,-1.355528,-4.545948,-2.204309,0.426761,1.314368,0.4219382,-1.734052,0.2325032,32.5,55.2,0.02340658,-0.04853804,-0.02765834,-0.5087596,-4.407675,0.2205308,0.5695071,1.457773,0.3750017,0.0433259,-0.0290129,-0.04622781,-0.8715131,0.4332931,-0.1154227,0.6950636,1.497195,0.2202089,0.2423728,1.488006,0.2543252,308.7089,88.06586,150.2377,True
2,2.222224,0.02537753,-0.03441925,-0.01479315,-1.355284,-4.546073,-2.20466,0.4270402,1.314317,0.4221065,-1.731698,0.2114629,32.5,55.2,0.02989327,-0.05827172,-0.01180896,-0.5085855,-4.409648,0.22175,0.5697966,1.457648,0.3751342,0.03578482,-0.03648469,-0.05142924,-0.8722476,0.4322598,-0.1148624,0.6953816,1.497135,0.2202394,0.2418736,1.487281,0.2543603,308.5185,88.16752,150.1345,True
2,2.233335,0.02641803,-0.02375954,-0.01272944,-1.355236,-4.546118,-2.205062,0.4273881,1.314305,0.4222476,-1.72916,0.228337,32.5,55.2,0.03750545,-0.05203149,0.003092635,-0.5081354,-4.410762,0.2219708,0.5702195,1.457545,0.3752587,0.02406695,-0.02581171,-0.05348137,-0.8729821,0.4323149,-0.1147559,0.6957018,1.497119,0.2202895,0.2412771,1.486483,0.2543663,308.2512,88.31833,150.0226,True
2,2.244446,0.02637365,-0.01098942,-0.01493878,-1.355336,-4.546505,-2.205285,0.4276878,1.31424,0.4224215,-1.726337,0.2540267,32.5,55.2,0.0341979,-0.0615347,-0.005477509,-0.5086654,-4.412427,0.2232152,0.570523,1.457471,0.3754556,0.02410734,-0.003442355,-0.0546669,-0.8736729,0.4331872,-0.1155487,0.695936,1.497131,0.2205236,0.2406366,1.485625,0.2543191,307.979,88.4828,149.8937,True
2,2.255557,0.02424233,-0.008848053,-0.01174916,-1.35527,-4.546438,-2.205505,0.4280596,1.314252,0.4225752,-1.723299,0.2734891,20,47.5,0.0255304,-0.06777594,-0.02037418,-0.5096837,-4.414002,0.2245484,0.5708407,1.457391,0.3756399,0.02729959,0.003999151,-0.05687058,-0.8743382,0.4335012,-0.1162385,0.6961977,1.497041,0.2206132,0.239967,1.484755,0.2542649,307.7081,88.65973,149.7076,True
2,2.266668,0.01891737,-0.007781099,-0.008551715,-1.355183,-4.546424,-2.205503,0.4283132,1.314266,0.4229145,-1.719983,0.2985361,20,47.5,0.02120868,-0.07197974,-0.0257012,-0.5103485,-4.415668,0.225908,0.5711419,1.457406,0.3758509,0.04089697,0.004918762,-0.07834478,-0.8759211,0.4333816,-0.1170955,0.6964726,1.496941,0.2207944,0.2392887,1.483909,0.2542563,307.4435,88.82446,149.5249,True
2,2.277779,0.01894903,-0.01736522,-0.00742616,-1.354711,-4.546124,-2.205776,0.4286497,1.314325,0.4230478,-1.716553,0.3087433,20,47.5,0.02446499,-0.06883885,-0.02038211,-0.5106058,-4.416948,0.2265783,0.5714736,1.457379,0.3760071,0.04395158,-0.01217438,-0.08681557,-0.8771361,0.4323303,-0.1170403,0.6967852,1.496867,0.22082,0.2386105,1.483105,0.2543368,307.1947,88.96956,149.3813,True
2,2.28889,0.01895631,-0.01842601,-0.006350403,-1.354515,-4.545953,-2.206074,0.4289761,1.314245,0.4230757,-1.712934,0.3260502,20,47.5,0.02677649,-0.06475173,-0.0001253616,-0.5101019,-4.418581,0.2276997,0.5716984,1.457389,0.3760211,0.03649062,-0.03557499,-0.08233704,-0.87769,0.4305093,-0.1160116,0.6970586,1.496827,0.2208364,0.2379581,1.482358,0.2545059,306.9507,89.08967,149.2839,True
2,2.300001,0.02534398,-0.02058292,-0.01274219,-1.353978,-4.546005,-2.206558,0.4292789,1.314198,0.4231741,-1.709655,0.2945565,14.8,48.6,0.02369999,-0.06164728,0.01270662,-0.5097312,-4.420028,0.2288058,0.5720379,1.457429,0.3761744,0.02279453,-0.03760265,-0.0693786,-0.8779665,0.4298715,-0.1154265,0.6973611,1.496729,0.2207904,0.2373319,1.481681,0.254758,306.728,89.18129,149.2336,True
2,2.311112,0.02430327,-0.02696935,-0.01163802,-1.353518,-4.545825,-2.206857,0.4295355,1.314254,0.4233007,-1.706182,0.3126442,14.8,48.6,0.01628123,-0.06700347,0.01911906,-0.5096086,-4.422221,0.2307056,0.5723748,1.457439,0.3762503,0.01545802,-0.04072161,-0.05861856,-0.8782061,0.4291953,-0.114949,0.697665,1.496753,0.2208884,0.2367548,1.481044,0.2550274,306.5313,89.22474,149.2985,True
2,2.322223,0.02006488,-0.03443884,-0.01157991,-1.35299,-4.545478,-2.206998,0.4298297,1.314223,0.4234347,-1.702791,0.3049809,14.8,48.6,0.01417339,-0.07235941,0.02442297,-0.5093695,-4.424198,0.232356,0.5726906,1.457399,0.376348,0.008058876,-0.02578061,-0.05647809,-0.8787627,0.4293274,-0.1148366,0.6979586,1.496705,0.2210541,0.2362288,1.480381,0.2552569,306.3769,89.24836,149.3967,True
2,2.333334,0.02752917,-0.03765056,-0.01903265,-1.352366,-4.545619,-2.207655,0.4299608,1.314288,0.4235682,-1.698886,0.3518675,14.8,48.6,0.01311026,-0.07236497,0.02549862,-0.5092358,-4.425984,0.2338828,0.5730115,1.45741,0.3764827,0.01753106,-0.01521027,-0.06836783,-0.8799675,0.4294483,-0.1154201,0.6982108,1.496613,0.2211742,0.2357085,1.479665,0.2554088,306.2416,89.31497,149.4015,True
2,2.344445,0.032835,-0.03124793,-0.01908023,-1.352084,-4.545613,-2.208184,0.430159,1.314371,0.4236617,-1.694813,0.3667203,14.8,48.6,0.01849456,-0.06923197,0.03080826,-0.5088491,-4.427557,0.2348589,0.5732905,1.457367,0.3766756,0.0163699,-0.01312169,-0.07688916,-0.8810861,0.42916,-0.1153985,0.6985223,1.496511,0.2213526,0.2351415,1.478914,0.2554692,306.0767,89.40086,149.3298,True
2,2.355556,0.03710424,-0.02800013,-0.01271379,-1.351987,-4.545376,-2.208869,0.4304208,1.314377,0.4237812,-1.6914,0.3061866,10.9,35.3,0.02061231,-0.06602608,0.02761908,-0.508839,-4.429127,0.235898,0.5737374,1.457296,0.3767853,0.008753311,-0.005725507,-0.0917563,-0.8826467,0.429149,-0.1152249,0.6988811,1.496474,0.221415,0.2345177,1.478109,0.255448,305.8926,89.51642,149.2037,True
2,2.366668,0.03176143,-0.0216107,-0.00954712,-1.351916,-4.545288,-2.209033,0.4306121,1.314351,0.4239085,-1.687134,0.3845226,10.9,35.3,0.01739233,-0.04888539,0.01712955,-0.5090159,-4.428884,0.2355928,0.573962,1.457318,0.3769188,0.009678848,-0.004735317,-0.1045563,-0.8841758,0.4288109,-0.1153178,0.6991705,1.496344,0.2214606,0.2337632,1.477277,0.2553673,305.7109,89.67742,149.0113,True
2,2.377779,0.03177521,-0.02049296,3.972091E-05,-1.351927,-4.544776,-2.209485,0.4308344,1.314328,0.424042,-1.682909,0.3800482,10.9,35.3,0.009679712,-0.05396689,-0.01054234,-0.5101951,-4.430025,0.2367883,0.5742429,1.457322,0.3770134,0.02576406,-0.03452301,-0.0896747,-0.8845327,0.4269966,-0.1149708,0.699387,1.496277,0.2214351,0.2328917,1.476381,0.2552847,305.4664,89.83064,148.8285,True
2,2.38889,0.02328235,-0.02795938,0.003294618,-1.351509,-4.5443,-2.209529,0.4310165,1.314301,0.4240925,-1.678032,0.439658,10.9,35.3,0.01069379,-0.05713701,-0.01484023,-0.5106809,-4.431506,0.2379795,0.5745478,1.457255,0.3771548,0.03121389,-0.04724847,-0.07688159,-0.8847628,0.4258239,-0.1147575,0.6996065,1.496243,0.2213821,0.2319541,1.475372,0.2552486,305.1796,89.97196,148.6796,True
2,2.400001,0.01161276,-0.04076609,0.005524317,-1.350859,-4.543677,-2.209462,0.4312988,1.314279,0.4242096,-1.673709,0.388491,10.9,35.3,0.0224818,-0.05618261,-0.006408326,-0.5105983,-4.43285,0.2385678,0.5748542,1.457141,0.3773532,0.03245944,-0.05142736,-0.06089108,-0.884864,0.4249221,-0.1145684,0.6997323,1.496321,0.2213519,0.230953,1.474291,0.2552652,304.8583,90.1245,148.5432,True
2,2.411112,0.009490601,-0.04933835,-0.001875341,-1.350086,-4.543429,-2.209505,0.4316147,1.314269,0.424371,-1.668812,0.4413804,13.3,31.4,0.03000748,-0.05413086,-6.972998E-05,-0.51061,-4.433925,0.2388318,0.5751613,1.457142,0.3774631,0.03044575,-0.05030598,-0.05128463,-0.8850638,0.4242185,-0.1143756,0.6999777,1.496171,0.2214432,0.2299285,1.473163,0.2553228,304.5186,90.25771,148.4595,True
2,2.422223,0.006323977,-0.06540585,-0.01455559,-1.348791,-4.543184,-2.209538,0.431866,1.314432,0.4245737,-1.664064,0.4272442,13.3,31.4,0.03871006,-0.0489907,0.01907958,-0.5098276,-4.435256,0.2393069,0.5754508,1.457021,0.3775144,0.02745389,-0.04595166,-0.03528905,-0.8847751,0.4238237,-0.1143479,0.7001063,1.496151,0.2213948,0.2289091,1.47202,0.2553699,304.174,90.4119,148.387,True
2,2.433334,0.006347441,-0.0718032,-0.01557966,-1.347907,-4.542724,-2.209798,0.4320571,1.314432,0.4247079,-1.659638,0.3979482,13.3,31.4,0.03871682,-0.04793511,0.02015401,-0.5097045,-4.436381,0.2399671,0.5756215,1.457035,0.3776138,0.02326006,-0.0384591,-0.03102476,-0.8851037,0.4236234,-0.1143069,0.7002943,1.496117,0.2215357,0.2279736,1.470863,0.255388,303.8283,90.61579,148.2506,True
2,2.444445,0.01381263,-0.08036063,-0.02512795,-1.346634,-4.542495,-2.210231,0.4322718,1.314537,0.4248002,-1.654992,0.4182967,13.3,31.4,0.03663803,-0.04690507,0.02551015,-0.5093413,-4.43764,0.2407032,0.5758564,1.456985,0.3775737,0.02096584,-0.03959339,-0.04484501,-0.8860699,0.4228055,-0.1139974,0.7004716,1.496059,0.2216535,0.2271315,1.469736,0.255375,303.5185,90.87359,148.0215,True
2,2.455556,0.01381354,-0.08142174,-0.02405382,-1.345755,-4.542066,-2.210416,0.4325103,1.314539,0.4249189,-1.650451,0.408414,11.8,38.3,0.0366388,-0.04690497,0.02444384,-0.5092752,-4.438994,0.2413431,0.5761977,1.4569,0.3776321,0.01976541,-0.03858659,-0.05655444,-0.8870484,0.4221813,-0.1138155,0.7007421,1.496006,0.2216501,0.2263413,1.468696,0.2553246,303.2609,91.13457,147.7552,True
2,2.466667,0.01804084,-0.07181811,-0.02412101,-1.345304,-4.542003,-2.210728,0.4327219,1.314461,0.4250226,-1.646039,0.3969016,11.8,38.3,0.03336437,-0.04574768,0.01489295,-0.509525,-4.439816,0.2418361,0.5763756,1.456945,0.3776968,0.03457645,-0.04398827,-0.06416124,-0.8879166,0.4211668,-0.1140555,0.7009308,1.495963,0.2216606,0.2255925,1.467709,0.2552501,303.0491,91.3108,147.5688,True
2,2.477778,0.01802636,-0.06326436,-0.01884311,-1.345,-4.541727,-2.21102,0.4329899,1.314425,0.4251442,-1.641192,0.4368133,11.8,38.3,0.02804031,-0.04252538,0.01390275,-0.5094419,-4.440635,0.2424462,0.5766671,1.457098,0.377744,0.02946008,-0.04707549,-0.04597261,-0.8877648,0.4203764,-0.1137316,0.7011833,1.496005,0.2215946,0.2248647,1.466736,0.2551482,302.8563,91.48693,147.3923,True
2,2.488889,0.01586711,-0.05259152,-0.01464425,-1.344813,-4.541623,-2.211068,0.433198,1.314378,0.4252093,-1.636871,0.388384,11.8,38.3,0.0238668,-0.02655438,0.01726344,-0.5089918,-4.440196,0.2419274,0.5768786,1.457087,0.3778064,0.01893561,-0.05338765,-0.03409322,-0.887646,0.419216,-0.1128661,0.7013141,1.495962,0.2215066,0.2241639,1.46573,0.2550452,302.6548,91.65237,147.2112,True
2,2.5,0.01903557,-0.03977169,-0.01046833,-1.34483,-4.541622,-2.211457,0.4333922,1.314297,0.4253008,-1.632398,0.4028216,11.8,38.3,0.01645645,-0.01374016,0.01743649,-0.5085967,-4.439701,0.2416006,0.5769825,1.457062,0.3778369,0.00208804,-0.05113096,-0.01792311,-0.8872268,0.418616,-0.1119598,0.7014688,1.495918,0.2214758,0.2234649,1.464684,0.254976,302.4427,91.81143,147.0259,True
2,2.511111,0.02008004,-0.0290737,-0.004143056,-1.345,-4.54152,-2.211722,0.4336329,1.314324,0.4253635,-1.627823,0.4120202,14.2,29.2,0.00805543,-0.0159611,0.03240328,-0.5078387,-4.440816,0.2427258,0.5771842,1.457039,0.3778806,-0.01371902,-0.03399544,-0.007173868,-0.8870542,0.4188216,-0.1115148,0.7016367,1.495844,0.2215102,0.2227443,1.463626,0.2549553,302.2004,91.96664,146.8591,True
2,2.522222,0.02111899,-0.02270038,-0.007383368,-1.344792,-4.54167,-2.211943,0.4338019,1.314233,0.425386,-1.623855,0.3564529,14.2,29.2,0.01760657,-0.01809957,0.02910831,-0.5076933,-4.441467,0.2427988,0.5774027,1.456919,0.3779087,-0.005212341,-0.01380292,-0.01270952,-0.8874356,0.4194428,-0.1121654,0.7018235,1.495772,0.221586,0.2219699,1.462599,0.2549777,301.9509,92.12868,146.7102,True
2,2.533333,0.02326699,-0.02586994,-0.004167976,-1.344533,-4.541337,-2.212371,0.4339256,1.314155,0.4255068,-1.619477,0.3944263,14.2,29.2,0.02492198,-0.02762276,0.01725208,-0.508104,-4.44263,0.24337,0.5775501,1.456842,0.3780441,-4.173256E-05,0.001012297,-0.028832,-0.8883645,0.4198999,-0.1126578,0.7020078,1.4957,0.221652,0.221151,1.461597,0.255062,301.6949,92.2781,146.5872,True
2,2.544444,0.01477703,-0.0376345,-0.007277729,-1.343768,-4.540987,-2.212359,0.4339948,1.31409,0.4254785,-1.615232,0.3820136,14.2,29.2,0.02152814,-0.03169367,-0.004059284,-0.5088885,-4.443081,0.2437115,0.5776286,1.456808,0.3780394,0.008301333,0.01687468,-0.04712705,-0.8896055,0.4206518,-0.1135061,0.7021973,1.49567,0.221745,0.2202933,1.460636,0.2551982,301.4292,92.41473,146.5118,True
2,2.555555,0.01266909,-0.0450803,-0.004031019,-1.343215,-4.540475,-2.212435,0.4341266,1.314167,0.4255004,-1.611126,0.3694061,18.4,28,0.01611069,-0.02624184,-0.0178269,-0.5096412,-4.443,0.2435639,0.577788,1.456728,0.3780975,0.01252334,0.008341661,-0.04819851,-0.8901381,0.4204131,-0.1135404,0.7023362,1.495718,0.2217259,0.2194252,1.459665,0.2553715,301.1989,92.55644,146.4535,True
2,2.566666,0.0190748,-0.04825299,-0.002962502,-1.342648,-4.540091,-2.212985,0.4342906,1.314103,0.4255202,-1.606523,0.4149305,18.4,28,9.774975E-05,-0.02080479,-0.02404076,-0.5101269,-4.44281,0.2439456,0.5779418,1.456737,0.3781047,0.001883924,-0.002268536,-0.0448185,-0.8904327,0.4198207,-0.1127923,0.7025375,1.495607,0.2217605,0.2185554,1.458657,0.2555468,300.9784,92.66338,146.4325,True
2,2.577777,0.02439788,-0.04607733,0.001272915,-1.342392,-4.539751,-2.213461,0.4345574,1.314174,0.4255271,-1.602402,0.3705548,18.4,28,-0.003888376,-0.008221486,0.002723404,-0.5092305,-4.442663,0.2439586,0.5782678,1.45675,0.378123,-0.01304417,-0.01819657,-0.04242774,-0.8907757,0.4188246,-0.1114474,0.7028214,1.495588,0.2216914,0.2176621,1.457646,0.2556375,300.7291,92.80058,146.3926,True
2,2.588888,0.03181453,-0.03219074,0.003306959,-1.34261,-4.539741,-2.214064,0.4347871,1.314148,0.4255679,-1.598928,0.311901,18.4,28,-0.005816353,0.000149068,0.02304876,-0.5082201,-4.442518,0.2439245,0.5784471,1.456755,0.378221,-0.01192752,-0.03839478,-0.03380809,-0.8906921,0.4174184,-0.1104461,0.7029691,1.49559,0.2217431,0.216801,1.456649,0.2556232,300.4427,92.99123,146.268,True
2,2.599999,0.03497357,-0.02044928,0.005358693,-1.342837,-4.539783,-2.214519,0.435077,1.314179,0.4256203,-1.595419,0.3162727,18.4,28,0.006041343,0.001045574,0.03893358,-0.5073567,-4.442928,0.2437487,0.5787503,1.456838,0.3783367,-0.003258534,-0.03409405,-0.0222274,-0.8907155,0.417086,-0.110486,0.7031471,1.4956,0.2217684,0.2160576,1.455627,0.255533,300.1568,93.20911,146.077,True
2,2.61111,0.02963814,-0.01725977,0.006413377,-1.342846,-4.53966,-2.214687,0.4352261,1.314151,0.4257512,-1.592575,0.2556892,28,23.3,0.009191956,0.002154611,0.03252322,-0.5071799,-4.442739,0.243337,0.5788333,1.456823,0.3784289,-0.00211494,-0.02236106,-0.01804692,-0.8908828,0.4172137,-0.1105705,0.7033457,1.495568,0.2218714,0.2154455,1.454656,0.2553915,299.8678,93.44805,145.8208,True
2,2.622221,0.02114435,-0.02257135,0.01285667,-1.342776,-4.539091,-2.214791,0.4353426,1.314178,0.4258354,-1.589839,0.2465204,28,23.3,0.007854477,-0.01040781,0.005802503,-0.5080662,-4.443274,0.2437578,0.5790054,1.45673,0.3785603,0.004319564,-0.02022905,-0.0149389,-0.8909174,0.4170385,-0.1107292,0.7034818,1.495501,0.2219,0.2149671,1.453786,0.2552636,299.6246,93.65903,145.5586,True
2,2.633332,0.01796236,-0.03004568,0.01184297,-1.342348,-4.53865,-2.214887,0.4354799,1.314182,0.4259284,-1.587261,0.232379,28,23.3,0.004532003,-0.01562171,-0.006997357,-0.5086536,-4.443708,0.24421,0.5792045,1.456744,0.3786557,0.005375043,-0.02556023,-0.01491794,-0.8909637,0.4163213,-0.1104187,0.7036787,1.495494,0.2219625,0.2146091,1.453066,0.2551948,299.4379,93.83244,145.3338,True
2,2.644443,0.01586394,-0.04394398,0.005544614,-1.341493,-4.538105,-2.215128,0.435589,1.314212,0.4259303,-1.585167,0.1884812,28,23.3,0.008738521,-0.0209302,-0.01133215,-0.5089152,-4.444418,0.2445544,0.5793371,1.456706,0.378674,0.004221635,-0.02559748,-0.02236214,-0.8914468,0.4158755,-0.1101529,0.7038124,1.495479,0.2220075,0.2143385,1.452524,0.2551962,299.3154,93.92955,145.2012,True
2,2.655554,0.01798224,-0.04289122,0.002336698,-1.341082,-4.537928,-2.215411,0.4357226,1.314286,0.425992,-1.583574,0.1432663,28,23.3,0.009860278,-0.02205928,-0.003892282,-0.5087703,-4.4451,0.2450364,0.5794908,1.456743,0.3787303,-0.006461492,-0.02558461,-0.02435973,-0.8916721,0.4154692,-0.1093907,0.7039678,1.495426,0.2220383,0.2141512,1.452164,0.2552377,299.229,93.94684,145.1882,True
2,2.666665,0.01370751,-0.03972746,0.0001894087,-1.340653,-4.537754,-2.215477,0.4358033,1.314265,0.4260728,-1.582335,0.1112943,35.5,32.8,0.01322259,-0.02543554,0.01735752,-0.5079783,-4.446345,0.2458774,0.5795978,1.456644,0.3788445,-0.01077496,-0.03091579,-0.02747399,-0.8919843,0.4147546,-0.1086479,0.7040785,1.495306,0.2220802,0.2140704,1.451926,0.2552873,299.1935,93.94975,145.228,True
2,2.677776,0.01475991,-0.03329895,0.005473174,-1.34068,-4.537485,-2.215706,0.4359134,1.314291,0.4261322,-1.581292,0.09380097,35.5,32.8,0.01226173,-0.009488001,0.0217527,-0.5075271,-4.445688,0.2450654,0.5797053,1.456629,0.3788693,-0.004221762,-0.02553919,-0.01479767,-0.8917568,0.4145947,-0.1086927,0.7041914,1.495299,0.2221088,0.214079,1.451767,0.2552932,299.197,93.96407,145.2508,True
2,2.688887,0.005120864,-0.01735534,0.004322409,-1.340952,-4.537779,-2.215358,0.4359309,1.314279,0.4261961,-1.58007,0.1102979,35.5,32.8,0.005829599,-0.005152117,0.01544667,-0.5076342,-4.445402,0.2450058,0.5797599,1.456562,0.3789477,0.001213382,-0.01805316,-0.00744344,-0.8916088,0.4147242,-0.1090074,0.7042582,1.495328,0.2222373,0.2141456,1.451652,0.2552681,299.2252,93.98167,145.2161,True
2,2.699998,-0.004509681,-0.001380713,0.008504594,-1.341538,-4.537893,-2.214929,0.4359037,1.314229,0.4262583,-1.579314,0.06779706,35.5,32.8,-0.01024432,0.003549743,0.0007372141,-0.5080145,-4.444484,0.2448835,0.5797415,1.456635,0.3789759,0.002455876,-0.002014761,0.004176436,-0.891229,0.4154786,-0.1095513,0.7042727,1.495329,0.2222557,0.2142333,1.451548,0.2552349,299.2561,93.97668,145.1727,True
2,2.711109,-0.01308057,0.01352094,0.01055244,-1.342093,-4.538222,-2.21437,0.4359271,1.314157,0.4262557,-1.578146,0.105875,40.4,30.4,-0.01239038,0.004640536,-0.001365969,-0.5080512,-4.444257,0.2449078,0.5797806,1.456602,0.3790376,-0.002812987,0.0001498559,0.008492815,-0.8909749,0.4155152,-0.109388,0.7043407,1.495329,0.2223155,0.2142927,1.451464,0.2552094,299.2733,93.95387,145.1401,True
2,2.72222,-0.01417732,0.02309416,0.009436012,-1.342563,-4.538395,-2.214165,0.4359065,1.314188,0.4261734,-1.57737,0.06969052,40.4,30.4,-0.01661416,0.006750431,0.002946461,-0.5078669,-4.444126,0.2452273,0.5797493,1.456682,0.3790858,-0.00604154,-0.003049551,0.006417458,-0.8909568,0.4153343,-0.1090948,0.7043833,1.495301,0.2223587,0.2142615,1.451431,0.2552196,299.2858,93.94691,145.0981,True
2,2.733331,-0.01846009,0.02840086,0.008344144,-1.342967,-4.538682,-2.213696,0.4358774,1.31413,0.4261963,-1.576789,0.05225545,40.4,30.4,-0.01007258,0.01194401,0.01678217,-0.5070952,-4.443859,0.2446319,0.5798061,1.456552,0.3791873,-0.01458651,0.003349492,0.003291148,-0.8910676,0.4157123,-0.1088756,0.7043623,1.495214,0.2225518,0.2141527,1.451441,0.2552973,299.2773,93.91042,145.1195,True
2,2.744442,-0.02489179,0.04116953,0.009339893,-1.343691,-4.539149,-2.213092,0.4358424,1.314028,0.4260948,-1.576686,0.0087698,40.4,30.4,-0.004827946,0.007726661,0.009248121,-0.5071697,-4.443837,0.2445309,0.5797217,1.456476,0.3791456,0.0003572702,0.005459952,0.005232331,-0.891041,0.4157565,-0.1092,0.7043521,1.495176,0.222609,0.2139989,1.451488,0.2554373,299.245,93.8716,145.2048,True
2,2.755553,-0.02707097,0.05608516,0.01031372,-1.344689,-4.539809,-2.212522,0.4358189,1.313995,0.4260333,-1.576124,0.05114896,40.4,30.4,-0.01035876,0.001517652,-0.01206241,-0.5080699,-4.443973,0.2449658,0.579731,1.456452,0.3791821,0.01313006,0.01713075,0.001831273,-0.891,0.4166999,-0.110612,0.7042364,1.495173,0.2226429,0.2138238,1.451566,0.2556061,299.2182,93.83326,145.3192,True
2,2.766664,-0.0303936,0.0965737,0.01220245,-1.346816,-4.541158,-2.211754,0.435721,1.313854,0.4260783,-1.575697,0.03842129,46,43.8,-0.02350025,-0.01627049,-0.04618351,-0.5098355,-4.444627,0.2463182,0.5796551,1.456289,0.3792863,0.01311837,0.01819407,0.0007604132,-0.8910623,0.417055,-0.1109377,0.7042094,1.495102,0.2227466,0.2136674,1.451633,0.2558001,299.2098,93.7878,145.433,True
2,2.777775,-0.03043911,0.113653,0.017421,-1.348486,-4.542036,-2.211215,0.4356196,1.313846,0.4260571,-1.575514,0.01627835,46,43.8,-0.02458303,-0.01625466,-0.04830303,-0.5104268,-4.444828,0.2467863,0.5796436,1.456287,0.3793256,0.01207529,0.01607472,0.002913354,-0.8909984,0.4171311,-0.1111116,0.7041451,1.495103,0.2227197,0.213515,1.451716,0.2559963,299.1996,93.72388,145.5586,True
2,2.788886,-0.03791816,0.1232529,0.02270406,-1.350106,-4.542664,-2.210403,0.4354606,1.313873,0.4261527,-1.575266,0.02243857,46,43.8,-0.01594874,-0.009977201,-0.03767057,-0.5103351,-4.444506,0.2463538,0.5794805,1.45635,0.3793912,0.00585896,0.01616785,0.01683694,-0.8903645,0.4175512,-0.1113372,0.7040619,1.49514,0.2228014,0.2133497,1.451852,0.2562151,299.1927,93.67361,145.6269,True
2,2.799997,-0.04642408,0.1168459,0.02381815,-1.351137,-4.543161,-2.209413,0.4353,1.313881,0.4261501,-1.575199,0.005843089,46,43.8,-0.01477727,-0.01222241,-0.02384781,-0.5101551,-4.445058,0.2469848,0.5792853,1.456305,0.3793871,0.00485917,0.01194386,0.02326123,-0.8899326,0.417624,-0.1113867,0.7039765,1.495165,0.222785,0.2131348,1.452078,0.2565351,299.1907,93.57668,145.7178,True
2,2.811108,-0.04959251,0.1093737,0.02494007,-1.351949,-4.543321,-2.20877,0.4350866,1.31397,0.4258389,-1.574728,0.04288158,49,54.6,-0.02537374,-0.01115859,-0.01842094,-0.5101898,-4.445165,0.247633,0.5791047,1.45632,0.3792059,0.002735822,0.01407723,0.02327635,-0.8897238,0.4178838,-0.111558,0.7038054,1.495281,0.2227678,0.21287,1.452402,0.2569596,299.1845,93.44092,145.9003,True
2,2.822219,-0.04743325,0.0944033,0.01437565,-1.352241,-4.543819,-2.208241,0.4348072,1.313999,0.4257762,-1.574372,0.03208315,49,54.6,-0.02841583,0.001526725,-0.004445386,-0.5097445,-4.444513,0.2476244,0.5788764,1.456218,0.3791246,0.003782984,0.01725935,0.02111636,-0.8896077,0.4182882,-0.1118911,0.7036572,1.495307,0.2227707,0.2125851,1.452801,0.2574638,299.1826,93.27847,146.1641,True
2,2.83333,-0.04849214,0.08689746,0.006960914,-1.352705,-4.544485,-2.207479,0.4346138,1.31401,0.4257364,-1.574548,-0.01636311,49,54.6,-0.0304868,0.01537318,-0.003252055,-0.5095831,-4.443286,0.2469714,0.5786554,1.45621,0.3790665,0.004960764,0.03220854,0.02741732,-0.8892055,0.4195573,-0.1128283,0.7034879,1.495291,0.2228253,0.212308,1.453258,0.2579515,299.1937,93.08738,146.5411,True
2,2.844441,-0.04743482,0.08471347,-0.00154851,-1.353205,-4.545205,-2.206865,0.4344004,1.31401,0.4256792,-1.574693,-0.01309312,49,54.6,-0.03581696,0.02501373,-0.007393297,-0.5096923,-4.441993,0.2464841,0.5783902,1.456159,0.3791525,0.00827568,0.03970401,0.03586058,-0.8886185,0.4205508,-0.1136579,0.7033064,1.495305,0.2229645,0.21205,1.453747,0.2582902,299.243,92.89679,146.9365,True
2,2.855552,-0.05064875,0.08895299,-0.003702369,-1.354058,-4.54603,-2.205996,0.4342149,1.313999,0.425642,-1.574435,0.0235978,49,54.6,-0.04224803,0.02614353,-0.01265419,-0.5099,-4.441258,0.2465046,0.5781945,1.456189,0.3791046,0.0104052,0.04395228,0.03474385,-0.8883986,0.4213504,-0.1143663,0.7031624,1.49534,0.2229505,0.2118574,1.454144,0.2584775,299.341,92.80194,147.1252,True
2,2.866663,-0.05382884,0.08361743,-0.003664896,-1.354627,-4.546518,-2.205178,0.4339991,1.313944,0.4255855,-1.5745,-0.006119231,49.5,51.9,-0.04234996,0.0230359,-0.02332762,-0.5103852,-4.440656,0.2464519,0.5779018,1.456247,0.3790624,0.001830637,0.03863563,0.03168244,-0.8881333,0.4217969,-0.1143284,0.7029171,1.495452,0.2229991,0.2117192,1.454429,0.2585521,299.4219,92.76894,147.1547,True
2,2.877774,-0.05382877,0.08360559,-0.005792804,-1.355328,-4.547156,-2.204516,0.4336526,1.313883,0.4255505,-1.574228,0.02493038,49.5,51.9,-0.03073794,0.008125946,-0.02994295,-0.5110979,-4.441235,0.2468633,0.5776856,1.456216,0.3790219,-0.0003899932,0.02689463,0.02644351,-0.8880093,0.4216824,-0.114154,0.7026967,1.495474,0.2229686,0.2115898,1.454629,0.2585596,299.4788,92.76263,147.113,True
2,2.888885,-0.05063007,0.08255299,-0.005790763,-1.356059,-4.547769,-2.203938,0.433452,1.313837,0.4254208,-1.574139,0.007846887,49.5,51.9,-0.02972701,-0.001447715,-0.03215763,-0.5115698,-4.44169,0.2475637,0.577445,1.456219,0.378974,-0.0003900304,0.02796136,0.02644081,-0.8877109,0.4221896,-0.11444,0.7024767,1.495497,0.2229881,0.2114381,1.454788,0.258552,299.5042,92.75592,147.0738,True
2,2.899997,-0.03786178,0.08792013,-0.00584624,-1.356964,-4.548535,-2.203812,0.4332898,1.313836,0.4252977,-1.574294,-0.01424569,49.5,51.9,-0.02007347,-0.002616614,-0.023724,-0.5115496,-4.441836,0.2476367,0.5771946,1.456253,0.3788972,-0.007842027,0.0354249,0.02542636,-0.8875075,0.4229896,-0.1146475,0.7022861,1.495552,0.2229419,0.2112488,1.45493,0.2585451,299.5337,92.73933,147.0688,True
2,2.911108,-0.03150485,0.09859636,-0.005928285,-1.358088,-4.549564,-2.203411,0.4331273,1.313834,0.4252641,-1.574358,-0.005728151,53.3,53.9,-0.01782214,0.005816583,-0.01409076,-0.5113621,-4.4413,0.2471917,0.5769764,1.456201,0.3788693,-0.003593888,0.03540559,0.0243121,-0.8872763,0.4234732,-0.1150363,0.7020161,1.495655,0.2228875,0.2109911,1.455081,0.2585563,299.5652,92.70543,147.0964,True
2,2.922219,-0.02729074,0.117829,0.001403052,-1.359766,-4.55051,-2.203032,0.4329225,1.313717,0.425173,-1.57479,-0.03953823,53.3,53.9,-0.01874259,0.02278818,-0.004359384,-0.5108721,-4.439766,0.2460899,0.5766997,1.456159,0.3787739,-0.006707873,0.03225625,0.03182344,-0.8867069,0.4239024,-0.1151226,0.7017497,1.495685,0.2228229,0.2107067,1.455222,0.2586041,299.5579,92.67384,147.1566,True
2,2.93333,-0.02836224,0.1285501,0.01305958,-1.361517,-4.551127,-2.202616,0.4325977,1.313591,0.425149,-1.574542,0.02292387,53.3,53.9,-0.01865439,0.05264335,-0.007320365,-0.5106984,-4.436239,0.2431999,0.5762616,1.456038,0.3786738,-0.008745383,0.03443518,0.03929447,-0.8860859,0.4246811,-0.1154318,0.7014844,1.495695,0.2228434,0.2104138,1.455352,0.2587134,299.5409,92.66271,147.1987,True
2,2.944441,-0.03367806,0.1296448,0.02051888,-1.362977,-4.551651,-2.201946,0.4323364,1.313537,0.4251423,-1.574441,0.009038785,53.3,53.9,-0.02716127,0.05907254,-0.008265456,-0.5107416,-4.434488,0.2422587,0.5759544,1.456063,0.3786964,-0.003309105,0.03021601,0.04883744,-0.8853104,0.425152,-0.115966,0.7011776,1.495791,0.2228315,0.210101,1.455489,0.2589223,299.5267,92.63698,147.2471,True
2,2.955552,-0.03259708,0.1243146,0.01948093,-1.36399,-4.552279,-2.201501,0.4320721,1.313535,0.4250326,-1.574273,0.01521062,53.3,53.9,-0.02191843,0.04523571,-0.0126855,-0.5110675,-4.434415,0.2422065,0.575758,1.456072,0.3785889,-0.00221644,0.025969,0.05204884,-0.8845721,0.4254125,-0.1161263,0.7008419,1.495813,0.2227986,0.2097497,1.455652,0.2592466,299.5283,92.5129,147.411,True
2,2.966663,-0.02828496,0.1061811,0.01318824,-1.364411,-4.552777,-2.201308,0.4317398,1.313538,0.4248037,-1.573951,0.02935486,54.9,81.1,-0.01037518,0.02290877,-0.02361489,-0.511793,-4.43502,0.2424656,0.5754815,1.456024,0.3785319,0.001992129,0.02487469,0.04774346,-0.8842366,0.4258371,-0.1165748,0.7005603,1.495856,0.2227674,0.2093421,1.455848,0.2596643,299.5271,92.32374,147.6721,True
2,2.977774,-0.02930991,0.08801558,0.004778504,-1.364623,-4.553203,-2.200836,0.4314976,1.313574,0.4246917,-1.574151,-0.0186205,54.9,81.1,-0.007182444,0.01433731,-0.01944643,-0.511884,-4.435347,0.2428276,0.5752611,1.456073,0.3784404,0.001926839,0.02803216,0.04133715,-0.8840166,0.4263569,-0.1169495,0.7003514,1.495874,0.2226996,0.2089056,1.456085,0.2601222,299.5007,92.16605,147.9589,True
2,2.988885,-0.03139032,0.06878024,-0.003625758,-1.364546,-4.553598,-2.20043,0.4311928,1.313473,0.4245505,-1.574383,-0.02101293,54.9,81.1,0.00138613,0.01425986,-0.01418874,-0.5117243,-4.435201,0.2423761,0.5749596,1.455986,0.3783059,0.006132826,0.02906807,0.0370223,-0.8837737,0.4269271,-0.1174233,0.7000897,1.495858,0.2226965,0.2084651,1.456359,0.260539,299.494,92.05267,148.2545,True
2,2.999996,-0.0313666,0.06132336,-0.003579954,-1.364881,-4.55389,-2.200042,0.4309198,1.313429,0.4244616,-1.574082,0.02774866,54.9,81.1,-0.01034048,0.01324602,-0.0151661,-0.5119331,-4.434761,0.242472,0.5746458,1.455907,0.378242,0.005069338,0.03014062,0.03703346,-0.8833455,0.4275433,-0.1178284,0.6997746,1.495965,0.2227502,0.2080528,1.456613,0.2608346,299.5176,91.96807,148.5117,True
2,3.011107,-0.02922359,0.05706673,-0.003558151,-1.365283,-4.554216,-2.199703,0.4306394,1.313386,0.4244742,-1.574086,-0.0006934627,54.9,81.1,-0.0241471,0.02288393,-0.01497827,-0.5120545,-4.433528,0.2420683,0.5742403,1.455961,0.3782806,-0.002351765,0.03656001,0.03922036,-0.8828959,0.4284407,-0.1180467,0.6995015,1.495928,0.2228017,0.2077207,1.45679,0.2609848,299.5485,91.92871,148.6561,True
2,3.022218,-0.03029791,0.06241594,0.00067221,-1.366099,-4.554629,-2.199228,0.4303946,1.313308,0.4243984,-1.574075,0.0009835104,59.2,77,-0.02626942,0.03464358,-0.01912813,-0.5122069,-4.431774,0.2409111,0.5739262,1.455919,0.3781977,-0.00027363,0.03014837,0.03603357,-0.8825939,0.4286864,-0.1182699,0.6992024,1.495937,0.2227437,0.2074681,1.456864,0.2609833,299.5953,91.91472,148.6987,True
2,3.033329,-0.0314005,0.07520843,0.002728745,-1.367258,-4.555293,-2.198698,0.4301155,1.313197,0.4243937,-1.57412,-0.004073069,59.2,77,-0.02626566,0.04533175,-0.02330633,-0.5124476,-4.429751,0.2393966,0.5735247,1.455916,0.3781078,-0.004515406,0.03015457,0.037153,-0.8821449,0.4289909,-0.1183906,0.6989363,1.495966,0.2227025,0.2072594,1.456876,0.2608643,299.6158,91.92129,148.6375,True
2,3.04444,-0.02820519,0.08059856,0.01121474,-1.368377,-4.555551,-2.198457,0.4299163,1.313142,0.4243026,-1.573996,0.01131107,59.2,77,-0.01970505,0.05690795,-0.008354504,-0.5117499,-4.427889,0.2377843,0.5732305,1.455853,0.3780596,-0.001213528,0.03764376,0.04453203,-0.8814786,0.4299895,-0.119137,0.6986657,1.495996,0.222672,0.2070644,1.456865,0.2606971,299.6221,91.94558,148.5172,True
2,3.055551,-0.03245987,0.08168309,0.01654256,-1.369362,-4.555813,-2.197894,0.4296437,1.313089,0.4242187,-1.573974,0.001912981,59.2,77,-0.01234885,0.04841772,-0.01594299,-0.5121078,-4.427166,0.2371156,0.5729448,1.455837,0.3780034,-0.001193155,0.03657702,0.04560545,-0.8809364,0.4304176,-0.1195605,0.698413,1.496095,0.2226238,0.2068527,1.456877,0.2605476,299.6222,91.95662,148.4135,True
2,3.066662,-0.03139991,0.08597396,0.02077301,-1.37046,-4.556201,-2.197498,0.4293491,1.31312,0.424247,-1.574176,-0.01844571,57.7,77.7,-0.01357447,0.02719117,-0.02569039,-0.5128572,-4.427727,0.237828,0.5728453,1.455763,0.3779814,0.004038863,0.02694602,0.03919858,-0.8807473,0.4304314,-0.1198569,0.6981618,1.496141,0.2226086,0.2066112,1.456942,0.2604895,299.6165,91.9313,148.373,True
2,3.077773,-0.02817233,0.07748945,0.02508041,-1.37119,-4.556224,-2.197224,0.4291404,1.313204,0.4241323,-1.573872,0.02798297,57.7,77.7,-0.005096707,0.005820613,-0.02167059,-0.5131347,-4.428901,0.2386525,0.5726633,1.45575,0.3779566,0.007123508,0.0162409,0.03176193,-0.8805907,0.4300987,-0.1198473,0.6980094,1.496048,0.2226782,0.2063566,1.45706,0.2605347,299.6059,91.84863,148.4573,True
2,3.088884,-0.02708272,0.06895474,0.02299517,-1.371608,-4.556412,-2.196928,0.4289609,1.313201,0.4239705,-1.574027,-0.01450836,57.7,77.7,0.002382454,-0.004922234,-0.01435651,-0.5130473,-4.429789,0.2391471,0.572476,1.455839,0.3779104,0.01236859,0.01299758,0.02532606,-0.8804656,0.430153,-0.1202295,0.6977495,1.495992,0.2226591,0.2060724,1.457252,0.2606616,299.6043,91.76281,148.5735,True
2,3.099995,-0.03022289,0.04759992,0.01673936,-1.371441,-4.556339,-2.196463,0.4287634,1.313242,0.4238837,-1.574098,-0.006303282,57.7,77.7,0.003418708,-0.01024396,-0.01547301,-0.5133328,-4.430331,0.2395404,0.5722682,1.455826,0.3778269,0.006906378,0.008694276,0.01475979,-0.880652,0.4300624,-0.1200393,0.6975564,1.496009,0.2225728,0.2057697,1.457522,0.2608702,299.6012,91.66588,148.7175,True
2,3.111106,-0.03339431,0.03798228,0.01361323,-1.371634,-4.556315,-2.195994,0.4284821,1.313281,0.4237478,-1.574104,-0.0005120385,57.7,77.7,-0.0102743,-0.001789447,-0.0003732776,-0.5127704,-4.429901,0.2397876,0.5720384,1.455767,0.3776689,0.009121012,0.00233814,0.02329409,-0.880007,0.4298791,-0.1200729,0.6973596,1.496051,0.2224536,0.2055016,1.457822,0.2611104,299.6025,91.53906,148.9547,True
2,3.122217,-0.0355076,0.02942038,0.008346656,-1.371684,-4.556355,-2.195513,0.4282233,1.313305,0.4236073,-1.573879,0.02060713,62.2,85.1,-0.02821543,0.02056717,0.009550832,-0.5120396,-4.428349,0.2392829,0.5718886,1.455723,0.3775976,0.008121636,-0.001886839,0.02972123,-0.8794035,0.4297784,-0.120062,0.6971191,1.49603,0.2223635,0.2053101,1.458081,0.2613193,299.6387,91.43179,149.1936,True
2,3.133328,-0.03972518,0.01451676,0.01164367,-1.371648,-4.556005,-2.194849,0.4280273,1.313371,0.4235229,-1.573866,0.0009523414,62.2,85.1,-0.03240449,0.03013628,0.01392381,-0.5116071,-4.427197,0.2387998,0.5717111,1.455714,0.377558,0.002780933,-0.0008169687,0.02871226,-0.8791617,0.4298292,-0.1198926,0.6969761,1.496015,0.2223129,0.205175,1.458297,0.261426,299.6906,91.36285,149.35,True
2,3.144439,-0.04184871,0.01237865,0.01166242,-1.371801,-4.555913,-2.194332,0.4277859,1.313423,0.4234231,-1.573883,-0.001543252,62.2,85.1,-0.0281012,0.02900906,0.01920385,-0.5112188,-4.426959,0.2387143,0.5715278,1.455751,0.3776248,0.003731573,0.004455077,0.01802107,-0.8793433,0.4301707,-0.1201794,0.6967649,1.496022,0.2223043,0.2050417,1.458507,0.2613963,299.7465,91.29486,149.4441,True
2,3.15555,-0.0471908,0.01446497,0.007405561,-1.37203,-4.556002,-2.193624,0.4275975,1.313455,0.4233327,-1.573649,0.02144093,62.2,85.1,-0.001678966,-0.005103086,0.009118058,-0.5117536,-4.429283,0.2398746,0.5714359,1.455722,0.3775921,0.01418105,0.005406251,0.0008447566,-0.8799105,0.4301904,-0.1207091,0.6966056,1.495978,0.2223012,0.2049187,1.458687,0.2612441,299.7867,91.25738,149.4651,True
2,3.166661,-0.04614581,0.01978347,0.00524198,-1.372393,-4.556239,-2.19309,0.4273887,1.313444,0.4231634,-1.573849,-0.01840382,63.6,100,0.008765126,-0.03167344,-0.003971189,-0.5125839,-4.431376,0.2412992,0.5712195,1.455715,0.3774776,0.01938323,0.006407619,-0.00987542,-0.8803889,0.430312,-0.1211946,0.6963992,1.495964,0.2222173,0.2048258,1.458844,0.2609904,299.7971,91.25469,149.4162,True
2,3.177772,-0.04832103,0.03254689,0.003037127,-1.373021,-4.556722,-2.192381,0.4272209,1.313483,0.423089,-1.573378,0.04273022,63.6,100,0.008688448,-0.03053179,-0.01354976,-0.5131448,-4.431801,0.2415697,0.5710052,1.455726,0.3773811,0.01729644,0.01175778,-0.006686656,-0.8804272,0.4307667,-0.121478,0.6961797,1.495963,0.2220881,0.2047419,1.458988,0.2606803,299.8284,91.26848,149.3214,True
2,3.188883,-0.04726825,0.03574085,0.003011875,-1.373333,-4.556988,-2.191813,0.4270565,1.313559,0.4229236,-1.572728,0.05811472,63.6,100,-0.00600044,-0.00182686,0.0006545015,-0.5123703,-4.430119,0.2406957,0.570756,1.455743,0.3772082,-0.001783002,0.00865441,0.002073491,-0.8801897,0.4308484,-0.1208737,0.6959651,1.495956,0.2219274,0.2046378,1.459098,0.2603754,299.8787,91.27549,149.2283,True
2,3.199994,-0.05048387,0.04320067,0.005102769,-1.374004,-4.557309,-2.191061,0.4268162,1.313653,0.4228563,-1.57134,0.1251869,63.6,100,-0.0175904,0.01306215,0.009393548,-0.5118292,-4.429035,0.2403335,0.57054,1.455769,0.3771234,-0.00806207,-0.01043637,0.01503222,-0.8795036,0.4300092,-0.1200492,0.6957225,1.495989,0.2218702,0.2044566,1.459154,0.2601242,299.9349,91.26617,149.1595,True
2,3.211105,-0.05365713,0.03682285,0.009410673,-1.374284,-4.557148,-2.190327,0.4265158,1.31376,0.4228454,-1.569751,0.1427671,63.6,100,-0.02500773,0.008765275,0.01687871,-0.511475,-4.429546,0.2413961,0.5703031,1.455827,0.3771873,-0.001765253,-0.009422528,0.007485935,-0.8797811,0.4298847,-0.1200841,0.6955445,1.495982,0.2217853,0.2041476,1.459152,0.2599777,299.9481,91.2578,149.1163,True
2,3.222216,-0.05789693,0.02718688,0.004154149,-1.374201,-4.557194,-2.189537,0.4262186,1.313884,0.4227769,-1.567591,0.1947217,62.4,100,-0.02079375,-0.0008263346,0.0146354,-0.5115293,-4.430413,0.2421221,0.570155,1.455873,0.3771749,0.009879863,-0.00309117,-0.0001428823,-0.8800735,0.4301803,-0.120753,0.695322,1.496046,0.221745,0.2036801,1.459087,0.2599322,299.918,91.25522,149.1199,True
2,3.233327,-0.05253215,0.01438948,-0.001100701,-1.373948,-4.557178,-2.189241,0.4258924,1.314021,0.4226985,-1.565222,0.2132616,62.4,100,-0.01022829,-0.01681909,0.01122286,-0.5116742,-4.431808,0.2431083,0.5699971,1.455949,0.377111,0.009909857,0.0001166947,0.001967437,-0.8800261,0.4303262,-0.1209067,0.6951296,1.496035,0.2216697,0.2030336,1.458968,0.2599896,299.8432,91.24612,149.1508,True
2,3.244438,-0.05144169,0.004781317,-0.004238594,-1.373621,-4.55709,-2.188715,0.4256399,1.314108,0.4225495,-1.562692,0.2276014,62.4,100,-0.00814314,-0.02106275,0.007973012,-0.5118009,-4.432481,0.2437639,0.5697999,1.455973,0.3769898,-0.007254198,-0.009472242,-0.006301842,-0.8803121,0.4297789,-0.1198952,0.6949233,1.496051,0.2215829,0.2022374,1.458775,0.2601192,299.7321,91.23607,149.2266,True
2,3.255549,-0.05034379,-0.005897535,-0.008433796,-1.373119,-4.556972,-2.188325,0.4253756,1.314389,0.4224741,-1.560448,0.2013204,62.4,100,-0.006820495,-0.00527459,0.03152579,-0.5105866,-4.432209,0.2435575,0.5695944,1.456043,0.3768928,-0.01374842,-0.01375317,-0.01366592,-0.8807675,0.4294022,-0.1192417,0.6947464,1.496102,0.2215238,0.2013259,1.458496,0.2602658,299.5952,91.27843,149.2935,True
2,3.26666,-0.05246212,-0.01125025,-0.01159588,-1.372849,-4.557153,-2.187694,0.4251363,1.31454,0.4224997,-1.557206,0.2924416,64.7,87,-0.01205207,0.0021447,0.03909279,-0.5097738,-4.432015,0.2436499,0.5694098,1.456033,0.3768077,-0.01370095,-0.009475444,-0.01049255,-0.8807793,0.4294542,-0.1191264,0.6945441,1.496104,0.2214239,0.2003454,1.45809,0.2603864,299.4464,91.33826,149.3536,True
2,3.277771,-0.0535372,-0.009134565,-0.01374334,-1.372566,-4.557279,-2.186999,0.4248686,1.314681,0.4224992,-1.553972,0.2907578,64.7,87,-0.02480489,0.01499203,0.03717184,-0.5092907,-4.431007,0.2434875,0.5691702,1.456027,0.376719,-0.0157168,-0.009418009,-0.0008889325,-0.88053,0.4294451,-0.1189011,0.6944037,1.496104,0.2215021,0.1993234,1.457556,0.2604288,299.2489,91.42828,149.3691,True
2,3.288882,-0.05673365,-0.008097392,-0.0148062,-1.372297,-4.557283,-2.186372,0.4245507,1.314826,0.4225013,-1.550235,0.336634,64.7,87,-0.03107769,0.02879855,0.04586383,-0.5083058,-4.429856,0.2430963,0.5689455,1.456074,0.3767498,-0.009263145,-0.005148088,0.003264419,-0.880514,0.4295567,-0.1191325,0.6942822,1.496051,0.2215154,0.1982623,1.456946,0.2603719,299.0195,91.60596,149.2371,True
2,3.299993,-0.05778819,-0.0102182,-0.0126606,-1.372102,-4.557216,-2.185701,0.4242374,1.314964,0.4224689,-1.546378,0.3470488,64.7,87,-0.02576252,0.02344408,0.04684174,-0.5077556,-4.429974,0.2433067,0.5687524,1.456092,0.3767238,-0.007038587,0.002336418,0.009589312,-0.8802781,0.4299582,-0.1193967,0.6940933,1.496017,0.2214534,0.1971992,1.456264,0.2602721,298.7939,91.82346,149.0069,True
2,3.311104,-0.05886254,-0.008084808,-0.01159933,-1.372082,-4.557181,-2.184953,0.4239241,1.315054,0.4223499,-1.542488,0.3500466,64.7,87,-0.01963668,-0.0009149276,0.0263604,-0.5082899,-4.431434,0.2445882,0.5685386,1.456203,0.3765752,-0.009227495,0.001255371,0.005352159,-0.8804485,0.4299144,-0.1191203,0.6938967,1.496108,0.2213354,0.1961198,1.455554,0.2601599,298.5781,92.02509,148.78,True
2,3.322215,-0.05672113,-0.008051354,-0.006278762,-1.371978,-4.556984,-2.18447,0.4236555,1.31516,0.4222264,-1.538362,0.3714431,63.4,100,-0.01557338,-0.0221218,0.01230884,-0.5088336,-4.433096,0.2460875,0.5683732,1.456235,0.376533,-0.008265784,0.005461583,-0.004272285,-0.8808682,0.4300497,-0.1191538,0.6937439,1.496083,0.2212212,0.1950114,1.454846,0.2600513,298.3694,92.19135,148.6005,True
2,3.333326,-0.04926999,-0.005877655,-0.004171155,-1.372075,-4.556964,-2.184148,0.4235924,1.315184,0.4221861,-1.534084,0.3851138,63.4,100,-0.01245187,-0.03168013,0.006883142,-0.5089977,-4.434381,0.2471358,0.568244,1.456326,0.3764572,-0.007256613,0.007559437,-0.00962217,-0.8811495,0.4301459,-0.119214,0.6936799,1.496129,0.2211583,0.1938786,1.454146,0.2599496,298.1601,92.32258,148.4843,True
2,3.344437,-0.04398151,0.006924352,-0.00319706,-1.372408,-4.557265,-2.183789,0.4233902,1.315275,0.4221315,-1.529995,0.367611,63.4,100,-0.01772173,-0.02530206,0.0112402,-0.5087021,-4.434518,0.2476782,0.5680526,1.4564,0.3764162,-0.006282937,-0.006320042,-0.01489083,-0.8814648,0.4293647,-0.1187384,0.6935251,1.496149,0.2211242,0.1927382,1.453446,0.2598484,297.9454,92.42826,148.4211,True
2,3.355548,-0.03869206,0.02080596,-9.712856E-05,-1.373008,-4.557598,-2.18346,0.4232386,1.315378,0.4220195,-1.525788,0.3784875,63.4,100,-0.02800169,0.01393957,0.03827367,-0.5070733,-4.432319,0.246418,0.5678236,1.456449,0.3763301,-0.0254326,-0.00520559,-0.01254109,-0.8815415,0.429225,-0.1176497,0.6932582,1.496049,0.2211025,0.1916554,1.452691,0.2597556,297.7193,92.5426,148.35,True
2,3.366659,-0.04619272,0.03462883,-0.0001661424,-1.373697,-4.558071,-2.182572,0.4230512,1.315407,0.4219406,-1.521304,0.4037048,63.4,100,-0.02786074,0.0255707,0.04901986,-0.5061018,-4.431637,0.2460068,0.5676824,1.456553,0.3763039,-0.02540646,-0.005195031,-0.01041118,-0.8815947,0.4291583,-0.1173224,0.6930681,1.496087,0.2210953,0.1906673,1.451845,0.2597037,297.4925,92.68671,148.2224,True
2,3.37777,-0.05048817,0.04956767,0.006144997,-1.37475,-4.558428,-2.181816,0.4228461,1.315419,0.4218609,-1.516728,0.4118289,58.6,94.1,-0.02251442,0.03087727,0.04901714,-0.5054371,-4.430865,0.2454034,0.5675116,1.45656,0.3762779,-0.01565278,0.0033693,0.00221084,-0.8811963,0.4296331,-0.1177943,0.6928691,1.496053,0.2210109,0.1896476,1.451011,0.2596921,297.2728,92.82702,148.0823,True
2,3.388881,-0.0515497,0.04959509,0.01147189,-1.375301,-4.558488,-2.181096,0.4226543,1.315506,0.421695,-1.511541,0.4675704,58.6,94.1,-0.0194662,0.02459386,0.03403345,-0.5054904,-4.430806,0.2454313,0.5674227,1.456579,0.3761227,0.001500898,0.007632595,0.01050352,-0.8808714,0.429921,-0.1185634,0.692782,1.496026,0.2209826,0.1885622,1.450209,0.2597401,297.0517,92.9323,147.9967,True
2,3.399992,-0.04941173,0.0485496,0.01360492,-1.375844,-4.558603,-2.180582,0.4224434,1.315588,0.4216254,-1.506912,0.416072,58.6,94.1,-0.0122771,0.001300347,0.01248,-0.5062957,-4.432076,0.2464407,0.5673001,1.456568,0.3760831,-0.003933399,0.004404954,0.002061666,-0.8811505,0.4298089,-0.1182702,0.6926368,1.496062,0.2209713,0.1874038,1.449444,0.2598611,296.8207,93.01424,147.9589,True
2,3.411103,-0.04938662,0.04001947,0.01152666,-1.376037,-4.558702,-2.180069,0.4222188,1.315644,0.4216549,-1.502197,0.4244247,58.6,94.1,-0.009213991,-0.01889431,0.004833037,-0.5067388,-4.433792,0.2478588,0.5672029,1.456388,0.3760748,-0.007162388,0.0001405999,-1.381384E-06,-0.8810951,0.4296628,-0.1179858,0.6925552,1.495968,0.2209156,0.1861974,1.448715,0.2600506,296.5724,93.04131,148.0198,True
2,3.422215,-0.04935254,0.02613821,0.006285318,-1.37583,-4.558695,-2.179534,0.4219725,1.315754,0.4216063,-1.49766,0.4080981,58.9,100,-0.01029791,-0.02527969,0.004786191,-0.5068411,-4.434609,0.2486519,0.5670019,1.456329,0.3760188,-0.00410115,-0.01056735,-0.009572627,-0.8814669,0.4290363,-0.1176854,0.692392,1.495985,0.2209022,0.1849836,1.448001,0.2602532,296.317,93.07935,148.1127,True
2,3.433326,-0.0514522,0.01223408,-0.001086598,-1.375343,-4.558753,-2.178883,0.4217386,1.315948,0.4215055,-1.492883,0.4300625,58.9,100,-0.01122223,-0.009373285,0.01450901,-0.5062765,-4.434049,0.2483225,0.5668188,1.45631,0.375958,-0.0030041,-0.007361482,-0.00747306,-0.8815047,0.4291034,-0.1177445,0.6921375,1.495933,0.2208612,0.183806,1.447253,0.2604511,296.0865,93.1571,148.139,True
2,3.444437,-0.05780302,-0.00488047,-0.008426242,-1.374554,-4.558591,-2.178062,0.4214817,1.316041,0.4213974,-1.488001,0.4394091,58.9,100,-0.01326608,-0.0008964855,0.02098511,-0.505787,-4.433789,0.2482961,0.5666085,1.456352,0.3759379,-0.01351717,-0.00195441,0.003277836,-0.8811223,0.4294022,-0.1174393,0.6919458,1.495944,0.2208505,0.1826656,1.446444,0.2606326,295.8768,93.26545,148.1059,True
2,3.455548,-0.05883754,-0.01663721,-0.0136799,-1.373898,-4.558532,-2.177461,0.4211581,1.316182,0.4213369,-1.483037,0.4468381,58.9,100,-0.02908901,0.00971545,0.0339885,-0.5048986,-4.433284,0.2485989,0.5663253,1.456361,0.3758357,-0.01448878,0.007672811,0.009628231,-0.8808964,0.43006,-0.1176111,0.6917228,1.495939,0.220763,0.1815174,1.4456,0.2607474,295.6592,93.4103,148.0415,True
2,3.466659,-0.05881576,-0.02195535,-0.01151758,-1.373477,-4.558299,-2.176874,0.4208787,1.316315,0.4212587,-1.477826,0.4692172,58.9,100,-0.03337906,0.01082527,0.0308383,-0.5046365,-4.433077,0.2489842,0.5660791,1.456367,0.3758523,-0.007006764,0.01192661,0.01057762,-0.8808869,0.430485,-0.1181346,0.6915691,1.495929,0.2208161,0.1803494,1.444731,0.2607571,295.4352,93.60867,147.9258,True
2,3.47777,-0.05560326,-0.03264807,-0.01890554,-1.372682,-4.558127,-2.176354,0.4205388,1.316453,0.4212813,-1.472927,0.4404306,61.7,100,-0.03033011,-0.001876241,0.01899235,-0.5049039,-4.433844,0.2498769,0.5658866,1.456414,0.3758175,0.001504663,0.01296712,0.009405626,-0.8808315,0.4307381,-0.1186209,0.6914178,1.495929,0.2207766,0.1791788,1.443812,0.2606457,295.217,93.84017,147.7435,True
