loc,t,aDotUA,bDotUA,gDotUA,aUA,bUA,gUA,xUA,yUA,zUA,qE,qDotE,emgA,emgB,aDotSH,bDotSH,gDotSH,aSH,bSH,gSH,xSH,ySH,zSH,aDotUB,bDotUB,gDotUB,aUB,bUB,gUB,xUB,yUB,zUB,xHand,yHand,zHand,aHand,bHand,gHand,enable
3,0,0.01034151,0.2563043,0.01475165,-1.436606,-4.462066,-3.115651,0.7234949,1.107101,0.421454,-1.615349,0.02757855,0.5,1.2,0.06807057,-0.1169591,-0.04949085,-0.739913,-4.385036,-0.04093172,0.7585037,1.292568,0.3479338,0.05002708,-0.0434039,-0.01632539,-0.8940823,0.1827721,-0.05885186,0.8581873,1.364423,0.1939971,0.4827495,1.016123,0.2745948,290.5516,249.6839,352.7889,True
3,0.01111111,0.01347129,0.2925296,0.01454677,-1.436864,-4.466583,-3.115285,0.7239161,1.107028,0.4214711,-1.615615,-0.02458815,0.5,1.2,0.06477314,-0.1126715,-0.05795885,-0.7408237,-4.386636,-0.0403389,0.7585456,1.292506,0.347894,0.04577391,-0.04553533,-0.01523444,-0.8942607,0.1820907,-0.05871152,0.858344,1.364395,0.1939476,0.4832163,1.015648,0.2746844,290.9203,249.4449,352.7381,True
3,0.02222222,0.009149466,0.3340561,0.01433121,-1.437235,-4.471457,-3.114738,0.7242277,1.106945,0.4215493,-1.615934,-0.02880364,0.5,1.2,0.07236858,-0.08180904,-0.05267075,-0.7412003,-4.386418,-0.04149524,0.7586249,1.292476,0.3480136,0.04158586,-0.04131057,-0.008775862,-0.89415,0.1816293,-0.0587749,0.8582349,1.364402,0.1939542,0.4836803,1.01522,0.2745859,291.1506,249.296,352.6551,True
3,0.03333334,0.01014952,0.3692063,0.01306979,-1.437466,-4.476773,-3.114174,0.7246536,1.106839,0.4216187,-1.616011,-0.006852061,0.5,1.2,0.0714815,-0.0551926,-0.04407831,-0.7414246,-4.385998,-0.042593,0.7586635,1.292469,0.3480446,0.035188,-0.03171429,-0.009720434,-0.8942964,0.1815743,-0.05890965,0.8582152,1.36438,0.1939807,0.4839861,1.014922,0.2745332,291.2784,249.211,352.5214,True
3,0.04444445,0.0111989,0.3905423,0.02040484,-1.437972,-4.481535,-3.113832,0.7249925,1.106763,0.4216666,-1.615887,0.01139571,0.5,1.2,0.06951543,-0.05201375,-0.03233336,-0.7414784,-4.386775,-0.0427171,0.7585679,1.29247,0.3481214,0.03088603,-0.02742933,-0.01391255,-0.8946101,0.1813239,-0.05899248,0.8581564,1.364458,0.1940377,0.4840213,1.014783,0.2747206,291.3217,249.2414,352.3557,True
3,0.05555556,0.01116782,0.4108061,0.02455382,-1.438544,-4.486887,-3.113236,0.7253646,1.106694,0.4217627,-1.615923,-0.003345818,0.5,1.3,0.06231727,-0.03285494,-0.01621592,-0.7411172,-4.386299,-0.04351738,0.7585645,1.292478,0.3481824,0.02877084,-0.01997717,-0.01278398,-0.8947119,0.1814152,-0.05929874,0.8581103,1.364451,0.1940775,0.4837615,1.014807,0.2752912,291.2982,249.3853,352.2188,True
3,0.06666667,0.01117192,0.410825,0.02882516,-1.439291,-4.491315,-3.112775,0.7256795,1.106635,0.4219542,-1.616079,-0.01432178,0.5,1.3,0.06028956,-0.03286988,-0.008729046,-0.7409489,-4.386989,-0.04368596,0.7586559,1.292439,0.3481486,0.02455037,-0.01679558,-0.009528724,-0.8947262,0.1813025,-0.05943643,0.8581228,1.364508,0.1940804,0.4833208,1.01498,0.2763228,291.2219,249.6563,352.1486,True
3,0.07777778,0.01652995,0.3948672,0.03103763,-1.439841,-4.495179,-3.11265,0.7259125,1.106585,0.4220963,-1.615919,0.01479847,0.5,1.3,0.0518112,-0.03818486,-0.004366898,-0.7408147,-4.387834,-0.04334641,0.7586687,1.292427,0.3481793,0.02673905,-0.01469499,-0.004213891,-0.8945926,0.1811953,-0.05974775,0.8580811,1.364499,0.1941302,0.4827752,1.015262,0.2777582,291.1167,250.076,352.1037,True
3,0.08888889,0.01764507,0.3628699,0.02375652,-1.439939,-4.498188,-3.112532,0.7261102,1.10657,0.4222074,-1.615912,0.000435815,0.5,1.3,0.04309619,-0.04879319,-0.01706109,-0.7414405,-4.389292,-0.04250006,0.7586517,1.292325,0.3482599,0.02455656,-0.008274656,-0.009484834,-0.8949319,0.1813128,-0.0600636,0.8580123,1.364435,0.1941857,0.4821872,1.015609,0.2795036,291.0019,250.595,352.0648,True
3,0.1,0.01872533,0.3457597,0.0121306,-1.439785,-4.501564,-3.112318,0.7263466,1.106486,0.4222877,-1.616177,-0.02417422,1.2,0.8,0.03437425,-0.06152841,-0.02975799,-0.7421697,-4.391025,-0.04130536,0.7586097,1.292264,0.3483305,0.0234604,-0.001865083,-0.01263432,-0.8951982,0.1815541,-0.06043378,0.8579595,1.364437,0.1942668,0.4816137,1.015977,0.2813969,290.8838,251.1632,352.042,True
3,0.1111111,0.02300736,0.322237,-0.004789872,-1.439206,-4.504398,-3.112353,0.7264265,1.106436,0.4223568,-1.61609,0.008187351,1.2,0.8,0.02246515,-0.05827191,-0.04557909,-0.7432632,-4.391973,-0.04062812,0.7584893,1.292158,0.3484507,0.02351837,0.01515871,-0.008284239,-0.8952504,0.1825706,-0.06137415,0.8579055,1.36442,0.1944323,0.481082,1.016302,0.2832371,290.7667,251.6803,352.088,True
3,0.1222222,0.0283562,0.297637,-0.02490092,-1.438336,-4.50708,-3.112513,0.7264192,1.106304,0.4225018,-1.616017,0.006541587,1.2,0.8,0.01819395,-0.050793,-0.04763794,-0.7438155,-4.392286,-0.0404923,0.7583381,1.292068,0.348573,0.01825152,0.01939331,-0.002877843,-0.8951002,0.1830606,-0.06169026,0.8578188,1.364414,0.1945441,0.480636,1.016531,0.2848468,290.6675,252.0509,352.214,True
3,0.1333333,0.03370811,0.2730627,-0.03968634,-1.437462,-4.509377,-3.112741,0.7263751,1.106271,0.4226115,-1.61618,-0.01494541,1.2,0.8,0.009798261,-0.01668995,-0.04425693,-0.7442284,-4.390842,-0.04137594,0.7581556,1.292007,0.3486285,0.01512909,0.03107236,0.003613316,-0.8948194,0.1839681,-0.06229054,0.8576415,1.36435,0.1947455,0.4802629,1.016627,0.2861369,290.5973,252.278,352.3506,True
3,0.1444445,0.03906254,0.2528174,-0.04277928,-1.436971,-4.51166,-3.112975,0.7263659,1.106298,0.4227641,-1.616286,-0.009566519,1.2,0.8,-0.0005292362,0.01312146,-0.02487874,-0.7438864,-4.389201,-0.04221643,0.7579997,1.291913,0.3486915,0.01301495,0.04278681,0.004762809,-0.894828,0.1851185,-0.06308389,0.8575046,1.364354,0.1949198,0.479912,1.016569,0.2870784,290.5631,252.3263,352.5108,True
3,0.1555556,0.05083253,0.2197796,-0.04900363,-1.436221,-4.513,-3.113777,0.7262117,1.106292,0.4228854,-1.616283,0.0003560054,0.8,0.7,-0.007839954,0.03229867,-0.01728278,-0.7438661,-4.387664,-0.04301485,0.7578365,1.291894,0.3487303,0.006601805,0.04493191,0.002712467,-0.8949105,0.1858681,-0.06339256,0.857409,1.364349,0.1950467,0.4795746,1.016352,0.2877271,290.5713,252.2567,352.6517,True
3,0.1666667,0.06048781,0.1792973,-0.05199143,-1.435555,-4.513671,-3.114661,0.7261486,1.106327,0.4229243,-1.616253,0.00267647,0.8,0.7,-0.02660244,0.03973274,0.01281617,-0.7427285,-4.386722,-0.04277809,0.757704,1.29177,0.3487012,0.004405383,0.04496947,-0.003658884,-0.8952605,0.1864727,-0.06377978,0.8573889,1.364353,0.1951265,0.4792834,1.016018,0.2881678,290.6555,252.178,352.7263,True
3,0.1777778,0.06268647,0.1366463,-0.06028058,-1.434637,-4.513922,-3.115388,0.725908,1.106379,0.4230831,-1.616649,-0.03628011,0.8,0.7,-0.03391996,0.03759612,0.02355961,-0.7422193,-4.386287,-0.04255492,0.7574668,1.291794,0.3487678,0.003295574,0.0471237,-0.00789676,-0.8955193,0.1872068,-0.06424902,0.8572968,1.364344,0.1952558,0.479055,1.015636,0.2884903,290.7846,252.1311,352.7457,True
3,0.1888889,0.06063655,0.08760146,-0.06639909,-1.433672,-4.513313,-3.116067,0.7256899,1.106436,0.4233043,-1.616618,0.003084315,0.8,0.7,-0.0370399,0.03972292,0.02893244,-0.7416999,-4.385482,-0.04263641,0.7572569,1.291742,0.3487988,-0.002017224,0.05670328,-0.006723697,-0.8956339,0.1883297,-0.06471801,0.8571718,1.364324,0.1954329,0.4788846,1.015235,0.2887287,290.8994,252.0582,352.8138,True
3,0.2,0.05433124,0.03320521,-0.07674129,-1.432508,-4.512136,-3.116638,0.7254601,1.106425,0.4235363,-1.616329,0.02626675,0.5,0.6,-0.03408804,0.05148517,0.00867414,-0.7424232,-4.383947,-0.04344947,0.7569202,1.291735,0.3488843,-0.006235423,0.05774557,-0.002408663,-0.8954847,0.1891802,-0.0649798,0.8569888,1.364331,0.1955669,0.4787999,1.014836,0.2888895,291.0042,251.9581,352.9116,True
3,0.2111111,0.05016351,-0.01900703,-0.07751291,-1.431558,-4.510256,-3.117313,0.7252324,1.106495,0.4237554,-1.61609,0.02168073,0.5,0.6,-0.0384292,0.05896866,0.001289997,-0.7427114,-4.382652,-0.0438335,0.7567003,1.291701,0.3489676,-0.008308258,0.05878288,0.002946056,-0.8953159,0.1900793,-0.06538167,0.8568851,1.364341,0.195703,0.4787201,1.01445,0.2889831,291.1048,251.78,353.0371,True
3,0.2222222,0.04276891,-0.04887712,-0.08266073,-1.430526,-4.508929,-3.117952,0.7249278,1.106529,0.4239879,-1.615867,0.02016143,0.5,0.6,-0.02875092,0.06639214,0.006504212,-0.7424696,-4.381189,-0.0449744,0.7564754,1.291686,0.3490465,-0.00619789,0.05666244,0.001849669,-0.895368,0.1908329,-0.06578115,0.8567547,1.364331,0.1958499,0.4786749,1.014099,0.289031,291.1859,251.5561,353.1853,True
3,0.2333333,0.03749247,-0.076584,-0.08250097,-1.429558,-4.507108,-3.11845,0.7247617,1.10662,0.4241729,-1.615859,0.0005758515,0.5,0.6,-0.0264363,0.06102824,0.02137748,-0.7417585,-4.380368,-0.04539012,0.7563455,1.291729,0.3491178,-0.002045216,0.04605979,-0.007840844,-0.8958277,0.1909471,-0.06596703,0.8566344,1.364352,0.1959667,0.4786715,1.013789,0.2890299,291.2502,251.3221,353.3456,True
3,0.2444444,0.03217346,-0.08405165,-0.08351911,-1.428579,-4.506149,-3.118697,0.7246891,1.106724,0.424309,-1.615916,-0.005135934,0.5,0.6,-0.02195604,0.05245812,0.0394111,-0.740696,-4.379899,-0.04564738,0.7561774,1.291774,0.3491707,-0.001002196,0.04180852,-0.008934159,-0.8959044,0.1914477,-0.06616331,0.8564874,1.364362,0.1960557,0.4787031,1.013531,0.2889561,291.3146,251.0985,353.4867,True
3,0.2555556,0.02470845,-0.07443637,-0.07610561,-1.427975,-4.505692,-3.118772,0.7246115,1.106782,0.4244771,-1.615729,0.01711169,0.3,0.6,-0.01002687,0.02468298,0.06050157,-0.7392552,-4.380883,-0.04517201,0.7561436,1.291799,0.3492594,2.492126E-05,0.03436843,-0.01218174,-0.8961617,0.1915617,-0.06627277,0.8563536,1.364375,0.1961551,0.4787229,1.013323,0.2888259,291.3658,250.865,353.6172,True
3,0.2666667,0.0161449,-0.05099373,-0.07196835,-1.427262,-4.506031,-3.118573,0.724582,1.106839,0.4246621,-1.615608,0.01094073,0.3,0.6,0.005691026,0.003371081,0.04426463,-0.7393106,-4.381871,-0.04503938,0.7559582,1.291777,0.3493624,0.004320147,0.02049737,-0.008038923,-0.8960259,0.1912899,-0.06623735,0.8561509,1.3644,0.1961913,0.4788059,1.01318,0.2886621,291.4136,250.6379,353.7462,True
3,0.2777778,0.007583476,-0.009327725,-0.04661992,-1.427652,-4.507315,-3.118292,0.724474,1.106893,0.4248176,-1.615541,0.006100109,0.3,0.6,0.02026313,-0.004067976,0.01954679,-0.73997,-4.382238,-0.04544152,0.7557662,1.291775,0.3495131,0.00319847,0.006674269,-0.01236084,-0.8962288,0.1908185,-0.06588314,0.855961,1.364394,0.1962698,0.4789163,1.01311,0.2885026,291.4496,250.416,353.8546,True
3,0.2888889,-0.006299715,0.02377218,-0.02867122,-1.427979,-4.50859,-3.117587,0.7244339,1.106758,0.4249558,-1.615434,0.009793025,0.3,0.6,0.03065407,-0.005115807,0.0002289517,-0.7405969,-4.382365,-0.04593713,0.7556072,1.291678,0.3497145,0.009529941,0.0003164131,-0.01779303,-0.896681,0.1906638,-0.06609274,0.8557667,1.364355,0.1963773,0.4789844,1.013115,0.2884056,291.4598,250.2372,353.909,True
3,0.3,-0.01483243,0.0441043,-0.009600024,-1.428406,-4.509635,-3.117074,0.7243211,1.106726,0.4250374,-1.615537,-0.009531348,0.6,0.4,0.04437565,-0.002993532,-0.009538458,-0.7409745,-4.382213,-0.04687643,0.7554498,1.291664,0.3498597,0.01605855,0.002381597,-0.005062537,-0.8962458,0.1910046,-0.06670792,0.8554715,1.36439,0.1964922,0.4789365,1.013196,0.2884444,291.4586,250.1288,353.9078,True
3,0.3111111,-0.0201657,0.05694878,0.003119523,-1.428884,-4.510696,-3.116539,0.7242863,1.106688,0.4251425,-1.615198,0.03124544,0.6,0.4,0.04864769,-0.01579415,-0.006426441,-0.7409308,-4.383072,-0.04691291,0.7553611,1.291691,0.3500032,0.01922755,-0.005065287,-0.007267658,-0.8963923,0.1906367,-0.06679874,0.8552548,1.364422,0.1965647,0.4787065,1.013355,0.2886729,291.4206,250.216,353.7943,True
3,0.3222222,-0.02229413,0.06662289,0.0201088,-1.429566,-4.511618,-3.116074,0.7242503,1.106687,0.4251828,-1.615398,-0.01855231,0.6,0.4,0.05304971,-0.02754571,0.006270425,-0.7404323,-4.383983,-0.0469534,0.7552546,1.291738,0.3501487,0.02244303,-0.0135988,-0.005210982,-0.8962778,0.1901092,-0.06681818,0.8550628,1.364488,0.1966934,0.4783511,1.013567,0.2890875,291.3395,250.386,353.718,True
3,0.3333333,-0.02654406,0.07095879,0.03500466,-1.430472,-4.512543,-3.115497,0.724213,1.106634,0.425173,-1.615484,-0.007586442,0.6,0.4,0.05833026,-0.05206251,0.007213044,-0.7402368,-4.386075,-0.04623993,0.7551758,1.291736,0.3502407,0.02444301,-0.02312369,-0.01700325,-0.8968376,0.1893051,-0.06667171,0.8548226,1.364503,0.1967554,0.4779437,1.013818,0.2896251,291.2597,250.5857,353.6927,True
3,0.3444445,-0.02867692,0.08167232,0.04666685,-1.431329,-4.51375,-3.114978,0.7241126,1.10652,0.4251711,-1.615603,-0.01086526,0.6,0.4,0.06132856,-0.07121982,-0.004574589,-0.7404616,-4.388144,-0.04552621,0.7550834,1.291704,0.3503208,0.02333898,-0.02629599,-0.02020871,-0.8972062,0.1889195,-0.0666267,0.854588,1.36439,0.1967449,0.4775845,1.014094,0.2902218,291.1877,250.817,353.6666,True
3,0.3555556,-0.02866993,0.08384988,0.05517747,-1.432249,-4.514743,-3.11453,0.7240496,1.106445,0.4251642,-1.615559,0.004184742,0.5,0.6,0.06426957,-0.07758042,-0.02273926,-0.7412483,-4.389736,-0.04515469,0.7549139,1.291677,0.3504159,0.02220129,-0.03158658,-0.02661642,-0.8976429,0.1882318,-0.06638329,0.8543313,1.36441,0.1967874,0.4772877,1.014382,0.2907858,291.121,251.0934,353.6039,True
3,0.3666667,-0.03079327,0.09031549,0.06899182,-1.433425,-4.515953,-3.113991,0.7239681,1.106391,0.4252017,-1.615697,-0.01263876,0.5,0.6,0.07161858,-0.06799341,-0.03240779,-0.7419652,-4.390431,-0.04560716,0.7547264,1.291615,0.350451,0.02644641,-0.03370844,-0.02773459,-0.8978938,0.1877298,-0.06646664,0.8540379,1.364408,0.1967771,0.4770163,1.014655,0.2912324,291.0449,251.3688,353.5089,True
3,0.3777778,-0.03185367,0.09140826,0.0743137,-1.434462,-4.516978,-3.11347,0.7238663,1.106281,0.4251771,-1.615794,-0.008674606,0.5,0.6,0.08222194,-0.05202965,-0.03890552,-0.7425724,-4.390558,-0.04674194,0.7545437,1.291541,0.3505504,0.03079211,-0.02949159,-0.02029875,-0.8977979,0.1874792,-0.06685919,0.8537252,1.364411,0.1968303,0.4767364,1.014886,0.2915308,290.9646,251.5957,353.3959,True
3,0.3888889,-0.0254626,0.1032239,0.09021781,-1.43595,-4.518498,-3.113214,0.7237329,1.106109,0.4251924,-1.615769,0.002299738,0.5,0.6,0.08114761,-0.02751898,-0.0441662,-0.7432254,-4.389915,-0.04808417,0.7543163,1.291523,0.3506486,0.02776529,-0.03063626,-0.004292063,-0.8972866,0.1871355,-0.06683043,0.8533653,1.364461,0.1968663,0.4764872,1.015072,0.2916905,290.91,251.795,353.2445,True
3,0.4,-0.02546982,0.1064419,0.09339556,-1.437115,-4.519858,-3.112679,0.7236215,1.105985,0.4251623,-1.615785,-0.001450803,0.5,0.6,0.06947664,-0.01896978,-0.04186259,-0.7436185,-4.389857,-0.04847779,0.7540755,1.291579,0.3507423,0.02895525,-0.03389728,0.007401932,-0.8967433,0.1865283,-0.06682537,0.8530196,1.364474,0.1968908,0.4762529,1.015218,0.2917435,290.8778,251.9921,353.0492,True
3,0.4111111,-0.01801237,0.1075285,0.09551011,-1.438272,-4.521023,-3.112559,0.7234052,1.105965,0.4251046,-1.616135,-0.03191797,0.5,1.4,0.05363846,-0.01362555,-0.03205294,-0.7436733,-4.389827,-0.04861175,0.7538095,1.291619,0.3507707,0.02992694,-0.03811257,-0.001154386,-0.8969686,0.1857683,-0.06672364,0.8526887,1.364457,0.1969087,0.4760104,1.015327,0.2917194,290.8446,252.1687,352.8504,True
3,0.4222222,-0.01162011,0.1000621,0.09127747,-1.439091,-4.521897,-3.11241,0.7232406,1.105943,0.4249763,-1.615873,0.02417601,0.5,1.4,0.0429782,-0.01999594,-0.03085746,-0.7439221,-4.39058,-0.0481124,0.7535527,1.291704,0.3508511,0.02984413,-0.03913504,-0.008614144,-0.8972935,0.1852069,-0.06666558,0.8523873,1.364438,0.1969135,0.475746,1.015396,0.2916799,290.8055,252.3887,352.5964,True
3,0.4333333,-0.007347667,0.08616255,0.08069523,-1.439669,-4.522368,-3.112409,0.7229648,1.105964,0.4248817,-1.616223,-0.03229207,0.5,1.4,0.02600142,-0.02742577,-0.02425645,-0.7439396,-4.391418,-0.04719548,0.7532575,1.291747,0.3508677,0.02752074,-0.03690504,-0.02668848,-0.8981894,0.1847029,-0.06656225,0.8521264,1.364433,0.1969328,0.4754537,1.015435,0.29166,290.8008,252.5965,352.3793,True
3,0.4444444,-0.005199541,0.07121249,0.07331257,-1.44017,-4.522661,-3.112355,0.7226422,1.105963,0.4248488,-1.616183,0.004015982,0.5,1.4,0.02176262,-0.01889277,-0.024185,-0.7442784,-4.391284,-0.04744874,0.7528735,1.291734,0.3509202,0.02318277,-0.02940212,-0.03405345,-0.8987103,0.1846777,-0.06663842,0.851815,1.364419,0.1969707,0.4751295,1.01547,0.2916681,290.8186,252.7867,352.2162,True
3,0.4555556,-0.007279869,0.0370729,0.06498029,-1.440574,-4.521847,-3.112318,0.7222655,1.105999,0.4248195,-1.616244,-0.005625574,0.3,0.8,0.02392785,-0.01037786,-0.02312988,-0.7444904,-4.39104,-0.04798483,0.7525324,1.291761,0.3509028,0.01780568,-0.0176526,-0.03925883,-0.8993857,0.1849729,-0.06682137,0.85154,1.364433,0.1969657,0.4748091,1.015509,0.291691,290.8343,252.9337,352.1256,True
3,0.4666667,-0.008279895,-0.00667496,0.05243254,-1.440633,-4.520331,-3.112421,0.7218026,1.106059,0.4248209,-1.616148,0.008739816,0.3,0.8,0.02092531,0.007712363,-0.01239555,-0.7442843,-4.390105,-0.04894331,0.7521728,1.291776,0.3508155,0.01785756,-0.02620157,-0.03396903,-0.8993697,0.1842111,-0.06654014,0.8512073,1.364487,0.1968617,0.4744699,1.015555,0.2917033,290.8397,253.0234,352.0752,True
3,0.4777778,-0.0124721,-0.05469784,0.0377874,-1.44054,-4.518241,-3.112452,0.721349,1.106125,0.424855,-1.615993,0.01409679,0.3,0.8,0.001031127,0.03221919,0.009227743,-0.7435061,-4.388247,-0.04968686,0.7518948,1.291817,0.3507726,0.01902414,-0.03051619,-0.02441289,-0.899186,0.1835348,-0.0663705,0.8509026,1.364506,0.1968462,0.4741179,1.015602,0.2916937,290.8354,253.101,352.0209,True
3,0.4888889,-0.01562769,-0.08459078,0.02729253,-1.440306,-4.516306,-3.112426,0.7209528,1.106189,0.4248428,-1.616022,-0.002708526,0.3,0.8,-0.009229861,0.05669173,0.03498743,-0.7423034,-4.386046,-0.05075985,0.7516376,1.291949,0.3507905,0.02221831,-0.02518009,-0.024423,-0.8995429,0.1836009,-0.06670366,0.8506666,1.364523,0.1968043,0.4737861,1.015651,0.2916082,290.8347,253.1454,352.0005,True
3,0.5,-0.02836697,-0.1273618,0.001965271,-1.439301,-4.513618,-3.112047,0.7205034,1.106331,0.4248078,-1.615883,0.01270245,0.3,0.8,-0.01527081,0.05985209,0.06064255,-0.740918,-4.384769,-0.0514283,0.7515289,1.29207,0.3507617,0.02963409,-0.03155503,-0.02773179,-0.8999258,0.1829222,-0.06679368,0.8505578,1.364473,0.1966908,0.4734999,1.015697,0.2913903,290.8344,253.092,352.0432,True
3,0.5111111,-0.03580338,-0.1466086,-0.0085727,-1.438792,-4.511351,-3.111694,0.7200979,1.106462,0.424813,-1.61584,0.003795765,0.3,1,-0.01608772,0.04595974,0.08193114,-0.7392973,-4.384582,-0.05135586,0.7513766,1.29217,0.3507347,0.03274537,-0.04003821,-0.03526893,-0.900508,0.1819524,-0.06666425,0.8503445,1.364429,0.1966126,0.4733,1.015738,0.291014,290.8362,252.965,352.1026,True
3,0.5222223,-0.05176604,-0.164836,-0.02443873,-1.437852,-4.509016,-3.110996,0.7196656,1.106572,0.4247663,-1.615417,0.03876557,0.3,1,-0.01375811,0.02354036,0.1010301,-0.7375481,-4.385271,-0.05081258,0.7512521,1.292313,0.3507311,0.03371715,-0.04531612,-0.04383412,-0.9012702,0.1810803,-0.06651831,0.8501413,1.364407,0.1964893,0.4731829,1.015776,0.2904819,290.8405,252.7578,352.1942,True
3,0.5333334,-0.07414495,-0.1723922,-0.03608463,-1.437083,-4.506991,-3.109685,0.7193021,1.106688,0.4247649,-1.615504,-0.008335645,0.3,1,-0.003100067,0.008593746,0.1040529,-0.7362596,-4.385839,-0.05075213,0.7511685,1.292418,0.350744,0.03795696,-0.0421107,-0.04599285,-0.9018294,0.1805711,-0.06677317,0.8499881,1.364382,0.1963806,0.4731122,1.015825,0.2897965,290.867,252.4185,352.3569,True
3,0.5444446,-0.08799654,-0.1724285,-0.03819721,-1.436518,-4.505048,-3.108492,0.7189956,1.106843,0.4247582,-1.615236,0.02467619,0.3,1,0.02777094,0.007465003,0.1025794,-0.7351864,-4.385523,-0.05233085,0.7512544,1.292516,0.3507307,0.04759095,-0.04000431,-0.04182241,-0.9020861,0.1801726,-0.06736732,0.8497792,1.36439,0.1962745,0.4730594,1.015915,0.289013,290.8866,252.0925,352.4557,True
3,0.5555557,-0.1103896,-0.1596865,-0.03930236,-1.436012,-4.503768,-3.106718,0.7187226,1.107069,0.4247406,-1.614734,0.04577464,0.2,0.8,0.04705344,0.01060173,0.1097882,-0.7337664,-4.384949,-0.05392262,0.7513908,1.292662,0.3507183,0.04113647,-0.05488757,-0.04715862,-0.9026694,0.1786904,-0.06673349,0.849662,1.364343,0.1961272,0.4729809,1.016058,0.2881854,290.8869,251.7288,352.5758,True
3,0.5666668,-0.1317368,-0.1341295,-0.03409366,-1.43572,-4.503117,-3.104573,0.7185289,1.107256,0.4247255,-1.614941,-0.01925959,0.2,0.8,0.05568556,0.003105674,0.1192471,-0.7320838,-4.385108,-0.05471358,0.7514619,1.292663,0.3506896,0.03893809,-0.0708313,-0.0525527,-0.9034172,0.1770133,-0.06601363,0.8495384,1.36432,0.1960104,0.4728829,1.016294,0.2873883,290.8848,251.3955,352.6679,True
3,0.577778,-0.1584392,-0.08940944,-0.02898275,-1.435487,-4.503505,-3.101957,0.7183383,1.107348,0.4246783,-1.614627,0.02907315,0.2,0.8,0.06000857,-0.04912688,0.1329267,-0.7300183,-4.388307,-0.0531796,0.7516128,1.292814,0.3506958,0.04410592,-0.0920652,-0.06656917,-0.9044724,0.1746622,-0.06525783,0.8495253,1.364223,0.1958313,0.4727832,1.016662,0.2866796,290.8684,251.1216,352.7323,True
3,0.5888891,-0.1819428,-0.0446565,-0.01961066,-1.435611,-4.504471,-3.099026,0.718251,1.10748,0.4246871,-1.614467,0.01450303,0.2,0.8,0.07028943,-0.1364803,0.1208815,-0.7287879,-4.394759,-0.04939285,0.7519862,1.292935,0.3507431,0.05036396,-0.1047883,-0.07842635,-0.905674,0.1725526,-0.06474198,0.8494717,1.364135,0.1956596,0.4726381,1.017192,0.2861062,290.8308,250.8925,352.7917,True
3,0.6000003,-0.2043752,-0.003073968,-0.005961761,-1.436014,-4.50565,-3.095862,0.7180938,1.107584,0.4246745,-1.614311,0.01424615,0.2,0.8,0.07226974,-0.1513731,0.1123039,-0.7277013,-4.397573,-0.04812465,0.7520763,1.293084,0.3507519,0.05348796,-0.1132787,-0.08490041,-0.906752,0.1705271,-0.06421015,0.8495033,1.364153,0.1954,0.4724054,1.017902,0.2857113,290.7296,250.7133,352.852,True
3,0.6111114,-0.2182695,0.03427738,0.009830989,-1.436663,-4.507093,-3.092851,0.7179713,1.107777,0.4246511,-1.614265,0.004290478,0.2,1,0.08749211,-0.2013768,0.06405194,-0.7284331,-4.403704,-0.04507161,0.7523868,1.293151,0.3508158,0.05463082,-0.1175809,-0.07747846,-0.9072601,0.1686489,-0.06370281,0.8495381,1.364077,0.1952157,0.4720333,1.01878,0.2855359,290.5624,250.6072,352.8983,True
3,0.6222225,-0.2289515,0.05238063,0.01188032,-1.436956,-4.50824,-3.089869,0.7177841,1.107905,0.4247737,-1.614271,-0.000452008,0.2,1,0.08619071,-0.2119952,0.04806671,-0.7282462,-4.40749,-0.04313628,0.7526731,1.293264,0.3508921,0.05034663,-0.1164888,-0.07955877,-0.9081379,0.1672774,-0.06322823,0.8495408,1.364,0.1950448,0.4715518,1.019819,0.2856091,290.3571,250.6235,352.9016,True
3,0.6333337,-0.2396224,0.06409165,0.01396047,-1.437253,-4.50936,-3.086731,0.7176617,1.108076,0.4247711,-1.614663,-0.035693,0.2,1,0.06907445,-0.2076801,0.04190974,-0.7278792,-4.410568,-0.04101295,0.7529209,1.293381,0.3508751,0.04709215,-0.1196541,-0.08486799,-0.9091643,0.1653827,-0.06244314,0.8496293,1.363887,0.1948884,0.4709492,1.020998,0.2858918,290.1298,250.7625,352.8767,True
3,0.6444448,-0.2556179,0.08327797,0.02133686,-1.437832,-4.510814,-3.083269,0.7173947,1.108266,0.4248836,-1.614867,-0.01823535,0.2,1,0.05540953,-0.1980887,0.05489509,-0.7267426,-4.413332,-0.03895832,0.7531816,1.293517,0.3508749,0.04485853,-0.1174665,-0.094423,-0.9105209,0.163792,-0.06188281,0.8497295,1.363833,0.1947041,0.4702939,1.022291,0.2863311,289.8738,250.9291,352.8824,True
3,0.655556,-0.271596,0.07465751,0.008621637,-1.437551,-4.511325,-3.079749,0.7172056,1.108468,0.4248779,-1.614873,-0.0003043599,0.2,1.4,0.04318623,-0.1597813,0.09029752,-0.7244363,-4.413708,-0.03872476,0.7535084,1.293659,0.3508143,0.0415102,-0.1077975,-0.1092461,-0.91213,0.1625898,-0.06151343,0.8499447,1.363691,0.1945665,0.4696355,1.023628,0.286862,289.5807,251.0455,352.9571,True
3,0.6666671,-0.2865127,0.06711813,-0.0009134337,-1.437116,-4.511761,-3.075953,0.7170838,1.108747,0.4247046,-1.614736,0.01258014,0.2,1.4,0.03307778,-0.1129552,0.1235599,-0.7219329,-4.412931,-0.03923742,0.7538694,1.293911,0.3507736,0.04259628,-0.1099402,-0.1071384,-0.9131346,0.1608756,-0.06096349,0.8501348,1.363685,0.1943347,0.468985,1.024961,0.287398,289.2991,251.1736,353.0196,True
3,0.6777782,-0.3120449,0.03822985,-0.01563549,-1.436402,-4.511158,-3.071721,0.7167835,1.109056,0.4246216,-1.614692,0.004072897,0.2,1.4,0.01538431,-0.07675243,0.1483768,-0.7195531,-4.412573,-0.03916338,0.7543502,1.29416,0.3507462,0.04895209,-0.1173843,-0.1104392,-0.9142962,0.1587706,-0.06047826,0.8503957,1.363557,0.1941836,0.4682972,1.026263,0.2878765,289.0438,251.3018,353.0636,True
3,0.6888894,-0.3386325,-0.006679215,-0.03666824,-1.435084,-4.509533,-3.067215,0.7165037,1.109572,0.4243615,-1.614569,0.01137332,0.2,1.4,-0.0003316514,-0.05011399,0.163558,-0.7172319,-4.411835,-0.03916604,0.7547667,1.294368,0.3507025,0.04793677,-0.1216781,-0.1051258,-0.9152022,0.1567282,-0.05966147,0.8506363,1.363443,0.1939709,0.4676742,1.02752,0.2882157,288.8131,251.3035,353.2521,True
3,0.7000005,-0.3524763,-0.02062227,-0.05041691,-1.434148,-4.509089,-3.062948,0.716244,1.109827,0.4243383,-1.614167,0.03675325,0.2,1.4,-0.006468322,-0.0426807,0.1817652,-0.7146518,-4.412132,-0.03866883,0.7553029,1.294557,0.3507199,0.05009858,-0.1248925,-0.1019663,-0.9160816,0.1547925,-0.05908196,0.8507812,1.363419,0.1937668,0.4671376,1.028749,0.2883223,288.6213,251.2062,353.5038,True
3,0.7111117,-0.3801807,-0.03250605,-0.07162227,-1.432568,-4.508436,-3.05787,0.7158978,1.11018,0.4242513,-1.613932,0.02135248,0.2,0.9,-0.01604531,-0.06184215,0.186112,-0.7123876,-4.414089,-0.03665948,0.7558947,1.294704,0.3506536,0.05430852,-0.1397777,-0.1063627,-0.9173524,0.1522368,-0.05830299,0.8510634,1.363369,0.1935973,0.4666521,1.029989,0.2881091,288.4738,250.9944,353.7899,True
3,0.7222228,-0.4025495,-0.04005676,-0.08113565,-1.431391,-4.507862,-3.05278,0.7155831,1.110574,0.424299,-1.614539,-0.05543287,0.2,0.9,-0.01600593,-0.09275632,0.1945626,-0.7099689,-4.417212,-0.03414226,0.7565438,1.294787,0.3506312,0.05741678,-0.1418646,-0.1149321,-0.9188662,0.1500565,-0.05778154,0.8513398,1.363337,0.1934659,0.466251,1.03131,0.2875294,288.3354,250.5605,354.1658,True
3,0.7333339,-0.4366466,-0.04444212,-0.09278589,-1.429885,-4.507362,-3.046792,0.7152108,1.110892,0.4243255,-1.61399,0.05087544,0.2,0.9,0.001906961,-0.1513781,0.1899362,-0.707947,-4.422523,-0.03079919,0.7571688,1.294922,0.3505991,0.06272243,-0.1375944,-0.1170964,-0.9201562,0.148229,-0.05753253,0.8516376,1.363235,0.1932831,0.4659029,1.03272,0.2867079,288.1105,249.9963,354.49,True
3,0.7444451,-0.4643481,-0.04986736,-0.101252,-1.428341,-4.506745,-3.040827,0.7149659,1.111255,0.424319,-1.614143,-0.01440603,0.2,0.9,0.001575634,-0.1960914,0.1738641,-0.7064722,-4.428212,-0.02634319,0.7578299,1.294983,0.3505819,0.06592877,-0.1301408,-0.1160272,-0.9213094,0.1467815,-0.05743107,0.851988,1.36316,0.1930909,0.4655215,1.03423,0.2857765,287.8695,249.3175,354.8506,True
3,0.7555562,-0.4909926,-0.0445854,-0.1023115,-1.427198,-4.506704,-3.034581,0.7145962,1.111709,0.4243822,-1.613536,0.055948,0.2,0.9,-0.004069135,-0.2589044,0.1610226,-0.7049632,-4.435745,-0.02037851,0.758425,1.295281,0.3505945,0.0583773,-0.1194336,-0.1254716,-0.9228694,0.1454485,-0.0570252,0.8523511,1.363028,0.1929963,0.4651062,1.035864,0.2848869,287.6035,248.6265,355.2173,True
3,0.7666674,-0.5027461,-0.02758348,-0.1066453,-1.425957,-4.507128,-3.02855,0.7141826,1.11225,0.4243782,-1.61375,-0.01993482,0.3,1.4,-0.01709174,-0.2822801,0.1472942,-0.7037499,-4.441908,-0.01501863,0.7590201,1.295458,0.3506136,0.05840749,-0.10347,-0.1232628,-0.9242581,0.1444754,-0.05707101,0.8527027,1.36288,0.1928027,0.464615,1.037631,0.2841308,287.3095,247.9346,355.6624,True
3,0.7777785,-0.5155782,-0.002031341,-0.1057029,-1.424917,-4.508081,-3.022213,0.7136886,1.11288,0.4243884,-1.613865,-0.01009264,0.3,1.4,-0.04499343,-0.3013632,0.1359116,-0.702462,-4.448081,-0.008791627,0.7595546,1.295755,0.3504753,0.0573314,-0.08534971,-0.1252795,-0.9256477,0.1439008,-0.05739485,0.8530434,1.362842,0.1926618,0.4640988,1.039551,0.2835627,286.9996,247.2847,356.1486,True
3,0.7888896,-0.5401461,0.0276972,-0.1164878,-1.423388,-4.509552,-3.015164,0.7132806,1.113446,0.4243605,-1.614409,-0.0494379,0.3,1.4,-0.07004254,-0.2747431,0.1703932,-0.6994228,-4.451482,-0.004535364,0.7600727,1.296077,0.3503733,0.05300203,-0.08957203,-0.1316554,-0.9273601,0.1423516,-0.05694531,0.8534467,1.362701,0.1924469,0.4634576,1.041644,0.2832009,286.6851,246.7403,356.5897,True
3,0.8000008,-0.5604238,0.04147452,-0.1229324,-1.421882,-4.510636,-3.008043,0.7129195,1.113968,0.4243109,-1.614453,-0.003466672,0.3,1.4,-0.08018371,-0.2385672,0.2025679,-0.6960427,-4.453711,-0.001647698,0.7607621,1.296322,0.3501935,0.04973419,-0.09699339,-0.1380472,-0.9289745,0.140504,-0.05627659,0.8537974,1.362655,0.1922584,0.4626501,1.043909,0.2830529,286.345,246.231,357.0685,True
3,0.8111119,-0.5881655,0.06163088,-0.1293991,-1.420411,-4.512282,-3.000219,0.7124109,1.114652,0.4243405,-1.614026,0.03919877,0.8,1.5,-0.07497653,-0.1683947,0.2612472,-0.6910482,-4.45277,-0.001686846,0.761279,1.296771,0.3500123,0.04009634,-0.1065532,-0.1422559,-0.9306187,0.138432,-0.05515806,0.8542399,1.362617,0.1920853,0.4616713,1.046332,0.2831192,285.9627,245.7275,357.6143,True
3,0.8222231,-0.6158847,0.06469995,-0.1432253,-1.418551,-4.513309,-2.99232,0.7118622,1.11536,0.4243572,-1.614079,-0.005044477,0.8,1.5,-0.07512368,-0.1216536,0.3220711,-0.6855333,-4.452606,-0.001026116,0.761755,1.2971,0.3499238,0.03806929,-0.1002163,-0.1326196,-0.9318123,0.1371985,-0.05475992,0.8545977,1.362469,0.1918409,0.4606123,1.048875,0.2833853,285.5266,245.1589,358.3127,True
3,0.8333342,-0.6371993,0.06247912,-0.1527733,-1.416614,-4.514253,-2.984264,0.7113169,1.116162,0.4243939,-1.613725,0.03261229,0.8,1.5,-0.0884847,-0.08972836,0.3532135,-0.6804382,-4.452375,0.0002812298,0.7623235,1.297466,0.3497448,0.04123682,-0.09487652,-0.1358154,-0.933292,0.136001,-0.05467763,0.8549944,1.362354,0.1916521,0.4595473,1.051502,0.2837779,285.0727,244.5943,359.0545,True
3,0.8444453,-0.6808508,0.03244065,-0.1770489,-1.413851,-4.514056,-2.975317,0.7105956,1.117174,0.4244578,-1.613788,-0.005862313,0.8,1.5,-0.09949721,-0.04719342,0.3992594,-0.6745744,-4.451124,0.0008894958,0.7630963,1.297785,0.3495092,0.03886846,-0.09368873,-0.1581547,-0.9357607,0.1345595,-0.054194,0.8554732,1.362284,0.1914203,0.4584087,1.054219,0.2842149,284.6547,244.0094,359.8159,True
3,0.8555565,-0.7085418,0.01099536,-0.192872,-1.411175,-4.513937,-2.966462,0.7101219,1.118089,0.4245667,-1.613904,-0.01033659,0.8,1.5,-0.1036719,-0.06212104,0.4088702,-0.6698079,-4.453321,0.003912183,0.7638608,1.298116,0.3493688,0.05582646,-0.1107028,-0.1658857,-0.9377608,0.1321353,-0.05397535,0.8559347,1.362186,0.1911964,0.4572523,1.057034,0.2846167,284.2481,243.2997,0.701909,True
3,0.8666676,-0.7543328,-0.02443258,-0.2277734,-1.407245,-4.51308,-2.95663,0.7094022,1.119077,0.424675,-1.61314,0.07016284,0.6,1.9,-0.112015,-0.1623073,0.4407246,-0.6638477,-4.461725,0.01198875,0.7647821,1.298463,0.3491981,0.08037789,-0.1139419,-0.1608327,-0.9391568,0.1302833,-0.05452396,0.8563321,1.362,0.191011,0.4561197,1.059957,0.2849078,283.8535,242.4431,1.708518,True
3,0.8777788,-0.7852172,-0.04483767,-0.2489271,-1.403608,-4.512622,-2.946971,0.7087017,1.120063,0.4247932,-1.613475,-0.03105714,0.6,1.9,-0.1175864,-0.2048876,0.4311154,-0.6595052,-4.467672,0.01826689,0.7656219,1.298775,0.34904,0.08789317,-0.1129101,-0.1555794,-0.9406173,0.1286797,-0.05479906,0.8567165,1.361928,0.1907837,0.4550389,1.063024,0.2849978,283.4796,241.308,2.937312,True
3,0.8888899,-0.835307,-0.06004389,-0.2849944,-1.399063,-4.512265,-2.935963,0.7078359,1.121284,0.4250033,-1.612775,0.0645918,0.6,1.9,-0.125443,-0.28793,0.4161229,-0.6554902,-4.477666,0.02783296,0.7665561,1.299192,0.3489747,0.09439066,-0.115097,-0.1460742,-0.9418882,0.1269292,-0.05506325,0.8571426,1.361755,0.1904912,0.4541366,1.066238,0.2848753,283.0499,239.8472,4.41211,True
3,0.900001,-0.8545122,-0.05589444,-0.2988408,-1.395344,-4.512625,-2.925773,0.7071608,1.122387,0.4252152,-1.613287,-0.04710104,0.6,1.9,-0.1152458,-0.3464774,0.3924309,-0.6519812,-4.486838,0.03606879,0.7674637,1.299643,0.3489017,0.09017584,-0.1129822,-0.1417467,-0.9431404,0.1254489,-0.0550273,0.8575883,1.361711,0.1903937,0.4532737,1.0696,0.2844952,282.6064,237.9102,6.262515,True
3,0.9111122,-0.879054,-0.03893444,-0.3063588,-1.391757,-4.513605,-2.914903,0.7063932,1.123705,0.4253848,-1.612402,0.0816121,0.8,1.5,-0.1144863,-0.3677443,0.3731977,-0.6486565,-4.49506,0.04386439,0.7683769,1.300095,0.3488324,0.08696494,-0.1097761,-0.1427631,-0.9447495,0.1240141,-0.05497856,0.8580868,1.361613,0.1901958,0.45241,1.073113,0.2839161,282.1579,235.6479,8.330349,True
3,0.9222233,-0.9035983,-0.0112734,-0.3054091,-1.388745,-4.515228,-2.903837,0.7056527,1.125036,0.4255259,-1.613615,-0.111338,0.8,1.5,-0.1113045,-0.4061229,0.3805315,-0.6443145,-4.504956,0.0530736,0.7692789,1.300593,0.348686,0.08252992,-0.1160897,-0.1587299,-0.947019,0.1218208,-0.05447363,0.8585888,1.361485,0.1899168,0.4514681,1.076817,0.2832367,281.7586,233.0565,10.6538,True
3,0.9333345,-0.9228056,0.006805055,-0.3054841,-1.385606,-4.516716,-2.892792,0.7049079,1.126379,0.4256949,-1.613534,0.008680297,0.8,1.5,-0.1185736,-0.4263832,0.3997624,-0.639515,-4.514277,0.0622213,0.770185,1.301244,0.3485582,0.08664553,-0.1351992,-0.171658,-0.9491666,0.1189875,-0.05394579,0.8591124,1.361384,0.1896837,0.4505529,1.080714,0.2826248,281.3223,230.3867,13.06101,True
3,0.9444456,-0.9484003,0.02382853,-0.3001975,-1.382901,-4.518297,-2.881172,0.7041107,1.127714,0.4258707,-1.61373,-0.0178407,0.8,1.5,-0.1328911,-0.4072618,0.441543,-0.6335085,-4.52155,0.07004513,0.7710942,1.301817,0.3483815,0.08323662,-0.1478775,-0.1908699,-0.9518164,0.1162744,-0.05317747,0.8595876,1.3612,0.1894186,0.44957,1.084813,0.2821724,280.8871,227.7024,15.54947,True
3,0.9555568,-0.9697202,0.0322918,-0.3034191,-1.379665,-4.51978,-2.869538,0.7034,1.129009,0.4260688,-1.614033,-0.02737762,0.8,1.5,-0.1387902,-0.3785634,0.4747084,-0.6274072,-4.527886,0.07698586,0.7720805,1.302422,0.3481834,0.0767421,-0.1542163,-0.200419,-0.9541882,0.11378,-0.05237745,0.860082,1.361092,0.1891203,0.4485219,1.089108,0.2819502,280.4255,224.8919,18.26578,True
3,0.9666679,-1.010224,0.0439321,-0.3044952,-1.376657,-4.521615,-2.8566,0.7026252,1.130296,0.4262643,-1.613774,0.02403663,0.8,1.5,-0.1216766,-0.3510806,0.5555124,-0.6187221,-4.53414,0.08293696,0.7728875,1.302974,0.3479173,0.06825307,-0.1574325,-0.1971535,-0.9561893,0.1112862,-0.05143975,0.8606166,1.361084,0.188786,0.447443,1.093552,0.2819676,279.9345,221.7815,21.37849,True
3,0.977779,-1.045391,0.04701536,-0.3129905,-1.373239,-4.523232,-2.84367,0.7018889,1.131605,0.4264405,-1.613976,-0.01848802,0.8,1.5,-0.1053403,-0.3213236,0.5766804,-0.611923,-4.539633,0.08803292,0.7737045,1.303441,0.3476117,0.0619664,-0.1574822,-0.1874982,-0.9578224,0.1090389,-0.05065465,0.8611417,1.360947,0.1885288,0.446341,1.098095,0.2821808,279.4347,218.3965,24.84659,True
3,0.9888902,-1.07632,0.07149715,-0.3066927,-1.370668,-4.525788,-2.830162,0.7010558,1.1329,0.4265735,-1.613057,0.0843656,0.8,1.5,-0.09863567,-0.2723702,0.5916094,-0.6050585,-4.543184,0.09185456,0.7744578,1.303885,0.3474634,0.05464178,-0.158608,-0.1746441,-0.9592658,0.106849,-0.04969512,0.8616321,1.360882,0.1882291,0.4452808,1.102669,0.2825297,278.961,214.4858,28.88729,True
3,1.000001,-1.088059,0.0874402,-0.3078328,-1.367868,-4.528252,-2.817419,0.700262,1.134184,0.4266906,-1.613251,-0.01824184,0.8,1.5,-0.1018987,-0.217999,0.576849,-0.5994301,-4.545395,0.0950397,0.7752727,1.304301,0.3472803,0.05802421,-0.1597716,-0.1576385,-0.9603636,0.104507,-0.0491758,0.8621966,1.36074,0.1880021,0.4442001,1.107275,0.2829236,278.5554,210.3327,33.19076,True
3,1.011112,-1.100906,0.1225657,-0.309074,-1.365424,-4.531899,-2.804162,0.6993257,1.135522,0.4266436,-1.613245,0.001086745,0.6,1.6,-0.1030262,-0.1977375,0.5683845,-0.5936671,-4.549026,0.09921686,0.7760173,1.304781,0.3471417,0.06445839,-0.1651243,-0.1534751,-0.9618006,0.1019807,-0.04864663,0.8627106,1.360648,0.1877699,0.4431245,1.11193,0.2832846,278.2201,205.8432,37.82454,True
3,1.022224,-1.107353,0.1641587,-0.3007693,-1.363645,-4.536049,-2.790948,0.6984324,1.137032,0.4266312,-1.614304,-0.09664414,0.6,1.6,-0.09864812,-0.1775201,0.5737057,-0.5871434,-4.552917,0.1034337,0.7769833,1.305279,0.3469307,0.062231,-0.1629553,-0.1619539,-0.9637517,0.09965709,-0.04785541,0.8631722,1.360487,0.1875081,0.442006,1.116674,0.2835723,277.9236,201.1149,42.67086,True
3,1.033335,-1.122335,0.206777,-0.2935264,-1.362061,-4.540629,-2.77701,0.6974554,1.138409,0.426496,-1.614398,-0.007511216,0.6,1.6,-0.08827221,-0.1838865,0.5522463,-0.581996,-4.557888,0.1080756,0.7777344,1.305759,0.3467453,0.05674708,-0.1618089,-0.176795,-0.9660345,0.09732216,-0.04696804,0.8637198,1.360349,0.1873055,0.4408998,1.121484,0.2837815,277.6721,195.7496,48.1366,True
3,1.044446,-1.141582,0.253642,-0.2841675,-1.360896,-4.54568,-2.762674,0.6964798,1.13982,0.4262338,-1.614741,-0.03130216,0.6,1.6,-0.09927285,-0.2403027,0.5384161,-0.5770026,-4.56755,0.1177418,0.7786151,1.306214,0.346498,0.05239007,-0.1468463,-0.1862532,-0.9683285,0.0957441,-0.04646763,0.8641554,1.360132,0.1869562,0.4397005,1.126374,0.28392,277.4964,190.1792,53.77515,True
3,1.055557,-1.162925,0.2813249,-0.2810968,-1.359553,-4.550565,-2.748226,0.6954477,1.141274,0.4261897,-1.614333,0.03771658,0.6,1.6,-0.1475867,-0.3040906,0.5239841,-0.5723826,-4.578907,0.1305625,0.7793242,1.306579,0.3462265,0.05230035,-0.1414749,-0.1947549,-0.9707701,0.09384247,-0.04598773,0.864647,1.359904,0.1866696,0.4384405,1.131361,0.2840601,277.3805,184.5316,59.48263,True
3,1.066668,-1.176773,0.2845252,-0.2757697,-1.358168,-4.554808,-2.733775,0.6942987,1.142676,0.4261415,-1.614187,0.01317961,0.3,1.7,-0.1721446,-0.3274665,0.5242559,-0.5671968,-4.588534,0.1414005,0.7800537,1.306927,0.3460307,0.04907416,-0.1276098,-0.1978398,-0.9730259,0.09249012,-0.04564498,0.865087,1.359737,0.1864634,0.4371012,1.136452,0.2842319,277.3138,178.6255,65.49712,True
3,1.077779,-1.201259,0.2802449,-0.2725095,-1.356732,-4.558845,-2.718799,0.6931715,1.144062,0.4261875,-1.614253,-0.006012538,0.3,1.7,-0.1976402,-0.3263601,0.5299212,-0.5616111,-4.596795,0.1513791,0.7807707,1.307197,0.3459435,0.03950165,-0.1222798,-0.1966444,-0.9751111,0.0909841,-0.04493232,0.8655412,1.359722,0.1863191,0.4357314,1.14166,0.2844596,277.3196,172.6,71.66313,True
3,1.08889,-1.231049,0.2631759,-0.267051,-1.355218,-4.562232,-2.703463,0.6916984,1.145479,0.4261465,-1.614348,-0.008405754,0.3,1.7,-0.1955661,-0.3039755,0.5214199,-0.5565367,-4.603323,0.1590474,0.7812568,1.307468,0.3457811,0.0290006,-0.1170232,-0.1826536,-0.9766195,0.08958261,-0.04410141,0.8659314,1.359587,0.1861882,0.4344049,1.146969,0.2847753,277.421,166.4008,77.99681,True
3,1.100002,-1.254438,0.2311575,-0.2679177,-1.353138,-4.564971,-2.688268,0.6903734,1.146926,0.4259851,-1.614012,0.03083041,0.3,1.7,-0.2110732,-0.2654676,0.4673863,-0.5534129,-4.607491,0.1651863,0.7816315,1.307799,0.3455923,0.03790464,-0.09591898,-0.1474753,-0.9770643,0.08899352,-0.04443032,0.8663578,1.359511,0.1860418,0.4331537,1.152344,0.2851573,277.6045,160.0919,84.45343,True
3,1.111113,-1.265033,0.2002543,-0.2656044,-1.351155,-4.567427,-2.673422,0.6887851,1.148508,0.4258251,-1.613725,0.02613297,0.3,1.7,-0.2445346,-0.2226861,0.4263704,-0.5501883,-4.610862,0.1718413,0.7819541,1.308098,0.3454382,0.03703375,-0.08109866,-0.1303407,-0.9779756,0.08836582,-0.04453178,0.8666914,1.359431,0.1859796,0.4319498,1.157772,0.2855535,277.8744,153.9945,90.71089,True
3,1.122224,-1.271402,0.1809882,-0.2761491,-1.348749,-4.570231,-2.658614,0.6873032,1.150092,0.4255104,-1.613972,-0.0225332,0.2,2.1,-0.2607561,-0.2055627,0.4063805,-0.546608,-4.615686,0.1794837,0.7823722,1.308528,0.3452299,0.03069443,-0.06726854,-0.1259444,-0.9793578,0.08793119,-0.04438344,0.867084,1.359286,0.185796,0.4306924,1.163277,0.2858459,278.2199,148.3191,96.58438,True
3,1.133335,-1.282042,0.1734977,-0.2803602,-1.346672,-4.573361,-2.643394,0.6857247,1.151714,0.4252338,-1.614536,-0.05120619,0.2,2.1,-0.2948577,-0.1905577,0.4036648,-0.5424944,-4.620565,0.1880783,0.7825241,1.308826,0.3450048,0.008370146,-0.05342929,-0.1224287,-0.9805146,0.08764064,-0.04360793,0.867455,1.359183,0.1857522,0.4294998,1.168816,0.2859364,278.6545,143.2845,101.8186,True
3,1.144446,-1.293775,0.1744757,-0.2899531,-1.344546,-4.576802,-2.628063,0.6841741,1.153359,0.4249907,-1.614907,-0.03328994,0.2,2.1,-0.3343423,-0.1531532,0.3925434,-0.5387506,-4.623064,0.1952686,0.7826005,1.309258,0.3447628,-0.0183026,-0.03101519,-0.1273542,-0.982185,0.0880525,-0.04279353,0.8677422,1.359019,0.1856718,0.4283404,1.174388,0.2857487,279.1729,138.8161,106.4123,True
3,1.155557,-1.302361,0.2139114,-0.284806,-1.343877,-4.581462,-2.612556,0.6825479,1.154876,0.4247551,-1.61476,0.01374672,0.2,2.1,-0.3520817,-0.1201274,0.4141592,-0.5336309,-4.625437,0.201674,0.7825781,1.309651,0.3445234,-0.03762154,-0.005358554,-0.1419195,-0.9841834,0.08885424,-0.04225611,0.8679987,1.358952,0.185672,0.4272746,1.179941,0.2852965,279.7877,134.9287,110.3342,True
3,1.166668,-1.305612,0.2523198,-0.2732939,-1.343658,-4.586441,-2.596925,0.6808822,1.156366,0.4244778,-1.614852,-0.008462391,0.2,1.6,-0.3689197,-0.04870892,0.4177376,-0.5283882,-4.624009,0.2051779,0.7823528,1.310035,0.3442559,-0.06110579,0.01706373,-0.1468749,-0.9860343,0.08995026,-0.04144811,0.8682957,1.35889,0.1855955,0.4262626,1.185483,0.2846533,280.4601,131.6246,113.5622,True
3,1.17778,-1.312114,0.332332,-0.2481748,-1.345131,-4.592947,-2.580737,0.6792239,1.157924,0.424118,-1.615105,-0.02289193,0.2,1.6,-0.391683,-0.01874425,0.3829461,-0.5252654,-4.624253,0.2104861,0.7823123,1.310482,0.3440208,-0.07704194,0.03303274,-0.1434176,-0.9874511,0.0908327,-0.04060415,0.868639,1.358781,0.1855404,0.4252894,1.191026,0.2839499,281.1741,128.7658,116.2662,True
3,1.188891,-1.312174,0.3814634,-0.2250068,-1.346872,-4.599072,-2.564796,0.6774082,1.159434,0.4237874,-1.615198,-0.0082341,0.2,1.6,-0.4187269,0.03894144,0.3408117,-0.5225,-4.620717,0.2130124,0.7819116,1.310859,0.3438168,-0.1002581,0.05744186,-0.1238598,-0.9882208,0.09257255,-0.03964781,0.8688347,1.358742,0.1855931,0.4242636,1.196612,0.2833607,281.8888,126.0327,118.8332,True
3,1.200002,-1.303725,0.4434665,-0.1891275,-1.349901,-4.605554,-2.54923,0.6755929,1.160903,0.4234121,-1.615095,0.009525619,0.2,1.6,-0.4240526,0.07518706,0.3345624,-0.5186315,-4.618512,0.2159469,0.7815974,1.311207,0.3436255,-0.1096554,0.07332376,-0.1066242,-0.9888232,0.09393901,-0.03893968,0.8691483,1.358672,0.1856313,0.4231205,1.202273,0.2830211,282.578,123.5009,121.2752,True
3,1.211113,-1.300569,0.4840985,-0.1627214,-1.352982,-4.611814,-2.533739,0.6736441,1.162354,0.4230113,-1.615337,-0.02205649,0.2,1.6,-0.4155054,0.1018049,0.3313124,-0.5147241,-4.615981,0.2180034,0.7809975,1.311514,0.343406,-0.1189158,0.0859504,-0.07662612,-0.9886287,0.09561986,-0.03822542,0.8692387,1.358644,0.1857243,0.421792,1.208091,0.2830465,283.2207,121.1253,123.6824,True
3,1.222224,-1.302722,0.5118644,-0.1458521,-1.355743,-4.617783,-2.518104,0.6716819,1.163895,0.4226658,-1.615876,-0.04910221,0.2,2.6,-0.4329838,0.1477501,0.2911512,-0.5121323,-4.610888,0.2191174,0.780418,1.311759,0.3430715,-0.1326257,0.1061328,-0.06465013,-0.9890693,0.09776744,-0.03748293,0.8692849,1.358627,0.1858685,0.4203272,1.21406,0.2834748,283.8539,118.7189,126.2678,True
3,1.233335,-1.310183,0.5343485,-0.1267985,-1.359077,-4.623918,-2.502037,0.6696242,1.165371,0.4222236,-1.615974,-0.008463448,0.2,2.6,-0.4727322,0.1798756,0.259781,-0.5096731,-4.605804,0.2212679,0.7797823,1.312083,0.3427832,-0.1474473,0.1274055,-0.0569186,-0.9895092,0.1003548,-0.03672206,0.8693407,1.358595,0.1860125,0.4187987,1.220131,0.284286,284.4861,116.2006,129.1018,True
3,1.244446,-1.310167,0.5290601,-0.1203807,-1.361593,-4.629315,-2.486225,0.6676702,1.166992,0.4217892,-1.615765,0.019105,0.2,2.6,-0.48557,0.2001695,0.2525269,-0.5064741,-4.601142,0.2231473,0.7791375,1.312409,0.3425164,-0.1631447,0.1666946,-0.03202624,-0.9890118,0.104194,-0.03647279,0.8693509,1.358604,0.1862166,0.4172406,1.226234,0.2853751,285.1464,113.7742,131.9536,True
3,1.255558,-1.305866,0.5077551,-0.116054,-1.36359,-4.633981,-2.470889,0.665579,1.168655,0.4213748,-1.615361,0.03678098,0.2,2.6,-0.4840462,0.2214037,0.2834498,-0.5016064,-4.59672,0.2245609,0.7783301,1.312845,0.3422282,-0.181027,0.1996202,-0.01247438,-0.9884834,0.1082033,-0.03608237,0.8693532,1.358636,0.1864324,0.4156919,1.232322,0.2866009,285.8245,111.6169,134.5837,True
3,1.266669,-1.300493,0.4832691,-0.1148616,-1.365423,-4.638228,-2.456127,0.6634191,1.170365,0.4209104,-1.615467,-0.009854401,0.8,2.3,-0.4731505,0.2447854,0.2982662,-0.4971323,-4.591366,0.2246789,0.7776042,1.313185,0.3419766,-0.1948977,0.1953795,-0.0144835,-0.9888636,0.1105165,-0.03480965,0.8692983,1.358652,0.1866164,0.4141727,1.23839,0.2878204,286.4899,109.6785,137.0097,True
3,1.27778,-1.29832,0.4587508,-0.1168656,-1.367165,-4.642502,-2.440954,0.6614053,1.17213,0.420393,-1.615851,-0.03502161,0.8,2.3,-0.489208,0.2725222,0.2889387,-0.4934635,-4.58508,0.225223,0.7767358,1.313477,0.3415215,-0.2077201,0.1964728,-0.01860377,-0.989343,0.1130365,-0.0335798,0.8692304,1.358666,0.1867664,0.4127953,1.244404,0.2888837,287.1644,108.054,139.103,True
3,1.288891,-1.295098,0.4416888,-0.1210376,-1.368862,-4.646801,-2.425906,0.6591613,1.173907,0.4198656,-1.616387,-0.04872014,0.8,2.3,-0.5356404,0.2599566,0.243703,-0.4917394,-4.58061,0.2286926,0.7758675,1.313751,0.3411646,-0.2034614,0.215651,-0.01961043,-0.9897026,0.1165904,-0.03340083,0.8691541,1.358644,0.187006,0.4115636,1.250358,0.2896443,287.8875,106.6338,140.9043,True
3,1.300002,-1.300464,0.4372589,-0.1295102,-1.370711,-4.65123,-2.410392,0.6571134,1.175664,0.4193926,-1.616012,0.03467163,0.8,2.3,-0.5698143,0.2398049,0.2419735,-0.4886054,-4.577979,0.2338045,0.7749307,1.314142,0.3408208,-0.1980522,0.227327,-0.01214839,-0.9896882,0.120085,-0.03328179,0.8691456,1.358553,0.1871552,0.4104759,1.256216,0.2900245,288.646,105.3815,142.4163,True
3,1.311113,-1.301524,0.4286879,-0.1379844,-1.372355,-4.65581,-2.39511,0.6547945,1.177459,0.4188669,-1.61607,-0.005658223,0.8,2.3,-0.5961354,0.208912,0.2720777,-0.4843773,-4.577484,0.2408566,0.7739644,1.314486,0.3405046,-0.1947354,0.2400511,-0.001461345,-0.9894496,0.1238118,-0.0333015,0.8690109,1.358562,0.1873794,0.4095079,1.26199,0.290021,289.4194,104.382,143.5494,True
3,1.322224,-1.303614,0.4213443,-0.1337067,-1.374425,-4.660411,-2.379685,0.6524867,1.179268,0.4185972,-1.615641,0.03925335,0.6,2.8,-0.5916057,0.198187,0.2943776,-0.4799288,-4.575686,0.2454108,0.772988,1.314866,0.340081,-0.2075568,0.2571323,-0.006563089,-0.9898618,0.1278436,-0.03290043,0.8688375,1.358573,0.1875434,0.4085848,1.267719,0.2897024,290.2233,103.5745,144.3619,True
3,1.333336,-1.304683,0.43421,-0.1209957,-1.377443,-4.664801,-2.364354,0.6503061,1.181053,0.4181607,-1.61587,-0.02119602,0.6,2.8,-0.5575007,0.2162158,0.2918437,-0.4760949,-4.570951,0.2461384,0.7719876,1.315248,0.3396921,-0.2182113,0.2720558,-0.007428739,-0.990044,0.1320208,-0.03243491,0.8685821,1.358679,0.1877241,0.4077257,1.273416,0.289211,291.032,102.9268,144.9363,True
3,1.344447,-1.301481,0.4460873,-0.108302,-1.380678,-4.669572,-2.349044,0.648154,1.182874,0.4175177,-1.615779,0.008506419,0.6,2.8,-0.5203982,0.2214798,0.2775164,-0.4731185,-4.566479,0.2466945,0.770876,1.315682,0.3393588,-0.2191106,0.2762301,0.008580234,-0.9895731,0.1358273,-0.03200214,0.8683782,1.358797,0.1878483,0.4068327,1.279145,0.2886816,291.8787,102.3759,145.3657,True
3,1.355558,-1.286538,0.4472557,-0.09767941,-1.383773,-4.673658,-2.334686,0.6457758,1.184965,0.4172854,-1.615831,-0.004888435,0.6,2.8,-0.522191,0.2022369,0.3073278,-0.4683984,-4.565703,0.2518642,0.7696979,1.316174,0.3389366,-0.224239,0.2846575,0.02679095,-0.9887614,0.1399765,-0.0316301,0.8680948,1.358877,0.188015,0.4059435,1.284897,0.2883046,292.6936,101.8045,145.8077,True
3,1.366669,-1.26728,0.4197364,-0.08266535,-1.386139,-4.676805,-2.320684,0.6434408,1.186853,0.4167945,-1.615939,-0.009654169,0.6,2.8,-0.5337205,0.2150205,0.3192314,-0.4638209,-4.561962,0.2548834,0.7685944,1.316583,0.3385084,-0.2327952,0.283617,0.02368016,-0.9887577,0.1437573,-0.03081624,0.8678282,1.358959,0.1881793,0.4051017,1.290689,0.2881813,293.4476,101.1111,146.5041,True
3,1.37778,-1.261882,0.4028718,-0.0730301,-1.388755,-4.680396,-2.306023,0.6413622,1.18879,0.4163508,-1.616743,-0.07348507,0.5,2.5,-0.5347344,0.2096722,0.3245525,-0.4596962,-4.559369,0.2585466,0.7674367,1.317066,0.3380423,-0.2349302,0.2740513,0.02258056,-0.9887071,0.1472415,-0.03022049,0.8674966,1.359009,0.1883457,0.4042782,1.296578,0.2883167,294.1926,100.4382,147.2963,True
3,1.388891,-1.261886,0.4125173,-0.06242995,-1.392203,-4.684018,-2.291126,0.6391611,1.190621,0.4157908,-1.616932,-0.01670259,0.5,2.5,-0.5473306,0.1819649,0.344894,-0.4550037,-4.559503,0.2652721,0.7662437,1.317563,0.3376143,-0.2628353,0.2752348,0.003708903,-0.9893681,0.1509682,-0.02833231,0.8672273,1.359082,0.1885321,0.4034593,1.302558,0.2887025,294.9826,99.72298,148.1817,True
3,1.400002,-1.259754,0.4307308,-0.06148815,-1.395859,-4.688481,-2.276456,0.63712,1.192378,0.4152334,-1.61627,0.06047323,0.5,2.5,-0.5640418,0.1648881,0.3738399,-0.4497669,-4.559879,0.2724004,0.7651646,1.318181,0.3371689,-0.2790527,0.2838948,-0.01844576,-0.9904445,0.1552311,-0.02697516,0.8668904,1.35922,0.1887712,0.4027501,1.308444,0.2892337,295.7983,98.94483,149.231,True
3,1.411114,-1.241694,0.4670204,-0.05424853,-1.400544,-4.692998,-2.262392,0.6349319,1.194157,0.4147596,-1.615909,0.03246134,0.5,2.5,-0.5899108,0.1594929,0.4338253,-0.4426701,-4.560686,0.2806042,0.7639157,1.318776,0.3366976,-0.2973253,0.2967741,-0.03416128,-0.9915093,0.1596877,-0.02543239,0.8664964,1.359269,0.1890097,0.4021662,1.314209,0.289808,296.5748,98.24885,150.2173,True
3,1.422225,-1.226783,0.4788377,-0.04370777,-1.40476,-4.696846,-2.248592,0.632875,1.195927,0.4142795,-1.616228,-0.02934194,0.5,2.5,-0.593635,0.1722047,0.4733156,-0.4357677,-4.559339,0.2861178,0.7626128,1.319483,0.3361516,-0.3025662,0.3063233,-0.02552263,-0.9914358,0.164222,-0.02427604,0.8661076,1.35935,0.1892633,0.4016545,1.319916,0.2903491,297.3379,97.59038,151.1441,True
3,1.433336,-1.192667,0.4768724,-0.02349432,-1.409204,-4.699829,-2.236037,0.6305475,1.19782,0.413847,-1.616825,-0.05442103,0.5,2.5,-0.5815942,0.2062265,0.4902856,-0.4291386,-4.555574,0.2886725,0.7613755,1.320025,0.335659,-0.2960116,0.3200897,-0.01060029,-0.9910884,0.169125,-0.02384994,0.8656631,1.359418,0.1895461,0.4012198,1.325569,0.2908636,298.1166,97.03745,151.9052,True
3,1.444447,-1.149915,0.4035149,-0.008228123,-1.411116,-4.700668,-2.224483,0.6282429,1.199794,0.4135065,-1.616937,-0.009784,0.5,2.5,-0.5621818,0.2370318,0.5028847,-0.4223773,-4.551236,0.2903599,0.7600514,1.320617,0.3351882,-0.3034396,0.3232874,-0.008383978,-0.9913388,0.1736514,-0.02268933,0.8651679,1.359497,0.1897101,0.4008031,1.331199,0.2914003,298.905,96.46535,152.6318,True
3,1.455558,-1.135984,0.360969,-0.001627043,-1.413383,-4.702175,-2.211951,0.6260484,1.201654,0.4129975,-1.617887,-0.08694968,0.5,2.5,-0.5292159,0.2508207,0.4960999,-0.4163176,-4.547372,0.2918321,0.7587525,1.321153,0.3347855,-0.3086893,0.3189898,-0.0008971207,-0.9912275,0.1777637,-0.02127759,0.8647485,1.359568,0.1899283,0.4004141,1.336761,0.2919534,299.6793,95.88101,153.3842,True
3,1.466669,-1.102883,0.3087896,-0.00667873,-1.414757,-4.703412,-2.20041,0.6239594,1.203511,0.4124336,-1.618421,-0.0481791,0.5,2.5,-0.5188411,0.217804,0.4809749,-0.4111958,-4.547606,0.2974501,0.7574425,1.321678,0.3343086,-0.3011073,0.3157218,0.01179278,-0.9907321,0.1819468,-0.02036413,0.8642379,1.359735,0.1901131,0.3999934,1.342224,0.292456,300.4599,95.24986,154.2057,True
3,1.47778,-1.082602,0.2928412,-0.008742571,-1.417086,-4.705273,-2.188752,0.6219693,1.205389,0.4119754,-1.617347,0.09830084,6,2.9,-0.5421575,0.1997253,0.4919191,-0.405095,-4.54804,0.3047034,0.7562028,1.322203,0.3338413,-0.2979199,0.307185,0.01384848,-0.9905702,0.185819,-0.01895452,0.863824,1.35984,0.1903508,0.3996051,1.347386,0.2927481,301.226,94.69054,154.9757,True
3,1.488891,-1.058074,0.2779776,-0.006560013,-1.419245,-4.706791,-2.177468,0.6198469,1.207142,0.4114966,-1.617944,-0.0555875,6,2.9,-0.5648989,0.1879273,0.5496951,-0.3968419,-4.55017,0.3137755,0.7549163,1.322793,0.3334396,-0.2990901,0.3029763,0.004249806,-0.9908941,0.1897104,-0.0176991,0.8632944,1.359927,0.1906192,0.3992326,1.352231,0.2927259,301.9096,94.29288,155.541,True
3,1.500003,-1.03353,0.265314,0.00519751,-1.421714,-4.707977,-2.166456,0.617882,1.208849,0.411005,-1.617785,0.01491129,6,2.9,-0.5603933,0.1825522,0.5698696,-0.3894729,-4.550944,0.3205879,0.7536293,1.323321,0.3328867,-0.2948822,0.3115205,8.875504E-07,-0.9910182,0.1943045,-0.01687326,0.8626932,1.360021,0.1908948,0.398908,1.356763,0.2923697,302.5241,94.06813,155.8142,True
3,1.511114,-1.019662,0.2557712,0.009495042,-1.423981,-4.709212,-2.155233,0.6157728,1.21057,0.4104764,-1.617847,-0.005963468,6,2.9,-0.5424097,0.1878578,0.5589944,-0.3831112,-4.550108,0.3253206,0.7523854,1.323844,0.3324614,-0.2832326,0.3126147,-0.006510329,-0.9913745,0.1985329,-0.01640587,0.8621404,1.360104,0.1911716,0.3985796,1.361108,0.2917901,303.0891,93.92964,155.8522,True
3,1.522225,-0.9834199,0.2494615,0.01376799,-1.426353,-4.710395,-2.145217,0.6137328,1.212221,0.4098685,-1.617849,-0.0003012469,6.3,2.8,-0.5088737,0.1548053,0.5233168,-0.3786663,-4.552769,0.3322927,0.7511542,1.324438,0.3319252,-0.2749943,0.310597,-0.02897574,-0.9924467,0.2026759,-0.01541198,0.8615037,1.360246,0.1914129,0.3982345,1.365327,0.2911114,303.6509,93.77274,155.8543,True
3,1.533336,-0.9525408,0.254844,0.01370475,-1.429,-4.711951,-2.135257,0.6118107,1.213728,0.4093449,-1.617424,0.03865853,6.3,2.8,-0.4881558,0.1026226,0.487771,-0.3748495,-4.558392,0.3422703,0.7498424,1.32495,0.331563,-0.2729154,0.3020782,-0.03008291,-0.992566,0.2064696,-0.01409345,0.8608332,1.360344,0.1915777,0.3978921,1.369455,0.290433,304.1978,93.58243,155.9071,True
3,1.544447,-0.9280446,0.2591414,0.01366532,-1.431654,1.56975,-2.125517,0.6097802,1.215204,0.4087734,-1.618352,-0.08533459,6.3,2.8,-0.4840814,0.08556166,0.4770233,-0.3700271,-4.562298,0.3511663,0.7484716,1.325433,0.3310931,-0.2707452,0.2892709,-0.02591435,-0.9927498,0.2098225,-0.01299942,0.8601607,1.360448,0.1918333,0.3975154,1.373577,0.289806,304.748,93.39114,156.0162,True
3,1.555558,-0.8811511,0.2550207,0.02746563,-1.43435,1.568971,-2.117063,0.6078737,1.216597,0.4084258,-1.618308,0.004657475,6.3,2.8,-0.489603,0.07282653,0.464281,-0.3654017,-4.565808,0.3601339,0.7470794,1.32596,0.3307559,-0.2633712,0.2903517,-0.03023928,-0.9931663,0.2138529,-0.01206519,0.8594024,1.36053,0.1920598,0.397175,1.377608,0.2892911,305.3207,93.18802,156.1767,True
3,1.566669,-0.8715443,0.2476133,0.03388654,-1.436814,1.568191,-2.107562,0.6058927,1.218099,0.4079397,-1.618212,0.008414387,6.3,2.8,-0.4932168,0.06969951,0.4344758,-0.3615843,-4.56784,0.3678531,0.745611,1.326417,0.3304372,-0.2581442,0.2999892,-0.03983176,-0.9939764,0.2182174,-0.01173495,0.8586978,1.360647,0.1923244,0.3968754,1.381495,0.2889531,305.9037,92.9794,156.3669,True
3,1.577781,-0.8384929,0.239211,0.04667956,-1.439365,1.567856,-2.099405,0.6039952,1.219443,0.407455,-1.619081,-0.0797715,6.3,2.8,-0.4827739,0.08248684,0.41625,-0.3573813,-4.568453,0.3734199,0.7442656,1.326984,0.3299816,-0.2474963,0.3116968,-0.03774805,-0.9942949,0.2230574,-0.01159061,0.8579423,1.360795,0.1925941,0.3965686,1.385254,0.2888084,306.4726,92.73842,156.6172,True
3,1.588892,-0.7969282,0.2307865,0.05946319,-1.441842,1.56779,-2.091904,0.6023202,1.220706,0.4069712,-1.617819,0.1158671,6.3,2.8,-0.4398925,0.1260298,0.4285825,-0.3514915,-4.565828,0.374393,0.7430052,1.327387,0.3295078,-0.2208493,0.295696,-0.03599209,-0.9946518,0.2263869,-0.01184414,0.857217,1.360912,0.1927526,0.3962531,1.388829,0.2888535,307.0126,92.43977,156.9549,True
3,1.600003,-0.7766951,0.2329284,0.06049811,-1.444445,1.56713,-2.083733,0.6007143,1.221953,0.4064355,-1.618653,-0.0775389,6.3,2.8,-0.4206255,0.1185055,0.4379013,-0.3462056,-4.568848,0.3814342,0.7418406,1.327799,0.3289258,-0.2112867,0.2701427,-0.03944128,-0.9953527,0.2287257,-0.01119247,0.8565886,1.360934,0.1926606,0.3958382,1.392343,0.2889937,307.4811,92.13529,157.376,True
3,1.611114,-0.7500979,0.2521297,0.05716703,-1.447753,1.565847,-2.076164,0.5990315,1.223059,0.4059408,-1.619069,-0.03743558,6.3,2.8,-0.4195364,0.07267047,0.4484344,-0.3415163,-4.577148,0.3938639,0.7406031,1.328277,0.3285279,-0.2083109,0.241483,-0.05880584,-0.9967189,0.2306604,-0.01002787,0.8558999,1.361057,0.1928144,0.3954385,1.395677,0.2891593,307.9122,91.81207,157.8473,True
3,1.622225,-0.7288198,0.2681442,0.0602596,-1.451177,1.564914,-2.068634,0.5974683,1.224181,0.4054782,-1.618171,0.0821005,6.3,2.8,-0.433504,0.02368355,0.4495674,-0.3374087,-4.587268,0.4088565,0.7393787,1.328735,0.3281476,-0.1945443,0.2393895,-0.06428736,-0.9976255,0.2340768,-0.009922139,0.8552743,1.361044,0.1930439,0.3951071,1.398759,0.2892767,308.3064,91.50825,158.2912,True
3,1.633336,-0.7032561,0.2724438,0.05913923,-1.454217,1.563941,-2.061666,0.5958818,1.225201,0.4050484,-1.618434,-0.02497244,6.3,2.8,-0.4422866,0.001370504,0.4336475,-0.3338565,-4.594657,0.4210386,0.7381229,1.329225,0.3278229,-0.1946226,0.2500848,-0.07169469,-0.9987711,0.2378702,-0.009762616,0.8545903,1.361097,0.1932659,0.3947884,1.401705,0.2893061,308.6854,91.29809,158.5981,True
3,1.644447,-0.6734189,0.261817,0.05915789,-1.456692,1.563422,-2.055156,0.5942562,1.226212,0.4048455,-1.618182,0.02310674,6.3,2.8,-0.4365714,-0.01343636,0.3855868,-0.3318624,-4.599227,0.430112,0.7368805,1.329592,0.3274686,-0.1979139,0.2575803,-0.07693371,-0.9996974,0.2418204,-0.00919989,0.8538023,1.361197,0.1936133,0.3944557,1.404575,0.2893062,309.0815,91.12048,158.8011,True
3,1.655559,-0.6531613,0.2501394,0.06026197,-1.459108,1.562947,-2.048559,0.5927081,1.227229,0.4044473,-1.618426,-0.02283076,6.3,2.8,-0.4028179,0.01745178,0.3532644,-0.3288594,-4.599103,0.4331637,0.7357053,1.329765,0.3271456,-0.1904615,0.259721,-0.07486816,-1.000455,0.2456926,-0.009082179,0.8531413,1.361343,0.1937706,0.3941209,1.407389,0.2893305,309.4583,90.92273,159.0079,True
3,1.66667,-0.6126369,0.223564,0.06033715,-1.46062,1.562791,-2.043112,0.591282,1.228183,0.4039209,-1.618562,-0.01231025,6.3,2.8,-0.3753765,0.03661366,0.3305883,-0.3255853,-4.599848,0.4371765,0.7345226,1.330083,0.3267064,-0.1754261,0.2479342,-0.06337593,-1.00081,0.2484673,-0.009139969,0.8524079,1.361442,0.1939921,0.3938009,1.410099,0.2894042,309.8602,90.74139,159.2083,True
3,1.677781,-0.5934553,0.2139628,0.05503967,-1.462606,1.562279,-2.03702,0.5897401,1.229032,0.403424,-1.618178,0.03488546,19,5.6,-0.3662408,0.02068642,0.2995279,-0.3236854,-4.603967,0.4450036,0.7332637,1.330559,0.3264956,-0.1691075,0.2479821,-0.06986377,-1.002105,0.2518894,-0.009127985,0.8517628,1.361454,0.1940656,0.3934756,1.412678,0.2895287,310.2615,90.55042,159.4257,True
3,1.688892,-0.5625478,0.2065645,0.05610988,-1.4647,1.56195,-2.031819,0.5882108,1.229908,0.4030304,-1.61894,-0.07018998,19,5.6,-0.3688436,-0.01545888,0.2696465,-0.3225008,-4.610633,0.4554599,0.7320346,1.330886,0.3262618,-0.1777695,0.2427281,-0.0825833,-1.003448,0.2548347,-0.008457134,0.8510668,1.361501,0.1942985,0.3931366,1.415139,0.2896484,310.6133,90.33977,159.7386,True
3,1.700003,-0.540186,0.1969337,0.04867544,-1.466356,1.56154,-2.026391,0.5867313,1.230839,0.402739,-1.618111,0.07623113,19,5.6,-0.360589,-0.02500844,0.2503455,-0.3207149,-4.614985,0.4632933,0.7308131,1.331404,0.3260157,-0.1842975,0.2492166,-0.09634357,-1.005162,0.2585772,-0.008145012,0.8503335,1.361418,0.194356,0.3928117,1.417401,0.2896712,310.9688,90.15772,160.0597,True
3,1.711114,-0.5103378,0.1884874,0.05294915,-1.4683,1.561409,-2.02178,0.585266,1.231664,0.4023719,-1.618573,-0.04317464,19,5.6,-0.3457202,-0.02077413,0.2459027,-0.3184842,-4.618879,0.4702927,0.7296607,1.33176,0.3257918,-0.1801853,0.2343733,-0.1092684,-1.006965,0.2611357,-0.007564975,0.8496981,1.361396,0.194526,0.3924226,1.419539,0.2895676,311.3071,90.01216,160.2677,True
3,1.722225,-0.4773143,0.1864155,0.05716264,-1.470266,1.561262,-2.017475,0.5838767,1.232386,0.402132,-1.618126,0.04109245,19.6,5.8,-0.3190471,-0.008993298,0.2487792,-0.3156826,-4.622518,0.4770715,0.728563,1.332057,0.3254242,-0.1759638,0.2216102,-0.1125979,-1.008503,0.2636254,-0.007059241,0.849025,1.361394,0.1947877,0.3919505,1.421582,0.2893787,311.6135,89.89753,160.3565,True
3,1.733337,-0.4474844,0.1864927,0.0613913,-1.472491,1.561105,-2.013415,0.5825348,1.233122,0.4017916,-1.618564,-0.04065139,19.6,5.8,-0.3062652,-0.01982643,0.249666,-0.313388,-4.628382,0.4850863,0.7274619,1.33239,0.325212,-0.1727653,0.2088222,-0.1126972,-1.009691,0.2657873,-0.006509565,0.8481841,1.361551,0.194973,0.391398,1.423556,0.2891567,311.8661,89.81873,160.3817,True
3,1.744448,-0.4293847,0.1918458,0.06240529,-1.474856,1.560833,-2.009198,0.5811456,1.2339,0.4015853,-1.618621,-0.005001562,19.6,5.8,-0.3014153,-0.03040114,0.2154911,-0.3126823,-4.632202,0.4921495,0.7264555,1.332739,0.3251686,-0.1683902,0.2013222,-0.102148,-1.010634,0.2683765,-0.006130863,0.8474783,1.361546,0.1952064,0.3908205,1.425403,0.2889541,312.1007,89.71986,160.4298,True
3,1.755559,-0.4049039,0.2036099,0.06231534,-1.47759,1.560311,-2.005511,0.5798198,1.234558,0.4013062,-1.618546,0.00667273,19.6,5.8,-0.3015772,-0.04635315,0.2058684,-0.311535,-4.638036,0.5010391,0.7254285,1.332979,0.3250086,-0.1767769,0.1969964,-0.08929989,-1.011193,0.2707785,-0.005124987,0.84672,1.361615,0.1954188,0.3902416,1.427091,0.2888206,312.3147,89.60646,160.5039,True
3,1.76667,-0.3825041,0.1898066,0.06234984,-1.47931,1.560126,-2.001928,0.5784155,1.235147,0.4009712,-1.618087,0.04165045,19.6,5.8,-0.3034187,-0.04318587,0.2293465,-0.3085006,-4.644423,0.5107642,0.7243091,1.333302,0.3247554,-0.1723564,0.2054647,-0.07546528,-1.011762,0.2741234,-0.005080512,0.8460711,1.361619,0.1956325,0.3896248,1.428703,0.288774,312.5055,89.48738,160.6082,True
3,1.777781,-0.3761007,0.1844881,0.06130527,-1.481268,1.559917,-1.997958,0.5770847,1.235807,0.4007127,-1.618307,-0.02067509,21.8,6.4,-0.3023446,-0.03681621,0.2293489,-0.3063456,-4.649582,0.5190796,0.7231277,1.333667,0.3245764,-0.1680719,0.2033517,-0.07342067,-1.012852,0.2771425,-0.004874916,0.8454213,1.361613,0.1958883,0.3889474,1.43032,0.2888468,312.6794,89.37292,160.7212,True
3,1.788892,-0.344097,0.1589568,0.0603405,-1.482209,1.560199,-1.99525,0.5758342,1.236345,0.4005017,-1.618134,0.01577562,21.8,6.4,-0.2855244,-0.01229343,0.2078824,-0.3046694,-4.649594,0.5218802,0.7220587,1.333935,0.3244953,-0.1672021,0.1981217,-0.09156921,-1.014485,0.2795407,-0.004314853,0.8448374,1.36162,0.1960752,0.3882501,1.431896,0.2890582,312.8768,89.23612,160.9206,True
3,1.800003,-0.3280785,0.1408942,0.0657399,-1.48339,1.560628,-1.992167,0.574661,1.237064,0.4003203,-1.617478,0.05971814,21.8,6.4,-0.2642648,0.002548963,0.2012746,-0.3024946,-4.652891,0.5272846,0.7210118,1.334111,0.3242159,-0.169454,0.1875156,-0.1022733,-1.016136,0.281445,-0.003280482,0.844191,1.36161,0.1962783,0.3875331,1.433387,0.2893365,313.0863,89.08477,161.1903,True
3,1.811115,-0.2939646,0.1271025,0.06471454,-1.484518,1.560859,-1.990122,0.573509,1.237748,0.400094,-1.618389,-0.08396509,21.8,6.4,-0.2326781,0.007867262,0.1710509,-0.3016062,-4.653425,0.5292444,0.720046,1.334403,0.3240366,-0.1748834,0.1630619,-0.1108686,-1.017686,0.2825607,-0.001706554,0.8436304,1.361561,0.1964197,0.3868197,1.43481,0.2896194,313.2483,88.9372,161.4586,True
3,1.822226,-0.2566669,0.1196981,0.0647121,-1.485711,1.561101,-1.988528,0.5723909,1.238415,0.3998771,-1.617862,0.04877819,21.8,6.4,-0.2286058,-0.009172417,0.1603152,-0.3007002,-4.658358,0.5365777,0.7190863,1.334803,0.3240161,-0.1674013,0.1439391,-0.1164505,-1.019781,0.2836598,-0.00136993,0.8430473,1.361495,0.1961899,0.3861735,1.436071,0.2898336,313.396,88.79973,161.696,True
3,1.833337,-0.2343058,0.1218478,0.06041598,-1.487247,1.560977,-1.986616,0.5713593,1.23903,0.3996332,-1.618574,-0.06581088,23.2,6.6,-0.2507067,-0.03583953,0.1861079,-0.2989292,-4.667922,0.5491334,0.7183001,1.335109,0.3239074,-0.1652681,0.1311496,-0.1144235,-1.021106,0.2850436,-0.000169377,0.842513,1.361474,0.1962924,0.3855454,1.4373,0.2899244,313.4979,88.6767,161.8723,True
3,1.844448,-0.2215242,0.1164739,0.05084652,-1.488229,1.560898,-1.984555,0.5702982,1.239698,0.3994956,-1.618808,-0.02097339,23.2,6.6,-0.2560245,-0.04541083,0.1893602,-0.2973377,-4.674149,0.5582508,0.7175072,1.33559,0.3238289,-0.1641388,0.1311496,-0.1134079,-1.022708,0.2867917,0.0001416802,0.8419224,1.361378,0.1966217,0.3849363,1.438488,0.2898887,313.6242,88.58485,161.9799,True
3,1.855559,-0.2055169,0.1015827,0.04984706,-1.488966,1.56115,-1.982866,0.5692795,1.240256,0.3992913,-1.618217,0.05392757,23.2,6.6,-0.2464465,-0.04544528,0.1871451,-0.2956631,-4.679944,0.5659752,0.7167513,1.335794,0.3235579,-0.1567455,0.1280028,-0.123121,-1.024733,0.2883518,0.0004298342,0.8414346,1.361333,0.1968544,0.3843164,1.439604,0.2897568,313.7645,88.50717,162.0292,True
3,1.86667,-0.1916222,0.07384832,0.04252679,-1.488784,1.561586,-1.981281,0.5682228,1.240751,0.3991225,-1.617715,0.04512197,23.2,6.6,-0.2232526,-0.05398299,0.1697792,-0.2950585,-4.684934,0.5724603,0.7159616,1.336012,0.3233359,-0.1611518,0.1248823,-0.1369416,-1.026654,0.2898555,0.00154996,0.8409818,1.361268,0.1969652,0.3836556,1.440663,0.2895839,313.8824,88.46056,162.0245,True
3,1.877781,-0.1723806,0.03868606,0.03843736,-1.487998,1.562305,-1.980059,0.5672044,1.241307,0.3989577,-1.61778,-0.006388504,23.5,6.3,-0.2211005,-0.04335902,0.1687282,-0.2935001,-4.689821,0.579453,0.7150549,1.336273,0.3232102,-0.1590793,0.1185701,-0.1455481,-1.028829,0.2915795,0.002117746,0.840483,1.361259,0.1970692,0.3829555,1.441678,0.2894105,313.9735,88.43369,162.0049,True
3,1.888893,-0.1659953,0.03543343,0.02566488,-1.488178,1.562073,-1.978443,0.5662372,1.241802,0.3987522,-1.617665,0.01042612,23.5,6.3,-0.2138348,-0.05399869,0.155824,-0.292903,-4.694981,0.58652,0.7142359,1.336418,0.3230178,-0.1474888,0.1101,-0.1574303,-1.030977,0.2926718,0.002826945,0.8399922,1.36116,0.1971698,0.3822658,1.442576,0.289237,314.0649,88.38734,162.0396,True
3,1.900004,-0.1670936,0.04387017,0.01495516,-1.488589,1.561641,-1.976427,0.5654306,1.24224,0.3985825,-1.617777,-0.0104387,23.5,6.3,-0.207567,-0.07528001,0.1503808,-0.2923517,-4.701933,0.5953486,0.7136036,1.33668,0.322943,-0.1420749,0.111122,-0.1489348,-1.032029,0.2943525,0.003229882,0.8393619,1.361247,0.1974773,0.381588,1.443321,0.2890128,314.1577,88.3483,162.0902,True
3,1.911115,-0.1681789,0.04698865,0.001090099,-1.488989,1.560949,-1.974474,0.5644829,1.242719,0.3983622,-1.617274,0.04593855,23.5,6.3,-0.2109567,-0.08696041,0.1376125,-0.2922233,-4.70807,0.6036617,0.7127881,1.336974,0.3227911,-0.1354124,0.1152452,-0.1212924,-1.032593,0.2962358,0.003777694,0.8388994,1.361174,0.1975522,0.3808921,1.443957,0.2886881,314.2298,88.34361,162.0847,True
3,1.922226,-0.1607365,0.05227733,-0.003214076,-1.489269,1.560655,-1.972942,0.5635695,1.243258,0.3981779,-1.616676,0.05415318,23.5,6.3,-0.2069155,-0.07948168,0.1194682,-0.2919149,-4.711567,0.609277,0.7116712,1.337435,0.3227217,-0.1354019,0.1120563,-0.1202425,-1.0339,0.2977811,0.004523646,0.8383127,1.361104,0.197638,0.3801574,1.444562,0.2883182,314.2577,88.39465,161.9769,True
3,1.933337,-0.1479485,0.04909614,-0.005339883,-1.489588,1.56037,-1.97174,0.5626472,1.24379,0.3979938,-1.616598,0.006607268,23,6.3,-0.1951299,-0.06246972,0.1214868,-0.2908257,1.568459,0.6140573,0.7108225,1.337742,0.322536,-0.1332897,0.1003541,-0.1235232,-1.035387,0.2985437,0.005311142,0.8377213,1.36105,0.1975536,0.3794247,1.445195,0.2879902,314.2563,88.47153,161.8359,True
3,1.944448,-0.1372736,0.03844946,-0.005300209,-1.489375,1.560345,-1.97059,0.5616938,1.244269,0.3977606,-1.616897,-0.02739005,23,6.3,-0.1705306,-0.03912754,0.1255,-0.2892518,1.565068,0.6184728,0.7101308,1.338295,0.3223941,-0.1301567,0.09079194,-0.1289321,-1.037012,0.2993599,0.00624751,0.8371981,1.360974,0.1976073,0.3786921,1.445943,0.287751,314.2831,88.53311,161.7408,True
3,1.955559,-0.1298226,0.04057014,-0.00639021,-1.48959,1.560122,-1.969339,0.5608579,1.244735,0.3975189,-1.61715,-0.02301066,23,6.3,-0.1779776,-0.04335256,0.1266673,-0.2882829,1.560485,0.6251078,0.7096682,1.338424,0.3219776,-0.1409041,0.08445501,-0.1373777,-1.038829,0.3002871,0.007760185,0.8366679,1.360921,0.197659,0.3779951,1.446778,0.2876113,314.3399,88.54212,161.7292,True
3,1.966671,-0.1298768,0.06721366,-0.004404092,-1.491075,1.5595,-1.967851,0.5599915,1.245147,0.3972647,-1.617076,0.006945432,23,6.3,-0.1946301,-0.0305944,0.1546143,-0.2861002,1.555161,0.6329809,0.7089096,1.33862,0.3216171,-0.1314863,0.0792045,-0.1534766,-1.041037,0.3011827,0.008525844,0.8360529,1.360787,0.1977329,0.3773451,1.447628,0.287553,314.4437,88.51302,161.7983,True
3,1.977782,-0.1352316,0.08103515,-0.007665865,-1.492228,1.558835,-1.966137,0.5591279,1.245618,0.3968956,-1.616848,0.02057066,22.7,6.4,-0.1973771,-0.01997609,0.1866523,-0.2832208,1.549692,0.6404365,0.7082972,1.338676,0.3211997,-0.1154425,0.07168677,-0.1473079,-1.04266,0.3016487,0.00905528,0.83549,1.360651,0.1976011,0.376737,1.448416,0.2875152,314.5658,88.46859,161.9117,True
3,1.988893,-0.1469698,0.08952122,-0.009831421,-1.493368,1.558172,-1.964077,0.5581598,1.24605,0.3966277,-1.616517,0.03003557,22.7,6.4,-0.1877739,-0.01893631,0.187595,-0.281592,1.544382,0.6473165,0.7074778,1.339024,0.320951,-0.09070692,0.06621868,-0.1241512,-1.04326,0.3023071,0.008887768,0.8347883,1.360651,0.197593,0.3761475,1.449155,0.2874761,314.6617,88.43782,161.987,True
3,2.000004,-0.1544476,0.09695596,-0.006672055,-1.494293,1.557875,-1.962088,0.5572439,1.246606,0.3965909,-1.616195,0.02919933,22.7,6.4,-0.1741915,-0.01784287,0.1671776,-0.2808101,1.542053,0.6511136,0.7065312,1.339428,0.3208804,-0.09378374,0.06296244,-0.1113414,-1.043945,0.3030998,0.009778861,0.8341649,1.360808,0.1976597,0.3755319,1.449934,0.2874761,314.7388,88.3983,162.0554,True
3,2.011115,-0.153401,0.1065573,-0.004594475,-1.495674,1.557338,-1.960382,0.5562625,1.247034,0.3963356,-1.615793,0.03645665,22.7,6.4,-0.1683908,-0.02627927,0.1234014,-0.2812964,1.5408,0.6539669,0.7056241,1.339811,0.3206954,-0.1031279,0.05325459,-0.08679283,-1.043999,0.3034112,0.01108567,0.8334613,1.360876,0.1976471,0.3748812,1.450792,0.2875118,314.8213,88.36772,162.1484,True
3,2.022226,-0.1491871,0.1321499,0.001657724,-1.497759,1.556806,-1.958952,0.5552858,1.247398,0.3962169,-1.615805,-0.00134378,22.7,6.4,-0.1642963,-0.02943553,0.1116238,-0.2807339,1.538084,0.6584037,0.7046404,1.340127,0.3206196,-0.110509,0.03297367,-0.07830655,-1.044676,0.3029692,0.01275814,0.8327343,1.360793,0.1974573,0.3742118,1.451723,0.2875859,314.9066,88.34734,162.2093,True
3,2.033337,-0.1428185,0.1449935,0.01010502,-1.499791,1.556393,-1.957461,0.5542703,1.247846,0.3960011,-1.616126,-0.02929177,21.8,6.8,-0.1515067,-0.02094206,0.110411,-0.2797619,1.535632,0.6620243,0.7036978,1.340382,0.3203807,-0.1126354,0.03830292,-0.07825298,-1.045535,0.3037254,0.0137025,0.8319365,1.36081,0.1974554,0.3735642,1.452712,0.2877132,314.9908,88.31163,162.2683,True
3,2.044448,-0.1438943,0.1535511,0.01644724,-1.501751,1.555915,-1.955755,0.5532306,1.248228,0.3955688,-1.616423,-0.02687192,21.8,6.8,-0.1426314,-0.0007661283,0.1337741,-0.2773997,1.533087,0.6657969,0.7025889,1.340661,0.3200855,-0.1040559,0.04679081,-0.07296602,-1.046164,0.3047197,0.01414059,0.8312784,1.360688,0.197309,0.3729548,1.453695,0.2879013,315.1172,88.24907,162.3728,True
3,2.055559,-0.1470861,0.1535758,0.02177814,-1.503503,1.555668,-1.953979,0.5521283,1.248608,0.3953393,-1.616341,0.007664158,21.8,6.8,-0.136359,0.008839332,0.123053,-0.2764904,1.532562,0.6676795,0.7016758,1.340892,0.3198283,-0.09338014,0.05742405,-0.07301912,-1.046942,0.3056968,0.01413979,0.8304026,1.360714,0.1972737,0.3723588,1.454648,0.2881834,315.2635,88.14894,162.5123,True
3,2.06667,-0.1598518,0.1504159,0.03352544,-1.505226,1.555808,-1.951779,0.551082,1.249035,0.3950815,-1.616081,0.02363529,21.8,6.8,-0.1193019,0.008794941,0.1238961,-0.2752793,1.529739,0.6711659,0.7008182,1.341175,0.3195894,-0.08813471,0.05213231,-0.08055795,-1.048126,0.3062648,0.01465697,0.8295999,1.360729,0.1972082,0.371718,1.455612,0.2885286,315.4099,88.01307,162.7519,True
3,2.077781,-0.1662566,0.1525106,0.03033008,-1.506933,1.555441,-1.949676,0.5501832,1.24932,0.3948777,-1.615952,0.01160424,24.5,5.8,-0.1142061,-0.02633775,0.1130869,-0.2754982,1.524091,0.6777948,0.6999588,1.341522,0.3194759,-0.08276294,0.04680392,-0.07745382,-1.048993,0.3068812,0.0149398,0.8288758,1.360781,0.1970425,0.3710214,1.456563,0.2888638,315.5506,87.88107,163.0357,True
3,2.088892,-0.1705311,0.1567393,0.02604968,-1.508739,1.554884,-1.947571,0.549197,1.249739,0.3945606,-1.615505,0.04076081,24.5,5.8,-0.1110971,-0.04977719,0.1108623,-0.2754742,1.517534,0.68523,0.6990687,1.341846,0.3192551,-0.08059983,0.03506161,-0.07327604,-1.049659,0.3068671,0.01575899,0.8280756,1.36085,0.1969569,0.3702772,1.457483,0.289147,315.6605,87.75734,163.2681,True
3,2.100003,-0.1769546,0.1694866,0.02065457,-1.510935,1.553987,-1.945365,0.5481452,1.250208,0.3942776,-1.615631,-0.01176482,24.5,5.8,-0.1130648,-0.05832182,0.1247232,-0.2744803,1.510574,0.6932051,0.6981536,1.342062,0.3190129,-0.08482477,0.02758021,-0.06793416,-1.050111,0.307026,0.01690814,0.8272084,1.361077,0.1970549,0.3695389,1.458369,0.2893499,315.7132,87.64339,163.4548,True
3,2.111114,-0.1812664,0.1886049,0.0120331,-1.513444,1.552849,-1.943109,0.5471611,1.250627,0.3939893,-1.615706,-0.006707873,24.5,5.8,-0.129171,-0.05399677,0.1142891,-0.2740659,1.50721,0.6984036,0.6971517,1.342394,0.3187678,-0.08474573,0.02754175,-0.05941523,-1.050511,0.3074758,0.01772547,0.8265315,1.361075,0.197067,0.3688747,1.459193,0.2894883,315.761,87.58768,163.5692,True
3,2.122225,-0.1834165,0.1960504,0.009859897,-1.515748,1.551947,-1.940942,0.5460295,1.251144,0.3938951,-1.615671,0.003293267,24.5,5.8,-0.1299813,-0.03910698,0.1313943,-0.2723013,1.502609,0.7044032,0.6962026,1.342694,0.3184619,-0.09003181,0.02858975,-0.05509049,-1.050939,0.3079039,0.01874013,0.8257182,1.361192,0.1970003,0.3682317,1.460101,0.2895766,315.8447,87.55752,163.6448,True
3,2.133336,-0.1833971,0.1875339,0.01097124,-1.517482,1.551439,-1.938859,0.5449204,1.2517,0.3936374,-1.615669,0.0001223524,20,5.7,-0.1278742,-0.02631923,0.1271341,-0.2712334,1.499938,0.7083441,0.6951849,1.343082,0.3182292,-0.09643181,0.04352019,-0.05707735,-1.051628,0.309091,0.01946052,0.8249156,1.361249,0.1970177,0.3675874,1.461143,0.2896746,315.9648,87.53332,163.6902,True
3,2.144447,-0.1801592,0.1673103,0.01214381,-1.518665,1.551225,-1.936936,0.5438419,1.252412,0.3934696,-1.615778,-0.009936892,20,5.7,-0.1185629,-0.001773864,0.101509,-0.2704104,1.501929,0.7074605,0.6942236,1.343548,0.3180711,-0.1092764,0.06060882,-0.0621458,-1.052035,0.3107864,0.02053537,0.8238813,1.361499,0.1972303,0.3669578,1.462277,0.2898557,316.1117,87.50887,163.7261,True
3,2.155558,-0.1747829,0.1438883,0.01226096,-1.519496,1.550999,-1.93519,0.5427625,1.253113,0.39325,-1.61588,-0.009275151,20,5.7,-0.1175321,0.01208416,0.09619959,-0.269343,1.501665,0.7089806,0.6932501,1.343989,0.3178096,-0.1221265,0.05319266,-0.06843626,-1.052903,0.3111198,0.02211862,0.8230569,1.36162,0.1972146,0.3663196,1.463497,0.2901608,316.2845,87.44701,163.8215,True
3,2.166669,-0.1619367,0.112994,0.00709001,-1.519634,1.550847,-1.933831,0.5417596,1.25374,0.3930051,-1.616047,-0.01510607,20,5.7,-0.1311995,0.01742507,0.1081271,-0.2676274,1.498297,0.7139668,0.6924272,1.344247,0.3171992,-0.1264437,0.03298379,-0.0706071,-1.053449,0.3109408,0.02392717,0.8223367,1.361815,0.1970112,0.3656802,1.464747,0.2905322,316.4473,87.34239,164.0352,True
3,2.17778,-0.1576371,0.09273996,0.0008065235,-1.520104,1.550471,-1.932185,0.5408974,1.254331,0.3928232,-1.616236,-0.01721194,20,5.7,-0.155136,0.02918196,0.1499835,-0.2657259,1.494021,0.7201856,0.6915542,1.344572,0.316813,-0.1285574,0.02231329,-0.06530447,-1.053868,0.3109627,0.02578233,0.8216783,1.361809,0.196734,0.365042,1.466002,0.2908826,316.5901,87.24285,164.276,True
3,2.188891,-0.1447678,0.04903366,-0.009621544,-1.519043,1.55035,-1.931035,0.5399436,1.254979,0.3926048,-1.616604,-0.03345981,17.2,4.2,-0.1567016,0.05140508,0.1884366,-0.2616875,1.488204,0.7280366,0.6906856,1.344942,0.3165345,-0.1253268,0.02442428,-0.06213051,-1.054442,0.3113823,0.02681457,0.8209451,1.36191,0.1967046,0.3644251,1.467177,0.2911304,316.7339,87.16813,164.4964,True
3,2.200002,-0.1425794,0.02130339,-0.01692739,-1.518412,1.550194,-1.929531,0.5388761,1.255616,0.3924778,-1.616313,0.02677676,17.2,4.2,-0.1586429,0.05564366,0.2012505,-0.2593024,1.483741,0.7339795,0.6898061,1.345263,0.3161993,-0.1177329,0.03180346,-0.04831925,-1.054481,0.3121568,0.02764734,0.8201895,1.361841,0.1965444,0.3638511,1.468171,0.2912116,316.8654,87.13534,164.6308,True
3,2.211113,-0.1467831,-0.008579637,-0.02528437,-1.517148,1.550043,-1.927763,0.5378224,1.256243,0.3922813,-1.616699,-0.03554816,17.2,4.2,-0.1553466,0.05242386,0.2097274,-0.2571218,1.478415,0.7407945,0.6888492,1.345606,0.3159978,-0.1176371,0.05306952,-0.04074978,-1.054606,0.3136902,0.02817331,0.8194674,1.361867,0.1965663,0.3633017,1.469013,0.2911204,316.963,87.14441,164.6668,True
3,2.222224,-0.1435563,-0.02242821,-0.02734261,-1.516506,1.549944,-1.926313,0.5366652,1.256837,0.3921375,-1.616332,0.03384227,17.2,4.2,-0.1495199,0.04505692,0.1680836,-0.2566371,1.478356,0.7423977,0.687927,1.346083,0.3159595,-0.1198511,0.07016408,-0.04915792,-1.055411,0.3153169,0.02893072,0.8187211,1.361931,0.1965151,0.3627203,1.469758,0.2908183,317.0801,87.20463,164.6088,True
3,2.233335,-0.1392784,-0.03095264,-0.0294308,-1.515735,1.549798,-1.92491,0.5356294,1.257418,0.3918996,-1.615978,0.03191892,10.4,5,-0.1478332,0.02487649,0.1381862,-0.2565545,1.475797,0.7464499,0.6869933,1.346443,0.3157635,-0.1307178,0.07667786,-0.07031809,-1.056856,0.3165923,0.03010118,0.8180716,1.361993,0.1965303,0.3620378,1.470487,0.2903353,317.19,87.28009,164.4641,True
3,2.244446,-0.1286249,-0.02984787,-0.02731486,-1.515496,1.549663,-1.923879,0.5347212,1.258018,0.3917313,-1.616242,-0.02433779,10.4,5,-0.1450431,-0.01023249,0.1146387,-0.2570717,1.470716,0.7530192,0.6859708,1.346906,0.3157225,-0.137131,0.07349072,-0.07132475,-1.057516,0.31735,0.0315566,0.8173965,1.362053,0.1964653,0.3612565,1.471214,0.2897086,317.2708,87.38066,164.2623,True
3,2.255557,-0.1158765,-0.01488178,-0.02314508,-1.515808,1.549421,-1.922932,0.5337511,1.258557,0.3914857,-1.616302,-0.005278151,10.4,5,-0.1512098,-0.01664124,0.1328143,-0.2557817,1.46404,0.761292,0.6850852,1.347126,0.3154538,-0.1456433,0.07029527,-0.07018759,-1.058203,0.3180875,0.0330943,0.8167499,1.362128,0.19645,0.3603944,1.471936,0.2890233,317.3255,87.4716,164.0389,True
3,2.266668,-0.1009864,-0.00204159,-0.01789841,-1.516146,1.549311,-1.922254,0.5327597,1.259133,0.3912435,-1.61663,-0.02999846,10.4,5,-0.1585638,-0.0006479546,0.138272,-0.2540374,1.46119,0.7662114,0.684158,1.347634,0.3151388,-0.13816,0.07666047,-0.06703235,-1.058733,0.3193137,0.03394465,0.8160546,1.362056,0.1963513,0.3595123,1.472615,0.288349,317.323,87.55997,163.8296,True
3,2.277779,-0.09886073,0.0001122896,-0.01471625,-1.516192,1.549217,-1.921143,0.5317456,1.259714,0.3910406,-1.616688,-0.005075085,10.4,5,-0.1636822,0.008946784,0.1522617,-0.2515377,1.455451,0.7738113,0.6834741,1.347425,0.3142998,-0.1381044,0.08409445,-0.0616691,-1.05924,0.3207827,0.03482909,0.8154479,1.362127,0.1963689,0.3586589,1.473263,0.2877709,317.2977,87.63676,163.6405,True
3,2.28889,-0.09667888,-0.02222699,-0.01033425,-1.5153,1.549588,-1.920134,0.5307611,1.26025,0.3908348,-1.616863,-0.01597994,9.8,4.2,-0.1665752,0.01210236,0.1746798,-0.2494141,1.448388,0.7826548,0.6826429,1.34773,0.3139119,-0.144439,0.09153129,-0.05623272,-1.059612,0.3223422,0.03593803,0.8148074,1.362115,0.1964741,0.3578285,1.473926,0.2873522,317.3048,87.67321,163.5302,True
3,2.300001,-0.09344516,-0.03822238,-0.01557595,-1.514369,1.549545,-1.919286,0.529808,1.260808,0.3907092,-1.616363,0.04568187,9.8,4.2,-0.1685116,0.03129412,0.1843801,-0.2465235,1.444147,0.7886621,0.6819752,1.347883,0.313627,-0.1434346,0.09475663,-0.06261102,-1.060381,0.3236512,0.03682087,0.8140883,1.362266,0.1964777,0.3570002,1.474628,0.2871075,317.3518,87.67264,163.5102,True
3,2.311112,-0.0987234,-0.06168733,-0.01864054,-1.512853,1.549772,-1.918025,0.5289257,1.261286,0.3904791,-1.61632,0.003521226,9.8,4.2,-0.1651725,0.04298592,0.1928839,-0.2441778,1.439536,0.7948527,0.6811556,1.348111,0.3132524,-0.1350301,0.09907277,-0.07439411,-1.061583,0.3251194,0.03731328,0.8135386,1.362314,0.1965039,0.3561756,1.47535,0.2869985,317.41,87.65133,163.5735,True
3,2.322223,-0.104032,-0.07346825,-0.02709582,-1.511506,1.549619,-1.91669,0.5280684,1.261812,0.3902788,-1.616459,-0.0127923,9.8,4.2,-0.1673892,0.04620197,0.1854544,-0.2427194,1.436401,0.7998378,0.6801722,1.348865,0.3134861,-0.1349997,0.1107833,-0.07113639,-1.062188,0.327172,0.0379559,0.8129082,1.36238,0.1965926,0.3553932,1.476017,0.286927,317.4689,87.63352,163.673,True
3,2.333334,-0.1104194,-0.07669538,-0.03026895,-1.510449,1.549525,-1.915233,0.5271915,1.262257,0.3900766,-1.616009,0.04122258,6.9,4.5,-0.1783408,0.04521176,0.1632244,-0.2416915,1.434769,0.8038307,0.6793488,1.349054,0.3132343,-0.1455783,0.1150163,-0.06461304,-1.062638,0.3287668,0.0391221,0.8122512,1.362429,0.1966474,0.3546548,1.476612,0.2868226,317.5275,87.6456,163.7429,True
3,2.344445,-0.1136057,-0.07990068,-0.03024663,-1.509415,1.549588,-1.913923,0.5263876,1.262699,0.3898804,-1.615893,0.01033143,6.9,4.5,-0.1731406,0.04948717,0.1525033,-0.2403295,1.433224,0.8069913,0.6784737,1.349582,0.3130233,-0.1475997,0.1160191,-0.05393156,-1.062808,0.3301679,0.04017778,0.8116432,1.362377,0.1966755,0.3539743,1.47713,0.2866028,317.5688,87.6748,163.7845,True
3,2.355556,-0.1178558,-0.07878739,-0.01959888,-1.508686,1.550002,-1.912566,0.5255008,1.263047,0.389643,-1.615773,0.01091012,6.9,4.5,-0.1615322,0.04734571,0.1438175,-0.2391284,1.430642,0.8107041,0.6777834,1.349721,0.3128221,-0.1474447,0.129796,-0.04000657,-1.062622,0.3323878,0.04071227,0.8111655,1.362318,0.196753,0.3533381,1.477646,0.2862398,317.6104,87.74432,163.7315,True
3,2.366668,-0.1179066,-0.05102676,-0.008030141,-1.509151,1.55018,-1.911278,0.5247035,1.263389,0.3893037,-1.615918,-0.01333429,6.9,4.5,-0.1555543,0.03567266,0.1160137,-0.2389196,1.429642,0.8134053,0.6769732,1.349921,0.3126588,-0.1367697,0.1255065,-0.03693733,-1.06282,0.3337626,0.04127473,0.8106406,1.362358,0.1966367,0.3527568,1.478171,0.285758,317.66,87.81322,163.6161,True
3,2.377779,-0.1190431,-0.01474594,0.00456099,-1.51023,1.550321,-1.909897,0.5239163,1.263758,0.3890398,-1.615883,0.003350546,6.9,4.5,-0.153978,-0.0004716814,0.0807659,-0.2399822,1.427261,0.8173215,0.6764202,1.350122,0.3125832,-0.1218844,0.1116582,-0.03929595,-1.063347,0.3346679,0.04158686,0.8100777,1.362498,0.196738,0.3522434,1.478693,0.285191,317.7271,87.86448,163.4817,True
3,2.38889,-0.1244475,0.02580981,0.01926261,-1.512025,1.550452,-1.90835,0.523134,1.264039,0.3887491,-1.615971,-0.008086034,8.6,4.7,-0.1496745,-0.01434682,0.08707238,-0.2396003,1.42162,0.8243861,0.6757163,1.350356,0.3123727,-0.1111793,0.09562078,-0.03203054,-1.06341,0.335149,0.04235625,0.8096259,1.362529,0.1967609,0.3517797,1.479221,0.2845748,317.8126,87.87474,163.3642,True
3,2.400001,-0.1223539,0.04825141,0.03297779,-1.513213,1.550714,-1.907109,0.5222573,1.2643,0.3884783,-1.6159,0.006604475,8.6,4.7,-0.1550414,-0.03030854,0.08710998,-0.2395066,1.416359,0.8313656,0.6750096,1.350443,0.3121455,-0.1090191,0.08493976,-0.02783893,-1.063434,0.3358018,0.04329368,0.8090863,1.36258,0.1967483,0.3513404,1.479808,0.2839873,317.8882,87.86623,163.2498,True
3,2.411112,-0.1298681,0.0824445,0.05517079,-1.515647,1.551305,-1.905451,0.5214279,1.264565,0.3881335,-1.61574,0.01447162,8.6,4.7,-0.1582653,-0.02496698,0.08396785,-0.239024,1.41347,0.8360267,0.6743277,1.350624,0.3118837,-0.09949118,0.09348823,-0.03428498,-1.063979,0.3373386,0.04329847,0.8086337,1.362625,0.1967802,0.3509143,1.480482,0.2835314,317.9621,87.8429,163.1478,True
3,2.422223,-0.1320523,0.1134032,0.06779001,-1.518089,1.551651,-1.904012,0.5205861,1.264938,0.387696,-1.61604,-0.02747004,8.6,4.7,-0.1689661,-0.01212068,0.07775326,-0.2381292,1.412882,0.8387716,0.6736296,1.350856,0.3113852,-0.09212808,0.09460686,-0.04393568,-1.064695,0.3387481,0.04330353,0.8082467,1.36281,0.1967485,0.350512,1.481215,0.2832851,318.0639,87.78143,163.1349,True
3,2.433334,-0.1352737,0.1272792,0.07410951,-1.520213,1.552014,-1.902425,0.5197753,1.265211,0.3873134,-1.615656,0.03532165,8.6,4.7,-0.1774297,-0.001451984,0.0800188,-0.2372557,1.410691,0.8431358,0.6729445,1.351096,0.3110974,-0.08586394,0.101061,-0.05675102,-1.065722,0.3403387,0.04326705,0.8078006,1.362865,0.1967738,0.3501169,1.48196,0.2832454,318.1994,87.67354,163.2349,True
3,2.444445,-0.1395866,0.1518323,0.08464119,-1.523047,1.552471,-1.900675,0.5190278,1.265463,0.3869405,-1.615868,-0.01963901,6.5,5.5,-0.1740022,0.01452567,0.09391624,-0.2348684,1.406789,0.8487279,0.6724037,1.350706,0.3102593,-0.08813924,0.1064582,-0.07054366,-1.066843,0.3419,0.04367584,0.8073163,1.362863,0.1967542,0.3496983,1.482782,0.28339,318.3044,87.48598,163.4698,True
3,2.455556,-0.1417657,0.1741938,0.08452058,-1.525761,1.55249,-1.899084,0.5183386,1.265774,0.3866565,-1.615775,0.008700236,6.5,5.5,-0.1824656,0.01667418,0.09722369,-0.2339821,1.403987,0.8536078,0.6717824,1.350788,0.3098629,-0.08392092,0.0979518,-0.07382797,-1.067703,0.3428681,0.04406466,0.8068949,1.36291,0.1967547,0.3492571,1.48368,0.2836604,318.4084,87.29697,163.7807,True
3,2.466667,-0.1460526,0.1880673,0.090841,-1.528589,1.552825,-1.897338,0.5176041,1.266044,0.3862686,-1.615623,0.01379736,6.5,5.5,-0.1845017,0.01774693,0.1036965,-0.2324721,1.398805,0.8607936,0.6713866,1.350901,0.3096445,-0.07224659,0.08835818,-0.07611918,-1.068434,0.3435493,0.04425908,0.8064058,1.362841,0.1967793,0.3488394,1.484551,0.2839942,318.5093,87.11916,164.0917,True
3,2.477778,-0.1471171,0.1891515,0.09403574,-1.531029,1.553283,-1.895664,0.5169145,1.266265,0.3858483,-1.615824,-0.01845194,6.5,5.5,-0.1739038,-0.004650995,0.1035035,-0.2323976,1.392902,0.8679737,0.6707381,1.351092,0.3093221,-0.06253426,0.07763848,-0.06349328,-1.06873,0.3442919,0.04429077,0.8059467,1.362885,0.1967261,0.3484646,1.485403,0.2843614,318.5892,86.93884,164.3745,True
3,2.488889,-0.1513655,0.1827444,0.09300822,-1.533099,1.553664,-1.893847,0.5162125,1.266599,0.3854609,-1.615712,0.01040721,5.9,11.7,-0.1677994,-0.03019833,0.08844548,-0.2332412,1.388641,0.8740476,0.670265,1.351635,0.309756,-0.05716499,0.07653639,-0.05822643,-1.069161,0.3452045,0.04446014,0.8055304,1.362913,0.1966856,0.3481361,1.486258,0.2847507,318.679,86.78342,164.6263,True
3,2.5,-0.151353,0.176326,0.08772817,-1.535125,1.553985,-1.892218,0.5155826,1.266994,0.3851597,-1.615794,-0.007555167,5.9,11.7,-0.1478217,-0.05899203,0.07426883,-0.2343688,1.383039,0.8804075,0.6697037,1.352122,0.3097348,-0.057112,0.07649886,-0.05291524,-1.069743,0.3460883,0.04476294,0.8050891,1.362891,0.1965873,0.3478566,1.48711,0.2851232,318.7915,86.59663,164.9248,True
3,2.511111,-0.1598443,0.1592223,0.08036969,-1.536453,1.554226,-1.89015,0.5149194,1.267353,0.3848124,-1.615697,0.008946251,5.9,11.7,-0.1276999,-0.06862168,0.06651658,-0.2349526,1.378734,0.8852038,0.6691775,1.352246,0.3094625,-0.05609109,0.07652044,-0.05718721,-1.070485,0.3470971,0.04486468,0.8046678,1.362924,0.1965373,0.3476292,1.487931,0.2854107,318.921,86.41171,165.2308,True
3,2.522222,-0.166223,0.1484928,0.06871287,-1.537832,1.554171,-1.888054,0.5142725,1.267599,0.3844132,-1.615903,-0.01890765,5.9,11.7,-0.1245524,-0.06436049,0.06222191,-0.234975,1.375486,0.8897427,0.6685586,1.352584,0.3093178,-0.05401016,0.08080574,-0.06250836,-1.071292,0.3482811,0.04478744,0.8042072,1.362966,0.1965046,0.3474218,1.488778,0.2855624,319.0402,86.27165,165.4538,True
3,2.533333,-0.1768477,0.1281594,0.05604843,-1.538653,1.554152,-1.885656,0.5135905,1.267973,0.3840947,-1.615524,0.03487349,5.9,11.7,-0.1199046,-0.04311277,0.08563419,-0.2338021,1.370669,0.8954346,0.6680217,1.352729,0.3089728,-0.05724429,0.08828731,-0.06669785,-1.072124,0.3497328,0.04482872,0.8037668,1.362986,0.196449,0.3472375,1.489644,0.2855834,319.1581,86.17375,165.5847,True
3,2.544444,-0.181085,0.113181,0.04548667,-1.539512,1.55416,-1.883516,0.5128586,1.268267,0.3838975,-1.615508,0.001171634,9,68.3,-0.1143749,-0.02502764,0.09735899,-0.2320727,1.364984,0.9021615,0.6674871,1.352425,0.308042,-0.06678092,0.09678025,-0.06122474,-1.072498,0.3511946,0.04536135,0.8032547,1.36291,0.1964252,0.347084,1.490483,0.2854728,319.2946,86.1133,165.6644,True
3,2.555555,-0.1810285,0.08543205,0.03604759,-1.539527,1.554243,-1.881539,0.5121763,1.268706,0.3835919,-1.615276,0.02130095,9,68.3,-0.1204556,-0.01972652,0.1187548,-0.2309088,1.357988,0.9103747,0.6669027,1.352648,0.3076322,-0.06991974,0.09462289,-0.05480391,-1.072769,0.3523572,0.04578347,0.8027325,1.362929,0.1962984,0.3469609,1.491267,0.2852511,319.4469,86.08545,165.6907,True
3,2.566666,-0.1703177,0.05551332,0.01489456,-1.53906,1.553867,-1.880117,0.5114297,1.269213,0.3832209,-1.615579,-0.02782499,9,68.3,-0.1309194,-0.01121361,0.1306531,-0.229703,1.35051,0.9194163,0.6663371,1.352731,0.3073454,-0.07096779,0.08822079,-0.05269582,-1.073229,0.3532691,0.04617815,0.8022903,1.362969,0.1962149,0.3468379,1.492053,0.2849477,319.596,86.0881,165.6433,True
3,2.577777,-0.1660396,0.04378182,0.009624278,-1.539346,1.553713,-1.878297,0.5108325,1.269673,0.383008,-1.615831,-0.02273075,9,68.3,-0.1318005,0.007934466,0.1402758,-0.2283629,1.346344,0.9249671,0.6657515,1.353419,0.3075681,-0.07301882,0.07752794,-0.04526528,-1.073396,0.3538292,0.04665672,0.8019502,1.363043,0.1960554,0.3467095,1.492822,0.284617,319.7474,86.0903,165.5745,True
3,2.588888,-0.1596275,0.03096049,9.95528E-05,-1.539183,1.553442,-1.876714,0.5101761,1.270135,0.3827271,-1.616434,-0.05504919,12,61.3,-0.1285927,0.0111187,0.140238,-0.2273136,1.341295,0.9311324,0.6652044,1.353578,0.3072023,-0.07498281,0.07744555,-0.02926471,-1.073143,0.3547862,0.04709561,0.8015009,1.363088,0.1959612,0.3465447,1.49361,0.2842453,319.8937,86.10622,165.5461,True
3,2.599999,-0.1638815,0.02451955,-0.006261254,-1.539103,1.553138,-1.874689,0.509525,1.270447,0.382395,-1.616073,0.03350061,12,61.3,-0.1340115,0.0111187,0.1339111,-0.2268342,1.336413,0.9375917,0.6645055,1.353893,0.3070862,-0.0779855,0.08267924,-0.01214986,-1.072553,0.3559136,0.04736379,0.8010537,1.363156,0.1957817,0.3463147,1.494389,0.283823,320.0344,86.16143,165.4797,True
3,2.61111,-0.1649385,0.01916782,-0.01049259,-1.539056,1.552882,-1.872804,0.5088564,1.270829,0.3820951,-1.616239,-0.01555154,12,61.3,-0.1361676,0.01113067,0.1318071,-0.2259309,1.331918,0.9434996,0.6639124,1.354134,0.3067753,-0.07793424,0.09117909,-0.007844171,-1.072424,0.3574021,0.04751772,0.8006295,1.363194,0.1956973,0.3460407,1.495134,0.2834125,320.1206,86.2007,165.3827,True
3,2.622221,-0.1692041,0.01807649,-0.01474628,-1.539244,1.552511,-1.870727,0.5082039,1.271256,0.3819656,-1.615812,0.03927933,12,61.3,-0.1478301,0.01859129,0.1351611,-0.2249018,1.32722,0.9501775,0.6631933,1.354463,0.3065081,-0.09396432,0.1029495,-0.01400569,-1.072718,0.3592595,0.0481148,0.8002522,1.363228,0.1956635,0.3457371,1.495816,0.2830367,320.2114,86.23911,165.3169,True
3,2.633332,-0.1670739,0.01913225,-0.0168832,-1.539377,1.552231,-1.868978,0.5075465,1.271646,0.3816562,-1.615412,0.03547001,12,61.3,-0.152266,0.01543229,0.1224278,-0.2243543,1.324061,0.9549803,0.6626854,1.354649,0.3061676,-0.1004483,0.1062053,-0.02456011,-1.073067,0.360666,0.0485188,0.7997514,1.363358,0.1956143,0.3454039,1.496414,0.2826989,320.3077,86.26897,165.285,True
3,2.644443,-0.1574889,0.01806053,-0.02220732,-1.539466,1.551854,-1.867519,0.5068724,1.272072,0.3814425,-1.614277,0.102467,21.5,61.1,-0.1545511,0.01330999,0.1117893,-0.2240256,1.320667,0.9600645,0.662095,1.354742,0.3056655,-0.1111614,0.09984985,-0.02980891,-1.073542,0.3617169,0.0496336,0.7993865,1.36341,0.1955409,0.3449963,1.49699,0.2824056,320.394,86.29951,165.2369,True
3,2.655554,-0.1532477,0.02551036,-0.02544496,-1.53988,1.551312,-1.865905,0.5061585,1.272489,0.3811133,-1.613068,0.1082746,21.5,61.1,-0.1598224,0.01757886,0.1150654,-0.222963,1.316396,0.9661895,0.6614784,1.354961,0.3053081,-0.1143625,0.09345864,-0.0298101,-1.073851,0.3626553,0.05056544,0.7991531,1.363397,0.1954894,0.3444805,1.497576,0.2821939,320.4569,86.32355,165.1897,True
3,2.666665,-0.1415269,0.02659241,-0.02759358,-1.540111,1.550828,-1.864763,0.505452,1.27293,0.3808432,-1.611369,0.1527183,21.5,61.1,-0.1594695,0.03777079,0.1374743,-0.2207388,1.310441,0.9737955,0.660786,1.355203,0.3048131,-0.1089318,0.1008624,-0.0202378,-1.073664,0.3642409,0.05088395,0.79878,1.363334,0.1953762,0.3438378,1.498133,0.2820549,320.5115,86.32712,165.2084,True
3,2.677776,-0.1383024,0.01705169,-0.02220991,-1.540134,1.55082,-1.863335,0.5048264,1.273277,0.3805704,-1.60865,0.245092,21.5,61.1,-0.1488901,0.06012879,0.1267623,-0.2187734,1.307778,0.9774901,0.6603962,1.354793,0.3039327,-0.1119592,0.1103714,-0.004177449,-1.073189,0.366019,0.05145334,0.7985095,1.363257,0.1953657,0.3430194,1.498636,0.281975,320.5541,86.32755,165.2542,True
3,2.688887,-0.1276349,0.01176568,-0.0189951,-1.540052,1.550752,-1.86227,0.504185,1.273594,0.3802772,-1.606,0.2378039,14.9,50.9,-0.1615358,0.06547179,0.1354631,-0.2170759,1.303451,0.983833,0.6598095,1.354883,0.3035016,-0.1096945,0.1113675,0.008588659,-1.072614,0.3674339,0.05191673,0.7981243,1.363286,0.1952999,0.3419784,1.499078,0.2819352,320.5513,86.31983,165.33,True
3,2.699998,-0.1254917,0.008587386,-0.01685247,-1.540019,1.550606,-1.860975,0.5036651,1.273965,0.3799984,-1.602098,0.3519472,14.9,50.9,-0.163177,0.07817626,0.1696246,-0.2143818,1.292995,0.9960552,0.6593547,1.354835,0.3031487,-0.1095886,0.1187765,0.0171647,-1.0719,0.3690932,0.05216626,0.7975664,1.363375,0.1952314,0.3407161,1.499384,0.2819143,320.4818,86.30135,165.4202,True
3,2.711109,-0.1254922,0.007524218,-0.0168472,-1.540028,1.550387,-1.859524,0.5031031,1.274257,0.3797097,-1.598288,0.3421704,14.9,50.9,-0.1599502,0.08775334,0.1695973,-0.2123147,1.289193,1.001306,0.6588266,1.354855,0.3026984,-0.1042726,0.1198433,0.01604954,-1.071692,0.3706432,0.05238651,0.7971633,1.363391,0.1951387,0.3392679,1.499486,0.2818674,320.3218,86.26059,165.537,True
3,2.72222,-0.1276177,0.00214916,-0.02428132,-1.539627,1.549863,-1.858011,0.5026368,1.274425,0.3793857,-1.593549,0.4270033,14.9,50.9,-0.1420462,0.0813236,0.1554704,-0.2116318,1.286838,1.004514,0.6584556,1.355339,0.3026898,-0.09037361,0.117667,0.02123273,-1.071067,0.3718817,0.05233857,0.7966112,1.363457,0.1950059,0.3376484,1.499404,0.2817521,320.0899,86.23567,165.6342,True
3,2.733331,-0.1223009,0.003155444,-0.03707799,-1.539403,1.549043,-1.856811,0.5022257,1.274616,0.379122,-1.588474,0.4568765,14.9,50.9,-0.120991,0.05573159,0.1412766,-0.2113415,1.282381,1.009323,0.6578895,1.355469,0.3023055,-0.08066784,0.1080083,0.03387307,-1.070156,0.3728778,0.05255509,0.7964318,1.363453,0.1948109,0.3358862,1.499211,0.2815579,319.7838,86.24032,165.6805,True
3,2.744442,-0.1265598,-0.0001021251,-0.04558684,-1.538988,1.54832,-1.855255,0.5018322,1.27491,0.3788192,-1.58323,0.4719315,15.4,50.6,-0.1116268,0.03869757,0.128374,-0.210459,1.275635,1.016957,0.6575794,1.355105,0.3015816,-0.08280438,0.1005529,0.03385593,-1.069743,0.3738073,0.05309038,0.7960685,1.363494,0.1946812,0.3340409,1.49892,0.2812963,319.4545,86.26861,165.6917,True
3,2.755553,-0.1191178,0.004114512,-0.05521477,-1.538835,1.547496,-1.854146,0.5013999,1.275087,0.378567,-1.578116,0.4597959,15.4,50.6,-0.111774,0.03552121,0.1177117,-0.209782,1.272953,1.020702,0.6569108,1.355237,0.3011804,-0.08274747,0.09519619,0.04021425,-1.069118,0.374805,0.05360011,0.7957983,1.363483,0.1945872,0.3321874,1.498508,0.2809791,319.1133,86.33868,165.6562,True
3,2.766664,-0.115945,0.005207479,-0.05731143,-1.539013,1.546435,-1.852952,0.5009356,1.275229,0.3783214,-1.572135,0.538961,15.4,50.6,-0.1118265,0.04512387,0.1124059,-0.2084728,1.270669,1.024376,0.6565427,1.356064,0.3015954,-0.07850438,0.09520394,0.03911214,-1.068565,0.3760357,0.05380597,0.7954341,1.363458,0.1944249,0.330341,1.498052,0.2806468,318.7688,86.42914,165.5793,True
3,2.777775,-0.1116798,0.007347431,-0.05627064,-1.538966,1.545939,-1.851902,0.5004347,1.275321,0.3780868,-1.566692,0.4890565,15.4,50.6,-0.1088304,0.05047631,0.0963917,-0.2075721,1.270719,1.025384,0.656009,1.356192,0.3012915,-0.07959241,0.1080047,0.03599424,-1.068223,0.3778826,0.05381556,0.7951001,1.36344,0.1943076,0.3285073,1.497642,0.2803258,318.4301,86.51286,165.5054,True
3,2.788886,-0.1042399,0.01911161,-0.04995456,-1.539454,1.5455,-1.851022,0.5000159,1.275388,0.3778675,-1.560634,0.5455475,15.4,50.6,-0.09538951,0.05370939,0.06640963,-0.2067918,1.272974,1.023926,0.6555274,1.356102,0.3002365,-0.07646975,0.121895,0.02858312,-1.068019,0.3800754,0.05358893,0.7946883,1.363359,0.1940913,0.3267045,1.497238,0.2800635,318.1491,86.59042,165.4307,True
3,2.799997,-0.08723133,0.05224464,-0.03952795,-1.54068,1.544813,-1.850508,0.4995846,1.275392,0.3776674,-1.554567,0.5458765,15.5,51.8,-0.07301351,0.05791853,0.06610709,-0.2057521,1.2724,1.024623,0.6549307,1.35638,0.3004012,-0.07967789,0.1133803,0.02857879,-1.067518,0.3811316,0.05412742,0.7942079,1.363389,0.193939,0.3249059,1.496823,0.2799056,317.9066,86.64224,165.3918,True
3,2.811108,-0.07663921,0.07574163,-0.02897782,-1.542513,1.544595,-1.850204,0.4991791,1.275425,0.3774393,-1.548557,0.5406703,15.5,51.8,-0.06117023,0.0642589,0.07341407,-0.2044839,1.270049,1.027074,0.6546202,1.356347,0.3000851,-0.07225313,0.08781349,0.02730037,-1.06726,0.3811872,0.05465792,0.7938451,1.363421,0.1936927,0.3231046,1.496355,0.27985,317.6583,86.63763,165.4296,True
3,2.822219,-0.06283066,0.09820031,-0.01845731,-1.544352,1.544218,-1.849975,0.4988784,1.275417,0.3771906,-1.542756,0.5217311,15.5,51.8,-0.03279318,0.03013866,0.05271734,-0.205244,1.268837,1.027909,0.654217,1.356449,0.3000374,-0.05825169,0.07174525,0.04305286,-1.066182,0.3815717,0.0546486,0.7934368,1.363595,0.1934595,0.3212948,1.495828,0.2798993,317.3792,86.60719,165.5058,True
3,2.83333,-0.05114409,0.1142282,-0.01429233,-1.546107,1.543693,-1.849771,0.4985742,1.27544,0.3769007,-1.536785,0.5373593,15.5,51.8,-0.02647838,0.02160539,0.04835086,-0.2051396,1.267074,1.029663,0.6539762,1.356445,0.2997401,-0.03888778,0.07056743,0.06095156,-1.064914,0.382339,0.05403927,0.7931339,1.36362,0.1932375,0.3194539,1.495266,0.280084,317.0811,86.55049,165.6145,True
3,2.844441,-0.04155513,0.1174424,-0.01538067,-1.547353,1.543117,-1.849682,0.4983235,1.275546,0.3765712,-1.530673,0.5500965,18.5,50.3,-0.03924455,0.01098941,0.05280537,-0.2044626,1.261342,1.036432,0.6538335,1.356033,0.2989752,-0.03894128,0.05995408,0.05556633,-1.06452,0.3829172,0.05408614,0.7929202,1.363653,0.1930115,0.3175754,1.494691,0.280411,316.7508,86.42909,165.8158,True
3,2.855552,-0.03515772,0.1131724,-0.01962446,-1.548321,1.542468,-1.849492,0.4980125,1.275652,0.3762834,-1.524507,0.554974,18.5,50.3,-0.042317,0.02163875,0.05925621,-0.203514,1.259533,1.03867,0.6535442,1.356091,0.2986639,-0.03896708,0.05570423,0.0534133,-1.063987,0.3834096,0.05427549,0.7926054,1.363665,0.1928055,0.3156826,1.494081,0.2808472,316.4016,86.30102,166.086,True
3,2.866663,-0.02765917,0.08970255,-0.02908915,-1.548304,1.541813,-1.84936,0.4977327,1.27569,0.3760922,-1.518439,0.5460573,18.5,50.3,-0.04012939,0.02695558,0.06348179,-0.2027667,1.258427,1.040348,0.653118,1.356387,0.2986438,-0.03928892,0.03668747,0.02347081,-1.065072,0.3831414,0.0547988,0.7924649,1.363468,0.1926939,0.3137765,1.493464,0.28133,316.0454,86.18467,166.3955,True
3,2.877774,-0.02333774,0.06519036,-0.03322142,-1.548074,1.541359,-1.849355,0.4973957,1.275808,0.3758717,-1.512184,0.5630393,18.5,50.3,-0.03800035,0.03121439,0.06239404,-0.2020215,1.257018,1.042048,0.6527507,1.356487,0.2983539,-0.04039602,0.03670854,0.01922123,-1.064986,0.3835736,0.0550486,0.7921835,1.363493,0.192534,0.3118679,1.49285,0.2817767,315.6925,86.09376,166.6965,True
3,2.888885,-0.01688047,0.03429413,-0.03625665,-1.547195,1.541087,-1.849404,0.4971413,1.275878,0.3756378,-1.506087,0.5486104,18.5,50.3,-0.04037768,0.03339014,0.04431415,-0.2017558,1.259251,1.040483,0.6524568,1.356599,0.2984059,-0.04369869,0.03890724,0.00861695,-1.06512,0.3843842,0.05523369,0.792093,1.363651,0.1924756,0.309972,1.492206,0.2821249,315.3601,86.03889,166.9321,True
3,2.899997,-0.01153366,0.02686095,-0.0340839,-1.547235,1.540861,-1.849477,0.4969053,1.275859,0.3754692,-1.500088,0.5397363,15.2,60.9,-0.03496936,0.03656285,0.04850066,-0.2012093,1.257486,1.042362,0.6521779,1.356539,0.2981615,-0.03835123,0.04208057,0.01282973,-1.064914,0.3850743,0.05550374,0.7917761,1.36359,0.1922741,0.3081116,1.491469,0.2823207,315.0406,86.02792,167.0801,True
3,2.911108,-0.006218075,0.03220481,-0.03305183,-1.547661,1.540399,-1.849574,0.496637,1.275882,0.375241,-1.49403,0.5453325,15.2,60.9,-0.02658715,0.03334202,0.03985899,-0.2009834,1.257045,1.042802,0.6518553,1.356378,0.2979088,-0.0287178,0.04418129,0.01700164,-1.064556,0.385696,0.05520573,0.7914945,1.36357,0.1921008,0.3062627,1.490664,0.2823242,314.7129,86.02573,167.1751,True
3,2.922219,-0.008372029,0.04504144,-0.02245676,-1.548734,1.540378,-1.849346,0.4963784,1.27582,0.375093,-1.487945,0.5476434,15.2,60.9,-0.02059004,-0.01243763,0.02051376,-0.2025382,1.254836,1.045151,0.6515275,1.356486,0.2977042,-0.01476662,0.04305505,0.02643446,-1.063975,0.3861383,0.05463635,0.7911183,1.363615,0.1919756,0.3044485,1.48975,0.2821161,314.3594,86.0468,167.186,True
3,2.93333,-0.009470496,0.05995297,-0.02253597,-1.549788,1.53983,-1.849202,0.4960811,1.275797,0.3748567,-1.481872,0.5464659,15.2,60.9,-0.01872556,-0.03904976,0.005516339,-0.203979,1.253544,1.046399,0.6514239,1.356369,0.2975094,-0.01060132,0.03883672,0.01679045,-1.06395,0.3863785,0.0543932,0.7908613,1.36361,0.1917913,0.3026519,1.488778,0.2817687,313.9864,86.06803,167.1082,True
3,2.944441,-0.009487946,0.06849886,-0.01831674,-1.55077,1.539525,-1.849071,0.4958441,1.275778,0.3746283,-1.475457,0.5779164,14,69.5,-0.01373914,-0.05498806,-0.01692993,-0.2050868,1.2536,1.046254,0.6511544,1.356037,0.2968862,-0.01284115,0.02930012,0.007168257,-1.06428,0.3863972,0.05465552,0.7907033,1.363621,0.1916177,0.3008397,1.487826,0.2813879,313.6071,86.08463,166.989,True
3,2.955552,-0.008452014,0.08127883,-0.01945157,-1.552029,1.538879,-1.848996,0.4955559,1.275757,0.3744075,-1.46946,0.5393217,14,69.5,-0.006094906,-0.03691629,-0.007414694,-0.2047976,1.253682,1.045866,0.6508853,1.356059,0.2965889,-0.009683334,0.0154685,0.003862761,-1.064364,0.3861482,0.05470479,0.7905365,1.363736,0.1913795,0.2990242,1.486921,0.2810845,313.2256,86.06015,166.9091,True
3,2.966663,-0.008451304,0.08339852,-0.02159316,-1.552893,1.538309,-1.848986,0.4952841,1.275754,0.3742139,-1.463441,0.5417587,14,69.5,-0.01326202,-0.01669854,0.01082239,-0.204102,1.252206,1.047857,0.6506884,1.356503,0.2966518,-0.01297173,0.002727927,-0.004687124,-1.064633,0.385601,0.05512344,0.7903125,1.363781,0.1912191,0.2972078,1.486084,0.2809226,312.862,86.03737,166.8985,True
3,2.977774,-0.000965209,0.07065667,-0.019397,-1.553302,1.538042,-1.849248,0.4950109,1.27601,0.374686,-1.457469,0.5373617,14,69.5,-0.01424768,-0.007122191,0.01510899,-0.2039193,1.251769,1.048555,0.6504143,1.356589,0.2963974,-0.01087638,0.004888404,-0.008961082,-1.064875,0.3859344,0.05491971,0.7900639,1.363788,0.1910307,0.2954223,1.485281,0.2809241,312.5124,85.99347,166.9672,True
3,2.988885,0.0001151807,0.06320385,-0.02042206,-1.553768,1.537662,-1.849266,0.494744,1.276058,0.3745072,-1.451378,0.5481855,14,69.5,-0.0171673,-0.003960988,0.03433594,-0.2033936,1.246955,1.053496,0.6501002,1.356762,0.2961633,-0.01304397,0.01555665,-0.01208268,-1.065142,0.3865452,0.05502011,0.7898525,1.363824,0.1909158,0.293656,1.484505,0.2810972,312.1946,85.93496,167.0961,True
3,2.999996,0.001180214,0.06110337,-0.01615259,-1.554447,1.537386,-1.849175,0.4944127,1.276026,0.3743219,-1.445359,0.5413311,11,64.8,-0.02036989,-0.00503015,0.03333329,-0.2034005,1.243454,1.05709,0.6500051,1.356358,0.2955925,-0.01520848,0.03370597,-0.01517336,-1.065512,0.3880078,0.05477377,0.7898031,1.363844,0.1908219,0.2918931,1.483738,0.2814299,311.8723,85.89781,167.184,True
3,3.011107,0.002250044,0.05789382,-0.01932374,-1.554897,1.537035,-1.849228,0.4940764,1.276015,0.3741868,-1.438741,0.5962512,11,64.8,-0.02160403,-0.01352872,0.02267952,-0.2038554,1.242897,1.057917,0.6496953,1.356424,0.2953193,-0.01520618,0.03583948,-0.01516843,-1.065729,0.3885797,0.05464887,0.78949,1.363808,0.1907096,0.2901041,1.482998,0.281946,311.5421,85.84714,167.2752,True
3,3.022218,0.002246807,0.05896418,-0.01720883,-1.555431,1.536619,-1.849203,0.4937251,1.276043,0.3739822,-1.432118,0.5960672,11,64.8,-0.0269564,-0.008180567,0.01959001,-0.2035507,1.241419,1.05979,0.6494206,1.356462,0.2953587,-0.02054399,0.03691648,-0.01616941,-1.065868,0.3891287,0.05481052,0.7891951,1.363838,0.1905127,0.2883036,1.482195,0.2825415,311.2419,85.71861,167.5929,True
3,3.033329,0.006507433,0.05684574,-0.01719677,-1.555969,1.53632,-1.849332,0.4933562,1.2761,0.3738449,-1.425703,0.5769924,11,64.8,-0.03452754,-0.01134769,0.0122123,-0.2040248,1.242227,1.059695,0.6489191,1.356641,0.2951202,-0.025896,0.02626182,-0.0182981,-1.066137,0.388783,0.05536872,0.7887446,1.363851,0.1903844,0.2864734,1.481302,0.2830985,310.9481,85.56643,167.9748,True
3,3.04444,0.004395298,0.04616667,-0.0214029,-1.556026,1.535864,-1.849271,0.4929841,1.276223,0.3737528,-1.418908,0.6117268,12.2,59.2,-0.04101872,-0.02198056,0.00694774,-0.2047236,1.241375,1.061129,0.6485449,1.357014,0.2952759,-0.02803476,0.01987358,-0.01830929,-1.066331,0.3888278,0.05577165,0.7884611,1.36392,0.1902606,0.2845792,1.480322,0.2835292,310.6299,85.44541,168.2878,True
3,3.055551,0.006544219,0.03657405,-0.02348013,-1.556072,1.535568,-1.84938,0.4925693,1.276368,0.3735876,-1.412136,0.609291,12.2,59.2,-0.04423938,-0.03476385,0.00802073,-0.2055817,1.239223,1.063921,0.6480397,1.357147,0.295023,-0.02486505,0.01775727,-0.02154223,-1.066592,0.3889745,0.05572664,0.7881168,1.364003,0.190134,0.2825859,1.479293,0.2837924,310.2638,85.35573,168.5007,True
3,3.066662,0.001238061,0.02481918,-0.02874325,-1.55586,1.535028,-1.849186,0.49213,1.276563,0.3734105,-1.404893,0.6521949,12.2,59.2,-0.04915814,-0.01347706,0.03268854,-0.2039971,1.232736,1.07084,0.6477168,1.356977,0.2945096,-0.02802445,0.03586143,-0.01928135,-1.066659,0.3902494,0.05554448,0.7877696,1.363995,0.189959,0.2804906,1.478226,0.2838964,309.8567,85.3001,168.607,True
3,3.077773,-0.006196011,0.01093039,-0.03292893,-1.5554,1.534583,-1.848779,0.4917691,1.27686,0.3732843,-1.397838,0.6345687,12.2,59.2,-0.05632615,0.01526239,0.0488072,-0.202739,1.23138,1.073175,0.6472036,1.357192,0.2942271,-0.03222617,0.03903451,-0.01495364,-1.06658,0.3908536,0.0555847,0.7875618,1.364151,0.1897869,0.2783018,1.477136,0.2838658,309.4142,85.28883,168.6346,True
3,3.088884,-0.0136271,-0.004011761,-0.03497222,-1.55475,1.534303,-1.848291,0.4914287,1.277011,0.3731453,-1.390247,0.6837763,12.2,59.2,-0.05585858,0.05035338,0.07549037,-0.2005834,1.22841,1.076586,0.6466942,1.357721,0.2943079,-0.03422796,0.03151703,-0.002189921,-1.066218,0.3909538,0.05595674,0.7872184,1.36418,0.1896331,0.276039,1.476028,0.2837262,308.9603,85.28577,168.6434,True
3,3.099995,-0.01786516,-0.01468258,-0.03811403,-1.554238,1.53382,-1.847984,0.4910511,1.27721,0.3730023,-1.382612,0.6872883,13.4,60.8,-0.06942626,0.0673954,0.09276183,-0.1988295,1.22395,1.082216,0.6463763,1.357603,0.2938623,-0.03619718,0.02930477,0.01380201,-1.065501,0.3912272,0.05636021,0.7868792,1.364178,0.1895726,0.2737224,1.474921,0.283509,308.4763,85.31128,168.6144,True
3,3.111106,-0.01996334,-0.02962987,-0.04335578,-1.553285,1.533453,-1.847738,0.4906465,1.277468,0.3728557,-1.37506,0.679615,13.4,60.8,-0.06511019,0.06736632,0.0969502,-0.197948,1.2208,1.08589,0.6460931,1.357711,0.2935603,-0.03624852,0.03146987,0.008487897,-1.065553,0.3918188,0.05640708,0.7865736,1.36421,0.1894414,0.2714311,1.473808,0.2832518,307.9651,85.35532,168.5564,True
3,3.122217,-0.02100618,-0.03815608,-0.04224902,-1.552376,1.533205,-1.847499,0.4902539,1.277701,0.3727491,-1.367723,0.6599669,13.4,60.8,-0.05233949,0.07054636,0.09468731,-0.1962771,1.216711,1.089932,0.6457632,1.357637,0.2932148,-0.03733929,0.0325495,0.006374053,-1.065552,0.392308,0.05667313,0.7862326,1.364239,0.1893163,0.2692426,1.472648,0.2829829,307.4807,85.39865,168.4972,True
3,3.133328,-0.02419851,-0.03815094,-0.04011251,-1.551908,1.533008,-1.847144,0.4898465,1.277828,0.3726051,-1.360217,0.6755581,13.4,60.8,-0.03249848,0.05029182,0.06986056,-0.1965487,1.217078,1.089319,0.6453644,1.357829,0.2929523,-0.03521964,0.0336133,0.005290831,-1.065511,0.3926823,0.05680043,0.7858725,1.364229,0.1891966,0.2671274,1.471497,0.2827337,307.0406,85.44469,168.4406,True
3,3.144439,-0.03060085,-0.03067892,-0.03375242,-1.551727,1.532936,-1.846605,0.4894539,1.27801,0.37251,-1.352571,0.6882383,13.4,60.8,-0.03700057,0.03540169,0.05496118,-0.1968795,1.216781,1.090101,0.6448993,1.3583,0.2931478,-0.03202429,0.03681138,0.005272846,-1.065427,0.393351,0.05674957,0.7855376,1.36429,0.1890528,0.2650543,1.470369,0.2825109,306.6338,85.49332,168.3934,True
3,3.15555,-0.03169702,-0.0178849,-0.03168546,-1.551894,1.532647,-1.846166,0.4890326,1.278193,0.3723192,-1.344748,0.7041696,9.2,60.5,-0.04276187,0.01096265,0.02834162,-0.1979197,1.21876,1.088874,0.6445167,1.358353,0.2929695,-0.02777765,0.03148357,0.004132136,-1.065446,0.3934739,0.0568465,0.7852992,1.364317,0.188951,0.2630143,1.469236,0.2823233,306.2472,85.51961,168.3667,True
3,3.166661,-0.0317247,-0.00401077,-0.02749333,-1.552318,1.532418,-1.845814,0.4886146,1.278381,0.3721328,-1.336812,0.7144814,9.2,60.5,-0.04167426,0.004563423,0.03046372,-0.1977354,1.215275,1.092583,0.6441435,1.358466,0.292604,-0.03423533,0.03472438,-0.002171549,-1.065601,0.3941347,0.05717754,0.7849787,1.364277,0.188832,0.2609903,1.468084,0.2821857,305.8611,85.49901,168.3825,True
3,3.177772,-0.03067609,0.006688339,-0.01902742,-1.552685,1.532395,-1.845523,0.4881908,1.278552,0.3720973,-1.329135,0.6906263,9.2,60.5,-0.03299746,0.01836897,0.03887758,-0.1968747,1.214295,1.093593,0.6437558,1.358475,0.2923961,-0.03429,0.03475484,-0.00749657,-1.06582,0.394636,0.05731309,0.7846507,1.364515,0.1888068,0.2589503,1.466953,0.2821128,305.4523,85.44434,168.4428,True
3,3.188883,-0.03066899,0.00672834,-0.01156879,-1.55277,1.532487,-1.845184,0.4877945,1.278755,0.371918,-1.32144,0.6925349,9.2,60.5,-0.05191343,0.02903181,0.05514435,-0.1956369,1.211143,1.097681,0.643409,1.358823,0.2925012,-0.02679383,0.02939988,-0.003344997,-1.065765,0.3948127,0.05730803,0.7843503,1.364573,0.1887412,0.2568815,1.465859,0.2821102,305.0403,85.37225,168.5503,True
3,3.199994,-0.03066511,0.006771539,-0.001992113,-1.552741,1.532626,-1.844811,0.4874398,1.278928,0.3718028,-1.313676,0.6988102,11.1,56.8,-0.06034737,0.02585856,0.06269632,-0.1951863,1.208087,1.101794,0.642916,1.359129,0.2926145,-0.02565408,0.02829694,0.004096164,-1.065424,0.3951572,0.05743054,0.7840197,1.364627,0.1886146,0.2548003,1.464773,0.2821806,304.6295,85.28119,168.6801,True
3,3.211105,-0.03384891,0.005751634,0.007605646,-1.552912,1.532986,-1.844368,0.4870435,1.279197,0.3715804,-1.305767,0.7118273,11.1,56.8,-0.06241573,0.03010924,0.0669874,-0.1945152,1.205592,1.105105,0.6425195,1.359262,0.2924781,-0.02670582,0.02615765,0.005159788,-1.065365,0.3953472,0.05761802,0.7837306,1.364635,0.1885703,0.2527271,1.463654,0.2823173,304.2196,85.16373,168.8468,True
3,3.222216,-0.03810398,0.00577587,0.01400309,-1.553068,1.533345,-1.843833,0.4866771,1.279392,0.3713586,-1.297845,0.7130102,11.1,56.8,-0.05387252,0.03114735,0.06794268,-0.1937945,1.202376,1.108475,0.6421827,1.359376,0.2921841,-0.02133975,0.02826364,0.009378125,-1.065076,0.3958009,0.0575589,0.7834283,1.364682,0.1885011,0.2506755,1.462483,0.2824635,303.8001,85.03641,169.0658,True
3,3.233327,-0.04126683,-0.004832296,0.02365329,-1.552879,1.534031,-1.843321,0.4863775,1.279617,0.371176,-1.289874,0.7174278,11.1,56.8,-0.046467,0.03325836,0.0635797,-0.1933023,1.200745,1.110294,0.6419959,1.359426,0.2920554,-0.01492899,0.03036336,0.01038991,-1.064883,0.395926,0.05735037,0.7832346,1.36477,0.1884463,0.2491256,1.461625,0.282587,303.6009,84.70309,169.4106,True
3,3.244438,-0.04552393,-0.004821826,0.02791332,-1.552906,1.534427,-1.842693,0.4860751,1.279848,0.3710172,-1.281876,0.7199135,11.1,56.8,-0.04765705,0.02901004,0.05506478,-0.1930579,1.199628,1.11192,0.6418033,1.359626,0.2921178,-0.01287509,0.01973786,0.003919391,-1.065089,0.3957326,0.05754852,0.7830293,1.364773,0.1883621,0.2481984,1.461307,0.282667,303.7229,84.46727,169.6818,True
3,3.255549,-0.04551816,-0.005891321,0.02685535,-1.552927,1.534701,-1.842261,0.4857047,1.280067,0.3708701,-1.27398,0.7106341,13.1,61.4,-0.05395794,0.02581277,0.06259223,-0.1926126,1.196182,1.116169,0.6415897,1.359566,0.2920356,-0.01079534,0.01230198,-0.0004029507,-1.065253,0.3956136,0.05765238,0.7828119,1.364806,0.1883025,0.2473598,1.461096,0.2826392,303.8853,84.40778,169.8011,True
3,3.26666,-0.0412093,-0.02612058,0.02803201,-1.551994,1.535411,-1.84199,0.4855014,1.28033,0.3708563,-1.265962,0.7217309,13.1,61.4,-0.05494326,0.03326136,0.06687815,-0.1917156,1.193564,1.119356,0.6414411,1.359588,0.2918301,-0.009753458,0.001656347,-0.001534442,-1.06529,0.3952696,0.05794719,0.7826478,1.364824,0.1882885,0.2466126,1.460918,0.2825463,304.0547,84.46161,169.819,True
3,3.277771,-0.04221968,-0.05062208,0.02816755,-1.550785,1.536115,-1.84147,0.4852198,1.28051,0.3707943,-1.258227,0.6957957,13.1,61.4,-0.05184605,0.03006639,0.06042027,-0.1914696,1.19303,1.12034,0.6412402,1.3595,0.2917583,-0.007655792,0.0005973298,-0.004767935,-1.065585,0.3951383,0.05802495,0.782402,1.364797,0.1882613,0.2458553,1.460748,0.2824502,304.2256,84.52925,169.7985,True
3,3.288882,-0.04537427,-0.0654956,0.03677275,-1.549833,1.537076,-1.840903,0.4850638,1.280551,0.3706801,-1.250457,0.6991528,13.1,61.4,-0.04586605,0.01305376,0.03366096,-0.1922531,1.195156,1.118508,0.6410573,1.359397,0.2915761,-0.006619041,-0.003644624,-0.007991222,-1.065719,0.3949838,0.05800312,0.7821869,1.36488,0.188252,0.245096,1.460563,0.2823939,304.4108,84.51262,169.8227,True
3,3.299993,-0.04858715,-0.05805427,0.03673134,-1.549461,1.53754,-1.840264,0.4848544,1.280676,0.3704243,-1.242263,0.7379877,8.3,46.1,-0.04150151,0.01728974,0.04000185,-0.1916448,1.192756,1.121147,0.6408745,1.359566,0.2915933,-0.005539825,-0.003654115,-0.006940486,-1.065821,0.3949134,0.05803081,0.782026,1.364833,0.1881642,0.244463,1.460349,0.2823583,304.6307,84.43539,169.896,True
3,3.311104,-0.04762987,-0.007930633,0.04605038,-1.551204,1.537886,-1.839794,0.4847273,1.280656,0.3703477,-1.234221,0.7236934,8.3,46.1,-0.03405256,0.02046255,0.03882992,-0.1913076,1.192106,1.121948,0.6407946,1.35953,0.2915518,-0.003382473,-0.01112732,-0.003810417,-1.065817,0.3945301,0.05819513,0.7819391,1.364739,0.1881478,0.243937,1.460094,0.2822973,304.8945,84.35946,169.987,True
3,3.322215,-0.04665517,0.03149849,0.04902994,-1.552757,1.538049,-1.839284,0.4846275,1.280599,0.370266,-1.226204,0.7215605,8.3,46.1,-0.01908182,0.02043661,0.04291699,-0.1903755,1.188346,1.12539,0.6408389,1.359112,0.2910678,-0.002313245,-0.01220115,-0.002758071,-1.065791,0.3943179,0.05838874,0.7817787,1.364733,0.1881199,0.2435618,1.459828,0.2822008,305.1844,84.30103,170.0969,True
3,3.333326,-0.04775113,0.04536304,0.05215109,-1.55377,1.538431,-1.838719,0.4845423,1.280614,0.3702347,-1.218415,0.7006721,8.3,46.1,-0.008447288,0.004419092,0.04485978,-0.1906813,1.185144,1.128373,0.6409079,1.359156,0.2910058,0.00617405,-0.01325359,-0.006048717,-1.065971,0.3941743,0.05808541,0.7817298,1.364691,0.1881084,0.2431176,1.459591,0.2820983,305.4334,84.26263,170.1551,True
3,3.344437,-0.04988214,0.04430664,0.05535472,-1.554272,1.539046,-1.838051,0.4845079,1.280575,0.370302,-1.210433,0.7185813,8.3,46.1,-0.007527569,-0.009435302,0.03628162,-0.191501,1.183697,1.129728,0.6408295,1.35941,0.2914557,0.010443,-0.0143253,-0.00503239,-1.065979,0.394004,0.05793627,0.7816201,1.364722,0.1881461,0.2426573,1.459382,0.2821203,305.6574,84.04192,170.2878,True
3,3.355548,-0.05412542,0.03576313,0.05327309,-1.554516,1.539538,-1.837309,0.4844646,1.280618,0.3702817,-1.202396,0.7234133,8.9,51.3,0.0007836651,-0.02115664,0.02335175,-0.1922541,1.183499,1.12966,0.6407998,1.359437,0.2914798,0.007214731,-0.01856943,-0.008213204,-1.066135,0.393569,0.05812695,0.7813871,1.364725,0.1881256,0.2421811,1.459176,0.2822597,305.8811,83.59904,170.5776,True
3,3.366659,-0.05728502,0.01759634,0.04484638,-1.554084,1.539828,-1.836583,0.4844168,1.280796,0.3703008,-1.194314,0.727532,8.9,51.3,0.003720444,-0.02218644,0.005195532,-0.1925785,1.18584,1.127303,0.6407831,1.359543,0.291642,0.007149955,-0.02492998,-0.01357244,-1.066504,0.3930787,0.05836264,0.7813084,1.364735,0.188143,0.2417346,1.458963,0.2824269,306.1136,83.08578,170.9216,True
3,3.37777,-0.05936933,-0.008036979,0.03326381,-1.553181,1.540012,-1.835852,0.4843244,1.281027,0.3703575,-1.18639,0.7131794,8.9,51.3,0.01014551,-0.02327258,0.008294178,-0.1927703,1.184757,1.128187,0.640686,1.359541,0.2917607,0.0103645,-0.0334695,-0.0115204,-1.066592,0.3923059,0.05842682,0.7812361,1.364683,0.1881304,0.2414376,1.458736,0.2825425,306.2892,82.53563,171.2716,True
3,3.388881,-0.05720554,-0.02832916,0.02272069,-1.552252,1.540213,-1.835215,0.4842911,1.281096,0.3704078,-1.178688,0.6930864,8.9,51.3,0.01879352,-0.02011618,0.01670396,-0.1926712,1.18224,1.130161,0.6406693,1.359571,0.2918134,0.01566994,-0.03240632,-0.01370144,-1.066853,0.391792,0.05832456,0.7811087,1.364667,0.1881061,0.2410176,1.458521,0.2825339,306.5429,82.24357,171.4486,True
3,3.399992,-0.04972961,-0.03901006,0.01424753,-1.551494,1.540275,-1.834918,0.4843211,1.281299,0.3704581,-1.171079,0.6848022,11.9,57.7,0.02726759,-0.02652795,0.01443886,-0.1931367,1.181303,1.130472,0.6408092,1.359842,0.2920105,0.02107192,-0.03991017,-0.005271267,-1.066636,0.3910658,0.05838714,0.7810087,1.364694,0.1881511,0.2405895,1.458311,0.2824207,306.7062,81.9201,171.6384,True
3,3.411103,-0.04441522,-0.03686615,0.01423309,-1.551272,1.540526,-1.834466,0.4843647,1.281546,0.3704808,-1.163647,0.6686916,11.9,57.7,0.02836872,-0.03399939,0.0186645,-0.1936464,1.178774,1.132667,0.6409272,1.359905,0.2920547,0.02643671,-0.04527415,-0.001095604,-1.066589,0.390106,0.05841431,0.7810323,1.364724,0.1881394,0.2404516,1.458281,0.2822567,306.779,82.23521,171.2373,True
3,3.422215,-0.0380254,-0.03578191,0.01528585,-1.550931,1.540816,-1.834217,0.4844116,1.281828,0.3705766,-1.156533,0.6399006,11.9,57.7,0.02630001,-0.03293923,0.02295624,-0.1938329,1.17609,1.135073,0.6410612,1.360037,0.2921033,0.02320267,-0.04844591,-0.004272569,-1.066756,0.389475,0.05861511,0.7810007,1.364689,0.1881301,0.2403269,1.458302,0.2816086,306.6699,82.98296,170.7103,True
3,3.433326,-0.0412146,-0.04003935,0.01744662,-1.55045,1.541282,-1.8336,0.4846045,1.281999,0.3706167,-1.148991,0.6793021,11.9,57.7,0.02337997,-0.01805419,0.04006497,-0.1932826,1.172639,1.138296,0.6411839,1.36015,0.2921629,0.01670126,-0.06543477,-0.01388472,-1.06731,0.3880208,0.05928276,0.7811807,1.364702,0.188117,0.2399015,1.458172,0.2813247,307.1385,83.87071,170.0943,True
3,3.444437,-0.0411901,-0.04962148,0.0196292,-1.549628,1.541783,-1.833173,0.4847196,1.282306,0.3707228,-1.141799,0.6468396,11.9,57.7,0.02494597,-0.00107675,0.07310279,-0.1920421,1.165266,1.145198,0.6413565,1.360271,0.2920694,0.01449705,-0.0675243,-0.02026172,-1.067719,0.3871999,0.05963616,0.7812203,1.364682,0.1880903,0.2397099,1.45814,0.2808821,306.8838,84.37562,169.6573,True
3,3.455548,-0.04331067,-0.05708766,0.01860779,-1.548863,1.542192,-1.832546,0.4848772,1.282558,0.3707864,-1.134128,0.6910298,8,66.2,0.01966522,0.001060307,0.07636837,-0.1917471,1.161689,1.148728,0.6415402,1.360218,0.2921014,0.01878033,-0.06327047,-0.01921483,-1.067841,0.3866391,0.05941166,0.7813342,1.364776,0.188103,0.2394818,1.458047,0.2805292,306.9536,84.88662,169.2233,True
3,3.466659,-0.04541587,-0.07099251,0.01015963,-1.547531,1.542356,-1.831959,0.4850644,1.282818,0.3709106,-1.127009,0.6401625,8,66.2,0.01458429,-0.01174854,0.09665613,-0.1915484,1.15213,1.15814,0.6417401,1.360295,0.292145,0.02308898,-0.06009813,-0.01498198,-1.067898,0.3860368,0.05930061,0.7814205,1.36475,0.1882203,0.2394262,1.457973,0.2802962,306.9879,85.15433,168.9809,True
3,3.47777,-0.05177261,-0.09237432,-0.0003738664,-1.545725,1.54247,-1.831095,0.4851807,1.283119,0.371083,-1.119615,0.6659206,8,66.2,0.0112721,-0.01064285,0.0882224,-0.1909242,1.146439,1.163719,0.6420778,1.359909,0.2918608,0.01776109,-0.05582519,-0.0159615,-1.06804,0.3855369,0.05942737,0.7814656,1.364748,0.1883183,0.2391054,1.457287,0.2800006,307.6047,86.00559,168.3187,True
3,3.488881,-0.05916652,-0.1200989,-0.002348006,-1.543595,1.542985,-1.830227,0.4851756,1.283477,0.3711913,-1.112458,0.6439922,8,66.2,0.01015707,-0.01276431,0.08503741,-0.1907931,1.141933,1.168062,0.6422703,1.35994,0.2919476,0.01345453,-0.05366672,-0.02016451,-1.068413,0.3849892,0.05973817,0.7815796,1.364666,0.1884665,0.2391062,1.457165,0.2793345,307.7657,87.17923,167.1572,True
3,3.499992,-0.06232937,-0.1339571,-0.002265044,-1.541723,1.543538,-1.829473,0.4852954,1.283803,0.3712976,-1.105045,0.6675529,8,66.2,0.01531046,-0.01702364,0.07320839,-0.1912075,1.141324,1.168307,0.6423011,1.360233,0.2924321,0.01328735,-0.04612105,-0.03716389,-1.069389,0.3847064,0.05964868,0.7816397,1.364583,0.1886163,0.2391059,1.457,0.2788474,307.9242,87.9739,166.4075,True
