loc,t,aDotUA,bDotUA,gDotUA,aUA,bUA,gUA,xUA,yUA,zUA,qE,qDotE,emgA,emgB,aDotSH,bDotSH,gDotSH,aSH,bSH,gSH,xSH,ySH,zSH,aDotUB,bDotUB,gDotUB,aUB,bUB,gUB,xUB,yUB,zUB,xHand,yHand,zHand,aHand,bHand,gHand,enable
0,0,-0.1235259,-0.5380125,-0.07722913,-1.346348,-4.310497,-3.110104,0.6982909,1.11146,0.4498188,-1.487382,-0.04221544,0.5,0.3,-0.1849261,0.1616317,0.08769183,-0.7490332,-4.30145,-0.07611953,0.7465609,1.287107,0.3710666,-0.1707699,0.09633888,-0.04851376,-0.8986262,0.250086,-0.09681816,0.8502725,1.363404,0.2234607,0.4818968,0.9784076,0.2876091,298.5916,234.5245,1.24554,True
0,0.01111111,-0.1065096,-0.5198398,-0.06985616,-1.345685,-4.305108,-3.110705,0.6975234,1.111811,0.4496093,-1.487606,-0.02007213,0.5,0.3,-0.1942729,0.1616016,0.1069952,-0.747234,-4.298493,-0.07576107,0.7462372,1.287369,0.3709013,-0.1676322,0.1038134,-0.05385229,-0.899586,0.2517304,-0.09597953,0.8504791,1.363346,0.2235603,0.4818214,0.978446,0.2866944,298.6894,233.8916,1.645098,True
0,0.02222222,-0.08948211,-0.508093,-0.06991033,-1.344762,-4.29969,-3.111469,0.6968006,1.112029,0.4493651,-1.487517,0.008197822,0.2,0.3,-0.1983151,0.1487618,0.1250929,-0.7456318,-4.296598,-0.07529236,0.7459418,1.287852,0.3703117,-0.1676278,0.1091399,-0.05382975,-0.9003162,0.2534425,-0.09518484,0.8505838,1.363298,0.2235849,0.4817894,0.9784801,0.2856743,298.7738,233.4953,1.839022,True
0,0.03333334,-0.08203331,-0.5027588,-0.07207081,-1.343655,-4.294199,-3.112038,0.6960185,1.11226,0.4490683,-1.488019,-0.04607365,0.2,0.3,-0.1886246,0.1391037,0.135588,-0.7438614,-4.294585,-0.07500926,0.7456782,1.28803,0.370079,-0.1665211,0.1037953,-0.0485425,-0.9008393,0.2546986,-0.09398908,0.8508329,1.36318,0.2234507,0.4818324,0.9785485,0.2845334,298.868,233.157,1.928846,True
0,0.04444445,-0.07564533,-0.5070593,-0.08163709,-1.342242,-4.288176,-3.112664,0.6953974,1.112443,0.4488504,-1.488115,-0.00849078,0.2,0.3,-0.1673865,0.1273236,0.1331435,-0.7424999,-4.292906,-0.07513656,0.7454505,1.288156,0.3698561,-0.1621582,0.09415916,-0.03797486,-0.9009708,0.2556087,-0.09288839,0.8509313,1.363121,0.2233887,0.4819769,0.9786683,0.2832912,298.9195,232.8009,1.993021,True
0,0.05555556,-0.0745777,-0.5060124,-0.08590963,-1.340922,-4.28242,-3.113195,0.6946878,1.112574,0.4485881,-1.48778,0.03064187,0.2,0.3,-0.161298,0.1039308,0.1148542,-0.7421356,-4.292308,-0.0740191,0.7452967,1.288219,0.3699183,-0.1546833,0.08562103,-0.03594948,-0.9012744,0.2564324,-0.0920013,0.8509343,1.36308,0.2234349,0.4821925,0.9787855,0.2819622,298.9126,232.3776,2.095127,True
0,0.06666667,-0.07139374,-0.5007285,-0.09445935,-1.339484,-4.276791,-3.11375,0.6940846,1.112551,0.4484365,-1.48757,0.01884914,0.2,0.4,-0.1658472,0.08271721,0.09779374,-0.7415386,-4.291622,-0.07248592,0.7450683,1.288345,0.3698187,-0.1407991,0.07600436,-0.03187232,-0.9015296,0.2570021,-0.0912929,0.8509895,1.36301,0.2234104,0.4824534,0.9788571,0.2805675,298.8976,231.894,2.232823,True
0,0.07777778,-0.07248935,-0.4847582,-0.09346011,-1.338384,-4.271627,-3.114049,0.6934549,1.11269,0.4482071,-1.487435,0.01220132,0.2,0.4,-0.1575754,0.07955502,0.07849492,-0.7414081,-4.290555,-0.07182359,0.7449913,1.287883,0.3699253,-0.1354123,0.07704034,-0.02553111,-0.9016957,0.2582192,-0.09060713,0.8509907,1.362961,0.2233846,0.4828165,0.9788619,0.2791576,298.8928,231.3643,2.392212,True
0,0.08888889,-0.06935482,-0.4495756,-0.08936437,-1.337402,-4.267738,-3.114344,0.6929567,1.112875,0.4479544,-1.487409,0.002178312,0.2,0.4,-0.1479813,0.08484268,0.0773405,-0.740468,-4.288945,-0.07172772,0.74483,1.287828,0.3696184,-0.1268902,0.07277867,-0.02563588,-0.9020622,0.2591646,-0.09008915,0.8510226,1.362926,0.2234073,0.4832018,0.9787707,0.277748,298.8996,230.8386,2.524203,True
0,0.1,-0.06091606,-0.4058678,-0.08317038,-1.336612,-4.264414,-3.11463,0.6926031,1.113095,0.4477463,-1.487206,0.01856801,0.2,0.4,-0.136206,0.09544843,0.07828636,-0.7397398,-4.286809,-0.07231042,0.7447042,1.287905,0.3694079,-0.1194593,0.07064441,-0.02785477,-0.9025389,0.2599442,-0.08945665,0.8511335,1.362957,0.2233531,0.4836105,0.9785773,0.2764064,298.9309,230.3544,2.610327,True
0,0.1111111,-0.05563662,-0.3781356,-0.077976,-1.335787,-4.261015,-3.115016,0.692165,1.113303,0.4475839,-1.487429,-0.02063101,0.2,0.4,-0.1265168,0.09007639,0.08773056,-0.738559,-4.285024,-0.0725011,0.7445635,1.28811,0.3694386,-0.1173748,0.06746835,-0.0321495,-0.9030854,0.2607654,-0.08872747,0.8512132,1.362918,0.2233164,0.4839736,0.978331,0.2751582,299.0459,229.9887,2.612668,True
0,0.1222222,-0.04714316,-0.3610365,-0.06739895,-1.335332,-4.257332,-3.115629,0.6916484,1.113433,0.4474554,-1.487526,-0.008674568,0.2,0.5,-0.1169202,0.07723491,0.09182085,-0.7374453,-4.284496,-0.07188404,0.7445344,1.288136,0.3693352,-0.1099485,0.05788033,-0.03439397,-0.9035296,0.2610708,-0.08795409,0.8513415,1.362873,0.223284,0.4842873,0.9781184,0.2740759,299.1922,229.7064,2.586108,True
0,0.1333333,-0.05141676,-0.3535718,-0.06423758,-1.334598,-4.253571,-3.115803,0.69122,1.113604,0.4473157,-1.48755,-0.002230334,0.2,0.5,-0.1125884,0.07081904,0.09920009,-0.7361728,-4.283184,-0.07170641,0.7444216,1.28826,0.3692865,-0.1025085,0.05574521,-0.03554409,-0.903984,0.2616771,-0.08739562,0.8514206,1.362821,0.2232783,0.4845613,0.9780012,0.2732106,299.3136,229.4676,2.584336,True
0,0.1444445,-0.05358343,-0.3354821,-0.06537888,-1.333773,-4.250177,-3.115876,0.6908882,1.113648,0.4471934,-1.487642,-0.008383837,0.2,0.5,-0.1019519,0.05372252,0.1021973,-0.7349142,-4.283102,-0.07099881,0.7442979,1.288374,0.3691244,-0.1013798,0.05252136,-0.02917728,-0.9041262,0.262261,-0.08667311,0.8514865,1.362786,0.2232103,0.4847332,0.9779773,0.27253,299.3789,229.2351,2.638794,True
0,0.1555556,-0.05683105,-0.3045898,-0.06338533,-1.333063,-4.247677,-3.11579,0.6905824,1.113788,0.4470503,-1.48713,0.04678021,0.2,0.5,-0.08934689,0.04840485,0.08922429,-0.7345414,-4.28243,-0.07097138,0.7441031,1.288461,0.3689075,-0.09597704,0.04396662,-0.02073932,-0.9040005,0.262699,-0.0859695,0.8515357,1.362704,0.2230906,0.4848064,0.9780144,0.2719779,299.3867,229.0354,2.729079,True
0,0.1666667,-0.0569234,-0.2576891,-0.05614038,-1.332675,-4.246254,-3.115392,0.6905086,1.113933,0.4469016,-1.487025,0.009162859,0.2,0.3,-0.08654529,0.04105199,0.06039258,-0.7349195,-4.281998,-0.07035326,0.7440028,1.288464,0.3687432,-0.0885115,0.03650427,-0.01978323,-0.9042263,0.2629662,-0.08543794,0.8515728,1.36264,0.2229857,0.4848458,0.9780905,0.2714986,299.3756,228.82,2.883729,True
0,0.1777778,-0.05276545,-0.2011576,-0.04255135,-1.332635,-4.245841,-3.115026,0.6904115,1.114042,0.4467814,-1.487061,-0.003274481,0.2,0.3,-0.08355115,0.04536994,0.04439469,-0.7348956,-4.280816,-0.07018495,0.7438673,1.288486,0.3687961,-0.08637286,0.03010242,-0.01770386,-0.9043967,0.2631426,-0.08451755,0.8515338,1.362563,0.2229373,0.484887,0.9781844,0.2710499,299.3567,228.6024,3.039704,True
0,0.1888889,-0.04222175,-0.1424972,-0.03003554,-1.332724,-4.245894,-3.114823,0.6904383,1.114075,0.4466653,-1.487001,0.005507457,0.2,0.3,-0.07719256,0.048564,0.04112608,-0.7346197,-4.279668,-0.0703458,0.7438042,1.288484,0.368597,-0.08418003,0.02475079,-0.01135613,-0.9043189,0.2633375,-0.08378225,0.8515817,1.362446,0.2227998,0.4849358,0.9783083,0.2706268,299.3618,228.4474,3.118828,True
0,0.2,-0.03059054,-0.09554878,-0.0163978,-1.333028,-4.245947,-3.114784,0.6903738,1.114109,0.4465818,-1.487252,-0.02305624,0.2,0.3,-0.06328936,0.03997651,0.04837837,-0.7337722,-4.279166,-0.07032849,0.7438803,1.288561,0.3685665,-0.08318505,0.02797545,-0.01774587,-0.9047983,0.2638926,-0.08314389,0.851758,1.362426,0.2227049,0.4850062,0.9784912,0.2702589,299.3696,228.369,3.122221,True
0,0.2111111,-0.02742514,-0.07953072,-0.01007579,-1.333157,-4.245535,-3.114641,0.6902589,1.114199,0.4465368,-1.487524,-0.02463502,0.2,0.3,-0.05150636,0.03247333,0.05565989,-0.732919,-4.278517,-0.07057084,0.743881,1.288676,0.3685493,-0.08112615,0.02800389,-0.02415984,-0.9053304,0.2642868,-0.08246399,0.8518878,1.36238,0.2225752,0.4850337,0.9787297,0.2699646,299.3406,228.338,3.09026,True
0,0.2222222,-0.02531669,-0.06778548,-0.002672049,-1.333358,-4.24488,-3.114528,0.6900923,1.114331,0.4463625,-1.487655,-0.01184162,0.2,0.6,-0.04409958,0.0132696,0.05656101,-0.7322398,-4.27915,-0.06987043,0.7439195,1.288747,0.3683403,-0.07582738,0.02161701,-0.02637265,-0.9057049,0.2642715,-0.0817918,0.8519562,1.362339,0.2224648,0.4850225,0.9789933,0.2697736,299.2668,228.3299,3.072208,True
0,0.2333333,-0.02318664,-0.06777941,-0.002673138,-1.333274,-4.244125,-3.114517,0.6899846,1.11436,0.4462852,-1.487385,0.02469243,0.2,0.6,-0.03678629,0.003704587,0.04791534,-0.7319512,-4.279227,-0.06960305,0.7439202,1.288767,0.3682373,-0.07046644,0.01520376,-0.02219571,-0.9057986,0.26423,-0.08110284,0.8520348,1.362318,0.2224164,0.4849486,0.9792323,0.2696718,299.1894,228.339,3.066833,True
0,0.2444444,-0.02108576,-0.05179967,-0.001683273,-1.333241,-4.243849,-3.114392,0.6900252,1.114339,0.4461935,-1.487273,0.01000422,0.2,0.6,-0.0358041,-0.005876295,0.04361318,-0.7314846,-4.279844,-0.06880383,0.7440619,1.28882,0.368082,-0.05875861,0.003476325,-0.02236691,-0.9060047,0.2637507,-0.08054464,0.8520861,1.362256,0.2222998,0.4848182,0.9794216,0.2696177,299.1554,228.3577,3.088196,True
0,0.2555556,-0.01896878,-0.04542996,-0.004910897,-1.333043,-4.243361,-3.114336,0.690092,1.114365,0.446085,-1.487303,-0.002905821,0.2,0.6,-0.03266364,-0.004793353,0.03930901,-0.7313003,-4.279573,-0.0687005,0.7440659,1.288872,0.3680289,-0.05238266,-0.002907656,-0.02352429,-0.9063025,0.2635937,-0.0800501,0.8522229,1.362294,0.2222359,0.4846536,0.979561,0.2695459,299.1493,228.3722,3.140416,True
0,0.2666667,-0.01579827,-0.0315764,-0.004978531,-1.332942,-4.243427,-3.114263,0.6900899,1.114424,0.4459939,-1.487271,0.00299378,0.2,0.6,-0.02405372,-0.001655159,0.04560771,-0.7304875,-4.279438,-0.06878971,0.7440929,1.28896,0.3678806,-0.04919976,-0.00503622,-0.02463169,-0.9066061,0.2634003,-0.07949243,0.8522708,1.362236,0.2221296,0.4845549,0.9796504,0.2694611,299.1256,228.3425,3.213458,True
0,0.2777778,-0.01475028,-0.02412254,-0.003947663,-1.332939,-4.243237,-3.11412,0.6901293,1.114471,0.4458926,-1.487252,0.001695084,0.2,0.4,-0.02409534,0.0005049175,0.04241866,-0.7301834,-4.278931,-0.06874045,0.7441245,1.289032,0.3677881,-0.04391247,-0.01035256,-0.02790304,-0.9069651,0.2630122,-0.0789052,0.8523251,1.36221,0.22205,0.4845747,0.9796887,0.2693751,299.101,228.325,3.256129,True
0,0.2888889,-0.01368791,-0.02308741,-0.01034051,-1.332628,-4.242971,-3.114051,0.6901133,1.11461,0.4459095,-1.487329,-0.007051784,0.2,0.4,-0.01436446,-0.0006262362,0.05401387,-0.729174,-4.278712,-0.06899744,0.7442377,1.289103,0.3677061,-0.03118321,-0.02418879,-0.03235514,-0.9074295,0.2620957,-0.07843889,0.8523885,1.362127,0.2218728,0.4846875,0.9796758,0.2692674,299.114,228.3011,3.272485,True
0,0.3,-0.01365353,-0.04019249,-0.02304916,-1.33188,-4.241917,-3.114225,0.6901654,1.114699,0.4459012,-1.487174,0.01414948,0.2,0.4,-0.001620667,-0.01132773,0.05381344,-0.7284992,-4.27946,-0.06879691,0.7444037,1.289132,0.3676617,-0.02801307,-0.03270648,-0.03348944,-0.9077784,0.2613373,-0.07764739,0.8524665,1.362097,0.2217591,0.4848081,0.9796273,0.269131,299.1574,228.2926,3.240673,True
0,0.3111111,-0.01682181,-0.05622144,-0.03255823,-1.33126,-4.240786,-3.114182,0.6901292,1.114819,0.4458826,-1.487184,-0.001074767,0.2,0.4,0.007875824,-0.02198971,0.04939818,-0.7279841,-4.28013,-0.06869411,0.7445095,1.289221,0.3676102,-0.02593191,-0.03587651,-0.03778396,-0.9082796,0.2608629,-0.07708839,0.8525566,1.362074,0.2216015,0.4849295,0.979575,0.2689805,299.2149,228.2779,3.203037,True
0,0.3222222,-0.01892511,-0.07010945,-0.04101738,-1.330467,-4.239616,-3.114225,0.69002,1.114951,0.4458373,-1.487221,-0.00334234,0.3,0.5,0.008906983,-0.03585234,0.05146711,-0.7272619,-4.281417,-0.06764109,0.744657,1.289169,0.3676937,-0.01317181,-0.04973094,-0.03904078,-0.9086865,0.2595216,-0.07652993,0.8526435,1.362037,0.2214086,0.4850625,0.9795532,0.26885,299.2663,228.1912,3.224719,True
0,0.3333333,-0.01891753,-0.07547325,-0.04951476,-1.329615,-4.238627,-3.11425,0.6900401,1.115048,0.4457793,-1.48697,0.02298135,0.3,0.5,0.01214754,-0.04866291,0.05883357,-0.7263505,-4.282526,-0.06693536,0.7447696,1.289292,0.3676066,-0.002524834,-0.0539977,-0.03916693,-0.9090237,0.258621,-0.07626095,0.8527124,1.361979,0.2212005,0.485235,0.9795595,0.2687413,299.292,228.0429,3.322697,True
0,0.3444445,-0.02213299,-0.06911021,-0.05166997,-1.329036,-4.237917,-3.113945,0.6900116,1.115132,0.445811,-1.487012,-0.004033342,0.3,0.5,0.01434714,-0.05295891,0.06518777,-0.7252815,-4.283582,-0.06640033,0.7449431,1.289452,0.3674982,-0.0004257783,-0.06357925,-0.04029276,-0.9093928,0.25737,-0.07536799,0.8527865,1.361985,0.2209737,0.485377,0.9795834,0.2686083,299.3202,227.9095,3.405832,True
0,0.3555556,-0.02964939,-0.04034834,-0.04859971,-1.328696,-4.238477,-3.113123,0.690155,1.115276,0.4458296,-1.487043,-0.002795963,0.3,0.5,0.02733239,-0.03706363,0.07681444,-0.7238626,-4.283097,-0.06749701,0.7451673,1.289603,0.3674064,0.00168699,-0.06570264,-0.04138743,-0.9098152,0.2564524,-0.07478236,0.8529431,1.361992,0.2208364,0.4854701,0.9796267,0.2684394,299.3415,227.7674,3.498752,True
0,0.3666667,-0.03289844,-0.01154721,-0.04021281,-1.328514,-4.23938,-3.112437,0.6903354,1.115371,0.4458256,-1.486785,0.02359437,0.3,0.5,0.03711509,-0.01794682,0.08740834,-0.7227068,-4.282003,-0.06897587,0.7454132,1.289749,0.3673706,0.007019736,-0.07103792,-0.04040022,-0.9101555,0.2551865,-0.07425532,0.8530591,1.361969,0.220624,0.4855682,0.9796953,0.2682694,299.3432,227.6197,3.589465,True
0,0.3777778,-0.03506235,0.004417985,-0.04135036,-1.328039,-4.239872,-3.111824,0.6905876,1.115485,0.4458535,-1.486569,0.01958218,0.2,0.3,0.04685764,-0.01376169,0.09902313,-0.7211909,-4.281918,-0.06975085,0.7457495,1.289813,0.3673024,0.01333818,-0.0891268,-0.04586463,-0.9106274,0.253138,-0.07332428,0.853218,1.361986,0.22034,0.4856555,0.9797993,0.26813,299.3465,227.5231,3.608974,True
0,0.3888889,-0.05533001,0.01821557,-0.04460848,-1.327453,-4.240595,-3.110362,0.6908833,1.115573,0.4458427,-1.486804,-0.02163135,0.2,0.3,0.05439498,-0.01700182,0.1063718,-0.7197885,-4.282083,-0.0704257,0.7461038,1.289858,0.3671784,0.0294538,-0.1041076,-0.03224799,-0.9104565,0.2511537,-0.07304998,0.8533449,1.362016,0.2200813,0.4857152,0.9799828,0.2680772,299.3535,227.5036,3.578337,True
0,0.4,-0.06493078,0.02243063,-0.05102018,-1.326652,-4.240982,-3.109199,0.6911926,1.115769,0.4457989,-1.486838,-0.002883605,0.2,0.3,0.0704456,-0.03840246,0.1178121,-0.7179877,-4.28364,-0.07049334,0.7465367,1.289912,0.3671327,0.04354069,-0.1202074,-0.007960346,-0.9095622,0.2488602,-0.07256821,0.8532493,1.362013,0.2197399,0.4857427,0.9802573,0.2681385,299.324,227.4986,3.596718,True
0,0.4111111,-0.08837514,0.02555033,-0.05848874,-1.325762,-4.241429,-3.107326,0.6915573,1.115854,0.4458005,-1.486091,0.06833597,0.2,0.3,0.09272908,-0.0715016,0.1195431,-0.7163834,-4.286206,-0.07032343,0.7470264,1.289956,0.3671188,0.05212262,-0.1308906,-0.001702799,-0.9092612,0.2466744,-0.07212053,0.8533388,1.362003,0.2194765,0.4857797,0.9806015,0.2683094,299.2601,227.4509,3.712418,True
0,0.4222222,-0.1139864,0.04787881,-0.05752544,-1.325161,-4.242707,-3.104937,0.692022,1.115932,0.4458239,-1.486307,-0.02026471,0.6,0.4,0.1279221,-0.08763365,0.1264966,-0.7146044,-4.288444,-0.07118043,0.7476099,1.290021,0.3671458,0.07331534,-0.1393927,-0.01154247,-0.9095723,0.2442571,-0.07198738,0.8534454,1.361954,0.2191553,0.4857894,0.9809996,0.268526,299.2066,227.4077,3.862659,True
0,0.4333333,-0.1428189,0.08618215,-0.05556582,-1.324718,-4.244899,-3.101928,0.6924912,1.116073,0.445873,-1.485755,0.05070711,0.6,0.4,0.1609741,-0.07495189,0.1250658,-0.7131253,-4.28874,-0.07385851,0.7481556,1.290083,0.3671474,0.07651643,-0.1489906,-0.0105546,-0.9095542,0.2417417,-0.07137458,0.8534825,1.361919,0.2189403,0.4858048,0.9814593,0.2687424,299.1487,227.3275,4.059467,True
0,0.4444444,-0.1673937,0.1266934,-0.03763737,-1.324974,-4.247513,-3.098684,0.6929995,1.116168,0.4459252,-1.48552,0.02114076,0.6,0.4,0.2027673,-0.04211006,0.1353161,-0.7112259,-4.287441,-0.07854221,0.7488048,1.290276,0.3672194,0.08509319,-0.1756616,-0.003300299,-0.9091579,0.2381724,-0.07040812,0.853597,1.361912,0.2186382,0.4858297,0.9819741,0.2689242,299.0699,227.2357,4.242898,True
0,0.4555556,-0.1823539,0.152281,-0.02603468,-1.325183,-4.249982,-3.095625,0.6935403,1.116322,0.4458904,-1.485289,0.02119056,0.6,0.4,0.2351821,-0.01995572,0.1648297,-0.7082075,-4.286267,-0.08306187,0.7496167,1.290435,0.3672373,0.09680739,-0.1873923,-0.003475649,-0.909053,0.2349995,-0.06999693,0.8538436,1.361822,0.218327,0.4858406,0.9825716,0.2690744,298.9843,227.1898,4.344282,True
0,0.4666667,-0.2069006,0.1778502,-0.01549598,-1.325438,-4.252861,-3.091837,0.6941092,1.116513,0.4459469,-1.485335,-0.004213192,0.6,0.4,0.2393047,-0.03911433,0.1593759,-0.7065979,-4.287446,-0.08491356,0.7505646,1.290445,0.3671105,0.1159112,-0.2054946,-0.009078272,-0.9091473,0.2312355,-0.0696928,0.8540117,1.361817,0.2179282,0.4857742,0.9832977,0.2692175,298.8942,227.1997,4.375692,True
0,0.4777778,-0.2420641,0.1809483,-0.01976505,-1.325207,-4.254871,-3.087521,0.6947734,1.116695,0.4459429,-1.48569,-0.03226306,0.3,0.2,0.2326975,-0.09021395,0.156077,-0.7047981,-4.291443,-0.08417107,0.7515216,1.290438,0.3670254,0.1435655,-0.2460011,-0.01061204,-0.9091451,0.2259832,-0.06896549,0.8542432,1.36183,0.2173057,0.4856261,0.9841922,0.2693751,298.7615,227.285,4.382941,True
0,0.4888889,-0.2921162,0.1690257,-0.04419789,-1.324021,-4.256495,-3.082283,0.6954412,1.11685,0.4460454,-1.485286,0.03733576,0.3,0.2,0.2466955,-0.0807004,0.1655173,-0.7026894,-4.291891,-0.08698577,0.7525033,1.290425,0.3669815,0.161616,-0.2662359,-0.01514821,-0.9092218,0.221447,-0.06857932,0.854418,1.36184,0.2168477,0.4854464,0.9852591,0.269547,298.5793,227.3444,4.458748,True
0,0.5,-0.3464275,0.1581597,-0.06437075,-1.322907,-4.257741,-3.076553,0.6961889,1.116952,0.446032,-1.484714,0.05202439,0.3,0.2,0.3041871,-0.04463109,0.1532018,-0.7014564,-4.290316,-0.09348228,0.7536255,1.290382,0.3668988,0.1861291,-0.2801185,-0.01333443,-0.9091254,0.2168479,-0.06865203,0.8545705,1.361802,0.2163749,0.4852684,0.9864905,0.2697393,298.355,227.3547,4.598435,True
0,0.5111111,-0.3837343,0.166542,-0.08037435,-1.321748,-4.260098,-3.070522,0.6969744,1.117165,0.4460857,-1.483931,0.0713765,0.3,0.2,0.3690683,-0.04056132,0.1438667,-0.7001696,-4.290789,-0.0992877,0.754886,1.290237,0.3668816,0.209588,-0.2929316,-0.01043549,-0.9088511,0.2122264,-0.06898998,0.8547444,1.361848,0.2158601,0.4851466,0.9878638,0.2699144,298.0906,227.2207,4.891213,True
0,0.5222223,-0.4253408,0.1972698,-0.09755175,-1.320378,-4.263464,-3.063625,0.6979848,1.117356,0.4459984,-1.483632,0.02705791,0.5,0.3,0.4113355,-0.0651314,0.1229957,-0.6993498,-4.29299,-0.1036611,0.7562898,1.290223,0.3668835,0.2287523,-0.3142616,-0.009660833,-0.9086796,0.206864,-0.06877374,0.8549253,1.361851,0.215281,0.4850767,0.9893549,0.2700261,297.8046,226.9344,5.303946,True
0,0.5333334,-0.4456667,0.2398112,-0.1062609,-1.319322,-4.267968,-3.056827,0.6989654,1.11761,0.4459741,-1.483978,-0.03154014,0.5,0.3,0.4280607,-0.1290752,0.1150939,-0.6978808,-4.298226,-0.1047232,0.7576845,1.290392,0.3669689,0.2457974,-0.3355876,-0.008860344,-0.9084213,0.2012316,-0.06867413,0.8550971,1.361872,0.2147424,0.4850494,0.9909659,0.2700213,297.5144,226.638,5.696638,True
0,0.5444446,-0.4799373,0.3345948,-0.09923628,-1.319113,-4.275163,-3.048551,0.7001117,1.117946,0.4459257,-1.4838,0.01692231,0.5,0.3,0.4413179,-0.2185205,0.09221821,-0.6970537,-4.306239,-0.1039528,0.759258,1.290447,0.3670099,0.2659908,-0.3643571,-0.01132357,-0.9082887,0.1947851,-0.06841448,0.8553476,1.361885,0.2141414,0.4850402,0.9927236,0.2699353,297.2162,226.3424,6.042722,True
0,0.5555557,-0.4960048,0.3825201,-0.09519097,-1.318792,-4.281167,-3.041024,0.7011486,1.118183,0.4459376,-1.484529,-0.06654131,0.5,0.3,0.4417223,-0.2801739,0.05575858,-0.6971117,-4.314079,-0.1030305,0.7607006,1.290455,0.367018,0.2775716,-0.3898792,-0.02327059,-0.9085811,0.1882815,-0.06792579,0.8555152,1.361912,0.213568,0.4850044,0.9946538,0.2698262,296.9015,226.0373,6.389444,True
0,0.5666668,-0.5184717,0.4347032,-0.08904733,-1.318599,-4.287969,-3.032845,0.7021993,1.118365,0.4459324,-1.484152,0.03531147,0.5,0.3,0.4412937,-0.3344325,0.03638623,-0.6968576,-4.322965,-0.1011359,0.7622274,1.290474,0.3670359,0.2807417,-0.3941337,-0.02545238,-0.9086311,0.182479,-0.06760967,0.8557645,1.361928,0.2129667,0.4848587,0.9967836,0.2697969,296.554,225.7833,6.661488,True
0,0.577778,-0.5366302,0.4613196,-0.08597645,-1.318378,-4.294193,-3.024739,0.7031446,1.118665,0.4459803,-1.484875,-0.06620977,0.5,0.2,0.4571468,-0.392032,0.04130895,-0.6954451,-4.332628,-0.09933937,0.7637936,1.290459,0.3668749,0.2883546,-0.39634,-0.01063039,-0.9079803,0.1768173,-0.0676371,0.8560201,1.361995,0.2122283,0.4844953,0.9991568,0.2699728,296.1612,225.6641,6.870291,True
0,0.5888891,-0.5536886,0.4687487,-0.08600484,-1.318094,-4.299848,-3.016674,0.7040697,1.118951,0.4460807,-1.484799,0.007736959,0.5,0.2,0.4616574,-0.3729295,0.05623607,-0.6940097,-4.337668,-0.1006699,0.7654447,1.290448,0.3667662,0.3001753,-0.4070464,-0.0001457129,-0.9073092,0.1707382,-0.06763284,0.8562554,1.361997,0.2115519,0.483947,1.001733,0.2704023,295.662,225.4918,7.261121,True
0,0.6000003,-0.577144,0.471864,-0.09347375,-1.317479,-4.305391,-3.00811,0.7051377,1.119287,0.4461555,-1.484977,-0.01613148,0.5,0.2,0.4663105,-0.3453329,0.07971759,-0.6921167,-4.341961,-0.1026555,0.7670096,1.290497,0.3666401,0.3237576,-0.4209848,0.01446485,-0.906359,0.1641947,-0.06800328,0.8565463,1.362041,0.2108226,0.4832284,1.004438,0.2710741,295.1151,225.3315,7.74736,True
0,0.6111114,-0.5952675,0.4707076,-0.1062621,-1.316445,-4.310961,-2.999538,0.7063261,1.119605,0.4461741,-1.485151,-0.01568784,0.5,0.2,0.4635727,-0.3422731,0.115977,-0.6894716,-4.347511,-0.1032012,0.7686666,1.290571,0.3665264,0.3515259,-0.4370174,0.02155399,-0.9056484,0.1575069,-0.06866082,0.8569653,1.362041,0.2101321,0.482417,1.007216,0.2719414,294.5737,225.1795,8.301644,True
0,0.6222225,-0.6325619,0.4737451,-0.1243797,-1.315292,-4.316624,-2.989943,0.7073119,1.120041,0.4462738,-1.484888,0.02437889,0.5,0.2,0.4512688,-0.3370376,0.152376,-0.6862007,-4.35254,-0.1038569,0.770276,1.290689,0.3663216,0.3611484,-0.4476961,0.0256699,-0.9048628,0.1508698,-0.06885443,0.8572528,1.362034,0.2094295,0.481639,1.010009,0.2729331,294.045,225.0137,8.920218,True
0,0.6333337,-0.6591891,0.4618268,-0.1552116,-1.313346,-4.321818,-2.980484,0.7083836,1.120488,0.4462934,-1.485105,-0.01995539,0.6,0.6,0.4266694,-0.3635963,0.152582,-0.6842513,-4.359972,-0.1019397,0.7719673,1.290833,0.3661149,0.3642853,-0.4636616,0.02129733,-0.9045379,0.1437742,-0.06847839,0.857559,1.362034,0.2086802,0.481006,1.012784,0.2739592,293.5531,224.8059,9.603524,True
0,0.6444448,-0.6687757,0.4573864,-0.1903447,-1.31101,-4.327394,-2.971422,0.7092746,1.121017,0.4462972,-1.484406,0.06436856,0.6,0.6,0.3923876,-0.4007464,0.1475527,-0.6822475,-4.368669,-0.09837877,0.7735769,1.290905,0.3658745,0.3662819,-0.478527,0.009493786,-0.9044361,0.1363993,-0.06802087,0.8579485,1.362033,0.2079527,0.4805261,1.015519,0.274918,293.1017,224.503,10.32574,True
0,0.655556,-0.6804735,0.4455383,-0.2169165,-1.308653,-4.332888,-2.962049,0.7102022,1.121519,0.4463689,-1.484642,-0.02196,0.6,0.6,0.3444637,-0.4304663,0.1576245,-0.6797602,-4.377851,-0.09347828,0.7753156,1.29094,0.3657162,0.3682546,-0.4656747,-0.007516246,-0.9047653,0.1302045,-0.06849278,0.8582999,1.362009,0.2072809,0.4800675,1.018243,0.2757143,292.7155,224.125,11.03069,True
0,0.6666671,-0.707059,0.4154211,-0.2679014,-1.304743,-4.33744,-2.951981,0.7110049,1.122117,0.4465501,-1.485456,-0.07401596,0.6,0.6,0.3264918,-0.4379114,0.1706142,-0.6768754,-4.385693,-0.0905086,0.7769111,1.290898,0.3653789,0.3661109,-0.4550112,-0.009578987,-0.90463,0.1241203,-0.06878572,0.8586688,1.361993,0.2065744,0.4796321,1.021005,0.276323,292.3544,223.5605,11.8508,True
0,0.6777782,-0.7368304,0.3778639,-0.3145905,-1.300433,-4.341539,-2.9416,0.7118424,1.122698,0.4467356,-1.485444,0.00192526,0.6,0.4,0.3329854,-0.4219705,0.1737792,-0.6745387,-4.392232,-0.08951071,0.7784514,1.290919,0.3651021,0.3598023,-0.4507801,-0.002033581,-0.9039578,0.1177905,-0.06873565,0.8590907,1.361982,0.2058568,0.479172,1.023825,0.2767801,291.9769,222.8232,12.75256,True
0,0.6888894,-0.7464147,0.3691836,-0.3475512,-1.296538,-4.34662,-2.931473,0.7125862,1.123372,0.4469895,-1.484727,0.06559215,0.6,0.4,0.3490563,-0.3879429,0.172635,-0.6723683,-4.397299,-0.08993575,0.7799989,1.290829,0.3647466,0.3555414,-0.4294599,-0.004030616,-0.9038087,0.1125677,-0.06940597,0.8594609,1.361976,0.205198,0.4787304,1.026702,0.2771809,291.5738,221.9183,13.77169,True
0,0.7000005,-0.7656144,0.3753457,-0.3901892,-1.291914,-4.352437,-2.920691,0.7133068,1.124149,0.4470992,-1.484495,0.02078179,0.6,0.4,0.3628189,-0.353847,0.1566035,-0.6708822,-4.401843,-0.09090727,0.7814909,1.290931,0.3644004,0.3566001,-0.4209414,-0.005072139,-0.903626,0.1068704,-0.06989626,0.8598261,1.361974,0.2044578,0.4783082,1.029637,0.2775749,291.2022,220.7248,15.055,True
0,0.7111117,-0.7688652,0.4040347,-0.4073562,-1.288361,-4.359255,-2.910248,0.7140296,1.124851,0.4473231,-1.485291,-0.072666,0.6,0.4,0.3542651,-0.3527566,0.1535054,-0.6690606,-4.408291,-0.08957303,0.7828809,1.291012,0.3641233,0.3490115,-0.4294012,-0.01780817,-0.9037821,0.1003606,-0.06961317,0.860238,1.361946,0.2036769,0.4779077,1.032661,0.2779967,290.861,219.443,16.41357,True
0,0.7222228,-0.7657765,0.4540591,-0.4161105,-1.285177,-4.367115,-2.899647,0.7147611,1.125659,0.4474299,-1.485195,0.009664734,0.6,0.4,0.312753,-0.37822,0.1635282,-0.6664891,-4.416126,-0.08545471,0.7842736,1.291233,0.3638041,0.334824,-0.4249866,-0.0506775,-0.9051983,0.09440413,-0.0691559,0.8606629,1.361823,0.2030015,0.4774321,1.03581,0.2784991,290.5213,218.1885,17.74859,True
0,0.7333339,-0.7605751,0.5169338,-0.4142741,-1.282713,-4.376091,-2.88894,0.7155424,1.126451,0.4475355,-1.486006,-0.07419257,0.8,0.5,0.2765926,-0.3802747,0.1692891,-0.664227,-4.423246,-0.08180752,0.7857437,1.291413,0.3634069,0.3219293,-0.3950953,-0.06425904,-0.9059775,0.08988488,-0.06963873,0.8612794,1.361902,0.2023296,0.4767893,1.039114,0.2791326,290.1901,216.8851,19.1785,True
0,0.7444451,-0.747922,0.5862477,-0.4050128,-1.280827,-4.385948,-2.878292,0.7162002,1.127196,0.4476328,-1.486395,-0.03482172,0.8,0.5,0.2649902,-0.370671,0.1758649,-0.6617758,-4.429064,-0.07973717,0.7871023,1.291563,0.3630059,0.3123221,-0.379095,-0.06728695,-0.9065656,0.08515764,-0.06986537,0.861727,1.361859,0.201642,0.4759878,1.042585,0.2799939,289.8005,215.6654,20.59025,True
0,0.7555562,-0.7426752,0.6299367,-0.4062718,-1.278711,-4.395561,-2.867645,0.7169183,1.127924,0.4477658,-1.486737,-0.03091397,0.8,0.5,0.2655191,-0.3633739,0.2152997,-0.6578221,-4.434832,-0.07828202,0.7884674,1.29168,0.3625202,0.2909424,-0.3651933,-0.07551962,-0.9072772,0.08048845,-0.06949519,0.8622125,1.361831,0.2009838,0.4750178,1.046214,0.2811287,289.377,214.5507,22.01141,True
0,0.7666674,-0.7406254,0.6778742,-0.4086301,-1.27666,-4.406004,-2.856529,0.7176636,1.128532,0.4477348,-1.487134,-0.03599161,0.8,0.5,0.2553904,-0.3624249,0.2559114,-0.6534503,-4.440962,-0.07594856,0.7897675,1.29182,0.3620679,0.2846053,-0.3662764,-0.07013181,-0.9075856,0.07520541,-0.06919345,0.8626676,1.361803,0.2002513,0.4738874,1.049971,0.2825645,288.916,213.4917,23.48089,True
0,0.7777785,-0.7418158,0.7428448,-0.4110603,-1.275152,-4.417928,-2.844715,0.7182805,1.129185,0.4477544,-1.48712,0.001561182,2.1,0.4,0.2363526,-0.3506689,0.2636559,-0.6499701,-4.446407,-0.07364732,0.7910461,1.291975,0.3616061,0.2707259,-0.3609317,-0.0731527,-0.9081326,0.07002476,-0.06865896,0.8631002,1.361699,0.1994994,0.472598,1.053801,0.2842953,288.4167,212.4173,25.06607,True
0,0.7888896,-0.7386966,0.782266,-0.4112444,-1.273754,-4.429259,-2.83338,0.7189132,1.129816,0.4477606,-1.486894,0.02048257,2.1,0.4,0.2160906,-0.3356694,0.2575656,-0.6472808,-4.451554,-0.07141186,0.7921094,1.292139,0.3611407,0.26535,-0.3641084,-0.07737251,-0.9088607,0.06471495,-0.06812579,0.8635598,1.361644,0.1987839,0.471259,1.057618,0.2862805,287.9161,211.2634,26.83662,True
0,0.8000008,-0.7303358,0.8686265,-0.3988588,-1.273724,-4.442772,-2.821728,0.7194722,1.13046,0.4477096,-1.486634,0.02369902,2.1,0.4,0.2095761,-0.3281462,0.2459576,-0.6447129,-4.456845,-0.06927095,0.7933357,1.292301,0.3607545,0.2567646,-0.3619525,-0.08366716,-0.909731,0.05951366,-0.0675407,0.8639249,1.361541,0.1980886,0.4698386,1.06137,0.2884178,287.4503,210.1166,28.64604,True
0,0.8111119,-0.7154741,0.901756,-0.3830458,-1.273561,-4.454793,-2.810869,0.7201279,1.131207,0.4476583,-1.486959,-0.02987207,2.1,0.4,0.2113266,-0.3301845,0.2171615,-0.6430463,-4.462994,-0.06675107,0.7946017,1.29248,0.3604093,0.2481632,-0.3597804,-0.09209864,-0.9108182,0.05444873,-0.06700646,0.8643897,1.361407,0.1972902,0.4682852,1.065076,0.2906614,287.0341,209.0966,30.32578,True
0,0.8222231,-0.6953138,0.9466646,-0.3555593,-1.274665,-4.467877,-2.799921,0.7205522,1.132035,0.4475629,-1.487328,-0.03351528,2.1,0.4,0.2196011,-0.3504022,0.2031293,-0.6409467,-4.470441,-0.063559,0.7958299,1.292677,0.360039,0.2416826,-0.3533452,-0.1015911,-0.9119862,0.04951216,-0.06654361,0.8648266,1.361252,0.1966314,0.466679,1.068756,0.2929746,286.6434,208.1803,31.9075,True
0,0.8333342,-0.6846921,0.9606037,-0.3417784,-1.275131,-4.480193,-2.788814,0.7210813,1.13293,0.4474528,-1.487688,-0.03261343,1.4,0.5,0.2099364,-0.3748797,0.2042051,-0.6384258,-4.478662,-0.05894801,0.7970859,1.292861,0.3596768,0.2394602,-0.3490548,-0.1100742,-0.9132512,0.04446014,-0.06608554,0.8653157,1.361227,0.1959202,0.465019,1.072458,0.2953592,286.2453,207.4418,33.32494,True
0,0.8444453,-0.6846806,0.9552895,-0.3396203,-1.275314,-4.491898,-2.777684,0.7215229,1.133706,0.447413,-1.487856,-0.0152437,1.4,0.5,0.1896594,-0.4089226,0.2107275,-0.6355304,-4.488199,-0.05272366,0.7982945,1.29302,0.3592336,0.2405808,-0.3458711,-0.1058111,-0.9140395,0.03966685,-0.06596038,0.8657471,1.361187,0.1952286,0.4634433,1.076191,0.2977767,285.8534,206.7472,34.7261,True
0,0.8555565,-0.6995566,0.9424616,-0.3448822,-1.275201,-4.503315,-2.766056,0.7219129,1.134407,0.4473267,-1.487396,0.04215838,1.4,0.5,0.1661839,-0.4344219,0.2151925,-0.6326882,-4.49749,-0.04623434,0.7994881,1.29331,0.3588014,0.2374184,-0.3384252,-0.103596,-0.9147026,0.03506598,-0.06574333,0.8662003,1.361096,0.1945305,0.4618649,1.079992,0.3001618,285.4489,206.0715,36.0946,True
0,0.8666676,-0.7155402,0.9445496,-0.3480827,-1.275494,-4.515254,-2.75398,0.7222694,1.135044,0.4472113,-1.48708,0.02841986,1.4,0.5,0.1416174,-0.4535027,0.2154424,-0.6299745,-4.506803,-0.03948056,0.8006033,1.293425,0.3583074,0.2310507,-0.3362988,-0.1013903,-0.9155111,0.03031996,-0.06521443,0.8666035,1.360988,0.1938298,0.4603945,1.083854,0.3024842,285.0592,205.1042,37.74455,True
0,0.8777788,-0.7187506,0.9573404,-0.3470675,-1.276295,-4.527673,-2.742306,0.7226368,1.135677,0.4471197,-1.486468,0.05576179,1.5,0.7,0.1224445,-0.4449195,0.2146493,-0.6274503,-4.514728,-0.03373506,0.8016415,1.293584,0.3578844,0.2288451,-0.3330629,-0.1098637,-0.9167218,0.02561069,-0.06492361,0.8668723,1.360903,0.193145,0.4590422,1.087746,0.3046929,284.6647,203.7164,39.76457,True
0,0.8888899,-0.7134876,0.9946895,-0.3355316,-1.278033,-4.540984,-2.730808,0.7230886,1.136357,0.4469609,-1.486161,0.02768571,1.5,0.7,0.1160801,-0.4182529,0.2105812,-0.6249928,-4.521066,-0.02964684,0.8027912,1.293792,0.3573802,0.2234673,-0.3287751,-0.1151167,-0.9179724,0.02107586,-0.06445383,0.867263,1.360795,0.1924686,0.4577578,1.091648,0.3067449,284.2811,202.0692,41.98217,True
0,0.900001,-0.6890912,1.053484,-0.3017169,-1.281471,-4.554876,-2.720131,0.7233033,1.137127,0.4467719,-1.486744,-0.05350235,1.5,0.7,0.1277519,-0.3734914,0.1946212,-0.6233432,-4.525267,-0.0280572,0.8037781,1.29398,0.3570147,0.2063093,-0.3297716,-0.1266525,-0.9194537,0.01642758,-0.06334648,0.8677642,1.360791,0.1917784,0.4564924,1.095577,0.3086629,283.9148,200.3481,44.20188,True
0,0.9111122,-0.6837875,1.066331,-0.2900589,-1.283985,-4.567786,-2.709023,0.7236542,1.137852,0.4465957,-1.487268,-0.04729753,1.5,0.7,0.1511931,-0.3543808,0.1901471,-0.6211008,-4.531016,-0.02580789,0.8048164,1.294188,0.3566592,0.2030527,-0.3254817,-0.1329937,-0.9209094,0.01190726,-0.06280772,0.8682216,1.360704,0.1910558,0.4552666,1.099549,0.3105444,283.5551,198.6175,46.38139,True
0,0.9222233,-0.6646545,1.099556,-0.2561379,-1.288071,-4.581315,-2.698601,0.7240415,1.138613,0.4463723,-1.488226,-0.08724676,1.5,0.7,0.1562512,-0.364984,0.1719311,-0.6196606,-4.538578,-0.02162221,0.8057296,1.294398,0.3562536,0.1912183,-0.3200967,-0.1445675,-0.9227437,0.007503723,-0.06189825,0.8686177,1.360633,0.1903894,0.4540304,1.103595,0.3124983,283.1787,197.0275,48.41236,True
0,0.9333345,-0.6656725,1.086757,-0.2614129,-1.290183,-4.593599,-2.687786,0.7243302,1.139323,0.4461877,-1.487488,0.06818592,1.1,0.5,0.1358376,-0.3883221,0.1646365,-0.6180558,-4.547431,-0.0151707,0.8066175,1.294676,0.3557825,0.1848334,-0.3137039,-0.1434114,-0.924094,0.003319897,-0.06114645,0.8688905,1.360545,0.1897845,0.4527095,1.107721,0.3146164,282.7449,195.4034,50.5396,True
0,0.9444456,-0.690142,1.067539,-0.2602428,-1.292694,-4.605191,-2.676131,0.7245964,1.139779,0.4460714,-1.488099,-0.05668979,1.1,0.5,0.09949803,-0.4190851,0.163917,-0.6162512,-4.557371,-0.006832873,0.8074109,1.294844,0.3553245,0.1688981,-0.3009218,-0.1399963,-0.925352,-0.0003974768,-0.0602407,0.8692019,1.360465,0.1891427,0.451433,1.111861,0.3169271,282.3298,193.6723,52.87214,True
0,0.9555568,-0.6943684,1.056876,-0.2612533,-1.29529,-4.617176,-2.6651,0.7247795,1.140337,0.4459183,-1.487315,0.07222211,1.1,0.5,0.08056113,-0.4063013,0.180192,-0.613546,-4.564435,-0.001290302,0.8081744,1.294956,0.3547263,0.153115,-0.2754163,-0.1226896,-0.9261143,-0.003295262,-0.05972086,0.8695129,1.360373,0.188498,0.4502356,1.115986,0.3194216,281.9005,191.7889,55.42878,True
0,0.9666679,-0.6921972,1.034541,-0.2547419,-1.298061,-4.628233,-2.65457,0.7248617,1.140919,0.4458482,-1.486124,0.1079991,1.1,0.5,0.08175096,-0.3711469,0.1803117,-0.6114959,-4.569349,0.001765676,0.808822,1.295086,0.354286,0.140614,-0.2531454,-0.0968971,-0.9261643,-0.005857223,-0.05931472,0.8697925,1.36032,0.1879492,0.4491209,1.12001,0.3220108,281.5426,189.4369,58.50072,True
0,0.977779,-0.6974134,0.9845061,-0.2491872,-1.300133,-4.638009,-2.644096,0.7250324,1.141541,0.445694,-1.486757,-0.05859972,0.9,0.5,0.07957485,-0.3508696,0.1708264,-0.6099816,-4.575103,0.00558092,0.8096377,1.295174,0.3539379,0.1269233,-0.2340271,-0.08282548,-0.9264754,-0.008420915,-0.0586966,0.8700745,1.360143,0.1874902,0.4480514,1.123918,0.3245817,281.2137,187.0622,61.57533,True
0,0.9888902,-0.6909727,0.9557803,-0.2426535,-1.302665,-4.647879,-2.634058,0.7250887,1.142151,0.4454768,-1.487101,-0.03081905,0.9,0.5,0.06664072,-0.3070769,0.1477109,-0.6092231,-4.578784,0.008357,0.8102554,1.295196,0.3535903,0.1130429,-0.2244125,-0.08690736,-0.9275215,-0.0112938,-0.05782308,0.8703859,1.359965,0.186892,0.44698,1.127743,0.3270703,280.9223,184.7849,64.50036,True
0,1.000001,-0.6653124,0.9132889,-0.2286139,-1.305184,-4.656868,-2.625301,0.7251518,1.142812,0.4452658,-1.486825,0.02543139,0.9,0.5,0.05697805,-0.2750283,0.1330397,-0.6083054,-4.582217,0.01088833,0.8106956,1.295365,0.3532989,0.1042941,-0.2168521,-0.1091466,-0.9292632,-0.01413193,-0.05701935,0.8705682,1.359813,0.1863482,0.4459611,1.131475,0.3294289,280.6581,182.5476,67.36078,True
0,1.011112,-0.6588935,0.904822,-0.2232404,-1.308125,-4.667046,-2.615543,0.7253233,1.14345,0.4450274,-1.487228,-0.03706464,0.9,0.5,0.04843432,-0.2717931,0.1299615,-0.6069589,-4.5876,0.0149374,0.8111335,1.295641,0.3528614,0.08699936,-0.2082111,-0.1334288,-0.9313239,-0.01676473,-0.05578656,0.8708936,1.359512,0.1857979,0.4450712,1.135108,0.3315596,280.4473,180.3284,70.1852,True
0,1.022224,-0.6321943,0.8697512,-0.2156281,-1.310505,-4.675615,-2.607288,0.7251927,1.144072,0.4448187,-1.488255,-0.09358753,0.9,0.5,0.02613555,-0.2824,0.1387277,-0.6051996,-4.593782,0.02046932,0.8115331,1.295819,0.3524771,0.0666205,-0.1900222,-0.148056,-0.9333714,-0.01880245,-0.05466937,0.8711371,1.359356,0.1853244,0.4442764,1.138672,0.3334094,280.264,178.0157,73.02164,True
0,1.033335,-0.6023334,0.8560091,-0.2059645,-1.313583,-4.684802,-2.599222,0.7251636,1.144587,0.4447351,-1.487552,0.0649529,1.2,0.8,-0.009952649,-0.2865913,0.1519561,-0.6031224,-4.600015,0.02699087,0.8119398,1.295993,0.3521254,0.05601743,-0.1751146,-0.1446826,-0.9346519,-0.02075748,-0.05388427,0.8714058,1.359347,0.1848867,0.4436233,1.142134,0.3349957,280.1169,175.489,75.95847,True
0,1.044446,-0.590576,0.8358245,-0.1984174,-1.316401,-4.693464,-2.590846,0.7250481,1.145122,0.4446154,-1.488402,-0.07844157,1.2,0.8,-0.03329498,-0.2758721,0.1565548,-0.6013204,-4.6049,0.03216885,0.812279,1.296152,0.3517485,0.04557212,-0.1506817,-0.1263598,-0.9353831,-0.02182753,-0.05340357,0.8715874,1.359231,0.1844592,0.4430132,1.145528,0.3364076,280.0221,172.9232,78.84349,True
0,1.055557,-0.5756035,0.80501,-0.1876174,-1.319088,-4.701216,-2.583054,0.7248941,1.14555,0.4445958,-1.488677,-0.02452751,1.2,0.8,-0.04485501,-0.2428295,0.1610893,-0.5994914,-4.60781,0.03548476,0.8125178,1.296229,0.3514192,0.02973965,-0.1347401,-0.1133412,-0.9360873,-0.02302729,-0.05253485,0.8717161,1.359168,0.1840887,0.4423836,1.148833,0.3377097,279.9744,170.0711,81.95711,True
0,1.066668,-0.5584573,0.7667462,-0.1789466,-1.321359,-4.708542,-2.575738,0.724718,1.145928,0.4444647,-1.48805,0.05740561,1.2,0.8,-0.04261377,-0.2002156,0.1580298,-0.5978493,-4.609524,0.03725762,0.8125748,1.296319,0.3510227,0.02342872,-0.1305057,-0.1058005,-0.936915,-0.02467432,-0.051607,0.8719145,1.359057,0.1836791,0.4417525,1.151991,0.3390361,279.939,167.1959,85.05746,True
0,1.077779,-0.5371072,0.7433831,-0.1713864,-1.323958,1.567333,-2.568762,0.724474,1.146303,0.444277,-1.488154,-0.01015879,1.2,0.8,-0.05117106,-0.1724475,0.1475902,-0.5965949,-4.611331,0.03959109,0.8126218,1.296443,0.3507597,0.02021922,-0.1123809,-0.1088871,-0.9382263,-0.02562933,-0.05126665,0.872128,1.358924,0.1833129,0.4410745,1.154995,0.3404517,279.9182,164.5983,87.92682,True
0,1.08889,-0.5211263,0.7466461,-0.1639618,-1.327145,1.559081,-2.561509,0.7243077,1.146789,0.4440713,-1.488378,-0.02051702,0.9,0.7,-0.05338396,-0.1606936,0.1380706,-0.5954818,-4.6143,0.04272456,0.812686,1.296598,0.3504329,0.008481905,-0.1027758,-0.1108473,-0.9393533,-0.02677382,-0.05023574,0.8723849,1.358843,0.1829071,0.4404015,1.157819,0.3419636,279.9048,162.1689,90.69841,True
0,1.100002,-0.4764234,0.770257,-0.1438359,-1.331456,1.550572,-2.555725,0.7239982,1.147075,0.4438484,-1.48855,-0.01566276,0.9,0.7,-0.07165909,-0.1392505,0.1192072,-0.5948703,-4.615788,0.04538852,0.8126267,1.296735,0.3502147,-0.01712506,-0.08568903,-0.1158374,-0.9407931,-0.02735426,-0.0488698,0.8725476,1.358721,0.1826432,0.4397307,1.160444,0.3435208,279.8964,159.9677,93.30508,True
0,1.111113,-0.4487103,0.7682504,-0.1278588,-1.335304,1.542848,-2.549842,0.7237091,1.147491,0.4437792,-1.48832,0.0210394,0.9,0.7,-0.08657978,-0.09974146,0.1078274,-0.5940021,-4.615667,0.04671371,0.8126663,1.296702,0.3499446,-0.02888438,-0.07180768,-0.1209812,-0.9422301,-0.02786066,-0.04792758,0.8727247,1.358577,0.1823857,0.4390115,1.162904,0.3450872,279.8676,158.1645,95.50919,True
0,1.122224,-0.4092209,0.7300696,-0.1063848,-1.338749,1.536748,-2.54523,0.7233206,1.147861,0.4436529,-1.489579,-0.1154495,0.9,0.7,-0.08029348,-0.06880588,0.09081954,-0.5935366,-4.615236,0.04704075,0.8125881,1.296786,0.3497338,-0.03948979,-0.04091521,-0.1186103,-0.9435186,-0.0271689,-0.04754968,0.8728456,1.358505,0.1822124,0.4382104,1.165295,0.3466969,279.8123,156.7101,97.3298,True
0,1.133335,-0.3835578,0.679043,-0.0944379,-1.341451,1.531298,-2.540426,0.7229813,1.148222,0.4435341,-1.489144,0.0406313,1.7,1.7,-0.08130033,-0.0666917,0.09616902,-0.5922694,-4.616795,0.04944158,0.8126065,1.296893,0.3495171,-0.04366502,-0.02922354,-0.1110511,-0.9443473,-0.02720139,-0.04694913,0.8728626,1.358426,0.181932,0.4373539,1.167627,0.3484127,279.7351,154.9361,99.46143,True
0,1.144446,-0.3600564,0.6439602,-0.08789086,-1.344211,1.52585,-2.536004,0.7225779,1.148539,0.4433539,-1.489648,-0.04675372,1.7,1.7,-0.07466993,-0.06785309,0.1152575,-0.5904005,-4.618408,0.05138809,0.8124765,1.296932,0.3493183,-0.04893171,-0.02072454,-0.1056372,-0.9453886,-0.02728688,-0.04617868,0.8729407,1.358264,0.1815975,0.436502,1.169872,0.3502259,279.6541,153.1675,101.6382,True
0,1.155557,-0.3344014,0.5992929,-0.08130978,-1.346494,1.521142,-2.532143,0.7222115,1.148708,0.4431689,-1.48906,0.05401509,1.7,1.7,-0.07589496,-0.05181006,0.09828966,-0.5898268,-4.618711,0.05251914,0.8123399,1.296942,0.3490443,-0.04885375,-0.01968884,-0.0981745,-0.9461839,-0.02754401,-0.04551156,0.8730404,1.358195,0.1813376,0.4357311,1.171961,0.3520159,279.5873,151.2853,103.9993,True
0,1.166668,-0.3247344,0.5556239,-0.083242,-1.34838,1.516641,-2.527868,0.7218258,1.148846,0.4429171,-1.489076,-0.002195809,1.7,1.7,-0.09107017,-0.0570098,0.07928503,-0.5896366,-4.620181,0.05527737,0.812196,1.296999,0.3488529,-0.04769689,-0.01546739,-0.08964781,-0.9469173,-0.02766106,-0.04497653,0.8730742,1.358124,0.1811218,0.4350453,1.173854,0.3536493,279.5475,149.6189,106.1363,True
0,1.17778,-0.3246489,0.5183209,-0.09053287,-1.349862,1.511914,-2.523175,0.7215112,1.148894,0.4427667,-1.489207,-0.01212183,1.7,1.7,-0.1255849,-0.07595438,0.05195583,-0.5900319,-4.62296,0.06032965,0.8119622,1.297029,0.3487155,-0.05618995,-0.003748193,-0.0873821,-0.9478659,-0.02719846,-0.04428677,0.8731581,1.358014,0.1809628,0.4344047,1.175557,0.35505,279.5329,148.0779,108.0795,True
0,1.188891,-0.3011376,0.4843212,-0.08185355,-1.351977,1.507868,-2.51983,0.7211518,1.148949,0.4426517,-1.488505,0.06416184,2.4,2.1,-0.1341765,-0.06310496,0.04359338,-0.5897352,-4.62339,0.06253661,0.8116435,1.297106,0.3485878,-0.06150122,0.005837142,-0.08622082,-0.9488246,-0.02678474,-0.04359195,0.8731681,1.357962,0.1808412,0.4338324,1.177026,0.356174,279.5533,146.6069,109.874,True
0,1.200002,-0.2702186,0.4717236,-0.05304013,-1.355115,1.504112,-2.517115,0.7208232,1.14901,0.4425657,-1.487858,0.05842442,2.4,2.1,-0.1062666,-0.02274393,0.04872108,-0.5889559,-4.621449,0.06117068,0.8113574,1.297122,0.3484859,-0.0720597,0.02392669,-0.07857475,-0.9494159,-0.02564731,-0.04310646,0.873108,1.357792,0.1808295,0.4332717,1.178283,0.3570108,279.6082,145.5,111.2066,True
0,1.211113,-0.2286297,0.4634053,-0.02742465,-1.358448,1.50014,-2.515182,0.7204615,1.14916,0.442553,-1.488825,-0.0890016,2.4,2.1,-0.08493011,0.01236007,0.04112585,-0.5886864,-4.619304,0.05965534,0.811026,1.297203,0.3483505,-0.07832322,0.03133839,-0.06676088,-0.9498041,-0.02499031,-0.04244732,0.8729962,1.357687,0.1807468,0.4327228,1.179389,0.3576301,279.6738,144.8117,112.0036,True
0,1.222224,-0.1934465,0.446503,-0.009252176,-1.361451,1.496805,-2.513499,0.7201848,1.149158,0.4424276,-1.48929,-0.04178848,2.4,2.1,-0.09155631,0.01458688,0.02204123,-0.589072,-4.618806,0.06048864,0.8107303,1.297289,0.3482788,-0.08151979,0.03027558,-0.06673236,-0.9505525,-0.02465648,-0.04161269,0.8729528,1.357614,0.1806746,0.4322022,1.180401,0.3581257,279.6845,144.0988,112.7499,True
0,1.233335,-0.1636,0.4380935,0.003564999,-1.364538,1.493106,-2.511739,0.7198874,1.149179,0.4422708,-1.489858,-0.05183196,9.3,2.7,-0.1003654,-0.01515886,0.008187026,-0.5895845,-4.621176,0.0640128,0.8103313,1.297392,0.3482893,-0.0783243,0.03560638,-0.06780581,-0.9513466,-0.0239542,-0.0413549,0.8728316,1.357557,0.1805904,0.4316964,1.181358,0.358599,279.6339,143.2814,113.5752,True
0,1.244446,-0.1422861,0.433904,0.01103757,-1.367644,1.489405,-2.510088,0.7195984,1.149148,0.4421244,-1.489691,0.01535398,9.3,2.7,-0.1091646,-0.0246424,-0.01091496,-0.5904079,-4.622257,0.06643894,0.8099437,1.297478,0.3482289,-0.0826038,0.03987981,-0.0698743,-0.9522377,-0.02325259,-0.04068112,0.8727664,1.357487,0.1805129,0.4311966,1.182264,0.3591521,279.591,142.3421,114.5579,True
0,1.255558,-0.1134832,0.4115994,0.01326609,-1.370115,1.486245,-2.509064,0.7193335,1.149019,0.4420598,-1.489325,0.03310958,9.3,2.7,-0.1154466,-0.02145348,-0.003358317,-0.5900084,-4.622418,0.06802353,0.8095534,1.297586,0.3481021,-0.09218553,0.03881721,-0.06871356,-0.9529728,-0.02279972,-0.03951359,0.8727634,1.357343,0.1804779,0.4307442,1.183061,0.3598125,279.5588,141.2988,115.7262,True
0,1.266669,-0.09427992,0.395654,0.01333606,-1.372539,1.483151,-2.508094,0.7190343,1.148924,0.441994,-1.489091,0.02088217,9.3,2.7,-0.1160316,0.002933808,0.02763857,-0.5884654,-4.620954,0.06813751,0.8091128,1.297578,0.3480072,-0.09634896,0.04624417,-0.06011522,-0.9533291,-0.0218294,-0.03888535,0.8726088,1.357344,0.18062,0.4302715,1.183766,0.3605929,279.5132,140.3545,116.8395,True
0,1.27778,-0.07078405,0.364854,0.02412948,-1.374851,1.481089,-2.50772,0.7187346,1.148767,0.442024,-1.489303,-0.01968697,9.3,2.7,-0.1135882,0.06041831,0.03635482,-0.5874869,-4.61613,0.06537395,0.8088627,1.297309,0.347908,-0.09732822,0.06752151,-0.05362019,-0.9537115,-0.02001725,-0.03886777,0.8724859,1.357282,0.1806846,0.429789,1.18437,0.3614963,279.4592,139.4707,117.9248,True
0,1.288891,-0.04517989,0.3393628,0.03168614,-1.376946,1.479023,-2.507576,0.7184821,1.148692,0.441967,-1.489089,0.01945461,6,3.9,-0.1074355,0.07753582,0.01291037,-0.5880195,-4.61345,0.06417473,0.8084028,1.297317,0.3479052,-0.09188695,0.07386245,-0.0429931,-0.9538426,-0.01882935,-0.03872609,0.8723795,1.357245,0.1807578,0.4293346,1.184827,0.3624913,279.4138,138.6278,118.9927,True
0,1.300002,-0.0142065,0.2946951,0.03614782,-1.378415,1.477924,-2.508295,0.7181452,1.148529,0.4419103,-1.489179,-0.008598422,6,3.9,-0.1026841,0.04569614,-0.02349431,-0.5895376,-4.614225,0.06579845,0.8079972,1.297276,0.347928,-0.09291168,0.06958419,-0.0387391,-0.954159,-0.01807354,-0.03809465,0.8722535,1.357214,0.180758,0.4288729,1.185141,0.3635313,279.3391,137.9069,119.9507,True
0,1.311113,0.001802135,0.2734052,0.03305009,-1.380117,1.476051,-2.508304,0.7178738,1.148344,0.4418929,-1.489152,0.002447116,6,3.9,-0.1007063,0.03507001,-0.03207832,-0.5900212,-4.614081,0.06684294,0.8076181,1.29723,0.3479202,-0.08759154,0.07170571,-0.03878876,-0.9547092,-0.0171417,-0.03772714,0.8721913,1.357039,0.1806412,0.4284335,1.185292,0.3645375,279.2239,137.2746,120.8278,True
0,1.322224,0.0316826,0.243606,0.02785598,-1.381254,1.474712,-2.509449,0.7175366,1.148226,0.4417672,-1.48954,-0.03576161,6,3.9,-0.08732932,0.002101846,-0.06007314,-0.5918322,-4.615911,0.06885044,0.8072261,1.297152,0.3479352,-0.0833685,0.07917739,-0.04306232,-0.9553776,-0.01574994,-0.03774711,0.872085,1.35698,0.1806462,0.428006,1.185293,0.3654251,279.0959,136.8644,121.4891,True
0,1.333336,0.05304824,0.2105987,0.02267662,-1.382098,1.473621,-2.510494,0.7171842,1.148091,0.4416587,-1.488744,0.07291396,5.3,4,-0.08089399,-0.01606031,-0.05169767,-0.5920276,-4.617118,0.07051678,0.8067046,1.297115,0.3478398,-0.08353388,0.08243419,-0.05903193,-0.9567097,-0.01464952,-0.03740916,0.8719882,1.35686,0.1806097,0.427588,1.185117,0.3661146,278.9996,136.5544,121.9961,True
0,1.344447,0.07013021,0.1892989,0.01744521,-1.382882,1.472524,-2.511657,0.7168366,1.147968,0.4415691,-1.489415,-0.06223994,5.3,4,-0.09589979,-0.03410842,-0.05370719,-0.5927169,-4.618907,0.07355065,0.8062289,1.297067,0.3477681,-0.08681208,0.08992876,-0.0674897,-0.9577808,-0.01319543,-0.03716654,0.8718565,1.356826,0.1806729,0.4271261,1.184809,0.3666169,278.8911,136.5791,122.0836,True
0,1.355558,0.08936912,0.1562579,0.005878404,-1.383026,1.471763,-2.513186,0.7165006,1.147731,0.4416409,-1.489086,0.03050231,5.3,4,-0.1160878,-0.02659032,-0.05129248,-0.5932378,-4.618865,0.07554296,0.8057876,1.297012,0.3478441,-0.09318453,0.09738387,-0.06632523,-0.9584392,-0.01163042,-0.03686348,0.8716896,1.356791,0.1807158,0.4266256,1.184388,0.366939,278.7957,136.7993,121.9373,True
0,1.366669,0.1064741,0.1232666,0.006027304,-1.383294,1.471546,-2.514851,0.7160979,1.147647,0.4417686,-1.488895,0.01698126,5.3,4,-0.127378,0.01598381,-0.02968043,-0.5927259,-4.616013,0.07483882,0.80524,1.29698,0.3477132,-0.09617043,0.1079549,-0.04707682,-0.9583508,-0.009794574,-0.03680915,0.8714699,1.356735,0.1807942,0.4260908,1.183862,0.3671045,278.7021,137.2268,121.5347,True
0,1.37778,0.1161086,0.09772622,0.008273616,-1.383539,1.471486,-2.51646,0.715704,1.147555,0.4417589,-1.488936,-0.004087599,5.3,4,-0.1270617,0.05107811,-0.01463354,-0.5922204,-4.612995,0.07371417,0.8047564,1.297007,0.3476639,-0.09375475,0.1078358,-0.01940034,-0.9576072,-0.008354602,-0.03668691,0.8712971,1.356761,0.1808603,0.4255528,1.183246,0.3671679,278.6282,137.7994,120.9317,True
0,1.388891,0.1225554,0.06791813,0.009468511,-1.383499,1.471639,-2.518023,0.7152754,1.14737,0.4416244,-1.488746,0.01730512,4.5,3.9,-0.1257064,0.0787082,0.0003676238,-0.5916638,-4.610077,0.07259963,0.804147,1.29705,0.3475742,-0.09042564,0.103514,-0.005607049,-0.9573441,-0.00713594,-0.03643524,0.8711382,1.35675,0.1808746,0.425047,1.182528,0.3672009,278.576,138.4619,120.1893,True
0,1.400002,0.1225784,0.0551542,0.01378801,-1.383841,1.471687,-2.519392,0.7148759,1.147195,0.4415672,-1.488424,0.02913323,4.5,3.9,-0.1224132,0.07972799,0.007790895,-0.5912271,-4.608675,0.07267367,0.8036158,1.297085,0.3475118,-0.09269246,0.09824295,-0.01839019,-0.9580179,-0.006033791,-0.03596253,0.8709524,1.356702,0.1809082,0.4245185,1.181766,0.3672484,278.4758,139.2357,119.3482,True
0,1.411114,0.1225758,0.05837603,0.02016086,-1.384588,1.471287,-2.52065,0.7144701,1.147042,0.4413307,-1.488127,0.02679511,4.5,3.9,-0.1180255,0.09353468,0.01417719,-0.5908234,-4.606201,0.07181054,0.8030775,1.297172,0.3475752,-0.09274597,0.09826463,-0.02372074,-0.9585851,-0.004740826,-0.03570101,0.8707775,1.356691,0.1808949,0.4239704,1.180994,0.3673023,278.352,140.0015,118.5949,True
0,1.422225,0.1225744,0.05946081,0.02441711,-1.385331,1.470948,-2.521929,0.7140955,1.146859,0.4412537,-1.487782,0.03113902,4.5,3.9,-0.1158332,0.1031064,0.01631672,-0.5904356,-4.603572,0.07084035,0.8025362,1.297199,0.3475714,-0.08751124,0.09403531,-0.03231553,-0.959278,-0.003703658,-0.03550792,0.8705873,1.356667,0.1809399,0.4234194,1.180224,0.3673218,278.2402,140.7146,117.9312,True
0,1.433336,0.1268381,0.05947349,0.02547763,-1.38591,1.470538,-2.523439,0.7136016,1.146782,0.4412653,-1.487617,0.01482294,4.5,3.9,-0.110558,0.09777404,0.01302858,-0.5904393,-4.601954,0.07042623,0.8019242,1.29707,0.3476546,-0.08540524,0.08977951,-0.03448323,-0.9596919,-0.002704973,-0.03522217,0.8703392,1.356629,0.1810689,0.4228676,1.179496,0.3673038,278.1147,141.4093,117.262,True
0,1.444447,0.1247191,0.05309266,0.02870294,-1.386475,1.470487,-2.524742,0.7132092,1.146631,0.4412057,-1.487532,0.0076445,4.8,4.1,-0.1108475,0.09999704,-0.01039446,-0.5911999,-4.599681,0.06982382,0.8013901,1.297077,0.347718,-0.08531464,0.09293951,-0.02594795,-0.959693,-0.00125315,-0.0350962,0.8700796,1.356607,0.1811562,0.422314,1.178857,0.3672629,277.9905,142.0421,116.6387,True
0,1.455558,0.1236672,0.04457995,0.02981813,-1.387074,1.470505,-2.526091,0.7128035,1.146415,0.4413176,-1.487692,-0.01480369,4.8,4.1,-0.101467,0.1053603,-0.02860575,-0.5920628,-4.597039,0.06840968,0.8008239,1.297063,0.347764,-0.08528204,0.09719791,-0.02379503,-0.9598533,0.0003878894,-0.03515719,0.8697701,1.356665,0.1813245,0.4217782,1.17832,0.3672407,277.902,142.5656,116.0831,True
0,1.466669,0.1226228,0.03287454,0.03306767,-1.387432,1.47083,-2.527477,0.7124429,1.146269,0.4412661,-1.487369,0.02963773,4.8,4.1,-0.0865268,0.1010376,-0.02561255,-0.5920718,-4.595181,0.06735454,0.8003554,1.297059,0.3477921,-0.07447183,0.09605838,-0.008998909,-0.9595151,0.001558349,-0.03544508,0.8695188,1.356616,0.1813774,0.4212368,1.177887,0.3672807,277.8442,142.8799,115.7351,True
0,1.47778,0.1141211,0.02221853,0.0341797,-1.387695,1.471029,-2.528485,0.7121611,1.146224,0.4413238,-1.487309,0.005189572,4.8,4.1,-0.06544235,0.09249555,-0.04082722,-0.5929443,-4.593698,0.06617902,0.7999245,1.297024,0.3478312,-0.06808323,0.09285858,-0.00907892,-0.9596615,0.002714959,-0.03555773,0.8692926,1.356636,0.1814699,0.4207664,1.1775,0.3673832,277.7966,142.9235,115.6888,True
0,1.488891,0.1098604,0.02543757,0.03949598,-1.388565,1.470961,-2.529652,0.7118449,1.146065,0.4412978,-1.487248,0.005527511,4.8,4.1,-0.05710374,0.07332847,-0.04952916,-0.5937683,-4.593072,0.06616677,0.7994772,1.297064,0.3477883,-0.0606939,0.08436047,-0.01558364,-0.9600983,0.003568769,-0.03566932,0.8690779,1.356632,0.1815879,0.4203673,1.177121,0.3675436,277.7488,142.7801,115.8546,True
0,1.500003,0.09599341,0.03608096,0.04264496,-1.389487,1.47068,-2.530164,0.7115846,1.145873,0.4412203,-1.486867,0.03479468,4.8,4.1,-0.06060088,0.02757335,-0.06031285,-0.5948676,-4.595221,0.06873272,0.7990885,1.297062,0.3478196,-0.0500383,0.0747602,-0.01466865,-0.9602432,0.004160257,-0.03582644,0.8688171,1.356636,0.181633,0.4200301,1.176728,0.3677094,277.6824,142.8225,115.8718,True
0,1.511114,0.09063727,0.05099536,0.04363835,-1.390506,1.469974,-2.530821,0.7112709,1.145703,0.4412742,-1.48703,-0.01523233,4.8,4.1,-0.06836169,-0.004298866,-0.07524953,-0.5962045,-4.596787,0.0710835,0.7987217,1.296988,0.3477926,-0.03730802,0.05345886,-0.01808724,-0.9605702,0.003990347,-0.03571991,0.8685267,1.356621,0.181566,0.4197232,1.176348,0.3678591,277.6052,143.1342,115.6008,True
0,1.522225,0.08527897,0.06908139,0.0403605,-1.39158,1.469031,-2.531401,0.7110012,1.145524,0.4412906,-1.486457,0.05259521,4.8,4.1,-0.06619125,-0.01924884,-0.06787615,-0.5967521,-4.598035,0.07278845,0.7983215,1.296976,0.3478286,-0.02976539,0.03743343,-0.008644344,-0.9603497,0.00381591,-0.03558702,0.8682096,1.356622,0.1816108,0.4194157,1.175996,0.3679922,277.5227,143.1998,115.5692,True
0,1.533336,0.08526041,0.0787062,0.04777958,-1.39295,1.468557,-2.532244,0.7107249,1.145308,0.4411917,-1.486653,-0.01835326,4.8,4.1,-0.05112595,-0.02041327,-0.05528758,-0.596906,-4.598241,0.07304545,0.7978892,1.296913,0.3478947,-0.03819389,0.03953265,0.001040588,-0.959994,0.004540956,-0.03513642,0.8679285,1.356619,0.1816659,0.4190843,1.175688,0.3681138,277.4478,143.2406,115.5478,True
0,1.544447,0.08206426,0.07869095,0.0456494,-1.3938,1.468097,-2.532957,0.7104204,1.145134,0.4411962,-1.486696,-0.003671957,4.8,4.1,-0.02870356,-0.005576171,-0.05551412,-0.5974903,-4.597204,0.07176606,0.7974397,1.296857,0.3479438,-0.03496128,0.05763034,0.003213902,-0.9599487,0.006066814,-0.03571485,0.8675951,1.356659,0.1818209,0.418711,1.175442,0.3682711,277.398,143.2598,115.515,True
0,1.555558,0.07568751,0.07014567,0.04356068,-1.39441,1.467998,-2.53356,0.7101159,1.144958,0.4412069,-1.486908,-0.01936789,4.8,4.1,-0.02460401,0.001921862,-0.07045339,-0.5987718,-4.596609,0.07142358,0.7969848,1.296746,0.3479981,-0.02751506,0.0714825,0.001060509,-0.9601212,0.007590275,-0.03655481,0.8674142,1.35671,0.1819217,0.4183389,1.17524,0.3684982,277.3387,143.1267,115.6649,True
0,1.566669,0.07036687,0.06798861,0.0393055,-1.395015,1.46753,-2.534142,0.709842,1.144731,0.4411836,-1.486821,0.00813663,4.8,4.1,-0.02895242,0.00409865,-0.07784893,-0.5998877,-4.596262,0.07166726,0.7964983,1.296697,0.3480468,-0.02860434,0.08214822,-0.002080579,-0.9603156,0.009079781,-0.03705655,0.8671346,1.356712,0.1820259,0.4179963,1.175051,0.3687645,277.2651,142.7514,116.1139,True
0,1.577781,0.06929687,0.06797196,0.03610901,-1.395705,1.467086,-2.534753,0.7095345,1.144635,0.4411228,-1.486658,0.01482427,4.8,4.1,-0.03200894,0.02218606,-0.07134708,-0.6003926,-4.594988,0.07119802,0.7961495,1.296603,0.3481264,-0.02765965,0.07580465,-0.01383396,-0.9608573,0.009805759,-0.03724537,0.8668203,1.356767,0.1821146,0.4176677,1.174849,0.3690344,277.2154,142.4613,116.4867,True
0,1.588892,0.07144098,0.0626339,0.03293545,-1.396197,1.466803,-2.535646,0.7091121,1.14452,0.4410918,-1.48672,-0.005775036,4.8,4.1,-0.03304717,0.03390193,-0.07235328,-0.6011383,-4.593835,0.07065979,0.7956986,1.296693,0.3481388,-0.02659481,0.06833651,-0.01281224,-0.9609793,0.01027195,-0.03718385,0.8665245,1.356812,0.1822336,0.4173545,1.174617,0.3692711,277.1772,142.2845,116.7345,True
0,1.600003,0.0714478,0.05835337,0.02869384,-1.396643,1.466483,-2.53637,0.7087352,1.14444,0.4411013,-1.486789,-0.00614247,10.2,45.1,-0.04257807,0.03818537,-0.06902026,-0.60177,-4.592764,0.07056205,0.7952129,1.296739,0.3482125,-0.03721766,0.06407002,-0.009524459,-0.9610112,0.01095931,-0.0368222,0.8662251,1.356869,0.1823637,0.4170387,1.174356,0.3694676,277.1317,142.2446,116.8252,True
0,1.611114,0.07039819,0.05087708,0.025531,-1.396935,1.466369,-2.537128,0.7084059,1.1443,0.4410858,-1.487069,-0.02558682,10.2,45.1,-0.04873787,0.04239985,-0.0518793,-0.6017039,-4.591879,0.07056897,0.7947838,1.296771,0.3482883,-0.03924109,0.06509274,7.407716E-05,-0.9609149,0.01185426,-0.03694018,0.8660064,1.356914,0.1824687,0.4166629,1.174105,0.3696216,277.0705,142.3658,116.7444,True
0,1.622225,0.07149291,0.03382956,0.02454343,-1.396988,1.466726,-2.538029,0.7079425,1.144275,0.4410927,-1.486941,0.01194801,10.2,45.1,-0.05481076,0.06258205,-0.03255082,-0.6013578,-4.589733,0.06957189,0.7942898,1.296812,0.3483224,-0.04548364,0.07249633,0.01401939,-0.9602959,0.01321674,-0.0369961,0.8657091,1.356963,0.1826339,0.4162148,1.173861,0.369733,277.0255,142.4823,116.6494,True
0,1.633336,0.07471516,0.02106604,0.02673123,-1.39724,1.466999,-2.539068,0.707579,1.144169,0.4410906,-1.486926,0.001215581,10.2,45.1,-0.06207969,0.08068517,-0.02280476,-0.6012688,-4.587027,0.06825788,0.7937559,1.296852,0.3483636,-0.04756011,0.07567411,0.01938664,-0.959881,0.01444219,-0.03705363,0.8654418,1.356958,0.1828389,0.4157566,1.1736,0.3698145,276.9852,142.6574,116.4791,True
0,1.644447,0.07366116,0.0146822,0.02889113,-1.39754,1.467287,-2.539931,0.7071773,1.144135,0.4411056,-1.486993,-0.006141662,11.3,45.1,-0.06928446,0.08703707,-0.004580282,-0.6006456,-4.584984,0.06758463,0.7932627,1.296927,0.34849,-0.05302488,0.08106305,0.005616033,-0.9603002,0.01572277,-0.0370491,0.8652105,1.356972,0.1830397,0.4153251,1.173308,0.3698626,276.9449,142.8577,116.2874,True
0,1.655559,0.07474329,0.00826996,0.0235891,-1.397515,1.467349,-2.540883,0.7067434,1.144054,0.4411991,-1.487153,-0.01451532,11.3,45.1,-0.07238504,0.08168942,0.003956249,-0.6003847,-4.583746,0.06735827,0.7927474,1.296854,0.3486323,-0.05530712,0.08538821,-0.009249704,-0.9608557,0.01703251,-0.03708638,0.8649246,1.35697,0.183234,0.414884,1.173002,0.3698579,276.9001,143.1398,116.0097,True
0,1.66667,0.07368124,0.00719678,0.02252708,-1.3977,1.467413,-2.541694,0.7063915,1.143992,0.4414251,-1.486982,0.01573296,11.3,45.1,-0.07781564,0.07427317,-0.001336016,-0.6006398,-4.582636,0.06759582,0.7923011,1.296866,0.3488128,-0.05443573,0.09079453,-0.02841231,-0.9618805,0.01845038,-0.03734045,0.8646703,1.356981,0.1834507,0.4144785,1.172666,0.3698027,276.8501,143.4223,115.7105,True
0,1.677781,0.0694304,0.0007770862,0.01829661,-1.397634,1.467638,-2.542367,0.705996,1.143967,0.4414663,-1.487082,-0.009385048,11.3,45.1,-0.08114611,0.06686006,-0.009845183,-0.6009966,-4.581733,0.06785202,0.7918493,1.296876,0.3489349,-0.05443186,0.09185965,-0.02840738,-0.9622086,0.01971192,-0.0375242,0.8643881,1.35697,0.1836362,0.4140584,1.172327,0.3697176,276.8082,143.8123,115.2764,True
0,1.688892,0.07157501,-0.00561716,0.018328,-1.397648,1.468074,-2.543358,0.7055386,1.143996,0.4415579,-1.486952,0.01207007,11.3,45.1,-0.07392802,0.06369517,-0.02699783,-0.6018845,-4.580686,0.06768903,0.7913918,1.296943,0.3491216,-0.05857576,0.08755095,-0.0166646,-0.9619806,0.02068344,-0.03727813,0.8641205,1.357005,0.1838028,0.4136269,1.171985,0.3696544,276.7994,144.2684,114.7341,True
0,1.700003,0.07373887,-0.02478373,0.01948058,-1.397334,1.469,-2.544419,0.705139,1.144002,0.441613,-1.486778,0.01575747,11.4,46.1,-0.06326839,0.05832243,-0.02502224,-0.6020528,-4.579843,0.06734362,0.7909557,1.296953,0.3492274,-0.05719001,0.07569862,0.01522791,-0.9607439,0.0212455,-0.03701421,0.863803,1.357113,0.1839406,0.4132088,1.171648,0.36967,276.7714,144.7395,114.1844,True
0,1.711114,0.07376413,-0.03974258,0.01102976,-1.396691,1.469768,-2.545379,0.7047431,1.144064,0.4416175,-1.487054,-0.02526539,11.4,46.1,-0.06216212,0.05937321,-0.02183471,-0.6020747,-4.57854,0.06698809,0.7904788,1.296978,0.3493009,-0.05717417,0.07995676,0.01630794,-0.9606672,0.02255405,-0.0371756,0.8636606,1.357135,0.1840487,0.4127683,1.171349,0.3697482,276.721,145.2411,113.6802,True
0,1.722225,0.07377482,-0.0461489,0.007863065,-1.396258,1.470368,-2.546299,0.7043957,1.144042,0.4416733,-1.487074,-0.001672551,11.4,46.1,-0.0673629,0.0678862,-0.0142789,-0.6019213,-4.576698,0.06640512,0.7900721,1.296969,0.3493824,-0.05081055,0.08635706,0.01307314,-0.9606672,0.0239807,-0.03766695,0.8634105,1.357155,0.1842444,0.412319,1.171091,0.369849,276.6665,145.627,113.3336,True
0,1.733337,0.06526732,-0.05364145,0.003643926,-1.395806,1.471075,-2.546864,0.7041313,1.14396,0.4417486,-1.486499,0.05182345,11.4,46.1,-0.07039514,0.07531605,-0.003554374,-0.6014451,-4.574732,0.06565784,0.7897393,1.296977,0.3494103,-0.04666119,0.09066048,0.002384699,-0.9612238,0.02534717,-0.03799558,0.8632455,1.357132,0.184411,0.4119145,1.170819,0.3699077,276.6328,145.8493,113.1686,True
0,1.744448,0.05674402,-0.05259596,0.002580356,-1.395559,1.471589,-2.547321,0.7038227,1.143905,0.4418485,-1.485497,0.09018911,11.4,48.5,-0.066159,0.06891438,-0.003628889,-0.6014238,-4.573643,0.06535211,0.7893373,1.296995,0.3495219,-0.04353496,0.08322925,-0.004070162,-0.9614853,0.026185,-0.03813487,0.8629695,1.357205,0.184644,0.4115334,1.170486,0.3698913,276.6304,146.1047,112.9361,True
0,1.755559,0.04926535,-0.04088128,0.004662186,-1.395655,1.47175,-2.547602,0.703499,1.14379,0.4419305,-1.483726,0.1598998,11.4,48.5,-0.05884328,0.05719157,-0.01122208,-0.6017604,-4.573358,0.06556756,0.789029,1.297001,0.349613,-0.04027452,0.07574414,0.003321778,-0.9612153,0.02701218,-0.03818787,0.862769,1.357252,0.1847982,0.4111862,1.170029,0.3698216,276.6345,146.3422,112.6614,True
0,1.76667,0.04710878,-0.02595124,0.008862253,-1.396044,1.471787,-2.548088,0.7031304,1.143811,0.4420331,-1.481751,0.1775644,11.4,48.5,-0.04084547,0.06356727,-0.02207258,-0.6022164,-4.571488,0.06388897,0.7886029,1.297029,0.3497121,-0.04227834,0.066103,0.01608435,-0.9606273,0.02753469,-0.0379892,0.8624997,1.357317,0.1849227,0.4108476,1.169413,0.3697305,276.6167,146.8108,112.1218,True
0,1.777781,0.0524183,-0.01740449,0.01202151,-1.396316,1.471876,-2.54883,0.7027682,1.143713,0.4420867,-1.479354,0.2158568,11.4,48.5,-0.02699461,0.07098231,-0.02435418,-0.6025444,-4.569607,0.06215285,0.7881476,1.296999,0.3498135,-0.03893091,0.06071445,0.03200698,-0.959758,0.02833311,-0.03797534,0.8620474,1.357311,0.1850822,0.4104279,1.168653,0.3696644,276.5674,147.6288,111.2207,True
0,1.788892,0.05453981,-0.01206934,0.01412556,-1.396452,1.472021,-2.549545,0.7024592,1.14371,0.4421704,-1.476914,0.2192301,11.4,48.5,-0.02702852,0.06780028,-0.02649063,-0.6027884,-4.568297,0.06135497,0.7877549,1.296967,0.3498182,-0.03891989,0.06604115,0.0330963,-0.9594224,0.02956934,-0.03818654,0.8617737,1.357385,0.1852329,0.4098784,1.167775,0.3696771,276.4708,148.849,109.9271,True
0,1.800003,0.0534755,-0.01312245,0.01519278,-1.396568,1.472162,-2.550102,0.7021301,1.143746,0.4422176,-1.474185,0.2453877,11.4,56.2,-0.02906465,0.06777957,-0.01900727,-0.6026846,-4.566957,0.06062819,0.7873896,1.296978,0.3498728,-0.03691962,0.06822391,0.02030048,-0.9596403,0.03057296,-0.03841104,0.8615251,1.357407,0.1854098,0.4092025,1.166805,0.3698069,276.3374,150.4153,108.3261,True
0,1.811115,0.04603115,-0.02059166,0.01415884,-1.396364,1.472547,-2.550427,0.7018764,1.143584,0.4422174,-1.470744,0.309954,11.4,56.2,-0.04282853,0.05606163,-0.00822479,-0.6024118,-4.566806,0.06156483,0.787047,1.296959,0.3499045,-0.03379116,0.07250308,0.01389187,-0.9597361,0.03163143,-0.03867469,0.861279,1.357378,0.1854894,0.4084885,1.165704,0.3700537,276.1972,152.1033,106.6568,True
0,1.822226,0.03751611,-0.0248987,0.007790503,-1.396047,1.472875,-2.550658,0.7015907,1.14351,0.442306,-1.466781,0.3568706,11.4,56.2,-0.05024035,0.04648074,-0.00177403,-0.6022238,-4.566363,0.06198694,0.7866932,1.296938,0.3499637,-0.03281387,0.07253812,0.005359027,-0.9600009,0.03260002,-0.03890319,0.8610532,1.357403,0.1856344,0.4077734,1.164467,0.3703983,276.0403,154.2412,104.5709,True
0,1.833337,0.03325748,-0.02384049,0.006718636,-1.395959,1.473006,-2.550979,0.7012989,1.143425,0.4423554,-1.462392,0.3952725,11.4,56.2,-0.05122095,0.04645682,0.004630815,-0.6019309,-4.565553,0.06185138,0.7863529,1.296917,0.3500099,-0.02961941,0.07360117,0.005323386,-0.9600488,0.0335991,-0.03920839,0.8608547,1.357414,0.1857872,0.4070702,1.163107,0.3708038,275.8817,156.6686,102.2334,True
0,1.844448,0.02685329,-0.01638867,0.008816992,-1.396107,1.473105,-2.551088,0.7009851,1.143277,0.4424,-1.45794,0.4006143,9.2,40.9,-0.04587975,0.06455939,0.0003691674,-0.6020278,-4.563268,0.06024257,0.7860458,1.296927,0.3501475,-0.02424994,0.07144882,0.009520258,-0.9598512,0.03451257,-0.03962518,0.8606038,1.357468,0.1859653,0.4064197,1.161614,0.3712115,275.742,159.2606,99.7434,True
0,1.855559,0.02791442,-0.01210609,0.01092342,-1.396289,1.473054,-2.551464,0.7007124,1.143272,0.4424152,-1.453499,0.3994077,9.2,40.9,-0.03443982,0.05500266,-0.01898886,-0.6028491,-4.562653,0.05975388,0.7857122,1.296912,0.3502624,-0.02314643,0.07036564,0.01376734,-0.9595609,0.03543242,-0.03985634,0.8604237,1.357521,0.1861141,0.4057576,1.160039,0.3715941,275.6154,162.3205,96.75048,True
0,1.86667,0.03322604,-0.002455103,0.02152778,-1.396948,1.47304,-2.552017,0.7004102,1.143302,0.4424784,-1.448551,0.4457669,9.2,40.9,-0.02179153,0.05072407,-0.02875199,-0.6034462,-4.562148,0.05911259,0.7853962,1.296887,0.3503447,-0.02941342,0.0628632,0.02658962,-0.9587913,0.03609129,-0.03962251,0.8601357,1.357537,0.1861546,0.4050585,1.158423,0.3719497,275.4947,165.6019,93.51244,True
0,1.877781,0.03959661,0.01037328,0.02892575,-1.397717,1.472887,-2.552637,0.7001453,1.14326,0.4425004,-1.443889,0.4190381,9.2,40.9,-0.005957436,0.03577819,-0.03647392,-0.6041823,-4.562355,0.058748,0.7850375,1.296847,0.3504832,-0.02513899,0.05219814,0.02863135,-0.9584205,0.03644669,-0.03966352,0.8598756,1.357555,0.1862619,0.4043164,1.156798,0.3722814,275.374,169.157,89.99273,True
0,1.888893,0.04277477,0.02211148,0.03207111,-1.398463,1.472647,-2.553206,0.6998701,1.143167,0.4425116,-1.438993,0.4405523,9.2,40.9,-0.007122342,0.02622078,-0.04181511,-0.6046691,-4.562114,0.05868062,0.7846546,1.296781,0.3505373,-0.02519434,0.05328942,0.02331287,-0.9583459,0.0373037,-0.03987418,0.8596253,1.357616,0.1864188,0.4035591,1.155201,0.3725972,275.2698,173.1077,86.06738,True
0,1.900004,0.04169612,0.02954723,0.02777614,-1.398938,1.472238,-2.553597,0.6995958,1.143094,0.4425504,-1.433849,0.4629456,9.2,40.9,-0.01857805,0.0240513,-0.02037075,-0.6041818,-4.56185,0.05905959,0.7843335,1.296735,0.3505523,-0.02328297,0.05657713,0.002005339,-0.9590182,0.0382133,-0.04015887,0.8592796,1.357517,0.1865301,0.4028103,1.153649,0.3729177,275.1725,177.0093,82.18295,True
0,1.911115,0.03530458,0.02739564,0.02672683,-1.399281,1.472325,-2.553727,0.6993236,1.142971,0.4425981,-1.428449,0.4861408,9.2,40.9,-0.02265318,0.03361059,-0.00855794,-0.6037253,-4.560576,0.05837223,0.784,1.296686,0.3505971,-0.01906597,0.0587189,-0.002285708,-0.9591193,0.039045,-0.0405453,0.8589419,1.357506,0.186691,0.4021061,1.152113,0.3732576,275.0906,180.4885,78.73483,True
0,1.922226,0.02361022,0.01349845,0.02146769,-1.399175,1.472705,-2.553699,0.6990166,1.142883,0.4426377,-1.422832,0.5057403,9.2,40.9,-0.03103793,0.04533095,-0.0009496296,-0.6034084,-4.558949,0.05769765,0.7836714,1.29666,0.350637,-0.01373637,0.06297603,-0.002322807,-0.9591689,0.04009855,-0.04118499,0.8586606,1.357534,0.1868351,0.4014305,1.150561,0.3736287,275.0336,183.7034,75.56062,True
0,1.933337,0.01829481,0.006006813,0.01617326,-1.399036,1.472835,-2.553728,0.6987393,1.142778,0.442687,-1.41695,0.5297101,9.2,40.9,-0.02689404,0.04108534,-0.00954387,-0.6038931,-4.558476,0.05733466,0.7832789,1.296656,0.3507762,-0.009419221,0.06295067,0.002958371,-0.9589814,0.04092013,-0.04170936,0.8583646,1.35752,0.1869895,0.4007639,1.148972,0.3740424,275.0079,186.9796,72.33256,True
0,1.944448,0.01403855,0.002779357,0.01086189,-1.398949,1.472857,-2.55372,0.6984555,1.14272,0.4426897,-1.411154,0.5217283,9.2,40.9,-0.01954735,0.03682579,-0.01711066,-0.6043469,-4.55798,0.05687713,0.7829449,1.296636,0.3508713,0.002367735,0.05332284,0.01025369,-0.9586166,0.04123479,-0.04236317,0.8580393,1.357565,0.1870713,0.4001024,1.147331,0.374472,275.001,190.5159,68.86937,True
0,1.955559,0.01296218,0.007026401,0.00764383,-1.399069,1.472591,-2.55377,0.6983061,1.142736,0.4427097,-1.405644,0.4955513,9.2,40.9,0.005755831,0.03040433,-0.03663649,-0.6054894,-4.557961,0.05590827,0.7827251,1.296654,0.3508852,0.008833501,0.03623668,0.01863703,-0.9581351,0.04100842,-0.04252216,0.8577647,1.357663,0.1870837,0.3994299,1.14565,0.3748716,275.0381,194.2979,65.16852,True
0,1.966671,0.0193413,0.01450413,0.009739704,-1.399449,1.472347,-2.554174,0.6980852,1.142706,0.4427271,-1.400001,0.5080115,9.2,40.9,0.01521586,0.02187515,-0.0453152,-0.6062862,-4.558022,0.05537245,0.7824171,1.296644,0.3509455,0.01321555,0.02233135,0.03131781,-0.9573222,0.04079417,-0.04267955,0.8574411,1.357712,0.18713,0.3987578,1.14394,0.3752301,275.1121,198.1461,61.37943,True
0,1.977782,0.02572239,0.02201956,0.01928453,-1.400122,1.472129,-2.554653,0.6979328,1.142636,0.4427094,-1.394416,0.502481,9.2,40.9,0.02039725,0.008035723,-0.05289101,-0.6071469,-4.55863,0.05546512,0.7821525,1.296711,0.3509996,0.01111793,0.01699469,0.03450442,-0.9569904,0.04086208,-0.04281458,0.8571773,1.357766,0.1871943,0.3981002,1.142227,0.3755542,275.2155,202.1631,57.39806,True
0,1.988893,0.02677463,0.02950125,0.02351173,-1.400773,1.471827,-2.554891,0.6976793,1.142591,0.4427018,-1.389024,0.48485,9.2,40.9,0.02050244,-0.0005308259,-0.0422697,-0.6072189,-4.559265,0.05574369,0.7818718,1.296722,0.3510139,0.006839447,0.01594581,0.03241415,-0.9567172,0.04114331,-0.04296398,0.8568654,1.357833,0.1872799,0.3975033,1.140537,0.3758733,275.3408,206.1251,53.45273,True
0,2.000004,0.02037759,0.03269576,0.02562854,-1.401331,1.471622,-2.554851,0.6974663,1.142534,0.442713,-1.383317,0.5138478,9.2,40.9,0.01022599,0.008990813,-0.01547278,-0.6064758,-4.558648,0.05542065,0.7815801,1.296727,0.3510621,0.009973578,0.01915783,0.02600045,-0.9567129,0.04146116,-0.0433781,0.8565356,1.357955,0.1873438,0.3969481,1.138874,0.3762111,275.4503,209.6643,49.93869,True
0,2.011115,0.01185913,0.03268738,0.02562828,-1.401769,1.471408,-2.554705,0.6972598,1.142548,0.4427638,-1.377237,0.5474752,9.2,40.9,0.003960647,0.01323443,-0.006857225,-0.6063474,-4.558341,0.05528057,0.7812961,1.296717,0.3510916,0.01311648,0.01597557,0.02169354,-0.9565946,0.04151349,-0.0435845,0.8562194,1.358012,0.1873085,0.3964258,1.137216,0.3765724,275.5449,212.9365,46.7137,True
0,2.022226,0.009728624,0.03268857,0.02669383,-1.402253,1.471297,-2.554728,0.6970567,1.142491,0.4427662,-1.371054,0.5567763,9.2,40.9,-0.002257267,0.02386972,0.003915641,-0.605899,-4.55727,0.05466511,0.7809912,1.296741,0.3511007,0.008832671,0.01492248,0.0196026,-0.9564295,0.04167461,-0.0436279,0.8559293,1.358077,0.1873496,0.395859,1.135561,0.3769577,275.6601,216.0729,43.63614,True
0,2.033337,0.01079889,0.03054058,0.02243183,-1.402345,1.471052,-2.554883,0.696839,1.142431,0.4427478,-1.365189,0.5277557,9.2,40.9,0.001006003,0.04410701,0.002888563,-0.6058329,-4.555131,0.0526459,0.7807446,1.2967,0.3511682,0.008824734,0.01172502,0.01958126,-0.956331,0.04168273,-0.04364708,0.855682,1.358105,0.1873779,0.3952716,1.133912,0.3773599,275.8177,219.2107,40.55631,True
0,2.044448,0.01293176,0.02946369,0.01924321,-1.402622,1.470888,-2.555089,0.6966192,1.142477,0.4428608,-1.359722,0.4917436,9.2,40.9,0.01045745,0.03984738,-0.006828062,-0.6060971,-4.554585,0.0517303,0.780448,1.296688,0.3512371,0.00777893,0.008521004,0.02170929,-0.956012,0.04167767,-0.0436841,0.8553572,1.358168,0.1874013,0.3946885,1.1323,0.3777745,276.0091,222.2381,37.58786,True
0,2.055559,0.0129495,0.01988281,0.02141188,-1.402732,1.471167,-2.555298,0.6964004,1.14243,0.4428427,-1.354365,0.4820046,3.2,47,0.01877578,0.03240785,-0.0208116,-0.6067917,-4.554503,0.05118116,0.7801416,1.296749,0.3512709,0.008919604,0.007416679,0.02914977,-0.9554149,0.04163919,-0.04379835,0.8550456,1.358283,0.187428,0.3941425,1.130726,0.3781836,276.1939,224.8731,35.02905,True
0,2.06667,0.01401509,0.01987682,0.01928466,-1.403027,1.471049,-2.555477,0.6961651,1.142387,0.4428465,-1.348951,0.4873262,3.2,47,0.02381404,0.01221077,-0.03799758,-0.6078079,-4.555402,0.05148476,0.7798613,1.296738,0.3513064,0.01326763,-0.005407182,0.03864188,-0.9545951,0.04111002,-0.04375973,0.8546954,1.358386,0.1874189,0.3936277,1.129179,0.3785792,276.3887,227.105,32.85749,True
0,2.077781,0.01189801,0.01560185,0.01823571,-1.403103,1.471138,-2.555633,0.6957917,1.142367,0.4428418,-1.343472,0.4932956,3.2,47,0.02165263,0.003696155,-0.03800263,-0.6082692,-4.55583,0.05167332,0.7795818,1.296772,0.3513541,0.01659131,-0.02251218,0.05238468,-0.9535081,0.04014063,-0.04347824,0.8543581,1.358454,0.1874053,0.3931384,1.127661,0.3789704,276.5859,229.2384,30.77104,True
0,2.088892,0.01722672,0.01457742,0.02569248,-1.403568,1.471326,-2.556025,0.6955498,1.142359,0.4428418,-1.338022,0.4903225,3.2,47,0.02303913,0.01106258,-0.01455299,-0.6075783,-4.555136,0.05080379,0.7792662,1.296814,0.3514004,0.01338327,-0.02782862,0.05133079,-0.9529621,0.03966193,-0.04326598,0.8540325,1.358509,0.1874104,0.3926745,1.126147,0.3793234,276.7701,231.1896,28.89043,True
0,2.100003,0.01936095,0.01245053,0.02570195,-1.403835,1.471437,-2.556292,0.6952705,1.142343,0.4428444,-1.332422,0.5041497,3.5,49,0.01582167,0.03234641,-0.001596233,-0.6070889,-4.553249,0.04931162,0.7790054,1.296844,0.3513794,0.01224263,-0.001151922,0.04186077,-0.9529834,0.04082559,-0.04403297,0.8538356,1.358535,0.1875124,0.3921728,1.124626,0.3796363,276.9581,232.9839,27.15429,True
0,2.111114,0.01830922,0.004957367,0.01934903,-1.403744,1.471687,-2.556519,0.6950313,1.142448,0.4429007,-1.32702,0.4858735,3.5,49,0.01264688,0.03127898,0.0005665659,-0.6071235,-4.55292,0.04903865,0.7787502,1.296948,0.3513129,0.01650394,0.009500992,0.04079438,-0.9526132,0.04141309,-0.04475948,0.8535523,1.358617,0.1875515,0.3916038,1.123085,0.3799066,277.1671,234.728,25.45219,True
0,2.122225,0.01724919,0.001749967,0.01723315,-1.403789,1.471834,-2.5567,0.6947544,1.142457,0.4429092,-1.321254,0.5192007,3.5,49,0.002004208,0.02278281,0.003864893,-0.6069499,-4.55308,0.04952308,0.7784721,1.296944,0.3512862,0.00998635,0.007422844,0.02913478,-0.9526702,0.04138486,-0.04458105,0.8532938,1.358657,0.1875787,0.3910655,1.121498,0.3801351,277.3913,236.5168,23.68821,True
0,2.133336,0.02045958,-0.01000416,0.008770893,-1.403381,1.472289,-2.557063,0.6945276,1.142409,0.4429727,-1.315454,0.5220417,3.5,49,0.004816532,0.0132917,-0.02390337,-0.6081424,-4.553215,0.04944505,0.7781281,1.296928,0.3514416,0.01522725,0.009581416,0.02163411,-0.95265,0.04153559,-0.04484737,0.8529034,1.358657,0.187557,0.3905521,1.119859,0.3803351,277.6522,238.1772,22.03621,True
0,2.144447,0.02474457,-0.02280329,0.003505259,-1.402953,1.47282,-2.557598,0.6941925,1.142387,0.4429119,-1.309663,0.5211386,3.5,49,0.0118957,0.002719437,-0.05066765,-0.6096253,-4.553531,0.04934358,0.7777787,1.296942,0.3514922,0.02054331,0.01064716,0.02051837,-0.9524769,0.04172508,-0.04538053,0.8525984,1.358756,0.1875281,0.3900686,1.118185,0.3805262,277.9524,239.655,20.55353,True
0,2.155558,0.02793619,-0.02069147,-0.001831257,-1.402711,1.472854,-2.558012,0.6938874,1.142351,0.4428573,-1.304002,0.5093243,3.6,52.9,0.02027975,0.008058622,-0.06353632,-0.6106825,-4.553116,0.04846207,0.7774298,1.296976,0.351469,0.02065704,0.0138059,0.03118559,-0.9517307,0.04223893,-0.04589931,0.8522072,1.358904,0.1875081,0.3896044,1.116483,0.3807263,278.2399,240.9538,19.25663,True
0,2.166669,0.03111194,-0.008966248,-0.001887501,-1.402863,1.472569,-2.558397,0.693603,1.142318,0.4427273,-1.298346,0.5088248,3.6,52.9,0.013829,0.01023436,-0.06876647,-0.6114628,-4.552661,0.04816593,0.7770962,1.296976,0.3514519,0.01548474,0.01374725,0.04615385,-0.9507064,0.0424669,-0.04600691,0.851876,1.358993,0.1874592,0.3891726,1.114731,0.3809331,278.5159,242.0677,18.16519,True
0,2.17778,0.03428639,0.003846929,0.003380292,-1.403281,1.472297,-2.558836,0.6932775,1.142229,0.4426622,-1.292333,0.5413983,3.6,52.9,0.005365772,0.005980393,-0.06335012,-0.6120014,-4.552836,0.04843065,0.7766358,1.297108,0.3513753,0.00813492,0.01051264,0.05686735,-0.9497706,0.04250458,-0.04587295,0.8516012,1.359029,0.1874235,0.3887048,1.112916,0.3811297,278.7995,243.1799,17.09512,True
0,2.188891,0.04171183,0.02519603,0.01074079,-1.404085,1.471779,-2.559505,0.6929009,1.142164,0.4425306,-1.286213,0.5506998,3.6,52.9,0.001149115,0.01132092,-0.06114194,-0.6125106,-4.552134,0.04800348,0.776251,1.297166,0.3513172,-0.0056528,0.01156141,0.06340834,-0.9488758,0.04274587,-0.04539944,0.851325,1.359017,0.1873159,0.388199,1.111034,0.3813334,279.1089,244.3946,15.91217,True
0,2.200002,0.04383239,0.03163021,0.01923371,-1.404805,1.471572,-2.560022,0.6925564,1.142108,0.4424567,-1.280003,0.5589416,3.3,50.3,-0.004893867,0.03150688,-0.03968238,-0.612191,-4.550298,0.0466671,0.7757955,1.297226,0.3512039,-0.01747518,0.01587784,0.05289282,-0.9486915,0.04319008,-0.04512567,0.8510079,1.359049,0.1872261,0.3876663,1.109096,0.3815679,279.437,245.7298,14.60815,True
0,2.211113,0.0523559,0.03274576,0.02775425,-1.405516,1.471684,-2.560914,0.6921899,1.142105,0.4423323,-1.273896,0.5492306,3.3,50.3,-0.006796803,0.04850948,-0.02681484,-0.6121244,-4.548431,0.04520902,0.7753692,1.29727,0.3511372,-0.02395155,0.01805899,0.04445117,-0.9484124,0.04371392,-0.04501062,0.8506534,1.359134,0.1872168,0.3870987,1.107113,0.3818527,279.7704,247.1347,13.24254,True
0,2.222224,0.05343249,0.02636559,0.02991375,-1.4059,1.471849,-2.561581,0.6918559,1.142083,0.4422252,-1.26724,0.5995148,3.3,50.3,-0.01510479,0.05914025,-0.01281944,-0.611726,-4.546631,0.04417811,0.774929,1.297373,0.3510139,-0.02716754,0.02020093,0.04236263,-0.9480246,0.0440857,-0.04483325,0.8503727,1.359168,0.18717,0.3865063,1.105089,0.3821912,280.11,248.5836,11.8592,True
0,2.233335,0.05985527,0.008228768,0.02253717,-1.405567,1.472332,-2.562529,0.6915509,1.142059,0.4421105,-1.260973,0.5635082,3.3,50.3,-0.03412873,0.06023185,-0.0008585146,-0.6114016,-4.545521,0.04429556,0.7744828,1.297355,0.3508134,-0.03792536,0.02558354,0.03184128,-0.9480422,0.04473085,-0.04446147,0.8500104,1.359241,0.1871748,0.3859395,1.103029,0.3825597,280.4736,249.9993,10.53607,True
0,2.244446,0.05880111,0.001829633,0.02149826,-1.405613,1.47256,-2.563183,0.6912848,1.142031,0.4420638,-1.254138,0.6156492,3.3,50.3,-0.05108041,0.07412753,0.002606518,-0.6111917,-4.543389,0.04367477,0.774039,1.29739,0.3506591,-0.04113541,0.03518249,0.02978403,-0.9478073,0.04564698,-0.04442179,0.8497264,1.359311,0.1871562,0.3854267,1.100936,0.3829092,280.8482,251.2892,9.358373,True
0,2.255557,0.05562848,-0.01204882,0.01623528,-1.405255,1.47308,-2.563787,0.6909215,1.141978,0.441931,-1.247525,0.594714,3.3,50.3,-0.0499109,0.09541409,0.00479803,-0.6111028,-4.540524,0.0418095,0.7736423,1.297405,0.3505785,-0.04636838,0.05007188,0.03735465,-0.9472017,0.04704101,-0.04462766,0.849428,1.359444,0.1871614,0.3849844,1.098801,0.383204,281.2284,252.3133,8.435117,True
0,2.266668,0.05669912,-0.01631724,0.01306203,-1.405226,1.473324,-2.564466,0.690614,1.141915,0.4418192,-1.240316,0.6492981,3.3,50.3,-0.0456225,0.1113893,0.0026751,-0.6111321,-4.537329,0.03958123,0.7731667,1.2975,0.3506181,-0.04947773,0.05430385,0.04486172,-0.9464683,0.04798537,-0.04460262,0.8491907,1.359455,0.1871178,0.3846515,1.096812,0.3833801,281.4796,253.6674,7.083884,True
0,2.277779,0.05455481,-0.007759848,0.02154589,-1.405749,1.473444,-2.56503,0.6902882,1.141832,0.4416678,-1.233075,0.6515833,3.3,50.3,-0.04036193,0.1156553,-0.003780579,-0.6114234,-4.534936,0.03792741,0.7726797,1.297449,0.3506031,-0.05270173,0.05857981,0.04171308,-0.9462062,0.04891801,-0.04448624,0.8490241,1.359512,0.1872063,0.3846543,1.096065,0.383557,281.3182,254.7531,5.944371,True
0,2.28889,0.05986351,0.001846446,0.02256651,-1.406209,1.473239,-2.565842,0.6899942,1.141706,0.4415379,-1.225957,0.6404481,3.3,50.3,-0.04149624,0.122071,-0.01120144,-0.6117499,-4.532429,0.0363399,0.7723145,1.297481,0.350652,-0.05600899,0.0586241,0.0311008,-0.9462158,0.04971429,-0.04416107,0.8488218,1.359524,0.1872704,0.3846252,1.095657,0.3836735,280.9224,254.9475,5.792274,True
0,2.300001,0.06410939,0.01148979,0.03317526,-1.407078,1.473253,-2.566706,0.6897383,1.141596,0.441422,-1.218542,0.6675713,3.3,50.3,-0.04489018,0.1082782,-0.02293022,-0.6123646,-4.531079,0.03585014,0.7719615,1.2975,0.350626,-0.05068304,0.061815,0.03105596,-0.9458813,0.0506432,-0.04431633,0.8486685,1.359601,0.1873064,0.384533,1.095323,0.3837434,280.6024,255.4916,5.221245,True
0,2.311112,0.06623472,0.02007542,0.04592205,-1.408172,1.473357,-2.567624,0.6894943,1.141494,0.4412701,-1.211395,0.6427224,3.3,50.3,-0.05355218,0.0870196,-0.02822914,-0.6128306,-4.530643,0.03631699,0.7716185,1.297565,0.3505552,-0.05071181,0.06502102,0.02788228,-0.9455564,0.05162791,-0.04435628,0.8484277,1.35974,0.1873283,0.3843649,1.094965,0.3838039,280.2586,256.2791,4.412348,True
0,2.322223,0.06411044,0.01690493,0.05232852,-1.408899,1.473743,-2.568323,0.6892705,1.141358,0.4411585,-1.203912,0.6736616,3.3,50.3,-0.05029132,0.08272275,-0.02189432,-0.6128285,-4.529302,0.03567278,0.7713044,1.297583,0.3505318,-0.04861718,0.07036289,0.02361863,-0.9455607,0.05280582,-0.04462606,0.8482782,1.359754,0.1872661,0.3842229,1.09457,0.3838863,279.9526,257.5155,3.10428,True
0,2.333334,0.05772461,0.01588074,0.06191019,-1.409706,1.473979,-2.5688,0.689037,1.141252,0.4410245,-1.196338,0.6815992,3.3,50.3,-0.02987687,0.08685696,-0.009350669,-0.6124269,-4.527457,0.03380563,0.7709799,1.297493,0.3504977,-0.0475133,0.0714087,0.02681017,-0.9451607,0.05372248,-0.04472673,0.848002,1.359805,0.1873224,0.3841511,1.094146,0.3839788,279.653,259.3594,1.175014,True
0,2.344445,0.05346997,0.01268089,0.06299581,-1.410391,1.474395,-2.56934,0.6888458,1.141122,0.440877,-1.188408,0.7140913,3.3,50.3,-0.01282936,0.09851807,-0.0127221,-0.6127076,-4.52501,0.03135926,0.7707794,1.297437,0.3504319,-0.03997735,0.06817939,0.0341769,-0.9445838,0.054649,-0.04514005,0.8478174,1.359867,0.1873636,0.3841197,1.09371,0.3840411,279.3074,261.5551,358.9117,True
0,2.355556,0.05135936,0.002014853,0.05877608,-1.410623,1.474791,-2.56994,0.6886684,1.141053,0.4408121,-1.180487,0.7129715,3.3,50.3,-0.005448759,0.08464725,-0.01500176,-0.6130027,-4.52428,0.0305928,0.7704799,1.297525,0.3503633,-0.03247239,0.05643667,0.03938356,-0.9438871,0.05503369,-0.04529238,0.847581,1.3599,0.1873949,0.3840889,1.093278,0.3840419,278.9431,263.747,356.6448,True
0,2.366668,0.05135967,0.0009226212,0.05239092,-1.410988,1.474969,-2.570539,0.6884879,1.141003,0.4407234,-1.172786,0.6929298,3.3,50.3,-0.007814255,0.04953379,-0.02362487,-0.6135257,-4.525469,0.03175207,0.7703213,1.297516,0.3503902,-0.02413392,0.03839227,0.0221732,-0.9442664,0.05477456,-0.04526016,0.8474079,1.359937,0.187396,0.3841344,1.09287,0.3840871,278.6243,264.5346,355.849,True
0,2.377779,0.04708171,0.01049311,0.05021724,-1.41162,1.474871,-2.570924,0.688436,1.140862,0.4406137,-1.165107,0.691077,3.3,50.3,-0.01257414,0.008100849,-0.05142578,-0.6151332,-4.527846,0.0340312,0.7700822,1.297486,0.3503571,-0.009415865,0.02461117,0.003855773,-0.9448171,0.05457629,-0.04558346,0.8472049,1.359947,0.1873133,0.3840344,1.092462,0.3840439,278.278,267.383,352.9102,True
0,2.38889,0.05024308,0.02644238,0.04268724,-1.412267,1.474352,-2.571427,0.6884956,1.140622,0.4404275,-1.157361,0.6970657,3.3,50.3,-0.00438012,-0.02810001,-0.06765114,-0.6165186,-4.530584,0.03595427,0.7699885,1.297426,0.3503418,-0.008395243,0.02250658,-0.0004318276,-0.9450238,0.05505326,-0.04580797,0.8470527,1.359887,0.1872008,0.3841148,1.092046,0.3840789,278.0731,268.2529,351.9335,True
0,2.400001,0.05021146,0.04454255,0.04047435,-1.413169,1.473642,-2.571874,0.6884767,1.140481,0.440357,-1.149379,0.7186993,3.3,50.3,0.02649553,-0.02500683,-0.0701599,-0.6173927,-4.530855,0.03486637,0.76984,1.297406,0.350337,-0.01154714,0.0086379,0.004869225,-0.9447937,0.05464048,-0.045331,0.846821,1.359894,0.1871448,0.3839831,1.091626,0.3840297,277.7045,272.127,347.9315,True
0,2.411112,0.05125413,0.05734377,0.04361665,-1.414305,1.473133,-2.572392,0.6884589,1.140446,0.4403377,-1.141704,0.6903491,3.3,50.3,0.04787111,-0.01230764,-0.06825521,-0.6180744,-4.530106,0.03308152,0.7696503,1.297448,0.3503275,-0.01246534,-0.001011904,0.01975636,-0.943999,0.05428961,-0.04496721,0.8465719,1.360032,0.1871634,0.3841099,1.091188,0.3841072,277.4723,273.556,346.3915,True
0,2.422223,0.05336937,0.06694956,0.0467728,-1.415415,1.472632,-2.573011,0.6884749,1.140337,0.4403274,-1.133832,0.7086052,3.3,50.3,0.04801808,-0.004883919,-0.05863888,-0.6184036,-4.529732,0.03230148,0.7695019,1.297471,0.350281,-0.002651773,-0.008570523,0.04199516,-0.9427979,0.05393487,-0.04510276,0.8463289,1.360099,0.1871479,0.3843188,1.090724,0.3842942,277.2189,275.8835,344.0162,True
0,2.433334,0.0576232,0.06907789,0.04463444,-1.416247,1.472177,-2.573685,0.6884415,1.140137,0.4403217,-1.125978,0.7068368,3.3,50.3,0.04704748,-0.001714397,-0.05222544,-0.6188276,-4.529733,0.03180826,0.7693643,1.297462,0.3502772,0.001632787,-0.00964988,0.04408037,-0.9422221,0.05378919,-0.04520956,0.846101,1.360184,0.1870978,0.384177,1.09027,0.3843655,276.9159,282.9975,336.7748,True
0,2.444445,0.05764298,0.05732957,0.03829969,-1.416589,1.472118,-2.574325,0.6885287,1.140077,0.4403529,-1.118167,0.7028448,3.3,50.3,0.045104,-0.001759239,-0.03728743,-0.6187881,-4.529699,0.03133022,0.7692088,1.297549,0.3502779,-0.002732646,-0.01813271,0.03449816,-0.942212,0.05309558,-0.04464337,0.8459201,1.360152,0.1869774,0.3843307,1.089846,0.3846262,276.7762,286.0503,333.6077,True
0,2.455556,0.06083789,0.0551847,0.03404354,-1.417027,1.471755,-2.574973,0.6885656,1.140005,0.4402816,-1.110291,0.7088829,3.3,50.3,0.04427738,0.00242761,-0.0191521,-0.6184217,-4.529663,0.03092489,0.7690974,1.297544,0.3502431,-0.002895504,-0.02232281,0.01850422,-0.9424543,0.05269051,-0.04445029,0.845799,1.360109,0.1869791,0.3844881,1.089397,0.3849223,276.6765,289.8907,329.6807,True
0,2.466667,0.06083639,0.05407763,0.02339544,-1.417321,1.471126,-2.575505,0.6887094,1.139923,0.4402087,-1.102252,0.723684,3.3,50.3,0.04242187,0.007671796,0.001124754,-0.6178709,-4.529584,0.03044819,0.7690551,1.297602,0.3501894,-0.004054694,-0.02334397,0.008923369,-0.9426163,0.05241181,-0.04431127,0.8456541,1.360095,0.1868737,0.3846702,1.088913,0.3852286,276.5782,294.0166,325.4578,True
0,2.477778,0.06506936,0.07004,0.0179957,-1.418029,1.470027,-2.576178,0.6887858,1.139828,0.4401603,-1.094339,0.7119729,3.3,50.3,0.0415007,0.006565994,0.01285148,-0.617317,-4.529584,0.03001702,0.7689474,1.29763,0.3501389,-0.008346945,-0.02119669,0.005780659,-0.942661,0.05221061,-0.04394988,0.8454995,1.360102,0.1868353,0.3849623,1.089132,0.38533,276.1591,294.6037,324.6324,True
0,2.488889,0.06717855,0.07962361,0.01580826,-1.418626,1.468961,-2.576751,0.6889756,1.139707,0.4399385,-1.086311,0.7226424,3.3,50.3,0.04260176,0.0172228,0.01287789,-0.6171594,-4.528458,0.02863005,0.7688735,1.29763,0.3500626,-0.0136608,-0.02013168,0.006905422,-0.9425049,0.05201673,-0.04349901,0.8453609,1.360119,0.1868277,0.3851852,1.08897,0.3853437,275.8238,295.3431,323.7916,True
0,2.5,0.06823254,0.08600746,0.01364847,-1.419323,1.467991,-2.577393,0.6890044,1.139641,0.4398985,-1.078546,0.6985115,3.3,50.3,0.04141346,0.01299531,0.004355435,-0.6173729,-4.528464,0.02823617,0.7687798,1.297627,0.3500466,-0.009286738,-0.02124207,0.01750926,-0.9419063,0.05178157,-0.04345293,0.8452428,1.360067,0.1866281,0.3853297,1.088831,0.3856094,275.8815,305.7615,313.5824,True
0,2.511111,0.07251401,0.07641681,0.01049823,-1.419667,1.467543,-2.57833,0.689021,1.13958,0.4399292,-1.070483,0.7259477,3.3,50.3,0.0318048,0.01196687,0.00340147,-0.6174486,-4.528305,0.02814136,0.7687409,1.297589,0.3500333,-0.007163018,-0.02550544,0.01746458,-0.9417657,0.05124641,-0.04308728,0.8451414,1.360082,0.1865566,0.385541,1.088563,0.3857475,275.6114,307.058,312.0277,True
0,2.522222,0.06615055,0.06039077,0.002057277,-1.419672,1.467317,-2.578825,0.689011,1.139567,0.4399683,-1.062538,0.7148897,3.3,50.3,0.03496763,0.006633032,0.002275974,-0.6174523,-4.528461,0.02778369,0.7686793,1.297562,0.3499908,-0.001915595,-0.02760873,0.009943969,-0.9418695,0.05075559,-0.04295732,0.8450403,1.360062,0.1864913,0.3857325,1.088299,0.3858957,275.4832,310.3361,308.6585,True
0,2.533333,0.05977164,0.05290424,-0.001104215,-1.41973,1.466992,-2.579229,0.6890278,1.139506,0.4399433,-1.054764,0.6994373,3.3,50.3,0.03918004,-0.00830574,0.002162238,-0.6175221,-4.529685,0.02812085,0.7686948,1.297492,0.3498359,-0.001941775,-0.02333628,0.006767931,-0.94187,0.05056624,-0.04285479,0.8449484,1.36005,0.1863694,0.3859165,1.088041,0.3861036,275.4152,313.886,304.9719,True
0,2.544444,0.05339088,0.04645379,-0.01172036,-1.41959,1.466485,-2.579576,0.6890815,1.139429,0.4399524,-1.046314,0.7612721,3.3,50.3,0.04131902,-0.0211179,0.006348622,-0.6173298,-4.530938,0.02859915,0.7686796,1.29741,0.3497484,-0.001918059,-0.01695567,0.008925012,-0.9416922,0.05054041,-0.04274587,0.8448497,1.360009,0.1862881,0.3861224,1.087824,0.3863811,275.3613,317.5414,301.1058,True
0,2.555555,0.05018133,0.05388104,-0.01601529,-1.419736,1.465608,-2.579913,0.6890997,1.13936,0.4399276,-1.038209,0.7292776,3.3,50.3,0.04349111,-0.01581466,0.008470389,-0.6171929,-4.531074,0.02822418,0.7686383,1.297392,0.3496807,-0.00296159,-0.01696271,0.01106517,-0.9415068,0.05034054,-0.04255731,0.8447343,1.360004,0.1862302,0.3863052,1.087568,0.3865437,275.2716,320.6837,297.8256,True
0,2.566666,0.05121695,0.0709417,-0.01183832,-1.420378,1.464483,-2.580361,0.6891639,1.139315,0.4398472,-1.030218,0.7191795,3.3,50.3,0.05099414,0.001215268,0.007376753,-0.6171061,-4.529809,0.0263882,0.7685835,1.297448,0.3497615,-0.01038394,-0.01057983,0.0143657,-0.9412373,0.05043641,-0.04217355,0.8446313,1.359992,0.1861784,0.3865235,1.08735,0.3867016,275.1386,323.9675,294.3601,True
0,2.577777,0.05546143,0.08055529,-0.007619645,-1.42107,1.463475,-2.580982,0.6893259,1.139338,0.4397669,-1.02231,0.7116005,3.3,50.3,0.0541377,0.01614689,-0.001130039,-0.6174257,-4.528614,0.02468005,0.7685938,1.297444,0.3496912,-0.01146025,-0.01803594,0.0143511,-0.9409769,0.04985305,-0.04158926,0.8445071,1.360078,0.1860611,0.3864859,1.086992,0.3868016,275.5049,330.4979,287.891,True
0,2.588888,0.06183849,0.08912182,-0.001271237,-1.421889,1.462436,-2.581719,0.6894874,1.139343,0.4397826,-1.014501,0.7026489,3.3,50.3,0.04988272,0.01830042,-0.001063477,-0.617366,-4.527976,0.02377803,0.7685896,1.297478,0.3496859,-0.009453453,-0.02545271,0.003646518,-0.9413092,0.04907793,-0.04099963,0.8444488,1.360038,0.1859651,0.3866243,1.086688,0.387127,275.764,334.3908,283.8455,True
0,2.599999,0.05757376,0.09124985,-0.0002150834,-1.422506,1.461508,-2.582076,0.6896468,1.13932,0.4397671,-1.006689,0.703028,3.3,50.3,0.04258107,0.003354795,0.01494837,-0.6167604,-4.528769,0.0241072,0.7684968,1.297589,0.3495407,-2.257898E-05,-0.03818617,-0.01035825,-0.9419494,0.04797751,-0.04062599,0.8443995,1.359988,0.1858673,0.3867943,1.086462,0.387423,275.9486,337.8369,280.2186,True
0,2.61111,0.05224746,0.08805663,0.0008621477,-1.423,1.460668,-2.582281,0.6897702,1.139148,0.4397142,-0.9988196,0.7081537,0.3,0.9,0.03731583,-0.006233968,0.02243388,-0.6163066,-4.529273,0.02425208,0.7683765,1.297586,0.3494656,0.005311023,-0.04246287,-0.009368083,-0.9419851,0.04711571,-0.04033464,0.8442733,1.359935,0.1857424,0.3869818,1.086249,0.3876503,276.0416,341.0033,276.8761,True
0,2.622221,0.04053165,0.08696344,-0.001256835,-1.423503,1.459833,-2.582231,0.6899145,1.139058,0.4397304,-0.9904243,0.756198,0.3,0.9,0.03309715,-0.009430643,0.0267366,-0.6158592,-4.529669,0.02437671,0.7684629,1.297549,0.349385,0.009642085,-0.05101985,-0.001991316,-0.9417044,0.04604885,-0.0399642,0.8442122,1.359904,0.1856146,0.3871665,1.086009,0.3878675,276.1511,344.1133,273.6028,True
0,2.633332,0.03095053,0.08269081,-0.002310138,-1.423843,1.458941,-2.582106,0.6900243,1.139062,0.4396968,-0.9823517,0.7265223,0.3,0.9,0.03733835,-0.01584183,0.02665213,-0.6157116,-4.53042,0.0243578,0.7685522,1.297542,0.3493502,0.01922693,-0.05529032,-0.002109298,-0.9417268,0.04511222,-0.03995248,0.8441038,1.359867,0.185545,0.3873408,1.085747,0.3881008,276.3236,347.1184,270.4424,True
0,2.644443,0.02136431,0.08159442,-0.005499899,-1.424152,1.458114,-2.58187,0.6901927,1.139017,0.4397027,-0.9743702,0.7185444,0.3,0.9,0.05218193,-0.02760452,0.02429405,-0.6154763,-4.531662,0.02428563,0.7687306,1.297493,0.3493111,0.02563864,-0.05743478,-5.382579E-05,-0.9416314,0.04424416,-0.03995221,0.8440609,1.359834,0.1854405,0.3873191,1.085506,0.3881884,276.8099,351.4662,265.9766,True
0,2.655554,0.0170949,0.08370706,-0.009768587,-1.424566,1.457002,-2.581719,0.690364,1.13893,0.4396963,-0.9666992,0.6903233,0.3,0.9,0.0595386,-0.03720009,0.01883544,-0.6155199,-4.532954,0.02441586,0.7688915,1.297464,0.3492391,0.02453592,-0.05742201,-0.003241111,-0.9418088,0.04346825,-0.039602,0.8440742,1.359801,0.1853535,0.3874658,1.085258,0.3884616,277.0726,353.6782,263.5739,True
0,2.666665,0.01709291,0.0847675,-0.01083871,-1.424955,1.456053,-2.581771,0.6905445,1.138981,0.4397149,-0.9592232,0.6729419,0.2,0.9,0.07212829,-0.04998907,0.006911709,-0.6158645,-4.534755,0.02464782,0.7691022,1.297426,0.3492188,0.02867837,-0.05951439,-0.01394612,-0.942302,0.04248474,-0.03936152,0.8440838,1.359706,0.1851895,0.387591,1.085026,0.3887327,277.39,355.5094,261.5989,True
0,2.677776,0.009651529,0.07300951,-0.01718372,-1.424777,1.455401,-2.581496,0.6907057,1.13905,0.4396005,-0.9521887,0.6328431,0.2,0.9,0.07393378,-0.07656168,-0.01132768,-0.6167066,-4.537742,0.0262135,0.7693249,1.297481,0.3492162,0.03288862,-0.06482387,-0.01827871,-0.942709,0.04139897,-0.03919694,0.8441281,1.35963,0.1850872,0.3877248,1.084817,0.3890065,277.6787,357.201,259.7375,True
0,2.688887,0.004335721,0.06444193,-0.02459922,-1.424585,1.45479,-2.581235,0.6908839,1.139061,0.4396753,-0.9455122,0.6007468,0.2,0.9,0.06620843,-0.1052477,-0.02412432,-0.6174582,-4.541303,0.02871314,0.7694658,1.297514,0.3492215,0.03605236,-0.07121164,-0.02046879,-0.9429492,0.04009389,-0.03886005,0.8441286,1.359557,0.1849482,0.3878544,1.084607,0.3893,278.0381,358.774,258.0154,True
0,2.699998,-0.005230969,0.05159829,-0.03412735,-1.424062,1.454315,-2.580813,0.6910539,1.139091,0.4396899,-0.9385512,0.6271003,0.2,0.9,0.0577501,-0.1063025,-0.01869468,-0.6175237,-4.543396,0.03006895,0.7696103,1.297537,0.3491859,0.03597026,-0.07756861,-0.02795562,-0.9435526,0.03879986,-0.03847256,0.8441511,1.359432,0.1848352,0.3879665,1.0844,0.3896035,278.4553,0.06880686,256.5964,True
0,2.711109,-0.009494347,0.05157285,-0.03732055,-1.423977,1.453582,-2.580456,0.6911477,1.139083,0.43979,-0.9322709,0.5649779,0,0.8,0.05468311,-0.09993107,-0.01010939,-0.6173255,-4.544804,0.03072755,0.7697027,1.297562,0.3492072,0.03391408,-0.07227433,-0.02044476,-0.9433316,0.03802195,-0.03820518,0.8441074,1.359396,0.1847751,0.3878164,1.08425,0.3896293,279.0695,1.827607,254.664,True
0,2.72222,-0.01269783,0.05581877,-0.03947012,-1.423938,1.452671,-2.58008,0.691287,1.139088,0.4398615,-0.9261835,0.5481181,0,0.8,0.05497181,-0.07229012,0.004906958,-0.616746,-4.544586,0.02993846,0.7697986,1.29757,0.3491442,0.02541094,-0.06268467,-0.01925123,-0.9434946,0.03756841,-0.03794099,0.844118,1.359337,0.1846786,0.3879205,1.084089,0.3898481,279.2515,2.761626,253.5077,True
0,2.733331,-0.01589563,0.05901062,-0.03948442,-1.424013,1.451752,-2.57973,0.6913508,1.139126,0.4398944,-0.9207629,0.4875643,0,0.8,0.05306811,-0.05101609,0.01672976,-0.6161585,-4.544184,0.0290684,0.7698311,1.297612,0.3491194,0.02437021,-0.05950078,-0.01709955,-0.9436581,0.03680822,-0.03772208,0.8440646,1.359319,0.1845636,0.3880236,1.083938,0.3900667,279.4813,3.622661,252.4836,True
0,2.744442,-0.0169828,0.0718019,-0.03741194,-1.424395,1.450482,-2.579316,0.6914589,1.139162,0.4399343,-0.9160049,0.4282662,0,0.8,0.04585005,-0.03719712,0.03178852,-0.6152387,-4.544013,0.02869396,0.7699161,1.297635,0.3491027,0.02543978,-0.05417518,-0.01708816,-0.9438083,0.03631327,-0.03771995,0.8441317,1.359265,0.1844797,0.3881118,1.083811,0.3903007,279.7119,4.263214,251.6671,True
0,2.755553,-0.02232233,0.07605635,-0.03636326,-1.424608,1.449501,-2.57868,0.6916269,1.139195,0.4398725,-0.9119201,0.3676215,0,0.8,0.02871066,-0.04136973,0.02559831,-0.6152381,-4.545139,0.02992221,0.7700002,1.297585,0.3489354,0.02001385,-0.04986535,-0.02766502,-0.9444464,0.0357568,-0.03754338,0.8441811,1.359277,0.1843061,0.3881736,1.083708,0.3905284,279.9551,4.639335,251.137,True
0,2.766664,-0.02127212,0.08456594,-0.03959805,-1.424807,1.448132,-2.578291,0.6917626,1.13923,0.4398956,-0.9083787,0.3187638,0.2,0.7,0.02439849,-0.0509278,0.02455214,-0.6150267,-4.546484,0.03093688,0.7701286,1.297615,0.3489399,0.01355199,-0.04663186,-0.0350458,-0.9451047,0.03520739,-0.03722247,0.8441957,1.359285,0.184274,0.3882086,1.08363,0.3907402,280.192,4.765316,250.878,True
0,2.777775,-0.02876347,0.1026373,-0.04500625,-1.425133,1.446303,-2.577469,0.6919903,1.139293,0.4399107,-0.9050891,0.2964351,0.2,0.7,0.02969944,-0.06266829,0.02550343,-0.6147785,-4.548333,0.03183889,0.7702888,1.297579,0.3489885,0.01563934,-0.04555026,-0.03932425,-0.945673,0.03458101,-0.03711994,0.8442326,1.35923,0.1842079,0.3882366,1.083573,0.3909343,280.42,4.830983,250.702,True
0,2.788886,-0.02878058,0.1100768,-0.04822531,-1.425467,1.444868,-2.576911,0.6922662,1.139357,0.4399872,-0.9027754,0.207595,0.2,0.7,0.03386658,-0.06585006,0.01905077,-0.614755,-4.549617,0.03236992,0.7704085,1.297552,0.3489382,0.01032044,-0.03915751,-0.03924388,-0.9460933,0.03423853,-0.0368941,0.8443884,1.359174,0.1841705,0.3882591,1.08353,0.3910952,280.6202,4.87838,250.5704,True
0,2.799997,-0.02772498,0.1153857,-0.05251082,-1.425636,1.443221,-2.576409,0.6924263,1.139398,0.4400496,-0.9002272,0.2300671,0.2,0.7,0.03369038,-0.05939835,0.003095675,-0.6152978,-4.550361,0.03259975,0.7705126,1.297565,0.348912,0.003968909,-0.03064376,-0.03594636,-0.9463644,0.03418367,-0.03671647,0.8444335,1.35915,0.1841252,0.3882827,1.083496,0.391268,280.8125,4.90546,250.4448,True
