loc,t,aDotUA,bDotUA,gDotUA,aUA,bUA,gUA,xUA,yUA,zUA,qE,qDotE,emgA,emgB,aDotSH,bDotSH,gDotSH,aSH,bSH,gSH,xSH,ySH,zSH,aDotUB,bDotUB,gDotUB,aUB,bUB,gUB,xUB,yUB,zUB,xHand,yHand,zHand,aHand,bHand,gHand,enable
0,0,-0.1239945,-0.7326796,0.1394992,-1.465218,-4.234181,-3.090841,0.6514664,1.232524,0.488019,-1.422385,-0.1235274,32.3,10.5,-0.4772611,0.4244409,0.1640093,-0.7375023,-4.113849,-0.4928446,0.678003,1.486889,0.3984046,-0.2774982,0.4394363,0.1021452,-0.918691,0.2646072,-0.1596368,0.761439,1.587877,0.2257779,0.4389043,1.084568,0.294281,301.2254,243.5385,347.4538,True
0,0.01111111,-0.1496165,-0.7114411,0.1404861,-1.466348,-4.226848,-3.089108,0.6497316,1.232468,0.4875591,-1.42481,-0.2189242,32.3,10.5,-0.4580855,0.4028627,0.1850193,-0.7371193,-4.107008,-0.4934766,0.6771363,1.486883,0.3985066,-0.2584611,0.4159111,0.09880491,-0.918283,0.2698644,-0.1606368,0.7613297,1.587858,0.2260129,0.4377978,1.085108,0.2922421,301.1584,242.8,347.9798,True
0,0.02222222,-0.2029934,-0.6786119,0.1297387,-1.467036,-4.220128,-3.085683,0.6483224,1.232526,0.4870906,-1.426422,-0.1435762,30.4,9.7,-0.4060898,0.348094,0.203463,-0.7356423,-4.102312,-0.4941322,0.6768692,1.486954,0.3986299,-0.2353628,0.3508072,0.09862261,-0.9174973,0.27231,-0.1602951,0.7611499,1.587945,0.2264132,0.4369423,1.086007,0.2897428,300.9678,242.2976,348.047,True
0,0.03333334,-0.2510145,-0.6575044,0.1126359,-1.467285,-4.213264,-3.082128,0.6469132,1.232563,0.4866033,-1.429173,-0.2483076,30.4,9.7,-0.3606056,0.2989598,0.1900193,-0.735213,-4.099056,-0.4942036,0.6763412,1.487023,0.3988822,-0.2184613,0.3112942,0.1059371,-0.9164875,0.2751266,-0.1601071,0.7608774,1.588031,0.227021,0.4363311,1.087264,0.286875,300.7133,241.9496,347.8152,True
0,0.04444445,-0.2872796,-0.6427209,0.104077,-1.467721,-4.206569,-3.078451,0.6456259,1.232665,0.4861982,-1.430613,-0.1272766,28.6,8.8,-0.2772541,0.1934184,0.143967,-0.7344604,-4.101212,-0.4925141,0.676468,1.487149,0.3993018,-0.196305,0.2611113,0.1110864,-0.9152917,0.2767841,-0.1597273,0.7607551,1.588099,0.227442,0.4360296,1.088883,0.2838139,300.3839,241.5103,347.573,True
0,0.05555556,-0.3406896,-0.5950261,0.08046252,-1.467355,-4.201408,-3.073613,0.6446557,1.232943,0.4859393,-1.433594,-0.2691125,28.6,8.8,-0.2004314,0.08813509,0.07131039,-0.7348082,-4.105713,-0.4894089,0.6766016,1.487339,0.3997638,-0.1729619,0.2471358,0.1098056,-0.9147319,0.2799572,-0.1603433,0.7606426,1.588296,0.2280388,0.435948,1.090858,0.280693,300.0255,240.9722,347.3838,True
0,0.06666667,-0.3738034,-0.5642673,0.06864272,-1.467315,-4.196182,-3.068852,0.6437029,1.233169,0.4856379,-1.43697,-0.3039264,28.6,8.8,-0.1308673,-0.004533835,0.02330964,-0.7344631,-4.110716,-0.486535,0.6768979,1.487453,0.4002309,-0.1635023,0.2417569,0.09800741,-0.914472,0.2831931,-0.1608419,0.7605603,1.588373,0.2285035,0.4359215,1.093158,0.2776016,299.5972,240.3708,347.2475,True
0,0.07777778,-0.4070429,-0.4887616,0.05983669,-1.46741,-4.193047,-3.063506,0.6429807,1.233588,0.4854136,-1.439585,-0.2340066,27.3,7.4,-0.103469,-0.046096,0.007906813,-0.733973,-4.113192,-0.4844082,0.6768757,1.487644,0.4006882,-0.1487545,0.2097707,0.0946881,-0.9139639,0.2857212,-0.1613921,0.7605129,1.588349,0.2285111,0.4359124,1.09575,0.2746923,299.1033,239.7966,347.1066,True
0,0.08888889,-0.4360422,-0.3993562,0.05949594,-1.467889,-4.191535,-3.057785,0.6425107,1.233981,0.4853027,-1.443297,-0.3348081,27.3,7.4,-0.06307472,-0.07627276,0.0223678,-0.732397,-4.115163,-0.4835914,0.6774922,1.487983,0.4010432,-0.1244116,0.1691788,0.09875033,-0.9128422,0.2868869,-0.1617489,0.760484,1.588621,0.2290111,0.4358216,1.098613,0.2721135,298.5848,239.2426,347.0149,True
0,0.1,-0.4629095,-0.3110219,0.0591671,-1.468495,-4.190697,-3.051736,0.6422205,1.234364,0.4852512,-1.446781,-0.3130252,26.3,6.6,-0.05121944,-0.08193722,0.05528564,-0.7303746,-4.115241,-0.4832556,0.6778425,1.488435,0.401407,-0.09914231,0.1125869,0.09748268,-0.9117236,0.2863921,-0.1612744,0.7606446,1.58838,0.2295048,0.4355437,1.101703,0.2699104,298.0308,238.8013,346.9496,True
0,0.1111111,-0.4908392,-0.228,0.05991523,-1.469058,-4.190469,-3.04525,0.6420261,1.234885,0.4851644,-1.45044,-0.3292998,26.3,6.6,-0.03720105,-0.1059412,0.1136078,-0.726561,-4.115659,-0.4829472,0.6784775,1.489066,0.4018111,-0.07822207,0.0570858,0.08561292,-0.910848,0.2853577,-0.1604587,0.7608174,1.588431,0.2298379,0.435039,1.105015,0.2681701,297.4714,238.5237,346.8588,True
0,0.1222222,-0.5133946,-0.1588238,0.05752499,-1.469648,-4.190938,-3.038686,0.6419977,1.235574,0.4851153,-1.454118,-0.3307587,25.7,5.6,-0.01794218,-0.1255316,0.1506334,-0.7229694,-4.116361,-0.4828639,0.6792526,1.489805,0.4022391,-0.05934684,0.02076238,0.07267669,-0.9103047,0.284216,-0.1597364,0.7609975,1.588518,0.2299681,0.4343112,1.10853,0.2669596,296.8659,238.427,346.7636,True
0,0.1333333,-0.5220335,-0.1173208,0.05310464,-1.470034,-4.19062,-3.032714,0.6417773,1.236258,0.4850454,-1.457723,-0.3240966,25.7,5.6,0.02999064,-0.1601815,0.1863179,-0.7189773,-4.118013,-0.4834748,0.6802133,1.490486,0.4026606,-0.05424901,-0.01013428,0.06305853,-0.9097747,0.2835188,-0.1590237,0.7610476,1.588721,0.2303743,0.4333922,1.11221,0.2662422,296.2266,238.4793,346.7201,True
0,0.1444445,-0.5381702,-0.05879288,0.04755668,-1.470499,-4.192027,-3.026103,0.6419497,1.237139,0.484977,-1.461721,-0.3601421,25.1,5.1,0.08202853,-0.2085692,0.2058889,-0.7147157,-4.121173,-0.4836524,0.681344,1.491318,0.4030554,-0.03655414,-0.06988847,0.0512038,-0.909184,0.2799659,-0.1570381,0.7612926,1.588823,0.2303839,0.4323184,1.116043,0.2658962,295.6098,238.6227,346.7458,True
0,0.1555556,-0.5393653,-0.01620621,0.04205266,-1.470719,-4.193012,-3.019906,0.6421263,1.238001,0.4848697,-1.466155,-0.3997952,25.1,5.1,0.1137712,-0.2503144,0.2085727,-0.7107817,-4.125048,-0.48289,0.6825743,1.492155,0.4035556,-0.0209322,-0.1253628,0.04256479,-0.9084697,0.2762288,-0.1551403,0.7615145,1.588933,0.2302852,0.4311605,1.120026,0.2657872,294.9968,238.8027,346.8297,True
0,0.1666667,-0.549119,0.04660821,0.03861526,-1.47133,-4.195832,-3.013186,0.6425366,1.239027,0.4847939,-1.469529,-0.3025504,25.1,5.1,0.1794367,-0.3263589,0.212929,-0.7056817,-4.131825,-0.4819682,0.6840754,1.493201,0.404109,-0.01072259,-0.1914629,0.03077478,-0.9078865,0.271037,-0.1522311,0.7618513,1.589022,0.2301877,0.4300005,1.124102,0.2657533,294.3476,238.9784,346.9366,True
0,0.1777778,-0.5568092,0.1307038,0.02870111,-1.471784,-4.199875,-3.006293,0.6432875,1.240197,0.4848344,-1.473512,-0.3593797,24.8,4.3,0.2259802,-0.3808912,0.2058396,-0.7011171,-4.138694,-0.4808383,0.6856204,1.494134,0.4046509,0.0006852448,-0.2288038,0.01790943,-0.9074849,0.2665384,-0.1497818,0.7620846,1.589055,0.2300835,0.4289623,1.128256,0.2657441,293.7092,239.1905,346.9895,True
0,0.1888889,-0.5568917,0.1605195,0.02325998,-1.472233,-4.202593,-2.99984,0.6437699,1.241328,0.4848254,-1.476787,-0.2939626,24.8,4.3,0.2847872,-0.4991221,0.1640661,-0.6964747,-4.151446,-0.476215,0.6876237,1.495292,0.4051781,0.02156729,-0.2906967,0.006029684,-0.9070433,0.2599826,-0.1467996,0.762499,1.58912,0.2299054,0.4280993,1.132443,0.2656882,293.0676,239.3677,347.0181,True
0,0.2,-0.5676812,0.2072907,0.007104635,-1.472299,-4.206289,-2.992746,0.6446247,1.242445,0.484807,-1.480199,-0.3072082,24.8,3.7,0.3067344,-0.5490607,0.1337088,-0.6925412,-4.16179,-0.4723476,0.6893151,1.496395,0.4056377,0.03062917,-0.3408147,-0.02385894,-0.9074168,0.2531177,-0.1431508,0.7631058,1.589176,0.2296057,0.4274305,1.136673,0.2656316,292.4851,239.5621,346.9373,True
0,0.2111111,-0.5827336,0.2551461,-0.005852908,-1.472531,-4.210574,-2.985229,0.6454685,1.243538,0.4848208,-1.483937,-0.3369491,24.8,3.7,0.3309268,-0.5916829,0.118311,-0.6882993,-4.172353,-0.4685233,0.6911638,1.497564,0.4061015,0.0472194,-0.3877724,-0.0484928,-0.9080101,0.2459771,-0.1398796,0.7635761,1.589223,0.2293303,0.4269324,1.140971,0.2656525,291.9271,239.7216,346.8536,True
0,0.2222222,-0.5924001,0.2838551,-0.01341647,-1.472773,-4.214766,-2.97791,0.6463036,1.24468,0.484797,-1.486806,-0.2572485,24.8,3.7,0.35025,-0.598481,0.1543781,-0.6826012,-4.179959,-0.4671675,0.6931416,1.498706,0.4064348,0.06381829,-0.4304806,-0.07419212,-0.9087861,0.2379078,-0.1361664,0.7641376,1.58923,0.2289698,0.426505,1.145299,0.2656933,291.324,239.8394,346.833,True
0,0.2333333,-0.6074541,0.3316934,-0.02744246,-1.472842,-4.219905,-2.970156,0.6475057,1.2459,0.4848778,-1.489737,-0.2636377,24.7,3.2,0.3718621,-0.5926522,0.2086523,-0.6762592,-4.185788,-0.467278,0.6950727,1.499934,0.4067166,0.06775329,-0.4507215,-0.09765521,-0.9098653,0.2312914,-0.1327746,0.7646811,1.589484,0.2282867,0.4261582,1.149637,0.2657889,290.7018,239.9253,346.8507,True
0,0.2444444,-0.6246095,0.3699283,-0.04569158,-1.472674,-4.225493,-2.962076,0.6486723,1.247038,0.4849267,-1.493232,-0.3150725,24.7,3.2,0.3827649,-0.586675,0.251261,-0.6696593,-4.191754,-0.4671744,0.6970896,1.50103,0.40696,0.08865565,-0.4785337,-0.1287252,-0.9115766,0.2232182,-0.1296816,0.7653143,1.589535,0.2278545,0.4257785,1.153988,0.2659429,290.0984,240.045,346.8333,True
0,0.2555556,-0.6460058,0.3985885,-0.05858138,-1.472496,-4.230865,-2.953608,0.6500515,1.248108,0.484937,-1.496232,-0.2693915,24.5,3,0.3871858,-0.59126,0.2863568,-0.6627687,-4.198434,-0.4663589,0.6994148,1.50202,0.4070096,0.1063723,-0.5095166,-0.154441,-0.9133013,0.2147112,-0.126142,0.76603,1.589471,0.2273569,0.4253925,1.158372,0.2662053,289.5099,240.1913,346.8234,True
0,0.2666667,-0.6695251,0.4272255,-0.07572317,-1.472178,-4.236727,-2.944798,0.6513982,1.249253,0.4850554,-1.499214,-0.2682557,24.5,3,0.4020206,-0.6041092,0.2840428,-0.6568255,-4.206803,-0.4647496,0.7017531,1.503006,0.4071021,0.1125738,-0.5244828,-0.167277,-0.9148017,0.2061063,-0.1222441,0.7666571,1.589568,0.2270219,0.4250784,1.162819,0.2666732,288.9232,240.3105,346.8754,True
0,0.2777778,-0.6813046,0.4473859,-0.08645061,-1.472021,-4.242436,-2.936087,0.652611,1.250476,0.485074,-1.50208,-0.2574968,24.4,3.4,0.42871,-0.594691,0.2861111,-0.6510907,-4.214046,-0.4646918,0.7043102,1.504045,0.4072745,0.1324557,-0.5363128,-0.2015379,-0.9174926,0.1975691,-0.1191919,0.7674232,1.589436,0.2265861,0.4247584,1.167331,0.2673366,288.2969,240.4297,346.9894,True
0,0.2888889,-0.6984197,0.470717,-0.1035801,-1.471495,-4.248864,-2.926967,0.6540989,1.251611,0.4850507,-1.505057,-0.2678097,24.4,3.4,0.4722462,-0.6172604,0.2803764,-0.6448685,-4.223295,-0.4640939,0.7068945,1.504982,0.4072788,0.1419482,-0.5182747,-0.2229297,-0.920087,0.1902807,-0.1165173,0.7681683,1.589436,0.2261202,0.4244706,1.171916,0.2681754,287.6464,240.5958,347.1248,True
0,0.3,-0.7112946,0.4993199,-0.1345697,-1.470583,-4.2557,-2.917937,0.6555758,1.252755,0.4850535,-1.50842,-0.3029891,24.1,4,0.5125028,-0.6515048,0.2724288,-0.6386164,-4.233751,-0.4627477,0.7095593,1.505938,0.4073529,0.1599393,-0.5215788,-0.2358629,-0.9223022,0.1822982,-0.1141276,0.7689065,1.589159,0.2257187,0.4241375,1.176599,0.2691267,287.011,240.7648,347.2707,True
0,0.3111111,-0.7145022,0.503566,-0.1377868,-1.470176,-4.261727,-2.909293,0.6569567,1.253861,0.4849975,-1.511386,-0.266437,24.1,4,0.5252492,-0.6579657,0.2723048,-0.6326073,-4.242918,-0.4616108,0.7120976,1.506979,0.4075177,0.1692808,-0.5450939,-0.2476537,-0.9246016,0.1727795,-0.110179,0.7696601,1.589211,0.2250738,0.4237272,1.181399,0.2701258,286.3544,240.9575,347.4337,True
0,0.3222222,-0.7284389,0.5290102,-0.1613184,-1.469184,-4.268906,-2.899888,0.6585848,1.254968,0.4848473,-1.514749,-0.303081,24.1,4,0.554854,-0.7071955,0.2802526,-0.6256713,-4.254718,-0.4592376,0.7151363,1.50796,0.4073741,0.1840422,-0.5728952,-0.2488542,-0.9267454,0.1629773,-0.1067794,0.7704704,1.589068,0.2242837,0.4233426,1.186304,0.2711921,285.6442,241.0703,347.7016,True
0,0.3333333,-0.734871,0.5395909,-0.1752054,-1.468396,-4.275611,-2.890792,0.6601341,1.256073,0.4847584,-1.5183,-0.3199273,23.4,4.6,0.5652497,-0.7680939,0.29461,-0.6177314,-4.268066,-0.4549257,0.7182208,1.509021,0.4071372,0.2019035,-0.6006901,-0.2607191,-0.9292365,0.1531359,-0.103708,0.7712193,1.589095,0.2234581,0.4229969,1.191284,0.2723214,284.8896,241.1097,348.0356,True
0,0.3444445,-0.7423842,0.5554555,-0.1997646,-1.467099,-4.282867,-2.881581,0.6616095,1.257147,0.4845459,-1.520887,-0.2316942,23.4,4.6,0.5916828,-0.8098359,0.3005163,-0.6101531,-4.281312,-0.4514524,0.7213412,1.509871,0.406889,0.2334691,-0.6285657,-0.2897535,-0.9325964,0.1427857,-0.1012116,0.772082,1.588699,0.2223153,0.4227293,1.196281,0.2734677,284.1005,241.2431,348.3008,True
0,0.3555556,-0.7541478,0.5659963,-0.2232429,-1.465627,-4.290143,-2.872058,0.6631418,1.258286,0.484252,-1.524262,-0.3045388,22.6,4.8,0.6042103,-0.8492299,0.2894606,-0.6031016,-4.295954,-0.4466257,0.7243221,1.510688,0.406671,0.2396057,-0.6456496,-0.3100391,-0.9357772,0.1328738,-0.09820913,0.7729907,1.58853,0.2217364,0.4225639,1.201256,0.2746143,283.3335,241.261,348.6791,True
0,0.3666667,-0.7648182,0.5680133,-0.2456166,-1.464009,-4.297143,-2.862554,0.6646068,1.25933,0.4839618,-1.527408,-0.2829326,22.6,4.8,0.6176544,-0.891632,0.2549462,-0.5968863,-4.312716,-0.4400504,0.7274089,1.511394,0.4063148,0.2510318,-0.6638208,-0.3335739,-0.9394605,0.1226447,-0.0953417,0.7738652,1.588312,0.2207632,0.4224713,1.206189,0.2757329,282.5804,241.1495,349.1557,True
0,0.3777778,-0.7712436,0.5753765,-0.262684,-1.46257,-4.304397,-2.853057,0.6661639,1.260372,0.4836662,-1.530253,-0.2556155,22.3,4.8,0.6239243,-0.9107085,0.2442001,-0.5902129,-4.328341,-0.4341794,0.7304199,1.512159,0.4060218,0.2636645,-0.6777388,-0.344332,-0.9427665,0.1123862,-0.09273766,0.7748126,1.588114,0.2200344,0.4223653,1.211061,0.2767932,281.8442,240.8452,349.8076,True
0,0.3888889,-0.7808783,0.589112,-0.2861714,-1.460719,-4.3123,-2.843233,0.6675993,1.261319,0.4833479,-1.533369,-0.2806294,22.3,4.8,0.6262081,-0.8981581,0.2633906,-0.5825622,-4.341183,-0.4306387,0.733568,1.512597,0.4053986,0.2764244,-0.6799304,-0.3465719,-0.9459266,0.1027362,-0.09062897,0.7756375,1.587982,0.2192297,0.422257,1.215878,0.2778072,281.1409,240.3779,350.6245,True
0,0.4,-0.7884153,0.6156746,-0.2990441,-1.459548,-4.320878,-2.833249,0.669026,1.262068,0.4830427,-1.536556,-0.2868472,23,4.5,0.6125759,-0.8683456,0.2743623,-0.575785,-4.352935,-0.4271961,0.7364086,1.512967,0.4048166,0.2851611,-0.6703962,-0.3274674,-0.9482158,0.09340145,-0.08862201,0.7764522,1.587861,0.2185171,0.42219,1.220644,0.2787954,280.4461,239.7857,351.5589,True
0,0.4111111,-0.7927871,0.6540092,-0.3034514,-1.458848,-4.330254,-2.823104,0.6704996,1.262849,0.4826951,-1.539075,-0.2263741,23,4.5,0.5966609,-0.8554531,0.2703012,-0.569191,-4.366468,-0.4220828,0.739378,1.513509,0.4042039,0.2864027,-0.6608292,-0.3115009,-0.9505365,0.08421967,-0.08633116,0.7772506,1.587785,0.2178328,0.4221901,1.225346,0.2797922,279.7394,239.034,352.6347,True
0,0.4222222,-0.7992457,0.6806369,-0.300355,-1.458473,-4.339397,-2.812971,0.6718441,1.263551,0.4823205,-1.541364,-0.2061109,23,4.5,0.5766307,-0.8137726,0.2675547,-0.5634375,-4.377302,-0.4186644,0.7420672,1.513848,0.403666,0.2864591,-0.6512356,-0.3093771,-0.9533051,0.07557106,-0.08438945,0.7781739,1.58797,0.216831,0.4221455,1.229955,0.2808253,279.008,237.9399,354.0128,True
0,0.4333333,-0.8089314,0.7178643,-0.3079484,-1.458035,-4.349355,-2.802574,0.6730888,1.264168,0.4818599,-1.543364,-0.1799152,23.8,3.8,0.5500144,-0.7867309,0.235993,-0.5583045,-4.389698,-0.4137495,0.7448272,1.514003,0.4027994,0.2865284,-0.6257002,-0.316838,-0.9566383,0.06724069,-0.08275054,0.7790477,1.587762,0.2160938,0.4220032,1.234441,0.2819827,278.2797,236.8807,355.354,True
0,0.4444444,-0.8143579,0.7540324,-0.3187359,-1.457589,-4.359916,-2.791966,0.6741941,1.26461,0.4813359,-1.545136,-0.1595252,23.8,3.8,0.5222217,-0.7692236,0.1989674,-0.5543343,-4.403177,-0.4073499,0.7471915,1.51445,0.4025609,0.2908684,-0.6076308,-0.3179526,-0.959856,0.05895919,-0.08138727,0.7799397,1.587539,0.215256,0.421725,1.238803,0.2833288,277.5969,235.9908,356.5979,True
0,0.4555556,-0.8218909,0.7838115,-0.3273581,-1.457342,-4.370403,-2.781507,0.6752933,1.264947,0.4809268,-1.546511,-0.1234954,24.2,3.2,0.4925075,-0.723032,0.1717951,-0.5506837,-4.414147,-0.402715,0.7495959,1.514494,0.4020696,0.2889945,-0.562871,-0.3147486,-0.9627801,0.05274471,-0.08095077,0.780773,1.587388,0.2146022,0.421272,1.24304,0.2848521,276.9368,235.1094,357.9306,True
0,0.4666667,-0.8251366,0.8019191,-0.3274117,-1.457445,-4.380696,-2.770973,0.6763079,1.265416,0.4805684,-1.547694,-0.1063919,24.2,3.2,0.4690998,-0.6917897,0.1455143,-0.5475219,-4.425462,-0.3975855,0.7517399,1.514745,0.4017429,0.2827003,-0.5372928,-0.3168333,-0.9659994,0.04576256,-0.07975528,0.7816113,1.587168,0.2138677,0.4205877,1.247152,0.2865286,276.2806,233.8787,359.6786,True
0,0.4777778,-0.8209269,0.8200447,-0.3253496,-1.457728,-4.390996,-2.760829,0.6770898,1.265647,0.4801223,-1.548988,-0.1167258,24.4,2.6,0.4127945,-0.6304536,0.1090148,-0.5456561,-4.4343,-0.3929214,0.753626,1.514738,0.4011643,0.2786582,-0.4903914,-0.3221382,-0.9693959,0.04070895,-0.08000003,0.7825164,1.587038,0.2132959,0.4196949,1.251124,0.2883738,275.6248,232.2531,1.857403,True
0,0.4888889,-0.8198786,0.8264196,-0.3307033,-1.457635,-4.401309,-2.750502,0.6778662,1.265928,0.4797711,-1.54991,-0.08278775,24.4,2.6,0.3734726,-0.5917125,0.08821957,-0.5434366,-4.443666,-0.3877634,0.7555075,1.514614,0.40061,0.2756653,-0.4520399,-0.3199899,-0.972612,0.03551232,-0.07991613,0.7833537,1.58686,0.2126608,0.4187343,1.254937,0.2904242,275.0111,230.594,4.097891,True
0,0.5,-0.8199042,0.8370781,-0.3296807,-1.458014,-4.411767,-2.740163,0.6784484,1.265963,0.4793038,-1.551139,-0.1111686,24.3,2,0.2843898,-0.500561,0.0734465,-0.5421786,-4.448292,-0.3839639,0.7569276,1.514187,0.4001129,0.2653984,-0.3923201,-0.3135242,-0.9756331,0.03238497,-0.08088446,0.7841759,1.586695,0.2120469,0.4177178,1.258635,0.2926207,274.4488,228.9724,6.345563,True
0,0.5111111,-0.8209686,0.8370758,-0.3286127,-1.458393,-4.421762,-2.729865,0.6790106,1.266065,0.4789243,-1.55171,-0.05089462,24.3,2,0.2461786,-0.4651121,0.06118517,-0.539859,-4.455893,-0.3792538,0.7586751,1.513683,0.3992617,0.2604788,-0.343299,-0.2964608,-0.9783143,0.02909037,-0.08180805,0.7849521,1.586559,0.2114165,0.4166348,1.262219,0.294878,273.8709,226.714,9.262075,True
0,0.5222223,-0.8124437,0.8381684,-0.3296831,-1.458795,-4.432024,-2.719999,0.6792729,1.265911,0.478519,-1.552297,-0.05292618,24.3,2,0.1876334,-0.4304765,0.0340735,-0.5390419,-4.462791,-0.3734351,0.7598565,1.513146,0.3988185,0.2448318,-0.3133805,-0.2760938,-0.9805056,0.02583493,-0.08222962,0.7856879,1.586347,0.2108116,0.4155235,1.265685,0.2971471,273.3121,223.1408,13.48007,True
0,0.5333334,-0.8103389,0.8499129,-0.3244021,-1.459738,-4.442581,-2.709851,0.6795223,1.265598,0.4781661,-1.552807,-0.04590486,23.8,1.6,0.1621348,-0.3842182,-0.002722144,-0.5393221,-4.469127,-0.3692539,0.7609458,1.51265,0.3985202,0.2332509,-0.2909424,-0.2738736,-0.9833275,0.02233953,-0.08251805,0.7865008,1.586082,0.210191,0.4143585,1.269039,0.2993718,272.7632,218.2291,19.01413,True
0,0.5444446,-0.8007781,0.8606071,-0.3201802,-1.460886,-4.453118,-2.700071,0.6796903,1.265313,0.4778366,-1.553701,-0.08105958,23.8,1.6,0.116319,-0.3162438,-0.074367,-0.5418382,-4.473513,-0.3654054,0.7617241,1.511958,0.3982241,0.2257697,-0.2749271,-0.286598,-0.986731,0.01894466,-0.0829287,0.7872155,1.585846,0.2096338,0.4131794,1.272285,0.3015222,272.2642,210.8742,26.9535,True
0,0.5555557,-0.7763241,0.8809712,-0.3042912,-1.462866,-4.463976,-2.690968,0.6795136,1.264647,0.4774554,-1.553851,-0.01284422,23.1,1.1,0.05655847,-0.2673987,-0.1439779,-0.5450468,-4.478945,-0.3594349,0.7623706,1.511319,0.3977814,0.2217327,-0.2259006,-0.2887071,-0.9899929,0.01758672,-0.08438972,0.7879456,1.5855,0.2091579,0.4119349,1.275393,0.3035935,271.8159,197.9723,40.3725,True
0,0.5666668,-0.7486518,0.8895621,-0.3043388,-1.46427,-4.474693,-2.68224,0.6793138,1.264106,0.4771855,-1.554836,-0.08932213,23.1,1.1,0.01399425,-0.2328527,-0.1701094,-0.5470596,-4.483481,-0.3543544,0.7629863,1.510591,0.3974042,0.2136449,-0.1576835,-0.2801383,-0.9928749,0.01774704,-0.08660653,0.7885965,1.585243,0.2087984,0.4106506,1.27835,0.3056504,271.5149,179.9966,58.8172,True
0,0.577778,-0.7273504,0.8896084,-0.3043438,-1.465709,-4.485077,-2.6737,0.6791065,1.26362,0.4767754,-1.556515,-0.1519,23.1,1.1,-0.04345912,-0.1875094,-0.2035355,-0.5498741,-4.486853,-0.3493058,0.7631732,1.509652,0.3970981,0.190686,-0.08511332,-0.2693082,-0.9955919,0.01912629,-0.0887597,0.7892002,1.584905,0.2085271,0.4092929,1.281198,0.3077352,271.418,157.7349,81.53585,True
0,0.5888891,-0.6943108,0.8897062,-0.3043671,-1.467141,-4.495604,-2.665876,0.6785383,1.263013,0.4763339,-1.558103,-0.1428553,22.1,0.8,-0.1041237,-0.1399664,-0.2433181,-0.5537165,-4.489633,-0.3439859,0.763037,1.508925,0.3967104,0.1719241,-0.02747631,-0.2563913,-0.9983611,0.02048011,-0.09083803,0.7898902,1.584731,0.2082078,0.4077907,1.283927,0.3098896,271.5432,134.4586,105.279,True
0,0.6000003,-0.6666175,0.8983232,-0.2980119,-1.469232,-4.506177,-2.658477,0.6779886,1.262295,0.4759338,-1.55976,-0.1490899,21.8,0.5,-0.1307197,-0.1001133,-0.278001,-0.5578087,-4.491973,-0.3396734,0.7629626,1.508046,0.3964632,0.1583306,0.006688714,-0.247761,-1.00094,0.02164191,-0.09278773,0.7904327,1.584455,0.2078772,0.406221,1.286528,0.3121586,271.8434,118.5961,121.6594,True
0,0.6111114,-0.630424,0.9165564,-0.2895732,-1.471754,-4.517159,-2.651667,0.6772213,1.261408,0.4756026,-1.562276,-0.2273345,21.8,0.5,-0.1850124,-0.02678074,-0.3474301,-0.5646248,-4.492075,-0.335872,0.7623168,1.50703,0.3962355,0.1415383,0.05154045,-0.2444544,-1.004084,0.02382264,-0.09492625,0.7910181,1.584218,0.2075679,0.4045838,1.289052,0.3145024,272.2087,108.7208,132.1184,True
0,0.6222225,-0.5910497,0.9476466,-0.272642,-1.475046,-4.52857,-2.64535,0.6763242,1.260407,0.475312,-1.564793,-0.2265735,21.8,0.5,-0.2497095,0.06230919,-0.3846982,-0.5711857,-4.488873,-0.3335679,0.7613968,1.50606,0.3960707,0.1225912,0.08573294,-0.2389731,-1.006729,0.02602827,-0.09682854,0.791394,1.58394,0.2073319,0.4028269,1.291529,0.316886,272.6477,101.5418,139.8839,True
0,0.6333337,-0.5676565,0.9647927,-0.2588922,-1.478354,-4.539674,-2.63889,0.6754912,1.259499,0.4749627,-1.56767,-0.2594629,21,0.4,-0.3171885,0.1636208,-0.3568456,-0.5750617,-4.481952,-0.3339309,0.7605603,1.504727,0.3956747,0.1120881,0.1092468,-0.2356862,-1.009322,0.02823097,-0.09890714,0.7917618,1.583744,0.2073107,0.4010244,1.293928,0.3193367,273.1354,95.79546,146.189,True
0,0.6444448,-0.521857,0.9799274,-0.2312795,-1.482453,-4.550402,-2.633809,0.6744425,1.258422,0.4746187,-1.570631,-0.2667856,21,0.4,-0.3709238,0.2263358,-0.3080827,-0.5777994,-4.475297,-0.3338022,0.7595305,1.503729,0.3952949,0.08798519,0.166905,-0.2248394,-1.011797,0.03255395,-0.1013296,0.7919863,1.583492,0.2072694,0.3991309,1.296215,0.3218904,273.6779,91.27499,151.231,True
0,0.655556,-0.4898801,0.9747111,-0.223823,-1.485656,-4.560663,-2.628749,0.6733776,1.257511,0.4743204,-1.573038,-0.2158947,20.3,0.4,-0.4068345,0.2475158,-0.2704429,-0.5806357,-4.470671,-0.3322453,0.7586317,1.502736,0.3952007,0.0713561,0.2096439,-0.2012675,-1.013565,0.03726988,-0.1039493,0.7922574,1.58328,0.2073579,0.3971424,1.298354,0.3245997,274.2065,87.56866,155.4818,True
0,0.6666671,-0.4493324,0.95144,-0.2077616,-1.488939,-4.569792,-2.62457,0.6720775,1.256662,0.474128,-1.577021,-0.3604121,20.3,0.4,-0.4268619,0.2590824,-0.2393569,-0.5834134,-4.46613,-0.3308602,0.7573311,1.501963,0.3953729,0.04776626,0.2918069,-0.1467585,-1.014001,0.04425455,-0.1074633,0.792263,1.582971,0.2073679,0.3950976,1.30036,0.3274462,274.6653,84.61027,159.0633,True
0,0.6777782,-0.4023139,0.8993365,-0.2150344,-1.490728,-4.578109,-2.621246,0.6705514,1.255697,0.4739101,-1.579919,-0.2598914,20.3,0.4,-0.4439519,0.2506515,-0.2393403,-0.5866731,-4.463391,-0.3276753,0.7560991,1.501053,0.3952143,0.03423044,0.3185206,-0.1264042,-1.01518,0.04929325,-0.110016,0.7923182,1.582685,0.2073421,0.3930316,1.302216,0.3303759,275.1271,81.90921,162.4443,True
0,0.6888894,-0.3627893,0.8567563,-0.2340606,-1.492078,-4.586812,-2.617851,0.6691308,1.254771,0.4737878,-1.583558,-0.3285857,19.1,0.3,-0.4441384,0.2273124,-0.2533619,-0.5898476,-4.462499,-0.3236582,0.7549549,1.500031,0.3949356,0.03036544,0.3473069,-0.09761476,-1.015784,0.05474088,-0.1130379,0.7922844,1.582472,0.2074165,0.3909613,1.303931,0.3332896,275.5453,80.02331,165.0211,True
0,0.7000005,-0.3392751,0.8248369,-0.2392796,-1.493648,-4.595153,-2.614255,0.6676744,1.253853,0.4736168,-1.587379,-0.3444655,19.1,0.3,-0.4251992,0.2222447,-0.2961273,-0.5952964,-4.46141,-0.3207777,0.7533367,1.498994,0.3948984,0.02639467,0.3835755,-0.08587294,-1.017134,0.06132674,-0.1167311,0.7923131,1.582233,0.207509,0.3888661,1.305524,0.3360726,275.9766,78.66532,167.0451,True
0,0.7111117,-0.300843,0.7983178,-0.2349368,-1.495683,-4.603323,-2.611581,0.6659453,1.252884,0.4736474,-1.590437,-0.2746305,18.2,0.2,-0.40617,0.2363402,-0.3376646,-0.6013359,-4.458974,-0.3188637,0.7514437,1.498214,0.3950889,0.01708934,0.4198391,-0.07515255,-1.018411,0.06789583,-0.1200276,0.7921707,1.58203,0.2076337,0.3867826,1.30691,0.33862,276.4518,78.22398,168.0902,True
0,0.7222228,-0.2538742,0.7644048,-0.2199228,-1.497706,-4.61066,-2.609805,0.664132,1.251994,0.4736669,-1.593198,-0.2481063,18.2,0.2,-0.4050534,0.2652655,-0.3576701,-0.6069919,-4.455026,-0.3177071,0.7495146,1.497399,0.3950832,-0.002769686,0.4455377,-0.04621876,-1.01876,0.07489008,-0.1230396,0.7919402,1.58183,0.2077663,0.384752,1.308049,0.3409392,276.8627,78.36683,168.4293,True
0,0.7333339,-0.2197153,0.7421609,-0.2070597,-1.500059,-4.618006,-2.60803,0.662312,1.251083,0.4736497,-1.597056,-0.3485835,17.8,0.2,-0.4250815,0.2972774,-0.3498519,-0.6118773,-4.449538,-0.3167721,0.7474154,1.496736,0.3951094,-0.02172071,0.4648221,-0.03221341,-1.019405,0.08162788,-0.1257766,0.7917888,1.581641,0.2081001,0.3826976,1.309016,0.3430597,277.1816,78.51505,168.6561,True
0,0.7444451,-0.1823078,0.6953993,-0.2026434,-1.501362,-4.624329,-2.606881,0.6603721,1.250336,0.4736755,-1.600895,-0.3461399,17.8,0.2,-0.4629282,0.3482392,-0.3044878,-0.6153803,-4.441051,-0.3172427,0.7452806,1.495982,0.3948543,-0.04069155,0.4894271,-0.0235322,-1.020128,0.08898313,-0.1285071,0.7914692,1.581487,0.2083237,0.3805377,1.309868,0.3450591,277.4705,78.48679,168.9834,True
0,0.7555562,-0.1437964,0.6368639,-0.2141678,-1.501492,-4.630217,-2.606199,0.6584952,1.249535,0.4737797,-1.60381,-0.261687,18.4,0.2,-0.5124177,0.3830253,-0.2272445,-0.6169096,-4.431811,-0.3174174,0.7430202,1.495213,0.3946388,-0.04379955,0.4958339,-0.01711192,-1.02079,0.09546167,-0.1313404,0.7910662,1.581263,0.2087083,0.3783005,1.310593,0.3469844,277.7429,78.27551,169.5007,True
0,0.7666674,-0.1191106,0.5633678,-0.2277464,-1.500921,-4.635056,-2.605352,0.6564441,1.24881,0.4738426,-1.607144,-0.3008176,18.4,0.2,-0.538641,0.3996856,-0.1662219,-0.6177479,-4.423714,-0.3173146,0.7408332,1.494342,0.3941333,-0.04890889,0.4969326,0.007434644,-1.020557,0.1020582,-0.1340928,0.7906023,1.5811,0.2089581,0.3760003,1.311196,0.3488632,277.9772,78.02022,170.0969,True
0,0.7777785,-0.1072676,0.5132982,-0.2350084,-1.500598,-4.639852,-2.604287,0.6544157,1.248021,0.4739766,-1.610029,-0.2599615,18.4,0.2,-0.5459542,0.4070022,-0.1448276,-0.6202172,-4.416507,-0.3168938,0.7386483,1.493495,0.3940187,-0.05923304,0.5236247,0.03095029,-1.020365,0.1099109,-0.1370577,0.7900831,1.58092,0.2093675,0.3736921,1.31165,0.3506696,278.2013,78.15775,170.3296,True
0,0.7888896,-0.08151531,0.4398111,-0.2464674,-1.499101,-4.643503,-2.603996,0.6522957,1.247247,0.4741099,-1.611855,-0.163734,18.9,0.3,-0.5130481,0.4027082,-0.1631266,-0.6236979,-4.410984,-0.3169298,0.7361012,1.492777,0.3939753,-0.07175396,0.5449942,0.04915639,-1.020241,0.1176531,-0.1398199,0.7895398,1.580717,0.2097955,0.371446,1.311872,0.3523743,278.432,78.72605,170.1184,True
0,0.8000008,-0.05792768,0.3791405,-0.2483797,-1.497725,-4.64673,-2.603933,0.6500863,1.246464,0.4743192,-1.613334,-0.1329113,18.9,0.3,-0.4951192,0.3996817,-0.1952051,-0.6280831,-4.405715,-0.3163252,0.7336081,1.492016,0.3939095,-0.07694778,0.5578077,0.05665568,-1.020302,0.1254154,-0.1428685,0.7890325,1.580552,0.2101164,0.3691712,1.311875,0.3539127,278.6215,79.34484,169.8101,True
0,0.8111119,-0.02586875,0.3430357,-0.2407977,-1.497175,-4.650374,-2.604459,0.6478513,1.245726,0.4745042,-1.615487,-0.1948762,18.6,0.2,-0.4953737,0.4000916,-0.2452628,-0.6334376,-4.400874,-0.3147473,0.7307737,1.491243,0.3938861,-0.09482577,0.5781484,0.07172635,-1.019994,0.1336936,-0.1455338,0.7883056,1.580382,0.2105293,0.3668519,1.311677,0.3552753,278.7505,79.88998,169.5292,True
0,0.8222231,0.006159721,0.3175818,-0.2321988,-1.496563,-4.653836,-2.605321,0.6455929,1.244971,0.4747498,-1.616997,-0.13573,18.6,0.2,-0.5237366,0.4748119,-0.2444966,-0.6384263,-4.390062,-0.316807,0.7279729,1.490446,0.3936512,-0.1031424,0.5995017,0.08244679,-1.019805,0.1424175,-0.1486963,0.7876438,1.580229,0.2108984,0.3645058,1.311263,0.3564183,278.851,80.63617,169.0137,True
0,0.8333342,0.02751693,0.302757,-0.222565,-1.496267,-4.657469,-2.606066,0.6433877,1.244277,0.4750056,-1.618634,-0.148026,18.5,0.2,-0.5606207,0.525905,-0.2182968,-0.641695,-4.379011,-0.3181921,0.7255002,1.4895,0.3931928,-0.1135327,0.617659,0.1027772,-1.019096,0.1510626,-0.1515653,0.7867787,1.58043,0.2112005,0.3620875,1.310655,0.3573502,278.8936,81.3881,168.3964,True
0,0.8444453,0.05637426,0.2666298,-0.2171187,-1.495246,-4.660028,-2.607498,0.6411493,1.243739,0.4751849,-1.619812,-0.1060129,18.5,0.2,-0.5866011,0.5647435,-0.131548,-0.6425973,-4.366023,-0.3212489,0.7228096,1.488947,0.3928072,-0.1152933,0.6283313,0.1390114,-1.017457,0.1600598,-0.1549763,0.7858899,1.580393,0.2116902,0.3595647,1.309888,0.3581589,278.8819,82.00515,167.8385,True
0,0.8555565,0.08420019,0.2166441,-0.2158685,-1.493747,-4.662005,-2.609142,0.6389037,1.24332,0.4754119,-1.620365,-0.04942759,18.7,0.2,-0.5988832,0.5940413,-0.05986749,-0.6433627,-4.353419,-0.3241943,0.7199335,1.488938,0.3927953,-0.1214643,0.6347672,0.1593115,-1.01616,0.1689756,-0.1582919,0.7850954,1.58018,0.2120626,0.3569624,1.308961,0.3589447,278.8249,82.6144,167.2634,True
0,0.8666676,0.1013417,0.1761813,-0.2221168,-1.491708,-4.663819,-2.610709,0.6366826,1.242922,0.4755611,-1.62146,-0.09951198,18.7,0.2,-0.6073472,0.5864704,-0.040711,-0.6450986,-4.343472,-0.3251467,0.7173953,1.488424,0.3924994,-0.1341594,0.6444237,0.1636804,-1.01537,0.178054,-0.1611165,0.7841238,1.580119,0.2125006,0.3542981,1.30793,0.3597828,278.697,83.13228,166.824,True
0,0.8777788,0.120689,0.1048098,-0.2346352,-1.488517,-4.664303,-2.612647,0.6343574,1.2427,0.4757111,-1.62208,-0.05563011,18.7,0.2,-0.5918621,0.5291563,-0.07749774,-0.6485671,-4.339145,-0.3226832,0.7147869,1.487928,0.3925729,-0.1397538,0.6199515,0.1466901,-1.015486,0.1852181,-0.163263,0.7831025,1.580192,0.2129381,0.3516296,1.306831,0.3606408,278.5325,83.66168,166.46,True
0,0.8888899,0.1464545,0.02277852,-0.2524441,-1.484396,-4.663929,-2.615205,0.6321118,1.242423,0.475965,-1.622303,-0.01983452,18.7,0.2,-0.5511289,0.4561079,-0.1614556,-0.6538508,-4.337684,-0.3190571,0.7122803,1.487549,0.3925261,-0.1335341,0.5911603,0.1423818,-1.015022,0.1920505,-0.1658132,0.78214,1.580117,0.2134101,0.3489999,1.305694,0.3614555,278.3616,84.32159,165.999,True
0,0.900001,0.1711401,-0.05174268,-0.2553711,-1.480285,-4.66266,-2.618036,0.6299889,1.242151,0.476095,-1.622793,-0.0445642,18.7,0.2,-0.5173864,0.4167326,-0.1874913,-0.657699,-4.33397,-0.3173734,0.7096742,1.486997,0.3924422,-0.1282235,0.5762424,0.1497946,-1.014257,0.1996187,-0.1685717,0.7809452,1.580219,0.2136602,0.3464171,1.304552,0.3621502,278.2016,85.16815,165.3627,True
0,0.9111122,0.1925583,-0.09320509,-0.2467003,-1.477143,-4.661917,-2.620909,0.6278748,1.241763,0.4761927,-1.623538,-0.06759375,18.2,0.2,-0.4740576,0.3816186,-0.2199534,-0.6617593,-4.330608,-0.3162229,0.7070376,1.486274,0.3921826,-0.1237231,0.5880044,0.1625662,-1.013236,0.2092495,-0.1732024,0.7799287,1.579563,0.2138448,0.3439154,1.30341,0.3626098,278.0686,86.34747,164.3666,True
0,0.9222233,0.2053493,-0.09096932,-0.2275418,-1.475008,-4.662016,-2.623592,0.6259646,1.241263,0.4762716,-1.623881,-0.03073537,18.2,0.2,-0.4471384,0.4003519,-0.183714,-0.6641935,-4.323282,-0.3179676,0.7045556,1.48571,0.3919513,-0.1256602,0.5933457,0.181758,-1.011837,0.2176048,-0.1761644,0.7786885,1.57949,0.2142479,0.3416225,1.302176,0.3627574,277.9755,87.79783,163.0161,True
0,0.9333345,0.2095918,-0.07490424,-0.2084334,-1.473427,-4.662799,-2.626009,0.6239831,1.240759,0.4763167,-1.624019,-0.01240354,18.2,0.2,-0.4384182,0.4075199,-0.1538627,-0.6661866,-4.315947,-0.3191346,0.7018665,1.485193,0.3915958,-0.1104901,0.5922606,0.2061628,-1.009875,0.2267413,-0.1809128,0.7774806,1.579358,0.2151029,0.3395425,1.300814,0.3625405,277.8845,89.20968,161.594,True
0,0.9444456,0.2137628,-0.03219251,-0.1851629,-1.472869,-4.664398,-2.628397,0.6222962,1.240083,0.4763181,-1.623924,0.008758117,18.5,0.1,-0.4446579,0.4051585,-0.1218897,-0.6677701,-4.309287,-0.3192195,0.6993432,1.484687,0.3912692,-0.09847069,0.5836819,0.2465438,-1.006969,0.234839,-0.1845738,0.7762085,1.579326,0.2155452,0.3375719,1.299338,0.3620286,277.7811,90.55358,160.0938,True
0,0.9555568,0.21264,-0.002309553,-0.1703584,-1.47215,-4.66597,-2.630685,0.620478,1.239422,0.4762025,-1.623725,0.01809402,18.5,0.1,-0.4477466,0.3985269,-0.09210248,-0.6692039,-4.303024,-0.3188195,0.6968066,1.48416,0.3909779,-0.09735039,0.5666429,0.2593173,-1.004884,0.2423952,-0.1879515,0.7746811,1.579662,0.2165313,0.33563,1.29778,0.3613936,277.6459,91.91151,158.48,True
0,0.9666679,0.2146879,0.03719697,-0.1481396,-1.472341,-4.668026,-2.632984,0.6189091,1.23876,0.476033,-1.623781,-0.005233455,18.8,0.1,-0.43376,0.4025155,-0.06870205,-0.6706883,-4.29599,-0.3199221,0.6943401,1.483645,0.3906589,-0.1071699,0.5464847,0.2391752,-1.003993,0.2498745,-0.1909207,0.7732464,1.579589,0.2168388,0.3336155,1.296211,0.3608321,277.482,93.30184,156.8151,True
0,0.977779,0.2188963,0.05959414,-0.1439623,-1.47172,-4.669899,-2.635421,0.6172849,1.238259,0.4758356,-1.62372,0.005701272,18.8,0.1,-0.440066,0.4185148,-0.06747353,-0.6730234,-4.288434,-0.3206659,0.6918918,1.483029,0.3902674,-0.1010291,0.5315422,0.2210115,-1.00331,0.2568371,-0.1935407,0.7718388,1.579691,0.2171071,0.3315953,1.294639,0.3605354,277.3106,94.40112,155.5295,True
0,0.9888902,0.2188462,0.07979895,-0.1525617,-1.470637,-4.672228,-2.637695,0.6156925,1.237785,0.4756224,-1.6238,-0.007429665,18.7,0.3,-0.4410069,0.443045,-0.06939156,-0.6756866,-4.280127,-0.3221993,0.6894733,1.482594,0.3899779,-0.09162945,0.4984948,0.2166941,-1.001789,0.2631531,-0.1965432,0.7703246,1.57989,0.2176058,0.3295231,1.293112,0.3605666,277.1306,95.19331,154.7011,True
0,1.000001,0.2252016,0.09365125,-0.1558148,-1.469735,-4.674455,-2.640218,0.6143002,1.237195,0.4753444,-1.623953,-0.01383468,18.7,0.3,-0.4345593,0.4504414,-0.06616691,-0.6779615,-4.272426,-0.3235568,0.6870557,1.482068,0.3896964,-0.09160778,0.4857132,0.2273494,-0.9999211,0.269587,-0.1989989,0.7688756,1.57992,0.2180488,0.3274773,1.29165,0.3609438,276.922,95.59997,154.4066,True
0,1.011112,0.2304987,0.1075263,-0.1537362,-1.469165,-4.676685,-2.642795,0.6128972,1.236548,0.4751089,-1.623867,0.007956571,18.4,0.2,-0.4039096,0.4302593,-0.09206928,-0.6811823,-4.267182,-0.3240992,0.6846958,1.481478,0.3895464,-0.09683487,0.4868291,0.2369804,-0.9981794,0.2770822,-0.201878,0.7672505,1.580029,0.2189689,0.3254331,1.29029,0.3615852,276.7361,96.13184,154.1132,True
0,1.022224,0.2315181,0.1267122,-0.1516796,-1.468709,-4.67927,-2.645151,0.6116003,1.235907,0.4748418,-1.624103,-0.02165291,18.4,0.2,-0.381798,0.416593,-0.1285171,-0.6850726,-4.262276,-0.3243618,0.6824508,1.480922,0.3892953,-0.09680495,0.4889601,0.2391104,-0.9965826,0.2842569,-0.2046988,0.7657424,1.580053,0.2194638,0.3234366,1.289016,0.3624114,276.5963,96.80486,153.7358,True
0,1.033335,0.2336197,0.139527,-0.1453362,-1.468423,-4.681633,-2.647546,0.6102915,1.235417,0.4745796,-1.624179,-0.006791654,18.4,0.2,-0.3690757,0.4091088,-0.1328973,-0.6878641,-4.256506,-0.325115,0.6801522,1.480403,0.3889484,-0.102176,0.4836745,0.2370295,-0.9951999,0.2910916,-0.2071228,0.7642401,1.580089,0.2199433,0.3215964,1.287759,0.363337,276.5015,97.12112,153.7344,True
0,1.044446,0.2378312,0.1619411,-0.1369024,-1.468546,-4.684539,-2.650094,0.6091489,1.234813,0.4743116,-1.623987,0.01765633,17.5,0.5,-0.3330514,0.3855987,-0.1471165,-0.690915,-4.252151,-0.3258686,0.6780871,1.479936,0.3887348,-0.09691116,0.4740577,0.2359206,-0.9936637,0.297596,-0.2097532,0.7626945,1.58013,0.2203808,0.31987,1.286491,0.3642715,276.4269,97.09656,154.0604,True
0,1.055557,0.2430884,0.192872,-0.1306286,-1.468959,-4.687959,-2.652707,0.6080034,1.234114,0.4741421,-1.623979,0.0005738401,17.5,0.5,-0.2807269,0.3894157,-0.1271111,-0.693142,-4.245854,-0.3291856,0.675977,1.479476,0.3885467,-0.09054336,0.4591074,0.2433273,-0.9917021,0.3037785,-0.2123035,0.7611607,1.579943,0.2209098,0.3181986,1.285214,0.3651439,276.3206,97.12819,154.3069,True
0,1.066668,0.2526368,0.2110381,-0.1243084,-1.469346,-4.691189,-2.655524,0.6069495,1.233506,0.4740112,-1.624183,-0.01872413,16.8,0.8,-0.2510682,0.3680552,-0.1380887,-0.6960912,-4.241373,-0.3306378,0.6737008,1.479012,0.3883617,-0.082959,0.4505668,0.2613814,-0.9893111,0.3106323,-0.2155499,0.7596376,1.579807,0.2210982,0.3165436,1.283957,0.3659066,276.1744,97.34671,154.3236,True
0,1.077779,0.2483491,0.2238392,-0.1168976,-1.469779,-4.694246,-2.657836,0.6059309,1.23291,0.4738369,-1.624304,-0.01086153,16.8,0.8,-0.2246144,0.3531598,-0.1575242,-0.6994899,-4.237604,-0.3319361,0.6716672,1.47857,0.3881431,-0.0818184,0.4409751,0.2773624,-0.9867028,0.3169553,-0.2180583,0.7581989,1.579985,0.2213833,0.3149614,1.282688,0.3665884,276.0477,97.69365,154.1417,True
0,1.08889,0.2525905,0.2334579,-0.1148066,-1.470087,-4.697532,-2.66046,0.6049519,1.232329,0.4736273,-1.62446,-0.01422574,16.3,0.6,-0.2011698,0.3498074,-0.1534234,-0.7023464,-4.232833,-0.3339995,0.6695458,1.478102,0.3878629,-0.0690909,0.4196247,0.2836441,-0.9844514,0.3227706,-0.2209734,0.7567363,1.580012,0.2215493,0.3134281,1.281389,0.3672662,275.9401,98.04653,153.8938,True
0,1.100002,0.2535897,0.2611704,-0.1117166,-1.470823,-4.70142,-2.662923,0.6040345,1.231755,0.4734662,-1.623917,0.04973381,16.3,0.6,-0.1925665,0.3474816,-0.1353757,-0.7044588,-4.227787,-0.3360009,0.6675864,1.477695,0.3876207,-0.06284273,0.3950881,0.282529,-0.9822121,0.3276679,-0.2232126,0.7552243,1.580017,0.2218318,0.3119483,1.280045,0.3679908,275.8113,98.34443,153.7105,True
0,1.111113,0.2567645,0.2686518,-0.1085497,-1.471343,-4.704811,-2.665488,0.6031158,1.231107,0.4732347,-1.624172,-0.02377436,16,0.6,-0.1861082,0.3484126,-0.1226136,-0.7066442,-4.222434,-0.3381003,0.6656401,1.477303,0.3873975,-0.05985501,0.3759204,0.2686582,-0.9806398,0.3329971,-0.2256885,0.7536928,1.579919,0.2220695,0.3104835,1.278688,0.3687637,275.6422,98.62482,153.5959,True
0,1.122224,0.2588741,0.2771795,-0.1085834,-1.471827,-4.70838,-2.668065,0.6022959,1.230587,0.4731297,-1.624095,0.007288207,16,0.6,-0.1700372,0.3449556,-0.1014176,-0.7082842,-4.217185,-0.3407547,0.6638253,1.476961,0.3871846,-0.0482949,0.3588103,0.2611043,-0.9788454,0.337718,-0.2281594,0.7522488,1.579944,0.2223237,0.309035,1.277338,0.3695926,275.4682,99.05917,153.3463,True
0,1.133335,0.2567717,0.266518,-0.108545,-1.471847,-4.711166,-2.670573,0.6013923,1.230151,0.4729567,-1.624117,-0.002118886,16,0.6,-0.1626885,0.3257387,-0.1005464,-0.7103396,-4.213369,-0.3419307,0.6620153,1.476585,0.3869019,-0.04733878,0.3460304,0.2568404,-0.9769449,0.3427732,-0.2304151,0.7506621,1.58007,0.2226124,0.307601,1.276012,0.3705165,275.2984,99.35212,153.2498,True
0,1.144446,0.2589588,0.2409201,-0.1180362,-1.471183,1.569683,-2.673269,0.6006596,1.229804,0.4729011,-1.624135,-0.001672872,16.1,0.5,-0.1510384,0.3150419,-0.1028255,-0.7125288,-4.209575,-0.3435523,0.6603255,1.476292,0.3866968,-0.04109097,0.3214936,0.2557254,-0.974849,0.3467381,-0.2324103,0.7492509,1.580109,0.222795,0.3062097,1.274697,0.3715157,275.1386,99.4533,153.3803,True
0,1.155557,0.265441,0.2014827,-0.1264131,-1.470048,1.568233,-2.676236,0.5999542,1.229493,0.4728177,-1.623978,0.01441312,16.1,0.5,-0.1254177,0.3051502,-0.08280058,-0.7138417,-4.20541,-0.3461776,0.6586509,1.476002,0.3864827,-0.03480497,0.3065573,0.2524872,-0.9728613,0.3511807,-0.2347576,0.7478842,1.580159,0.2228692,0.3048679,1.273409,0.3725707,274.963,99.62088,153.463,True
0,1.166668,0.2729902,0.1620748,-0.129465,-1.468963,1.566995,-2.67932,0.5993273,1.229169,0.4728158,-1.624098,-0.01109741,16.4,0.6,-0.09547944,0.2983683,-0.05424881,-0.7146678,-4.200615,-0.349665,0.6570756,1.475742,0.3862994,-0.02537808,0.2873287,0.2460172,-0.9710168,0.3547855,-0.2368634,0.7465162,1.580203,0.2230005,0.3035749,1.272164,0.3735996,274.777,99.95323,153.414,True
0,1.17778,0.2762991,0.1173569,-0.1250356,-1.467801,1.566573,-2.682467,0.5986423,1.228903,0.472918,-1.624283,-0.01688932,16.4,0.6,-0.06896329,0.2694038,-0.04716723,-0.7156467,-4.197811,-0.3518992,0.6556726,1.475504,0.3860798,-0.01357746,0.2734437,0.2565512,-0.9686748,0.3590807,-0.2394408,0.7451305,1.580445,0.2231295,0.3024422,1.270936,0.374525,274.6,100.7244,152.9151,True
0,1.188891,0.2753064,0.09071799,-0.1249271,-1.466712,1.565846,-2.685514,0.5979219,1.228543,0.4729917,-1.624368,-0.007605687,16.4,0.6,-0.05101049,0.2437776,-0.05172332,-0.7169288,-4.19551,-0.3536457,0.6542456,1.475219,0.3858478,-0.011549,0.2648875,0.2576203,-0.9663706,0.362879,-0.2416249,0.7437918,1.580498,0.2232199,0.3014951,1.269706,0.3752585,274.4513,101.7094,152.1536,True
0,1.200002,0.2786598,0.02680868,-0.1246859,-1.46466,1.566917,-2.688874,0.5974122,1.228361,0.4731138,-1.624316,0.004803343,16.6,0.5,-0.01718406,0.2128461,-0.06919958,-0.718719,-4.194362,-0.355327,0.6528433,1.474987,0.3857138,-0.009577096,0.237185,0.2554893,-0.9639705,0.3658182,-0.2433932,0.7425306,1.580332,0.2232871,0.3006984,1.268462,0.3757674,274.3237,102.7818,151.2067,True
0,1.211113,0.2829752,0.007626489,-0.1267457,-1.463111,1.566713,-2.69225,0.5968817,1.228061,0.4731355,-1.624203,0.01017401,16.6,0.5,-0.004474252,0.205377,-0.07572019,-0.7204831,-4.191971,-0.3574894,0.651463,1.474754,0.3855422,-0.008832365,0.1988358,0.2416466,-0.9620126,0.3678092,-0.2445275,0.741232,1.5803,0.2233083,0.2999448,1.267212,0.3760433,274.2144,103.9762,150.0452,True
0,1.222224,0.2840939,-0.01583161,-0.1330491,-1.461172,1.566853,-2.695443,0.5964152,1.22783,0.4731598,-1.624285,-0.007576993,16.7,0.3,0.01692997,0.2126125,-0.06298677,-0.7216415,-4.188354,-0.3610863,0.6501382,1.474523,0.3853576,-0.002540857,0.1806908,0.2415953,-0.9597883,0.3702446,-0.2460939,0.7400069,1.580354,0.2233427,0.2992105,1.265933,0.3761163,274.1035,105.428,148.5821,True
0,1.233335,0.2872934,-0.01687339,-0.129845,-1.460023,1.56642,-2.698662,0.5959971,1.227656,0.4732211,-1.624408,-0.01124492,16.7,0.3,0.01705061,0.2210145,-0.04800337,-0.7226536,-4.184372,-0.364212,0.6487943,1.47434,0.3851666,0.000687778,0.1721735,0.2500852,-0.957384,0.3735532,-0.2481523,0.7387446,1.580548,0.2232032,0.2986064,1.264583,0.3759691,273.9724,107.6505,146.3185,True
0,1.244446,0.2851696,-0.01900098,-0.1277045,-1.458667,1.566094,-2.701714,0.5955762,1.227376,0.473268,-1.624164,0.0223985,16.7,0.3,0.01190102,0.2357915,-0.02760904,-0.7233465,-4.179652,-0.3675697,0.6476369,1.474057,0.384855,0.002828419,0.1636547,0.2553972,-0.9548903,0.3766041,-0.2501411,0.7376083,1.580493,0.2230792,0.2980504,1.263175,0.3756773,273.855,110.3899,143.4766,True
0,1.255558,0.2830502,-0.02324328,-0.122358,-1.457527,1.565932,-2.704707,0.5950878,1.227208,0.4732361,-1.624193,-0.002844865,16.7,0.3,0.01402262,0.2347232,-0.02869704,-0.7246642,-4.176324,-0.3703245,0.6463196,1.473855,0.3845849,0.0006165206,0.1572769,0.2511554,-0.952732,0.379262,-0.2514722,0.7363334,1.580591,0.2229891,0.297513,1.261736,0.3753313,273.7164,113.6999,140.0168,True
0,1.266669,0.2766762,-0.02963867,-0.1191337,-1.456203,1.565929,-2.707515,0.5946505,1.226932,0.4732227,-1.624005,0.01724413,16.2,0.3,0.01291899,0.2337166,-0.0350918,-0.7262073,-4.173122,-0.3728359,0.6452139,1.473585,0.3843091,0.001477599,0.1402244,0.2383667,-0.9508529,0.3810306,-0.2525564,0.735252,1.580637,0.222934,0.2969607,1.260317,0.3750546,273.5661,117.0786,136.4775,True
0,1.27778,0.2777753,-0.04347505,-0.1158877,-1.454686,1.56633,-2.710638,0.5942719,1.22677,0.4730837,-1.623904,0.009137921,16.2,0.3,0.00959526,0.2210688,-0.04904046,-0.7280864,-4.170995,-0.3745435,0.6441812,1.473278,0.3840179,0.006613016,0.1210206,0.2287375,-0.9489114,0.3825652,-0.2536677,0.7343014,1.580676,0.2227378,0.296375,1.258938,0.3749135,273.428,120.2569,133.2065,True
0,1.288891,0.2767252,-0.05306466,-0.1179819,-1.453095,1.566439,-2.713581,0.5939111,1.226522,0.4730003,-1.623704,0.0181555,16.2,0.3,0.007365912,0.2137125,-0.05974544,-0.7298334,-4.168602,-0.3762653,0.6430037,1.472934,0.3838198,0.01090074,0.1188848,0.2329626,-0.946643,0.3852855,-0.2555111,0.7331973,1.580724,0.2227702,0.2957386,1.25763,0.3749105,273.2932,123.198,130.2615,True
0,1.300002,0.2724811,-0.05945878,-0.1158244,-1.451628,1.566748,-2.716489,0.5935097,1.226277,0.4728513,-1.623974,-0.02483748,14.4,0.1,-0.004439428,0.2128417,-0.07567247,-0.7319512,-4.166144,-0.3776272,0.6418996,1.472667,0.3835578,0.01524881,0.1263191,0.2382507,-0.9443292,0.3881432,-0.257488,0.7321426,1.580764,0.2227433,0.2951336,1.256372,0.3750084,273.1687,125.9678,127.5663,True
0,1.311113,0.2692917,-0.0594415,-0.1083636,-1.450503,1.566968,-2.719417,0.5931016,1.226045,0.4727943,-1.623875,0.009334452,14.4,0.1,-0.01172574,0.2308852,-0.06271107,-0.7334958,-4.161945,-0.3805149,0.6407984,1.472524,0.3832209,0.01733571,0.1241812,0.2350365,-0.9422945,0.3905742,-0.2591003,0.7310659,1.580665,0.2226837,0.2946179,1.255147,0.3751269,273.0657,128.7994,124.8515,True
0,1.322224,0.2661114,-0.06260078,-0.09663133,-1.449547,1.567429,-2.722301,0.592746,1.225797,0.472681,-1.623817,0.005230182,13.2,0,-0.01698135,0.2307987,-0.04883539,-0.7345531,-4.158379,-0.3828124,0.6398442,1.472328,0.3829489,0.01290852,0.1156802,0.2212266,-0.9406008,0.3924075,-0.260193,0.730143,1.580678,0.2226079,0.2941712,1.253941,0.3752228,272.9989,131.5697,122.1746,True
0,1.333336,0.2618567,-0.06257468,-0.08704056,-1.448687,1.567815,-2.725116,0.5923961,1.225568,0.4725451,-1.62386,-0.004020974,13.2,0,-0.01703198,0.2136994,-0.04152061,-0.7354894,-4.15599,-0.3844321,0.6388797,1.472064,0.3827548,0.01487821,0.1039621,0.2105627,-0.9388522,0.3942661,-0.2614372,0.7291899,1.580913,0.2225463,0.2937326,1.252759,0.3752585,272.9377,134.2374,119.5624,True
0,1.344447,0.2607639,-0.04868835,-0.07644046,-1.448228,1.567691,-2.727955,0.5921243,1.225339,0.4723098,-1.623814,0.004335223,12.3,0,-0.01612701,0.1795707,-0.03754652,-0.7360269,-4.155044,-0.384977,0.638058,1.471874,0.3824861,0.01353085,0.07946359,0.1935331,-0.9373219,0.3948488,-0.2618817,0.7283001,1.580948,0.2224538,0.2932885,1.251598,0.3752329,272.8674,136.9297,116.8853,True
0,1.355558,0.2564933,-0.03911151,-0.07110413,-1.447434,1.56758,-2.730644,0.5916741,1.225133,0.4720745,-1.62377,0.003936894,12.3,0,-0.01213559,0.1658847,-0.06115119,-0.7378464,-4.153636,-0.3857022,0.637184,1.471648,0.3823135,0.0134224,0.07201384,0.1860908,-0.9355168,0.3964145,-0.2629246,0.7274243,1.580824,0.2223415,0.2928647,1.250444,0.3751327,272.7885,139.7637,114.0629,True
0,1.366669,0.2511207,-0.0231072,-0.06801164,-1.447118,1.566903,-2.733226,0.5914722,1.224824,0.4718103,-1.623874,-0.009568829,12.1,0,-0.01107046,0.1692193,-0.07708861,-0.740232,-4.152011,-0.3869403,0.6363436,1.471366,0.3820999,0.0122878,0.06775775,0.1807746,-0.9339184,0.3977235,-0.2638034,0.7265406,1.580855,0.2222981,0.2924593,1.249305,0.3749569,272.7119,143.0036,110.8233,True
0,1.37778,0.2393458,0.0003381036,-0.05850793,-1.447115,1.565945,-2.735294,0.5912488,1.224566,0.4715607,-1.62376,0.01060695,12.1,0,0.006107897,0.1957825,-0.07909667,-0.7424467,-4.148129,-0.3904562,0.6355865,1.471167,0.3819857,0.008142844,0.07736381,0.1882685,-0.931863,0.3999162,-0.2650572,0.7256751,1.580922,0.2223856,0.2920483,1.248193,0.3747309,272.6505,146.3399,107.4785,True
0,1.388891,0.2265164,0.02165614,-0.04686487,-1.447279,1.565027,-2.737293,0.591046,1.224249,0.4713061,-1.623734,0.0022669,12.1,0,0.01038115,0.1989689,-0.07908556,-0.7441298,-4.145166,-0.3928341,0.6346315,1.470867,0.381686,0.003908709,0.0805834,0.1893697,-0.9300296,0.4018705,-0.266106,0.7247807,1.580955,0.2223473,0.2915873,1.247114,0.3744849,272.6217,149.6614,104.131,True
0,1.400002,0.2211597,0.03767516,-0.03307326,-1.447762,1.564168,-2.739471,0.5909024,1.22391,0.4710476,-1.6233,0.03965325,11.9,0.1,0.0157171,0.1935528,-0.07170023,-0.745423,-4.142797,-0.3949452,0.6338432,1.470639,0.3814623,0.00281179,0.07100052,0.1915151,-0.9279603,0.4031597,-0.2669041,0.7239224,1.581049,0.2221031,0.2911886,1.246038,0.374291,272.5889,152.9209,100.829,True
0,1.411114,0.2157804,0.06111941,-0.02676444,-1.448218,1.562877,-2.741583,0.5908141,1.22357,0.4707277,-1.623251,0.004200504,11.9,0.1,0.02001563,0.1891712,-0.05897469,-0.746426,-4.140124,-0.3971631,0.6330307,1.470459,0.3811233,0.002723381,0.06675344,0.1851384,-0.926192,0.4048487,-0.2678192,0.723089,1.580935,0.2218714,0.2908043,1.24501,0.3742025,272.5347,156.3994,97.32924,True
0,1.422225,0.2050839,0.08137013,-0.01724642,-1.448949,1.561479,-2.743321,0.5906982,1.223221,0.4703894,-1.623505,-0.02312705,12.2,0,0.02102479,0.1817352,-0.06223751,-0.7478257,-4.138208,-0.3988481,0.6323014,1.470217,0.380897,0.006930649,0.06033786,0.1829725,-0.9244018,0.4060371,-0.2687508,0.7223498,1.580935,0.2218282,0.2904523,1.24405,0.3742364,272.4685,159.5713,94.18839,True
0,1.433336,0.1975937,0.09841782,-0.01304653,-1.449533,1.559895,-2.745186,0.5905979,1.222849,0.4700484,-1.623589,-0.007396732,12.2,0,0.009324357,0.1882168,-0.06532802,-0.7496335,-4.135627,-0.4004382,0.6315854,1.46998,0.380662,0.006977394,0.06246857,0.187235,-0.9224498,0.4077354,-0.269828,0.7215134,1.580949,0.2216766,0.2901649,1.24315,0.3743802,272.3909,162.1088,91.73619,True
0,1.444447,0.1836722,0.1292975,-0.007827368,-1.450583,1.557595,-2.746431,0.590499,1.222452,0.4697132,-1.623296,0.0268607,13.5,0,0.005148113,0.20207,-0.0630614,-0.7512671,-4.13233,-0.4027576,0.6308849,1.469725,0.3804338,0.01222447,0.06137248,0.1786674,-0.9210026,0.4090778,-0.2709407,0.720777,1.580941,0.2216151,0.2899173,1.242304,0.374614,272.3196,164.1482,89.81865,True
0,1.455558,0.1665772,0.1537696,-0.004712708,-1.451578,1.555299,-2.747542,0.590259,1.222119,0.4694204,-1.623484,-0.01737458,13.5,0,-0.001226351,0.202079,-0.05877545,-0.7527403,-4.129403,-0.4046023,0.6302085,1.469559,0.3802562,0.01640385,0.05495504,0.172238,-0.9195192,0.4101143,-0.2719985,0.7201793,1.580894,0.2214224,0.2896497,1.241521,0.3749122,272.243,165.9697,88.13847,True
0,1.466669,0.1537679,0.1643953,-0.003678314,-1.452418,1.553258,-2.74854,0.5901167,1.221773,0.4691277,-1.623056,0.0393642,14.6,0,-0.005731851,0.1713448,-0.07499231,-0.7544171,-4.129002,-0.4047225,0.6296792,1.469286,0.3800197,0.01843417,0.05174595,0.162633,-0.918235,0.411167,-0.2729277,0.7195254,1.580882,0.2213473,0.2893583,1.240784,0.3752605,272.181,167.3821,86.86178,True
0,1.47778,0.1345534,0.1813749,-0.00797883,-1.453229,1.55096,-2.749272,0.5900744,1.221315,0.4687855,-1.622975,0.007087925,14.6,0,-0.008090213,0.1502361,-0.09752716,-0.7564895,-4.128852,-0.4046548,0.6290741,1.469035,0.3798137,0.01936015,0.04109351,0.1530449,-0.9168848,0.4119579,-0.2736622,0.7189044,1.580927,0.2212684,0.288976,1.240115,0.3756793,272.1103,169.0575,85.30777,True
0,1.488891,0.1281619,0.1813399,-0.01435596,-1.45366,1.549057,-2.750382,0.5898836,1.221107,0.4685559,-1.622952,0.002221168,14.6,0,-0.01684676,0.1399035,-0.130599,-0.7594036,-4.128631,-0.4041821,0.6284174,1.468777,0.3796175,0.01714942,0.03897541,0.1456122,-0.9155762,0.4129181,-0.2742992,0.7182853,1.580919,0.2212515,0.288489,1.239532,0.3761707,272.0363,170.9282,83.57978,True
0,1.500003,0.1185911,0.1759599,-0.01970326,-1.454032,1.546818,-2.751138,0.5897093,1.220872,0.4682915,-1.622845,0.009827204,15.6,0,-0.02216557,0.1485153,-0.1379582,-0.7618223,-4.12707,-0.4048625,0.6278024,1.468557,0.3794553,0.01501608,0.04857736,0.1392328,-0.9145769,0.4144957,-0.2753346,0.7177136,1.580896,0.2211804,0.2880466,1.238995,0.3767068,271.9674,172.3936,82.29527,True
0,1.511114,0.1100772,0.1673955,-0.02710839,-1.454002,1.545277,-2.751866,0.5895158,1.220654,0.4680195,-1.623288,-0.04051777,15.6,0,-0.02848486,0.1505757,-0.1251289,-0.7633658,-4.125167,-0.4056769,0.6271352,1.468394,0.3792,0.01497029,0.05390257,0.1307198,-0.9135149,0.415943,-0.2763631,0.7170603,1.580916,0.2211661,0.2876889,1.238492,0.3772527,271.9057,173.7283,81.15319,True
0,1.522225,0.101577,0.1567021,-0.03238554,-1.454021,1.543816,-2.752542,0.589344,1.220479,0.4678569,-1.623133,0.01460113,16.6,0,-0.02833952,0.1460422,-0.09214122,-0.7638873,-4.123178,-0.4068066,0.6265807,1.4683,0.3790267,0.00847514,0.04967931,0.1211869,-0.9126994,0.4168541,-0.2768122,0.7164997,1.580891,0.2210293,0.2873353,1.238051,0.3777747,271.8701,175.2621,79.78806,True
0,1.533336,0.09734519,0.1492243,-0.03554139,-1.454198,1.542333,-2.753554,0.5892059,1.22008,0.4675419,-1.623104,0.002605578,16.6,0,-0.02609992,0.1437142,-0.06979904,-0.7644987,-4.12123,-0.4080996,0.6259623,1.468109,0.3787951,0.004150085,0.04225128,0.118038,-0.9114653,0.4176763,-0.2772838,0.7159702,1.580874,0.2209227,0.2869711,1.237668,0.3782598,271.8473,176.4285,78.78094,True
0,1.544447,0.09310576,0.1406958,-0.03443999,-1.454333,1.541062,-2.754287,0.5890301,1.219958,0.4674439,-1.62315,-0.004158374,16.6,0,-0.01863559,0.1296947,-0.05397241,-0.7649014,-4.120046,-0.4090115,0.6254805,1.468035,0.3786743,0.005172737,0.04117945,0.113768,-0.9105204,0.4185669,-0.2779171,0.7154503,1.580872,0.2209132,0.2866216,1.237327,0.3786676,271.8353,177.2336,78.12231,True
0,1.555558,0.09208833,0.1268604,-0.0354469,-1.454473,1.539747,-2.755386,0.5888605,1.219813,0.4675364,-1.623588,-0.03991285,18.3,0,-0.009055562,0.1221227,-0.0455632,-0.7657201,-4.118638,-0.4100754,0.6248903,1.467911,0.378618,-0.0002716929,0.03800964,0.1031607,-0.9098514,0.4192625,-0.2780777,0.7149998,1.580953,0.2208939,0.2863176,1.237005,0.3789864,271.8253,177.3132,78.15796,True
0,1.566669,0.09318325,0.1151491,-0.03433713,-1.45448,1.538807,-2.756353,0.5886763,1.219705,0.4675074,-1.623404,0.01721848,18.3,0,0.001509309,0.1028582,-0.04258149,-0.7662714,-4.118329,-0.4106368,0.6245118,1.467821,0.3785408,-0.002478167,0.0358899,0.09572262,-0.9091632,0.4199508,-0.2783887,0.7145091,1.580972,0.2208631,0.2860779,1.236648,0.3792107,271.8068,176.6087,78.94865,True
0,1.577781,0.09432176,0.0885292,-0.03317398,-1.454212,1.538503,-2.757502,0.5884959,1.219694,0.4676001,-1.623805,-0.03681844,19.3,0,0.01003009,0.08670415,-0.02677742,-0.7662495,-4.117618,-0.4115636,0.6241643,1.467808,0.3783934,-0.00578884,0.02951567,0.08616818,-0.9085363,0.4203563,-0.2784971,0.7140749,1.580928,0.2207603,0.2858271,1.236282,0.3793786,271.8124,177.8476,77.7103,True
0,1.588892,0.08902977,0.07147319,-0.03417026,-1.453968,1.53804,-2.758143,0.5885115,1.219705,0.4675262,-1.623716,0.008461011,19.3,0,0.02186385,0.07893352,0.003998213,-0.7655587,-4.116029,-0.4132672,0.6239055,1.467774,0.3783431,-0.0005394742,0.02629006,0.07973722,-0.9078689,0.420896,-0.2789576,0.7137321,1.58085,0.2207413,0.2855704,1.235907,0.3795648,271.8344,179.4395,76.08031,True
0,1.600003,0.08590759,0.04055993,-0.03724727,-1.453251,1.538429,-2.759035,0.5883193,1.21972,0.4676468,-1.623839,-0.01126673,20.6,0.1,0.0334609,0.05005714,0.01009298,-0.7651432,-4.116286,-0.4138131,0.6236241,1.467758,0.3782973,-0.001675069,0.01989843,0.07549093,-0.907151,0.4210789,-0.2790607,0.7133373,1.580891,0.2207606,0.2853034,1.235526,0.379782,271.8459,181.5513,73.97585,True
0,1.611114,0.08169905,0.0171004,-0.04355004,-1.452441,1.538509,-2.759801,0.5881302,1.219725,0.4677103,-1.623402,0.03996655,20.6,0.1,0.04080572,0.0351608,0.003527467,-0.765548,-4.116582,-0.4142353,0.6232456,1.46767,0.3782325,-0.0005889386,0.02096158,0.077612,-0.9063254,0.4218406,-0.2794905,0.7129903,1.580774,0.2205458,0.2850887,1.235136,0.3800086,271.8579,184.2666,71.30933,True
0,1.622225,0.07642093,-0.003161178,-0.04560046,-1.451632,1.53898,-2.760514,0.5879441,1.21971,0.4677806,-1.623558,-0.01450844,21.4,0,0.04180954,0.02773356,-0.0008002501,-0.7656758,-4.116602,-0.4147154,0.6229984,1.467593,0.3781862,0.005664535,0.006011313,0.07116795,-0.9056154,0.4215552,-0.2795709,0.7126567,1.58078,0.2205424,0.2849574,1.234762,0.3802042,271.8802,187.3568,68.29534,True
0,1.633336,0.06899993,-0.01916714,-0.05086764,-1.45069,1.539147,-2.761054,0.587791,1.219744,0.4678357,-1.623551,0.0008674622,21.4,0,0.02908431,0.03953018,-0.001711131,-0.7662048,-4.115464,-0.4154113,0.622689,1.467483,0.3782668,0.004579611,0.00389397,0.07117301,-0.9049554,0.4219085,-0.2796751,0.7122692,1.580778,0.2204394,0.2848195,1.234434,0.3803284,271.9265,189.0684,66.6262,True
0,1.644447,0.06262261,-0.02557866,-0.05190499,-1.449931,1.539389,-2.761539,0.5876428,1.219745,0.4679375,-1.623507,0.004050523,21.4,0,0.03124789,0.04161429,0.002556431,-0.7662585,-4.114665,-0.4164087,0.62243,1.467435,0.3782353,0.006589934,0.0006853947,0.05944025,-0.9046534,0.4219711,-0.2798322,0.7119436,1.580782,0.2204373,0.2846564,1.234148,0.3803755,271.9791,189.7733,65.92633,True
0,1.655559,0.05517836,-0.02985746,-0.05188356,-1.449258,1.539543,-2.761972,0.5875344,1.219852,0.4681017,-1.623426,0.007397055,21.6,0,0.03441974,0.03196483,0.007787834,-0.7659906,-4.114522,-0.4170188,0.6221939,1.467489,0.3782599,0.009690005,-0.00359367,0.05088875,-0.9043797,0.4218571,-0.2800002,0.7116243,1.580811,0.2203803,0.2844899,1.233891,0.3803442,272.0288,190.2323,65.44795,True
0,1.66667,0.04985078,-0.02879719,-0.04975325,-1.448727,1.539623,-2.762346,0.5874177,1.219856,0.4681721,-1.623423,0.0002905782,21.6,0,0.03333045,0.02233936,0.01304078,-0.7656556,-4.114465,-0.4173679,0.6219984,1.467482,0.3782794,0.009626459,-0.006783461,0.04556207,-0.9040276,0.4219013,-0.2801118,0.7114167,1.580798,0.22032,0.2847422,1.233781,0.3805244,271.8188,187.4556,68.14607,True
0,1.677781,0.04557601,-0.02023489,-0.03593655,-1.448779,1.539592,-2.762702,0.5873348,1.219869,0.4681976,-1.623453,-0.002760508,21.1,0.1,0.04066907,0.008536864,0.003297517,-0.7658654,-4.115081,-0.4176763,0.6217401,1.467488,0.3783238,0.009560099,-0.01211039,0.04130196,-0.9036191,0.4216299,-0.2800348,0.7111535,1.580812,0.2203047,0.2844241,1.233551,0.3804934,272.1351,189.992,65.68485,True
0,1.688892,0.04449405,-0.01275003,-0.02637036,-1.448853,1.53964,-2.763107,0.5872344,1.219884,0.4681866,-1.623473,-0.001711624,21.1,0.1,0.04913669,0.003212295,-0.002115449,-0.7660183,-4.115251,-0.4183922,0.6216068,1.467496,0.3783255,0.01380075,-0.01426446,0.04020109,-0.9031626,0.4215531,-0.2803038,0.7108914,1.580811,0.2202148,0.2841526,1.233367,0.3804327,272.2125,192.1057,63.51268,True
0,1.700003,0.04128833,-0.006333945,-0.01786997,-1.448987,1.539532,-2.763422,0.587213,1.219869,0.4682007,-1.623535,-0.0056784,21,0,0.05331387,-0.007418822,-0.007551008,-0.7661116,-4.116017,-0.4185914,0.6215011,1.467526,0.3783731,0.01266964,-0.02278103,0.03808121,-0.9026833,0.4210312,-0.2800756,0.7106805,1.580844,0.2202053,0.2839457,1.233231,0.3803596,272.2339,193.2655,62.29303,True
0,1.711114,0.03701151,6.50119E-05,-0.01256654,-1.449028,1.539353,-2.763639,0.587199,1.219863,0.46825,-1.623639,-0.009327095,21,0,0.04798949,-0.006330166,-0.006450693,-0.7661408,-4.115993,-0.4187994,0.6213775,1.467585,0.3783858,0.01471669,-0.03132034,0.03380165,-0.9022886,0.4202676,-0.2798431,0.7104696,1.580855,0.2201598,0.2838222,1.233143,0.3802949,272.2286,193.9241,61.60182,True
0,1.722225,0.03804744,0.01502195,-0.001970639,-1.449582,1.53883,-2.764066,0.5872706,1.219778,0.4681778,-1.623627,0.001174231,20.3,0.1,0.03733813,-0.0009037293,-0.01167859,-0.7664908,-4.115963,-0.4189035,0.6212777,1.467558,0.3783998,0.0146708,-0.03132098,0.02847535,-0.9020574,0.419885,-0.2797544,0.7102574,1.580849,0.2201843,0.2834781,1.231642,0.3804136,272.9643,204.4579,51.23497,True
0,1.733337,0.03270035,0.0224549,-0.004129698,-1.449563,1.538341,-2.764154,0.5872617,1.219718,0.4681852,-1.623582,0.004107336,20.3,0.1,0.0352748,0.009733386,-0.008382581,-0.7666463,-4.115304,-0.4196348,0.6211407,1.467547,0.3784184,0.01679525,-0.02494574,0.02419782,-0.9018864,0.4198559,-0.2799312,0.7100084,1.580818,0.220139,0.2829909,1.230286,0.3806305,273.0247,214.8142,40.88222,True
0,1.744448,0.02737302,0.02459659,0.002257757,-1.449918,1.538084,-2.764249,0.5873354,1.219622,0.4681342,-1.624241,-0.05970864,20.3,0.1,0.04166178,0.01293042,-0.01265011,-0.7670144,-4.115068,-0.4204998,0.6210636,1.467527,0.3784647,0.01883077,-0.02708928,0.01459652,-0.9018577,0.4193818,-0.2799091,0.7098311,1.58083,0.2201545,0.2828571,1.22991,0.3808158,272.9276,219.4402,36.27078,True
0,1.755559,0.02416069,0.03204586,0.004358825,-1.450132,1.53767,-2.764379,0.5873808,1.219585,0.468029,-1.624702,-0.04084442,18.8,0.1,0.04156658,0.003402213,-0.02018139,-0.7672423,-4.115797,-0.4203762,0.6210393,1.46746,0.3784525,0.02199556,-0.03349507,0.01457024,-0.9015689,0.4187929,-0.2799544,0.7096341,1.580783,0.2201529,0.2828502,1.229854,0.3809192,272.8749,220.4108,35.28126,True
0,1.76667,0.0294849,0.03527463,0.00967331,-1.450625,1.537324,-2.76488,0.5874508,1.219526,0.4679949,-1.625742,-0.09386032,18.8,0.1,0.03936705,-0.007212285,-0.02345721,-0.7674426,-4.116628,-0.4201762,0.6210065,1.467399,0.3785095,0.03163977,-0.03035248,0.01768674,-0.9011493,0.4186333,-0.2806708,0.7095457,1.580833,0.2201433,0.2829404,1.229891,0.380886,272.9782,220.9953,34.68499,True
0,1.777781,0.0326757,0.0374148,0.0117961,-1.450989,1.537038,-2.765286,0.5875657,1.219504,0.4679313,-1.62718,-0.1294722,18.1,0.1,0.04777029,-0.01996222,-0.03318173,-0.767629,-4.117757,-0.4201294,0.6209936,1.467351,0.3784788,0.03380283,-0.02822969,0.0208629,-0.9007844,0.41852,-0.2809542,0.709331,1.5809,0.2200668,0.2830326,1.229953,0.3808058,273.1265,219.6145,36.10426,True
0,1.788892,0.0390588,0.04062566,0.01390974,-1.451335,1.536731,-2.765861,0.5877445,1.219402,0.4678619,-1.629151,-0.1778777,18.1,0.1,0.04448285,-0.02409174,-0.04704977,-0.7683976,-4.118837,-0.419773,0.6209193,1.467289,0.378438,0.02952496,-0.02821589,0.01983088,-0.9005527,0.4180371,-0.2807124,0.7092346,1.580916,0.220032,0.2833397,1.230151,0.3806083,273.3262,213.152,42.54919,True
0,1.800003,0.03905104,0.04382149,0.0138975,-1.451695,1.536214,-2.766256,0.5878076,1.219315,0.4677727,-1.63087,-0.1542987,17.9,0.1,0.03919677,-0.01445884,-0.04907429,-0.7690938,-4.119019,-0.4199102,0.6208508,1.467249,0.3784482,0.03053239,-0.03035299,0.01449576,-0.9004515,0.4175378,-0.2807877,0.7090855,1.580927,0.220048,0.2836144,1.230591,0.3803668,273.4342,209.2992,46.41509,True
0,1.811115,0.042253,0.04167728,0.008583402,-1.451838,1.535878,-2.766837,0.5878892,1.219286,0.4677882,-1.632964,-0.1887258,17.9,0.1,0.03180261,-0.009138085,-0.04366194,-0.7693116,-4.119051,-0.4201067,0.6207387,1.467234,0.3784666,0.0347784,-0.03144564,0.01339306,-0.9002464,0.4170368,-0.2810253,0.7089138,1.580995,0.2199092,0.2837982,1.231097,0.3802873,273.3764,208.6395,47.16695,True
0,1.822226,0.04012473,0.03952536,0.00433191,-1.451909,1.5355,-2.767174,0.5879247,1.219218,0.4677482,-1.63491,-0.1748327,18.1,0,0.02660777,0.0024908,-0.02969068,-0.7693824,-4.118481,-0.4206439,0.6206186,1.467241,0.3784881,0.03156846,-0.03036201,0.01129296,-0.9000696,0.416693,-0.2810237,0.7088038,1.580974,0.2199404,0.2839486,1.231592,0.3804003,273.197,209.0296,46.83545,True
0,1.833337,0.04438853,0.03741491,0.006473318,-1.452263,1.535245,-2.767731,0.5879731,1.219073,0.4676795,-1.636895,-0.1790095,18.1,0,0.02776564,0.01093176,-0.0200316,-0.7693793,-4.11779,-0.4215049,0.6205131,1.467196,0.378536,0.03154919,-0.03036754,0.009168799,-0.8998352,0.4162413,-0.2810754,0.7085988,1.581006,0.2198989,0.2840858,1.232096,0.3805421,273.0077,208.8366,47.04387,True
0,1.844448,0.04332398,0.03741631,0.007539258,-1.452522,1.534896,-2.768129,0.5879985,1.218997,0.467654,-1.638261,-0.122458,18.1,0,0.02349321,0.008823799,-0.02002725,-0.7695891,-4.117876,-0.4215619,0.620433,1.467162,0.3785851,0.03051078,-0.03036088,0.0123715,-0.8995524,0.4159135,-0.2811449,0.7084626,1.581016,0.2199667,0.2842429,1.232596,0.3806406,272.8646,207.1823,48.68584,True
0,1.855559,0.04225761,0.03847328,0.006471182,-1.452727,1.534497,-2.768565,0.5880865,1.218838,0.467659,-1.639806,-0.1394977,18.4,0.1,0.0171113,0.01742232,-0.02524683,-0.7701638,-4.117584,-0.4216208,0.6204398,1.467093,0.3786035,0.03159499,-0.02397839,0.01023015,-0.8994864,0.4158213,-0.2814951,0.708326,1.580936,0.219923,0.2844742,1.233067,0.3807476,272.7897,205.9157,49.96606,True
0,1.86667,0.04225516,0.0406236,0.009666384,-1.453266,1.534025,-2.76899,0.588044,1.218812,0.4676938,-1.640854,-0.09399986,18.4,0.1,0.02132172,0.01210179,-0.02850715,-0.7705202,-4.117825,-0.4217582,0.6204604,1.46708,0.378675,0.02841518,-0.02077137,0.01025269,-0.8993862,0.4155719,-0.281518,0.7082645,1.580924,0.2199242,0.2847005,1.233456,0.3807391,272.6994,202.3205,53.54638,True
0,1.877781,0.03585552,0.04380377,0.009658714,-1.453575,1.533497,-2.769117,0.5880708,1.218733,0.467716,-1.641889,-0.09331017,18.8,0,0.02330806,-0.001643579,-0.04248,-0.7711747,-4.119006,-0.4212197,0.6204628,1.467017,0.3787484,0.02627825,-0.01862909,0.008140242,-0.8993196,0.4153988,-0.2816383,0.7081688,1.58091,0.2199893,0.2849146,1.233797,0.3806661,272.7151,197.9958,57.85324,True
0,1.888893,0.03372671,0.04377928,0.005404923,-1.453722,1.533099,-2.76945,0.5881974,1.218648,0.467696,-1.642758,-0.07820208,18.8,0,0.02436597,-0.003776116,-0.04249597,-0.7714714,-4.119307,-0.4213717,0.6204588,1.46685,0.3787732,0.02838233,-0.01970562,0.005991853,-0.8992637,0.4151007,-0.2818141,0.7081136,1.580896,0.219995,0.2850797,1.234106,0.3806175,272.7007,194.5782,61.24791,True
0,1.900004,0.02625917,0.04478196,-0.00631227,-1.453527,1.532435,-2.769412,0.5882463,1.218591,0.4677131,-1.643218,-0.04100478,18.8,0,0.02537498,-0.01228618,-0.04470192,-0.771841,-4.120151,-0.4211153,0.6204251,1.466804,0.3788559,0.02734145,-0.01863416,0.008131403,-0.8990517,0.4149659,-0.2819875,0.7079908,1.580901,0.2200685,0.2851555,1.234401,0.3806206,272.6563,192.2434,63.53852,True
0,1.911115,0.02304727,0.04901528,-0.009515296,-1.453632,1.53187,-2.769485,0.5883557,1.2186,0.4677172,-1.644035,-0.07403897,19.1,0,0.02119939,-0.001649398,-0.03926968,-0.7722874,-4.119742,-0.4215124,0.6203138,1.466709,0.3788819,0.02417811,-0.01754241,0.01136033,-0.8987306,0.4150225,-0.2821622,0.7078259,1.580876,0.2201264,0.2852514,1.234646,0.3807037,272.5271,192.7215,63.03181,True
0,1.922226,0.01983589,0.05324042,-0.01698619,-1.453477,1.531042,-2.769487,0.588421,1.218578,0.4677436,-1.644294,-0.02268981,19.1,0,0.0116566,0.003701178,-0.03598107,-0.7726416,-4.119644,-0.4213994,0.6202588,1.466623,0.3789082,0.02217901,-0.004748927,0.01776967,-0.8984163,0.4156546,-0.2827987,0.7077701,1.58088,0.2202549,0.2853734,1.234778,0.3807772,272.4864,191.3152,64.41492,True
0,1.933337,0.01662029,0.06066035,-0.02233455,-1.453436,1.530177,-2.769503,0.588584,1.218583,0.4678628,-1.644865,-0.05172609,19,0,5.810242E-05,0.01968737,-0.02833543,-0.7730858,-4.118637,-0.4217036,0.6202371,1.466593,0.3789036,0.02114268,0.000588445,0.01777684,-0.8983151,0.416012,-0.2832069,0.7077038,1.58086,0.2203045,0.2854813,1.234881,0.3808157,272.5058,189.8288,65.86459,True
0,1.944448,0.01126575,0.07236945,-0.02130988,-1.453689,1.528962,-2.769309,0.5886433,1.218575,0.4679446,-1.645283,-0.03750983,19,0,0.0001469683,0.02383262,-0.01445406,-0.7730305,-4.117979,-0.4221379,0.6203113,1.466507,0.3789632,0.02215559,0.001648501,0.0113801,-0.8983641,0.4160722,-0.2834884,0.7076753,1.580846,0.2204013,0.2855613,1.234956,0.3808571,272.5428,189.0812,66.56638,True
0,1.955559,0.004821653,0.08832479,-0.0224315,-1.45397,1.527524,-2.768806,0.5887783,1.218521,0.4680915,-1.64568,-0.03574706,18.8,0,9.477232E-05,0.01209099,-0.01134866,-0.7728877,-4.118252,-0.4218596,0.6203479,1.466504,0.378989,0.02203925,-0.00261643,0.0007265958,-0.8986565,0.4156703,-0.2834703,0.7076283,1.580863,0.2204754,0.285631,1.234965,0.3809806,272.5715,190.6735,64.951,True
0,1.966671,-0.002655806,0.09680121,-0.02884735,-1.453958,1.526164,-2.768442,0.588746,1.218491,0.4681797,-1.645848,-0.01490168,18.8,0,0.001012939,-0.01346073,-0.0136928,-0.7727172,-4.119685,-0.420886,0.6203843,1.466574,0.3789589,0.01878949,-0.005795076,-0.003504461,-0.8987498,0.415402,-0.2834032,0.7076071,1.580871,0.2205677,0.2856621,1.234931,0.3811587,272.5221,191.9168,63.64796,True
