loc,t,aDotUA,bDotUA,gDotUA,aUA,bUA,gUA,xUA,yUA,zUA,qE,qDotE,emgA,emgB,aDotSH,bDotSH,gDotSH,aSH,bSH,gSH,xSH,ySH,zSH,aDotUB,bDotUB,gDotUB,aUB,bUB,gUB,xUB,yUB,zUB,xHand,yHand,zHand,aHand,bHand,gHand,enable
2,0,-0.2619078,-1.449692,-0.03681739,-1.443654,-4.19234,-3.04039,0.6398813,1.252904,0.4883089,-1.373257,0.008796777,0,2.9,-0.3809434,0.1056609,0.3928829,-0.6602642,-4.224431,-0.4442041,0.6844258,1.504374,0.4013989,-0.2547143,0.1294781,-0.04178042,-0.917793,0.1578297,-0.1187125,0.7533655,1.588619,0.2174053,0.428019,1.099742,0.2916534,301.0199,241.7227,349.5899,True
2,0.01111111,-0.2897989,-1.394382,-0.03912961,-1.441679,-4.178321,-3.037929,0.6375721,1.254138,0.4878752,-1.372941,0.02901827,0,2.1,-0.3647638,0.1075496,0.4067926,-0.656498,-4.218652,-0.4452592,0.6841103,1.505193,0.4011753,-0.2559087,0.1188309,-0.05028217,-0.9186457,0.1589698,-0.1165903,0.7533146,1.588689,0.2172694,0.4282188,1.101276,0.288615,300.9819,239.7617,350.5746,True
2,0.02222222,-0.3133039,-1.364664,-0.05203977,-1.439004,-4.164001,-3.035726,0.635307,1.25544,0.4873309,-1.373101,-0.01476582,0,2.1,-0.3475862,0.1072483,0.4333285,-0.6519578,-4.212904,-0.4465567,0.6839403,1.506197,0.4009047,-0.2539809,0.09536785,-0.05668974,-0.919466,0.1590152,-0.1137042,0.7532542,1.58888,0.2172582,0.4287541,1.102957,0.2846899,300.8662,238.3704,350.7841,True
2,0.03333334,-0.345435,-1.316874,-0.06922147,-1.436238,-4.150799,-3.03244,0.6331666,1.256786,0.4868,-1.37276,0.03150996,0,1.7,-0.3187916,0.08663309,0.4607151,-0.6466714,-4.208091,-0.4477378,0.6840359,1.507119,0.4006786,-0.2424714,0.0708048,-0.06424475,-0.9204481,0.1590203,-0.1113558,0.7532394,1.588871,0.2171221,0.4295655,1.104793,0.2802453,300.7005,237.1191,350.6812,True
2,0.04444445,-0.3914416,-1.265969,-0.1003061,-1.432509,-4.138169,-3.028275,0.6311554,1.258104,0.4861999,-1.37316,-0.03659036,0,1.7,-0.2659336,0.01177636,0.458788,-0.6409217,-4.207864,-0.4466486,0.6843567,1.507906,0.4003792,-0.2278098,0.03660876,-0.07076338,-0.9214085,0.1577261,-0.1084935,0.7533171,1.588838,0.2170877,0.430517,1.106753,0.2755587,300.5043,235.8051,350.6212,True
2,0.05555556,-0.4224614,-1.224598,-0.127065,-1.428762,-4.126307,-3.024225,0.6292307,1.259372,0.4856277,-1.372502,0.06074386,0,1.7,-0.2183503,-0.03838235,0.4389647,-0.6363479,-4.207934,-0.4458654,0.684568,1.50871,0.4001737,-0.2226722,0.01741293,-0.07933308,-0.922584,0.1572316,-0.1058135,0.7533526,1.588824,0.2169404,0.4315459,1.108814,0.2709151,300.2761,234.3812,350.696,True
2,0.06666667,-0.4825177,-1.107705,-0.1700638,-1.424328,-4.117997,-3.017924,0.6276466,1.260579,0.4849694,-1.371885,0.05605305,0,1.1,-0.1443498,-0.1077148,0.4017944,-0.6321705,-4.210796,-0.4443071,0.6850857,1.509653,0.4001534,-0.2111677,-0.007174969,-0.08795886,-0.9238468,0.1556687,-0.1029266,0.7533914,1.588923,0.2167099,0.4324947,1.110962,0.2665563,300.0523,232.9726,350.8309,True
2,0.07777778,-0.5093558,-1.032183,-0.1862902,-1.42071,-4.10935,-3.012845,0.6259453,1.261883,0.4843938,-1.372355,-0.04311103,0,1.1,-0.08325181,-0.1778612,0.3401905,-0.6288278,-4.216189,-0.4409513,0.6856135,1.510502,0.4000325,-0.197656,-0.0328171,-0.1093713,-0.9255332,0.1540972,-0.100219,0.7534927,1.588879,0.2164927,0.4331904,1.113194,0.2626365,299.8278,231.5746,351.109,True
2,0.08888889,-0.5470011,-0.9066268,-0.2026927,-1.41709,-4.103661,-3.006292,0.6244149,1.263137,0.4837315,-1.371009,0.1237308,0,0.9,-0.04416557,-0.213018,0.3130742,-0.6249326,-4.21949,-0.438776,0.6861525,1.511313,0.3997796,-0.1893786,-0.05204426,-0.1254193,-0.9272605,0.1524513,-0.09746557,0.7535706,1.588543,0.2160134,0.4335319,1.115508,0.2592834,299.5604,230.2685,351.4884,True
2,0.1,-0.5804273,-0.7586179,-0.2116818,-1.414188,-4.100693,-2.999121,0.6230879,1.26428,0.4832187,-1.372401,-0.1280632,0,0.9,-0.04216728,-0.2257084,0.3001771,-0.6211216,-4.22192,-0.4364117,0.6866349,1.512107,0.3995836,-0.1745856,-0.06491549,-0.130871,-0.9287636,0.1508336,-0.09508044,0.7536458,1.58848,0.2157564,0.4333045,1.117937,0.2565359,299.3353,229.1658,351.9036,True
2,0.1111111,-0.622385,-0.5914813,-0.2111969,-1.411599,-4.099286,-2.991101,0.6218837,1.265337,0.4826,-1.371898,0.04749685,0,0.9,-0.02618474,-0.2300774,0.3043231,-0.6168696,-4.223245,-0.4356101,0.6872092,1.512944,0.3992412,-0.1566316,-0.07995588,-0.1395465,-0.9303988,0.1486308,-0.09266496,0.7537656,1.588494,0.2157605,0.4325477,1.120541,0.254398,299.0756,228.2689,352.3925,True
2,0.1222222,-0.6461238,-0.4775114,-0.2126268,-1.409134,-4.09826,-2.983254,0.6205713,1.266707,0.4820011,-1.371977,-0.007462966,0,0.6,-0.01978353,-0.2290576,0.3053574,-0.612853,-4.224726,-0.4343981,0.6877552,1.513718,0.3990085,-0.149271,-0.1023888,-0.1353547,-0.9316579,0.1458613,-0.08952003,0.7538695,1.588481,0.2153795,0.4312145,1.12333,0.2527849,298.7817,227.589,352.8895,True
2,0.1333333,-0.6816455,-0.3295547,-0.2195373,-1.406665,-4.099512,-2.974263,0.6194561,1.267628,0.4813614,-1.371766,0.01968878,0,0.5,-0.01563361,-0.250395,0.3062288,-0.6083097,-4.227821,-0.4317818,0.688277,1.514471,0.3987303,-0.1376902,-0.1162976,-0.1418482,-0.9333229,0.1437028,-0.08707711,0.7540232,1.588356,0.2150061,0.4293491,1.126343,0.2516716,298.4099,227.137,353.3606,True
2,0.1444445,-0.7171164,-0.1965064,-0.2296176,-1.403933,-4.102036,-2.964897,0.6183805,1.268531,0.4803553,-1.372348,-0.05312166,0,0.5,-0.01468003,-0.2684854,0.3028791,-0.6038766,-4.231073,-0.4289849,0.6887124,1.515107,0.3983567,-0.1166951,-0.1281534,-0.1707896,-0.9359301,0.1410675,-0.08495031,0.7543042,1.587946,0.2144799,0.4270164,1.129598,0.2509275,298.0101,226.8745,353.8524,True
2,0.1555556,-0.7536284,-0.08051348,-0.2396045,-1.4015,-4.104983,-2.954737,0.6173012,1.269454,0.4796429,-1.371998,0.0327009,0,0.5,-0.02766761,-0.2874169,0.2814812,-0.6001897,-4.235394,-0.4247507,0.6890682,1.515793,0.3980289,-0.1126751,-0.1388297,-0.1921303,-0.9385981,0.1385221,-0.08238436,0.7545707,1.587886,0.2140863,0.4243688,1.133113,0.2504139,297.5515,226.6192,354.4558,True
2,0.1666667,-0.7676536,-0.004929692,-0.2462929,-1.398791,-4.10782,-2.945424,0.6161754,1.270282,0.4786868,-1.372147,-0.01365684,0,0.4,-0.05110173,-0.272249,0.2657464,-0.5969214,-4.237661,-0.4215161,0.6893489,1.516369,0.3975828,-0.1011688,-0.1325087,-0.2220558,-0.9418626,0.1366123,-0.08056888,0.7547748,1.58774,0.213752,0.4214323,1.136804,0.2499642,296.9661,226.3964,355.1006,True
2,0.1777778,-0.7892023,0.09942619,-0.2456124,-1.396825,-4.112564,-2.935139,0.6150763,1.271123,0.4780121,-1.371821,0.03019881,0,0.4,-0.05728024,-0.2414068,0.2756168,-0.5930679,-4.237925,-0.4204663,0.6898276,1.516953,0.3971596,-0.1021737,-0.1133136,-0.2295017,-0.9444587,0.1358247,-0.07910573,0.7548169,1.587483,0.2134323,0.4182851,1.140614,0.2494573,296.3246,226.1668,355.7694,True
2,0.1888889,-0.8000132,0.1654254,-0.2522427,-1.394655,-4.117398,-2.92489,0.6138962,1.27201,0.477283,-1.372967,-0.1047684,0,0.2,-0.05614659,-0.2307976,0.2799584,-0.5890726,-4.239383,-0.418597,0.6902733,1.517511,0.3967793,-0.1000151,-0.1069345,-0.2305864,-0.947003,0.1343682,-0.07720184,0.7550082,1.587285,0.2130289,0.4151107,1.14453,0.2488919,295.6824,225.9155,356.4149,True
2,0.2,-0.8152499,0.2995834,-0.256997,-1.393232,-4.125386,-2.913668,0.61296,1.272832,0.4765642,-1.372758,0.02023936,0,0.2,-0.07754532,-0.2359075,0.2672364,-0.5856185,-4.242278,-0.4145884,0.6903955,1.517957,0.3963149,-0.09803507,-0.1037356,-0.2497754,-0.9502712,0.1329764,-0.07534909,0.7552223,1.587178,0.2125146,0.4120242,1.148484,0.2482306,295.0092,225.566,357.0775,True
2,0.2111111,-0.8271368,0.3687876,-0.2583182,-1.391723,-4.132279,-2.902637,0.6120293,1.273815,0.4758127,-1.373047,-0.02641324,0,0.2,-0.08506653,-0.2389917,0.257657,-0.5820946,-4.245173,-0.4110054,0.69063,1.518454,0.3958638,-0.1035689,-0.1026491,-0.2752954,-0.9540859,0.1311456,-0.07299671,0.7555199,1.587035,0.2120597,0.4090276,1.152445,0.2475479,294.3721,225.2404,357.5845,True
2,0.2222222,-0.8433288,0.4603585,-0.2629094,-1.390582,-4.14126,-2.89106,0.6109089,1.274491,0.4752226,-1.372929,0.01118991,0,0.2,-0.1033982,-0.2460553,0.2214629,-0.5798042,-4.249296,-0.405796,0.6906618,1.518832,0.395467,-0.1060221,-0.1058377,-0.3114977,-0.9586815,0.1290909,-0.07061638,0.7557445,1.586675,0.2113407,0.406035,1.156404,0.2468872,293.773,224.8874,358.0544,True
2,0.2333333,-0.8563004,0.5380719,-0.2706487,-1.389438,-4.150554,-2.879342,0.6097504,1.275152,0.4745312,-1.373168,-0.02181256,0,0.2,-0.1172478,-0.2309408,0.2056749,-0.5773547,-4.251522,-0.4021256,0.6907287,1.519273,0.3950441,-0.1072014,-0.09411633,-0.3327959,-0.9630976,0.127928,-0.06871701,0.7559628,1.58637,0.2108989,0.4029398,1.160405,0.24638,293.2137,224.6549,358.433,True
2,0.2444444,-0.8596094,0.5859855,-0.2761517,-1.388358,-4.159421,-2.868109,0.6085164,1.275809,0.4738972,-1.373262,-0.008206046,0,0.2,-0.1361665,-0.1947178,0.2146018,-0.5741009,-4.251566,-0.400162,0.6906246,1.519197,0.3942819,-0.1157199,-0.06213498,-0.3540376,-0.9677443,0.127734,-0.06698196,0.756108,1.586205,0.2108698,0.3997173,1.164481,0.2460739,292.6475,224.3951,358.9133,True
2,0.2555556,-0.8735706,0.6360224,-0.2710005,-1.387999,-4.168763,-2.856192,0.6070657,1.276412,0.4732418,-1.373411,-0.01344493,0,0.2,-0.1499188,-0.1722175,0.2084632,-0.5716838,-4.251955,-0.3978342,0.6903942,1.519541,0.3937759,-0.1211648,-0.04293191,-0.3806272,-0.9729374,0.1275749,-0.06532681,0.756238,1.585834,0.2105277,0.3961815,1.168612,0.245997,292.0105,224.1314,359.4256,True
2,0.2666667,-0.881211,0.6976208,-0.3191667,-1.385711,-4.179712,-2.844097,0.6056553,1.27684,0.4725943,-1.374028,-0.05616312,0,0.4,-0.1818298,-0.1527729,0.1970601,-0.5697231,-4.252473,-0.3942967,0.6900682,1.519807,0.3936045,-0.1329167,-0.02369931,-0.3997118,-0.9780433,0.127438,-0.06358004,0.7565579,1.585147,0.2099926,0.3923124,1.172788,0.2461931,291.3393,223.9349,-0.003983919,True
2,0.2777778,-0.8737953,0.7168177,-0.3192455,-1.384973,-4.188881,-2.833186,0.6043317,1.277302,0.4716539,-1.373656,0.03459234,0,0.4,-0.2148141,-0.1257924,0.1761358,-0.568391,-4.252463,-0.3908703,0.6897168,1.519996,0.393199,-0.1498129,-0.01933166,-0.3846503,-0.981768,0.1271219,-0.06112541,0.7567077,1.584916,0.2096496,0.3882076,1.176979,0.246674,290.6505,223.7924,0.632611,True
2,0.2888889,-0.8802795,0.7476265,-0.3342685,-1.383864,-4.198965,-2.821247,0.6024251,1.277853,0.4710658,-1.373886,-0.02121452,0,0.2,-0.2309279,-0.1297895,0.1548652,-0.567045,-4.25454,-0.3860169,0.6894219,1.520237,0.3928499,-0.1537142,-0.006512552,-0.3526642,-0.9845776,0.1273836,-0.05958477,0.7568552,1.584569,0.2091262,0.383836,1.181154,0.2473499,289.9589,223.6646,1.332806,True
2,0.3,-0.8845677,0.7593269,-0.3375039,-1.382951,-4.208631,-2.809621,0.6008064,1.278275,0.4704537,-1.374895,-0.09208914,0,0.2,-0.2556903,-0.1442707,0.1175873,-0.5662259,-4.258282,-0.3792512,0.6890409,1.520337,0.3924081,-0.1488008,0.02863309,-0.3005009,-0.985988,0.1292946,-0.05925161,0.7569379,1.584317,0.2087703,0.37928,1.18528,0.2482447,289.2658,223.3605,2.28303,True
2,0.3111111,-0.8857031,0.7795078,-0.3482322,-1.382025,-4.218832,-2.797787,0.5990407,1.278686,0.4696624,-1.374232,0.06158374,0,0.2,-0.274944,-0.1375815,0.09323151,-0.5655585,-4.260391,-0.3739691,0.6886214,1.520243,0.3920667,-0.148423,0.06272358,-0.281329,-0.9885142,0.1314068,-0.05900979,0.7570782,1.583894,0.2086406,0.3747186,1.189323,0.2492665,288.5878,223.2272,3.134625,True
2,0.3222222,-0.8868346,0.808246,-0.355799,-1.381352,-4.229752,-2.786,0.597147,1.279009,0.4689159,-1.374452,-0.02073857,0.1,0.6,-0.3122925,-0.1297553,0.07217044,-0.5650541,-4.262433,-0.367618,0.6879839,1.520057,0.3915713,-0.1458673,0.1106647,-0.2643073,-0.9909676,0.1349916,-0.05947718,0.7571367,1.583556,0.2083788,0.3700775,1.193277,0.2503045,287.9788,223.0631,3.929825,True
2,0.3333333,-0.8847829,0.845567,-0.3495447,-1.381675,-4.241318,-2.774101,0.5951767,1.279341,0.468158,-1.374464,-0.0007835873,0.1,0.6,-0.3420467,-0.1103603,0.06502369,-0.564391,-4.263026,-0.3624102,0.6873051,1.520025,0.3911257,-0.1437264,0.1361974,-0.2781804,-0.9947551,0.1372155,-0.0589267,0.75714,1.58353,0.2082567,0.3655261,1.197162,0.2513618,287.3835,222.8597,4.763602,True
2,0.3444445,-0.8816686,0.8807815,-0.342195,-1.382555,-4.253256,-2.761966,0.593236,1.27949,0.4676874,-1.37471,-0.02248744,0.2,0.4,-0.3801736,-0.07289842,0.06870431,-0.5638328,-4.261621,-0.3581656,0.6864592,1.519939,0.3905315,-0.1590348,0.1405036,-0.3270655,-1.000174,0.1383532,-0.05725503,0.7572572,1.583183,0.2080994,0.3609735,1.200996,0.2523347,286.8039,222.5702,5.643412,True
2,0.3555556,-0.8774773,0.9149321,-0.3295382,-1.383775,-4.26526,-2.749969,0.5911734,1.279857,0.4669683,-1.374792,-0.007234386,0.2,0.4,-0.407647,-0.03872827,0.07764053,-0.5630231,-4.25948,-0.354455,0.685488,1.519827,0.390049,-0.1687451,0.1395048,-0.3408391,-1.004596,0.1400486,-0.0559666,0.7574275,1.582781,0.20784,0.3563656,1.204804,0.2532407,286.2277,222.2428,6.472222,True
2,0.3666667,-0.8700997,0.9555477,-0.3136683,-1.386217,-4.27822,-2.737843,0.5891466,1.280165,0.4664047,-1.374659,0.01220232,0.4,0.4,-0.4224151,-0.01738825,0.08110353,-0.5619483,-4.2581,-0.3507066,0.6846184,1.519528,0.3893025,-0.1749839,0.144839,-0.3258733,-1.007753,0.141504,-0.05451358,0.7574373,1.58262,0.2075665,0.3517042,1.208627,0.2541758,285.6383,222.0002,7.15407,True
2,0.3777778,-0.8605891,0.993956,-0.3063588,-1.388225,-4.2912,-2.726053,0.586957,1.280461,0.4656408,-1.374814,-0.01421931,0.4,0.4,-0.4533234,-0.007521749,0.06749123,-0.561747,-4.257482,-0.3451127,0.6836725,1.519472,0.3887863,-0.1723324,0.1682828,-0.2811594,-1.009616,0.1447577,-0.05445552,0.7573572,1.58229,0.2073798,0.3470257,1.212489,0.2552637,285.0359,221.8579,7.739793,True
2,0.3888889,-0.8574528,1.028149,-0.2915445,-1.391149,-4.304265,-2.714179,0.5849943,1.280751,0.4649103,-1.374883,-0.006165971,0.5,0.3,-0.4628834,-0.001075923,0.06441081,-0.5610093,-4.257056,-0.3401749,0.6828696,1.519172,0.3882871,-0.1794153,0.187501,-0.2502033,-1.011429,0.1477932,-0.05383633,0.7573975,1.581842,0.2069571,0.3422562,1.216449,0.2564982,284.4578,221.843,8.261575,True
2,0.4,-0.8501061,1.084704,-0.272598,-1.394752,-4.318117,-2.702536,0.5830405,1.281015,0.4638402,-1.375211,-0.02987105,0.5,0.3,-0.4714321,-0.004207104,0.06230035,-0.5603504,-4.256913,-0.3348795,0.6817245,1.519251,0.3877504,-0.1884672,0.2237977,-0.2117745,-1.012624,0.1523396,-0.05379079,0.75737,1.581705,0.2067902,0.3373846,1.22055,0.2579324,283.8431,221.9512,8.721234,True
2,0.4111111,-0.8480347,1.103879,-0.2705406,-1.397566,-4.330975,-2.690923,0.581044,1.281401,0.4630084,-1.375129,0.00768614,0.5,0.3,-0.4809267,0.001072913,0.07093494,-0.5591013,-4.256234,-0.3301941,0.6806194,1.519199,0.3872967,-0.1892722,0.2557485,-0.2021949,-1.014897,0.1565555,-0.05383953,0.7572305,1.581577,0.2064781,0.3324071,1.224774,0.259552,283.1664,221.9872,9.346241,True
2,0.4222222,-0.8469606,1.106019,-0.2705654,-1.400158,-4.343392,-2.679612,0.5790718,1.281702,0.4620175,-1.375419,-0.02663539,0.3,0.3,-0.4937298,0.001183957,0.06673127,-0.5587024,-4.255806,-0.3247461,0.6796018,1.519379,0.3870661,-0.1966425,0.2664471,-0.2021383,-1.017391,0.1601437,-0.05362941,0.757233,1.581181,0.2062566,0.3274589,1.229097,0.2613625,282.4461,222.2448,9.847442,True
2,0.4333333,-0.8533342,1.100673,-0.273733,-1.402794,-4.35568,-2.667996,0.577054,1.282048,0.4611459,-1.375231,0.01744993,0.3,0.3,-0.4926691,-0.003132582,0.07202017,-0.5576329,-4.255645,-0.3193657,0.6785212,1.519375,0.3865774,-0.2019567,0.2654132,-0.199962,-1.019671,0.1634184,-0.05292819,0.7571639,1.580933,0.2060394,0.3225475,1.233483,0.263272,281.6934,222.5971,10.3278,True
2,0.4444444,-0.8597118,1.095347,-0.2715731,-1.405781,-4.367857,-2.656265,0.5751107,1.282259,0.4601834,-1.375357,-0.01175304,0.3,0.3,-0.4809821,-0.004216343,0.06661316,-0.557186,-4.255595,-0.3145457,0.6772947,1.519438,0.3861117,-0.2040075,0.2749917,-0.1967687,-1.022074,0.1668392,-0.05235269,0.757126,1.580928,0.2060766,0.3177896,1.237872,0.2652233,280.9542,222.6347,11.11276,True
2,0.4555556,-0.8650637,1.108123,-0.2694809,-1.409209,-4.380445,-2.644536,0.5730459,1.282461,0.4593744,-1.374985,0.0340179,0.3,0.3,-0.5001123,0.004415721,0.06571595,-0.556622,-4.254528,-0.309377,0.6760099,1.519366,0.3856595,-0.2082349,0.279291,-0.1956749,-1.02448,0.1706623,-0.0518893,0.7569525,1.58069,0.2059135,0.3132175,1.242203,0.2671186,280.2191,222.3646,12.15661,True
2,0.4666667,-0.8672545,1.139032,-0.2632105,-1.413318,-4.393859,-2.632827,0.571135,1.282667,0.4585421,-1.374773,0.01911429,0.3,0.3,-0.5244896,0.01185256,0.07976958,-0.5550901,-4.253464,-0.3038728,0.6748983,1.519124,0.384907,-0.2188294,0.2825463,-0.1913337,-1.026736,0.1742209,-0.05096145,0.7568587,1.580438,0.2056525,0.3088128,1.246452,0.2689093,279.514,221.991,13.2162,True
2,0.4777778,-0.8651973,1.181744,-0.2367377,-1.418922,-4.407423,-2.621314,0.5691693,1.282899,0.4576886,-1.374805,-0.003019901,0.2,0.2,-0.526526,0.01602116,0.09260914,-0.553749,-4.252035,-0.2993537,0.6737599,1.519297,0.3843994,-0.2121285,0.2995608,-0.1668943,-1.02802,0.1786914,-0.05116412,0.7568722,1.580184,0.2055013,0.3045443,1.250615,0.2705757,278.8303,221.5698,14.24193,True
2,0.4888889,-0.8620432,1.211638,-0.2219584,-1.424286,-4.421006,-2.60999,0.5672532,1.283161,0.4568501,-1.374935,-0.01183508,0.1,0.3,-0.5275347,0.01270923,0.104317,-0.5520866,-4.25149,-0.2942138,0.6726762,1.519234,0.3837173,-0.2066555,0.3091463,-0.1562917,-1.029708,0.1833292,-0.05143523,0.7566894,1.580153,0.2052503,0.3003386,1.25472,0.2721801,278.1824,221.1108,15.20088,True
2,0.5,-0.8610091,1.243729,-0.1901188,-1.430873,-4.434422,-2.598718,0.5654773,1.283547,0.4560857,-1.37511,-0.01588313,0.1,0.3,-0.5350819,-0.01073307,0.1105544,-0.550551,-4.252264,-0.2874182,0.6715093,1.519441,0.3831968,-0.214133,0.3166462,-0.1647609,-1.032134,0.1875252,-0.05101605,0.7566458,1.579878,0.2051241,0.2961706,1.258815,0.2738511,277.5629,220.9097,15.86421,True
2,0.5111111,-0.8599558,1.252311,-0.1741728,-1.437007,-4.447335,-2.587438,0.5635588,1.283891,0.4552207,-1.375239,-0.01158752,0.1,0.3,-0.5426508,-0.05348054,0.1326138,-0.5479571,-4.254703,-0.2790758,0.6704209,1.519866,0.3829927,-0.2184641,0.3103537,-0.1742878,-1.034461,0.1921127,-0.05129807,0.7566873,1.579196,0.204778,0.2919865,1.262962,0.275677,276.9271,221.2085,16.07685,True
2,0.5222223,-0.8642139,1.256585,-0.1678083,-1.442926,-4.460201,-2.576097,0.5616176,1.28436,0.4543319,-1.375171,0.006262003,0,0.2,-0.553504,-0.09498891,0.1355285,-0.5458457,-4.258099,-0.2697604,0.6693271,1.52016,0.3825328,-0.215357,0.3018425,-0.178573,-1.036779,0.1959455,-0.0508978,0.7564355,1.579385,0.2048273,0.2878501,1.267178,0.2777299,276.2849,221.6294,16.23936,True
2,0.5333334,-0.8588589,1.244877,-0.1698952,-1.448675,-4.472892,-2.565001,0.5594997,1.284802,0.4534509,-1.374988,0.0167384,0,0.2,-0.5515025,-0.1130628,0.1289804,-0.5441136,-4.260998,-0.2611267,0.6681953,1.520293,0.3820136,-0.2101072,0.2975444,-0.185013,-1.03927,0.1994857,-0.05053455,0.7563037,1.579161,0.2046738,0.283805,1.271502,0.2800274,275.6131,222.4877,16.04766,True
2,0.5444446,-0.8566732,1.218217,-0.1772546,-1.453915,-4.484976,-2.553986,0.5573705,1.285371,0.452621,-1.374821,0.01508185,0,0.1,-0.5527122,-0.1214156,0.1097361,-0.5432678,-4.263656,-0.2525673,0.6669257,1.520528,0.3814819,-0.2123453,0.2944368,-0.1988295,-1.042204,0.2041183,-0.05063761,0.7561642,1.578927,0.2045105,0.2797771,1.275947,0.28247,274.8972,223.1299,16.15529,True
2,0.5555557,-0.8598084,1.194763,-0.1814196,-1.459277,-4.496795,-2.542892,0.5551292,1.285904,0.4517732,-1.374966,-0.01339293,0,0.1,-0.5556998,-0.0884183,0.1153429,-0.5418936,-4.262651,-0.2471621,0.6655272,1.520721,0.3809681,-0.2134097,0.289118,-0.1956239,-1.044438,0.2075464,-0.049991,0.7559807,1.578773,0.2044067,0.2757352,1.280521,0.2849779,274.1632,223.1915,16.85573,True
2,0.5666668,-0.8661293,1.162769,-0.1866261,-1.464227,-4.508029,-2.531719,0.5528175,1.286592,0.451067,-1.374933,0.003148038,0,0.1,-0.5725347,-0.07576743,0.1411151,-0.5391564,-4.262345,-0.240546,0.6642579,1.520832,0.3800776,-0.2121957,0.3030342,-0.1902955,-1.046619,0.2129386,-0.05056624,0.755807,1.578548,0.2044926,0.2716737,1.285189,0.2875013,273.4015,222.367,18.41618,True
2,0.577778,-0.8660192,1.128687,-0.1864789,-1.469173,-4.518323,-2.521538,0.5504105,1.287347,0.4504457,-1.374766,0.01515397,0,0.1,-0.5863068,-0.0758132,0.1561051,-0.5367526,-4.262895,-0.2332104,0.6630702,1.521191,0.3794582,-0.2140995,0.3115623,-0.1700359,-1.047927,0.2170259,-0.05029193,0.755716,1.578422,0.2044227,0.267664,1.289898,0.2900039,272.6451,220.2823,21.2099,True
2,0.5888891,-0.8552988,1.096743,-0.1885005,-1.473853,-4.528528,-2.511467,0.5480454,1.288139,0.4497113,-1.374576,0.01730782,0,0.1,-0.608569,-0.08768803,0.1912681,-0.5333124,-4.263973,-0.2246587,0.6618761,1.521559,0.3789556,-0.219312,0.3148422,-0.1625217,-1.049604,0.2217389,-0.05040405,0.755622,1.57806,0.2046082,0.2637148,1.294612,0.2924434,271.9102,216.161,26.00062,True
2,0.6000003,-0.8402655,1.054159,-0.1925797,-1.47829,-4.538085,-2.502063,0.5456021,1.289057,0.4490967,-1.375415,-0.0767953,0.1,0,-0.614881,-0.09851462,0.2167753,-0.5298274,-4.265405,-0.216479,0.6607381,1.521831,0.3783965,-0.2141107,0.3062772,-0.1710929,-1.052003,0.2250245,-0.04983467,0.755442,1.577971,0.2045274,0.2598589,1.299324,0.2947969,271.2531,207.3294,35.44448,True
2,0.6111114,-0.8389763,0.9561532,-0.1932706,-1.481026,-4.545103,-2.492388,0.5430915,1.290176,0.4484982,-1.375537,-0.01046734,0.1,0,-0.5990731,-0.1176597,0.2016265,-0.5278124,-4.268534,-0.2078592,0.6596469,1.522083,0.3779156,-0.2025862,0.2977119,-0.1871731,-1.054893,0.2286729,-0.04966236,0.7551519,1.578203,0.204474,0.2561532,1.303995,0.2970446,270.7,180.9367,62.41467,True
2,0.6222225,-0.8356837,0.9060535,-0.202657,-1.484336,-4.553415,-2.482486,0.5405452,1.291289,0.4479308,-1.37602,-0.04420906,0,0.1,-0.5843767,-0.142093,0.1843021,-0.5259807,-4.272484,-0.1984228,0.6585026,1.522529,0.3774602,-0.2037821,0.289183,-0.1967482,-1.057464,0.2316925,-0.0488746,0.7549146,1.578073,0.2043955,0.2525931,1.308583,0.2991596,270.6349,120.0155,123.8818,True
2,0.6333337,-0.8344561,0.8304,-0.2076962,-1.486559,-4.56013,-2.472791,0.5380229,1.292513,0.44734,-1.375447,0.05272088,0,0.1,-0.5694792,-0.148586,0.1873697,-0.5234709,-4.27515,-0.1903364,0.6573522,1.522865,0.3769295,-0.2092428,0.2668655,-0.1956424,-1.059822,0.234354,-0.04751772,0.7546697,1.578112,0.2042475,0.2491779,1.313054,0.3011175,271.0999,88.81722,155.5993,True
2,0.6444448,-0.8343153,0.7621909,-0.2148942,-1.488556,-4.566691,-2.463016,0.5353855,1.293818,0.4467375,-1.375173,0.0244017,0,0,-0.563111,-0.1550194,0.1862367,-0.5209292,-4.278283,-0.1817602,0.6563087,1.523147,0.3762534,-0.1954095,0.248707,-0.1882862,-1.061569,0.2371252,-0.04753902,0.7544904,1.577538,0.2039702,0.245887,1.317413,0.3027968,271.6281,80.1374,164.7565,True
2,0.655556,-0.8395422,0.7238259,-0.2179292,-1.490979,-4.573479,-2.453206,0.5327461,1.29505,0.4461629,-1.37517,0.0001278754,0,0,-0.5630577,-0.1583363,0.2011229,-0.5179433,-4.280978,-0.1731268,0.6552421,1.523571,0.3757105,-0.1913162,0.2284319,-0.1936476,-1.063969,0.2389877,-0.04648947,0.7542852,1.57742,0.2038593,0.2426406,1.321727,0.3042189,272.1239,76.91817,168.3423,True
2,0.6666671,-0.8383735,0.6769583,-0.2177511,-1.493049,-4.579612,-2.443532,0.5301701,1.296386,0.4457216,-1.375048,0.01122879,0,0,-0.5525165,-0.1807759,0.2009,-0.5151321,-4.285804,-0.1632265,0.6541883,1.524016,0.375082,-0.1934836,0.2210253,-0.1914915,-1.066151,0.2419699,-0.04552807,0.7541163,1.577024,0.2033248,0.2394857,1.326029,0.3053936,272.6019,75.78532,169.794,True
2,0.6777782,-0.8446791,0.6439414,-0.2101495,-1.495435,-4.58545,-2.433691,0.5277466,1.297796,0.4451356,-1.374993,0.004829961,0.1,0.1,-0.5408782,-0.1957366,0.1996554,-0.5126345,-4.290336,-0.1537246,0.6531066,1.524545,0.3745673,-0.1924992,0.2071612,-0.1914953,-1.068262,0.2438804,-0.04439303,0.7538395,1.576845,0.2031472,0.2363688,1.330374,0.3063507,273.0854,75.66438,170.1566,True
2,0.6888894,-0.9267271,0.6544293,-0.2058432,-1.498973,-4.592713,-2.420017,0.525534,1.299051,0.444627,-1.375056,-0.005780192,0.1,0.1,-0.5323789,-0.2032727,0.1995515,-0.5099623,-4.295243,-0.1438909,0.6520682,1.524949,0.3741374,-0.1915581,0.1965405,-0.1989599,-1.070908,0.2464379,-0.04353416,0.7535677,1.57672,0.2030852,0.2333205,1.334779,0.3072021,273.5882,75.6188,170.3693,True
2,0.7000005,-1.10045,0.7170725,-0.1633251,-1.50543,-4.600887,-2.400764,0.523051,1.30032,0.4440355,-1.374862,0.01783706,0.2,0,-0.5229177,-0.2181539,0.1897861,-0.5078531,-4.300714,-0.1335999,0.6509002,1.525573,0.3736162,-0.1927447,0.1784175,-0.20002,-1.073259,0.2476414,-0.04185237,0.7533749,1.576637,0.2028859,0.2304258,1.33924,0.3080448,274.0882,75.50047,170.6503,True
2,0.7111117,-0.9704247,0.7057217,-0.1431614,-1.509862,-4.607164,-2.393829,0.5203534,1.301497,0.4434464,-1.371222,0.3327201,0.2,0,-0.5303988,-0.2245136,0.1897878,-0.5052592,-4.305734,-0.1230394,0.6497977,1.526207,0.3731298,-0.1895617,0.1699178,-0.1957766,-1.075352,0.2500377,-0.04102493,0.7530732,1.576737,0.202801,0.2277291,1.343775,0.308937,274.5981,75.19881,171.1359,True
2,0.7222228,-0.8755413,0.6707383,-0.1495239,-1.51255,-4.613066,-2.386784,0.5177012,1.302846,0.4428611,-1.365784,0.4946688,0.2,0,-0.5411619,-0.2360977,0.1801601,-0.50324,-4.311528,-0.1116168,0.6486088,1.52685,0.372611,-0.1873941,0.1656434,-0.1883378,-1.077237,0.2518721,-0.03989602,0.752813,1.576655,0.2026367,0.2250156,1.348642,0.3099887,275.0388,74.35554,172.1211,True
2,0.7333339,-0.7997742,0.6187805,-0.1280994,-1.515516,-4.617255,-2.380212,0.515133,1.304268,0.4421368,-1.377947,-1.115409,0.5,0.1,-0.5358127,-0.2286457,0.1769776,-0.5013475,-4.315978,-0.1019557,0.6473033,1.527675,0.372426,-0.191597,0.1539715,-0.1733822,-1.078667,0.2536548,-0.03849679,0.7525499,1.576659,0.2025974,0.2219764,1.354439,0.3112768,275.387,72.26988,174.4413,True
2,0.7444451,-0.7730682,0.5976478,-0.09501255,-1.519787,-4.621524,-2.372052,0.51267,1.30567,0.4413991,-1.379217,-0.1060859,0.5,0,-0.5421326,-0.1889811,0.1517498,-0.5005236,-4.317428,-0.09443916,0.645885,1.528495,0.3720407,-0.2001266,0.149809,-0.1711709,-1.080551,0.255973,-0.03708345,0.7522222,1.576632,0.2024658,0.2193621,1.360626,0.3128513,276.4034,72.11636,175.0237,True
2,0.7555562,-0.7655939,0.5977183,-0.07903445,-1.524225,-4.626607,-2.363507,0.5102827,1.306962,0.440557,-1.379086,0.01142457,0.5,0,-0.551608,-0.1525937,0.1382431,-0.4993725,-4.318351,-0.08704568,0.6444493,1.52912,0.371536,-0.217048,0.1626762,-0.1656961,-1.082235,0.2582276,-0.03514361,0.7518585,1.576567,0.2024047,0.2171955,1.366558,0.3145596,277.7087,72.32072,175.3214,True
2,0.7666674,-0.7623974,0.6009668,-0.06839168,-1.528835,-4.631927,-2.354692,0.5079424,1.30815,0.439827,-1.37703,0.1875475,0.5,0,-0.5578359,-0.1291893,0.1469693,-0.4974604,-4.319632,-0.07945541,0.6431023,1.529833,0.3708448,-0.2179205,0.1776129,-0.1539749,-1.08378,0.2612516,-0.03413134,0.751487,1.57671,0.2023785,0.2152429,1.3719,0.3161537,278.9198,71.87191,176.2675,True
2,0.7777785,-0.7496073,0.6117435,-0.04286197,-1.534207,-4.636719,-2.346577,0.5056956,1.309257,0.4388883,-1.376145,0.07911988,0.4,0.1,-0.5798756,-0.108125,0.1909342,-0.493798,-4.32015,-0.07171813,0.6419441,1.53041,0.3702075,-0.2189203,0.1722745,-0.1422473,-1.084981,0.2629664,-0.03245248,0.751141,1.57658,0.2022948,0.2131899,1.376617,0.3174636,279.7819,70.97395,177.591,True
2,0.7888896,-0.7379465,0.6341919,-0.01522738,-1.540491,-4.641658,-2.338592,0.503449,1.310187,0.4378145,-1.375631,0.0462798,0.4,0.1,-0.5946039,-0.09759492,0.2166468,-0.4906065,-4.321338,-0.06354169,0.6407354,1.530989,0.3695545,-0.224304,0.1499527,-0.1326121,-1.086244,0.2642159,-0.0302575,0.7508917,1.576321,0.2018964,0.2109149,1.380789,0.3184648,280.3216,70.35962,178.5208,True
2,0.8000008,-0.7326136,0.6684663,0.01872301,-1.547456,-4.646636,-2.330452,0.5012815,1.31106,0.436605,-1.37612,-0.04513547,0.2,0,-0.5881411,-0.09237173,0.2251795,-0.4877521,-4.322814,-0.05585448,0.6395975,1.531548,0.3690271,-0.2210639,0.1424752,-0.1219868,-1.087279,0.2657052,-0.02858797,0.7505742,1.576258,0.2017543,0.208463,1.384544,0.3192463,280.6359,69.81824,179.2717,True
2,0.8111119,-0.7241188,0.6994996,0.05269569,-1.554873,-4.651371,-2.322809,0.4993099,1.3118,0.43542,-1.376166,-0.00380115,0.2,0,-0.5743777,-0.09767446,0.2144057,-0.4858756,-4.325265,-0.04790361,0.6384726,1.532113,0.3684695,-0.2051367,0.1445013,-0.12851,-1.088925,0.2674751,-0.02760473,0.7503003,1.576211,0.2016184,0.2059685,1.387999,0.3198773,280.8823,68.94382,180.3464,True
2,0.8222231,-0.7039251,0.7358831,0.08662337,-1.56286,-4.656194,-2.31564,0.4973278,1.312613,0.4343345,-1.375845,0.02919338,0.2,0,-0.5529668,-0.09043273,0.2260899,-0.4829004,-4.326763,-0.04123186,0.637623,1.532287,0.3678999,-0.1914109,0.1348557,-0.1382124,-1.090788,0.2690494,-0.02686757,0.7500191,1.576046,0.2013996,0.2034961,1.391274,0.3204138,281.1426,67.77403,181.7314,True
2,0.8333342,-0.6900792,0.7541201,0.1110533,-1.570664,-4.660714,-2.308654,0.4954417,1.313438,0.4331899,-1.376138,-0.0271094,0.2,0.1,-0.5348371,-0.09592003,0.2344801,-0.4799868,-4.329083,-0.0339585,0.6368307,1.532697,0.3673613,-0.1798631,0.1209146,-0.1468386,-1.092754,0.2696511,-0.02529817,0.7498919,1.57607,0.2011666,0.201138,1.394487,0.3209096,281.4181,66.48201,183.2475,True
2,0.8444453,-0.6591834,0.7670729,0.1386801,4.704292,-4.664954,-2.302323,0.4935271,1.314186,0.4318969,-1.376473,-0.03041079,0.1,0,-0.5085539,-0.1384695,0.2094937,-0.4783895,-4.335305,-0.02359641,0.6360543,1.533103,0.3669767,-0.165038,0.1101955,-0.1512215,-1.094518,0.2708435,-0.02462359,0.7496877,1.575944,0.200875,0.1990118,1.39771,0.3214331,281.735,65.25112,184.6714,True
2,0.8555565,-0.6431652,0.7629336,0.1621117,4.696513,-4.66857,-2.295889,0.4916876,1.3148,0.430655,-1.376478,-0.0003435103,0.1,0,-0.4992572,-0.1659878,0.1804735,-0.4771719,-4.341326,-0.01301087,0.6352059,1.533444,0.3664975,-0.1640199,0.1069862,-0.1533681,-1.096374,0.2719615,-0.0231972,0.7494284,1.575879,0.2006955,0.1970666,1.401044,0.3220599,282.1172,64.11873,185.9783,True
2,0.8666676,-0.6346105,0.7523475,0.1749214,4.68901,-4.672131,-2.289151,0.4898322,1.315465,0.4295115,-1.376896,-0.03846628,0.1,0,-0.4815809,-0.1997621,0.1310899,-0.477484,-4.348505,-0.001836516,0.6344336,1.53371,0.3661985,-0.1446968,0.09089538,-0.1247682,-1.096807,0.272627,-0.02255112,0.749187,1.575722,0.2004759,0.1952786,1.404523,0.3228118,282.5952,63.1174,187.2126,True
2,0.8777788,-0.6260347,0.7353823,0.1909553,4.681566,-4.675126,-2.282639,0.4880469,1.315934,0.428246,-1.376604,0.02696661,0.4,0,-0.4562579,-0.2070107,0.08935307,-0.4778297,-4.353722,0.006956443,0.6334236,1.533929,0.3657949,-0.1297216,0.09506495,-0.1206325,-1.098039,0.2739288,-0.02220917,0.7489679,1.575681,0.200289,0.1936308,1.408092,0.3236539,283.2111,62.24807,188.3889,True
2,0.8888899,-0.6782243,0.7342619,0.2048463,4.673625,-4.678397,-2.273505,0.4865409,1.316274,0.4270353,-1.376043,0.05083397,0.4,0,-0.4403569,-0.2037525,0.06905766,-0.4776576,-4.358655,0.01561331,0.6325965,1.534136,0.3652649,-0.1201316,0.1003331,-0.1260541,-1.099905,0.275333,-0.02194178,0.7488393,1.575708,0.2000113,0.1921232,1.411641,0.3245125,283.8927,61.57567,189.3883,True
2,0.900001,-0.7080913,0.7566279,0.2218291,4.66474,-4.681942,-2.264775,0.4849733,1.316591,0.4256814,-1.376049,-0.001051097,0.3,0.1,-0.4381797,-0.1855741,0.05961195,-0.4772587,-4.361673,0.0230691,0.6317565,1.534334,0.364841,-0.1159309,0.09924248,-0.1324815,-1.101645,0.2764778,-0.0213234,0.7486712,1.575718,0.199858,0.1906852,1.415133,0.3253328,284.5612,61.05233,190.218,True
2,0.9111122,-0.6732956,0.7725492,0.2330852,4.656079,-4.685055,-2.258555,0.4833063,1.316943,0.4243572,-1.37336,0.245912,0.3,0.1,-0.4518526,-0.1556879,0.06099051,-0.4765338,-4.363343,0.0298772,0.6309968,1.534637,0.3643863,-0.1179926,0.104592,-0.1292654,-1.10296,0.2780677,-0.02072072,0.7484128,1.575638,0.1996739,0.1893861,1.418455,0.3260631,285.2241,60.56451,190.9877,True
2,0.9222233,-0.5728032,0.7815195,0.2440076,4.646928,-4.689051,-2.255872,0.4815485,1.317303,0.4230049,-1.373528,-0.01752292,0.3,0.1,-0.4641547,-0.1080541,0.1072477,-0.4739058,-4.36268,0.03487116,0.6301634,1.534872,0.3638966,-0.1114513,0.1056442,-0.114401,-1.103785,0.2798063,-0.02069862,0.7482303,1.575631,0.19947,0.1881826,1.421718,0.3267146,285.7618,59.85469,191.9225,True
2,0.9333345,-0.4459772,0.7573102,0.2482321,4.639338,-4.691787,-2.25565,0.4799016,1.317806,0.4216886,-1.376185,-0.2423847,0.3,0.1,-0.4702694,-0.07946843,0.1320134,-0.4715899,-4.36289,0.0404401,0.6294119,1.535014,0.3633235,-0.1059339,0.1109082,-0.09420412,-1.104204,0.2809812,-0.02010314,0.7481261,1.575615,0.1993754,0.187014,1.425096,0.3273322,286.2806,59.11153,192.8727,True
2,0.9444456,-0.3936854,0.7202103,0.2696189,4.631762,-4.693223,-2.253014,0.4783306,1.318242,0.4204936,-1.37976,-0.3249305,0.3,0.1,-0.4475847,-0.04463822,0.1588083,-0.4690066,-4.361443,0.04338849,0.6287122,1.53516,0.3629162,-0.08873879,0.1076058,-0.07410732,-1.104395,0.2822044,-0.02024375,0.7479215,1.575672,0.1992807,0.1859003,1.428517,0.3279431,286.9167,58.66047,193.5184,True
2,0.9555568,-0.369123,0.690444,0.2707584,4.624614,-4.695216,-2.249515,0.4768264,1.318743,0.4192197,-1.382095,-0.2113238,0.5,0,-0.4060024,-0.03415364,0.1533628,-0.4675318,-4.361597,0.04649799,0.6280825,1.53512,0.3625665,-0.08233944,0.09902006,-0.06669809,-1.104788,0.2827571,-0.01976039,0.7476543,1.575709,0.199131,0.184819,1.43168,0.3285911,287.7001,58.49846,193.8757,True
2,0.9666679,-0.3541504,0.6617237,0.2708326,4.617711,-4.697074,-2.246084,0.4753037,1.319192,0.417979,-1.379274,0.2590506,0.5,0,-0.3711073,-0.05325434,0.1221404,-0.467274,-4.364387,0.0520648,0.6276019,1.535088,0.3623147,-0.07812798,0.1000603,-0.07312372,-1.105875,0.2840319,-0.01955373,0.7474956,1.575694,0.1989975,0.1837638,1.434182,0.3291955,288.4964,58.37022,194.2397,True
2,0.977779,-0.3242287,0.6159371,0.2613941,4.61189,-4.698351,-2.243596,0.4739103,1.319609,0.4167933,-1.377447,0.1641835,0.5,0,-0.3511428,-0.08192153,0.09730192,-0.4671531,-4.368678,0.05911419,0.6270487,1.535155,0.3619852,-0.07288288,0.0893562,-0.07423656,-1.106769,0.2844426,-0.01900219,0.747279,1.575707,0.1988945,0.1825095,1.436018,0.3296463,289.0399,57.74181,195.1104,True
2,0.9888902,-0.3049881,0.5818765,0.2561655,4.606082,-4.699677,-2.240948,0.472467,1.32006,0.4156542,-1.37699,0.04029226,0.5,1.4,-0.3173723,-0.111665,0.06707306,-0.4673667,-4.373205,0.06569885,0.626505,1.535284,0.3615801,-0.06658502,0.0871639,-0.08280315,-1.107828,0.2851186,-0.0186392,0.7470727,1.575656,0.1986649,0.1809448,1.437404,0.3299028,289.2618,56.83387,196.2469,True
2,1.000001,-0.3037412,0.5009065,0.2532729,4.602254,-4.699145,-2.237665,0.4713021,1.320448,0.4146857,-1.377661,-0.06170391,0.5,4.4,-0.2939696,-0.116031,0.06478766,-0.466841,-4.376561,0.07113863,0.6260034,1.535375,0.3612001,-0.05602042,0.07857718,-0.08715433,-1.108974,0.2857383,-0.01865731,0.7468905,1.575662,0.1985056,0.1791871,1.438519,0.3299817,289.2919,55.81133,197.456,True
2,1.011112,-0.3217928,0.4688744,0.2384681,4.597647,-4.700322,-2.233404,0.4701158,1.320718,0.4136646,-1.377273,0.03581234,0.5,4.4,-0.2820787,-0.1013391,0.08615725,-0.4650034,-4.377694,0.07513603,0.625469,1.535435,0.3606224,-0.04852204,0.07102655,-0.07444092,-1.109411,0.2856554,-0.01802694,0.7466862,1.575801,0.1983838,0.1774509,1.439443,0.3298863,289.2797,54.86346,198.5426,True
2,1.022224,-0.2524375,0.4168108,0.2364795,4.593712,-4.700045,-2.232945,0.4688022,1.321159,0.4126663,-1.376508,0.06940995,0.5,4.4,-0.2699761,-0.06549047,0.1247402,-0.4622582,-4.376889,0.07707002,0.6249875,1.535639,0.36028,-0.03672154,0.05068955,-0.04898177,-1.109199,0.2851718,-0.01761122,0.7464671,1.575827,0.1981673,0.1758376,1.440296,0.3296406,289.281,53.96314,199.5385,True
2,1.033335,-0.22464,0.3731753,0.2312772,4.590269,-4.69985,-2.231651,0.4675786,1.321507,0.4117365,-1.375094,0.1286063,0.7,28.9,-0.2581156,-0.05072869,0.136529,-0.460304,-4.377247,0.07982985,0.6244789,1.535713,0.3598943,-0.03130547,0.04637565,-0.03516875,-1.108981,0.285302,-0.01748498,0.7462496,1.575749,0.1980968,0.1745346,1.441144,0.3292,289.3,53.26389,200.2981,True
2,1.044446,-0.2020695,0.2752225,0.2316109,4.588929,-4.697706,-2.229841,0.4665999,1.321997,0.4109576,-1.378731,-0.3337744,0.7,28.9,-0.2508793,-0.06976788,0.1118256,-0.4600973,-4.381277,0.08590825,0.624079,1.535773,0.3593357,-0.02159544,0.04844683,-0.02139906,-1.108746,0.2860394,-0.01779471,0.7460786,1.575666,0.1977761,0.1733986,1.442245,0.3286643,289.3397,52.70714,200.8365,True
2,1.055557,-0.2019881,0.2368578,0.2274958,4.586212,-4.696666,-2.227371,0.4656065,1.322448,0.4100692,-1.377996,0.06998529,0.5,40.4,-0.2479812,-0.09292777,0.07540565,-0.4606773,-4.385461,0.09224604,0.6235665,1.535874,0.359072,-0.02489441,0.03459362,-0.02349551,-1.109003,0.2856082,-0.01718591,0.7458886,1.575769,0.1976073,0.1724852,1.443507,0.3280505,289.576,52.53407,200.9856,True
2,1.066668,-0.194454,0.1888559,0.204229,4.584948,-4.695834,-2.225331,0.464752,1.322862,0.4092667,-1.377218,0.06995926,0.5,40.4,-0.2500529,-0.07690957,0.07342257,-0.4598246,-4.385938,0.09575102,0.6229804,1.536048,0.3588426,-0.02717481,0.02925632,-0.03626898,-1.109966,0.2853445,-0.01652172,0.7456704,1.57576,0.1973877,0.1717681,1.444772,0.3273357,289.8796,52.4989,201.0008,True
2,1.077779,-0.1720527,0.1707307,0.1893758,4.582721,-4.695282,-2.224182,0.4637398,1.323085,0.4085081,-1.376087,0.1026869,0.5,40.4,-0.2508454,-0.03759399,0.08653093,-0.4583838,-4.384278,0.09711936,0.6224083,1.536196,0.3584676,-0.02951785,0.01860702,-0.05329243,-1.111118,0.2849935,-0.01586125,0.7453585,1.575948,0.1971424,0.1712442,1.445986,0.3264246,290.1216,52.50513,200.966,True
2,1.08889,-0.1571492,0.1739672,0.1893402,4.579774,-4.695034,-2.222848,0.4628133,1.323337,0.4077363,-1.376195,-0.0108026,0.7,74.5,-0.2494553,-0.001588404,0.1134371,-0.4562245,-4.381877,0.09770845,0.621814,1.536417,0.3581593,-0.01769828,0.02702446,-0.04699748,-1.111318,0.2851602,-0.01610174,0.745069,1.575983,0.196974,0.1707568,1.447235,0.3253662,290.2968,52.46951,200.9009,True
2,1.100002,-0.1667379,0.1750216,0.19041,4.576715,-4.694569,-2.220529,0.4620857,1.323429,0.4071736,-1.376909,-0.06519352,1,94.6,-0.238548,0.02695268,0.1338557,-0.4538383,-4.379271,0.09765785,0.6213117,1.536518,0.3578465,-0.0132213,0.03445521,-0.02679377,-1.110931,0.2858946,-0.01643011,0.7447514,1.576043,0.1968966,0.1703118,1.44847,0.324243,290.4434,52.65813,200.545,True
2,1.111113,-0.1677805,0.1707639,0.1914893,4.57406,-4.693956,-2.218685,0.4611893,1.32366,0.4065185,-1.376562,0.03205771,1,94.6,-0.2152001,0.02591221,0.1145719,-0.4530367,-4.379325,0.09907545,0.6208907,1.536375,0.3574111,-0.004472867,0.04077136,-0.004487364,-1.110098,0.2862717,-0.01680055,0.744567,1.575946,0.196779,0.1698175,1.449621,0.3231944,290.6496,52.84941,200.1217,True
2,1.122224,-0.1698748,0.151596,0.1926216,4.571982,-4.692908,-2.216552,0.4603956,1.323858,0.4059935,-1.375391,0.106697,1,94.6,-0.1920681,0.003722623,0.07804616,-0.4535662,-4.380678,0.1017011,0.6203467,1.536577,0.3573902,-6.632879E-05,0.05563742,0.002923821,-1.109933,0.2871307,-0.01721973,0.7443466,1.576023,0.1967897,0.1692553,1.450615,0.3223442,290.8518,52.80751,199.9462,True
2,1.133335,-0.1677251,0.139863,0.1884056,4.56994,-4.692004,-2.214658,0.4596335,1.324104,0.4054239,-1.37517,0.01846505,1.4,99.9,-0.1763101,-0.01749238,0.05648603,-0.4537654,-4.382706,0.1049368,0.6199774,1.536623,0.3571506,-0.001085512,0.06840837,-0.0002633184,-1.110065,0.2880916,-0.01754118,0.744135,1.576108,0.19678,0.168645,1.451441,0.3217623,291.0023,52.568,200.0602,True
2,1.144446,-0.1644604,0.09933142,0.1736378,4.569385,-4.690694,-2.212788,0.4589326,1.324435,0.4050229,-1.373816,0.1224895,1.4,99.9,-0.1689789,-0.02700011,0.0425114,-0.4539257,-4.383894,0.107699,0.6195484,1.536737,0.3569899,-0.001157911,0.07371534,-0.01199016,-1.110726,0.2888554,-0.01777554,0.7439536,1.57616,0.1967514,0.1679264,1.452141,0.3214111,291.142,52.31126,200.3334,True
2,1.155557,-0.1654108,0.06836599,0.1610401,4.568265,-4.689618,-2.210837,0.4582464,1.324763,0.4044652,-1.372165,0.1481757,1.2,99.9,-0.1720343,-0.007852972,0.04801018,-0.4531358,-4.382839,0.1086144,0.6192797,1.53674,0.3567569,-0.001260411,0.07796206,-0.02690011,-1.111476,0.2897152,-0.01813053,0.7438356,1.576211,0.1967518,0.1671558,1.452675,0.3211976,291.2659,52.02243,200.7144,True
2,1.166668,-0.1654622,0.05984417,0.1524692,4.567605,-4.688715,-2.208817,0.4575902,1.325087,0.4040134,-1.369703,0.2216285,1.2,99.9,-0.1709454,-0.001443937,0.04698565,-0.4526804,-4.382051,0.1098442,0.6187847,1.536799,0.3565822,-0.0002800319,0.0832663,-0.03969688,-1.112423,0.290638,-0.01845491,0.7436728,1.576298,0.196811,0.1663346,1.453028,0.3210179,291.3698,51.7271,201.1364,True
2,1.17778,-0.1633207,0.0502151,0.1397199,4.566713,-4.68801,-2.206998,0.4570296,1.325312,0.4036002,-1.366272,0.3089476,1.2,99.9,-0.174069,0.007051453,0.05239747,-0.4518846,-4.381337,0.1112165,0.6185079,1.536837,0.3563797,-0.007700721,0.08863691,-0.03857344,-1.112889,0.2919518,-0.01859259,0.7435203,1.576442,0.1968012,0.1654676,1.453169,0.3207516,291.422,51.48736,201.4938,True
2,1.188891,-0.1590548,0.04486065,0.1280178,4.5657,-4.687442,-2.205356,0.4564286,1.325561,0.4033778,-1.362058,0.3793383,1.9,99.9,-0.1698448,0.00601545,0.04703561,-0.451622,-4.381259,0.1129234,0.6181428,1.536931,0.3561568,-0.008734509,0.09607324,-0.0396264,-1.113258,0.2929426,-0.01886557,0.7433773,1.576444,0.1969008,0.1644975,1.453108,0.3203287,291.4351,51.17644,201.8746,True
2,1.200002,-0.1590428,0.03633,0.1248493,4.564832,-4.686548,-2.203436,0.4558537,1.325864,0.4030921,-1.357304,0.4275771,1.9,99.9,-0.1571816,-0.007827073,0.03832728,-0.4517094,-4.382441,0.1153117,0.6179019,1.537034,0.3560743,-0.005516149,0.1013806,-0.04071915,-1.113749,0.2944071,-0.01955932,0.7432804,1.576514,0.1969783,0.1634171,1.452815,0.3197308,291.3835,50.84475,202.1959,True
2,1.211113,-0.1569008,0.03099092,0.1206082,4.563941,-4.685646,-2.201726,0.4553939,1.32602,0.402879,-1.351712,0.5031844,2.1,99.9,-0.1476071,-0.008937456,0.0382729,-0.451237,-4.382674,0.1169743,0.6176656,1.537011,0.3559275,-0.01085606,0.1056566,-0.04387154,-1.114394,0.2955567,-0.0195974,0.7432367,1.576581,0.1969481,0.1622361,1.452243,0.3190012,291.2698,50.45832,202.4757,True
2,1.222224,-0.1547574,0.0192616,0.1142443,4.563541,-4.68487,-2.199856,0.4549196,1.326272,0.4026144,-1.344859,0.6172464,2.1,99.9,-0.1263471,-0.01542375,0.03597779,-0.4509776,-4.383595,0.1185306,0.6174689,1.537063,0.3558331,-0.01305521,0.1077996,-0.05344096,-1.115341,0.2969446,-0.01999102,0.7431406,1.576605,0.1969879,0.1608916,1.451389,0.3182216,291.0975,49.94191,202.8344,True
2,1.233335,-0.1515197,0.001142146,0.1078942,4.563626,-4.683995,-2.198367,0.4544122,1.32648,0.4025171,-1.337645,0.6487598,1.9,99.9,-0.1178237,-0.01653589,0.03699501,-0.4505046,-4.384003,0.1199054,0.6172333,1.53714,0.3556528,-0.00676731,0.1077353,-0.06415206,-1.116441,0.2978308,-0.02034735,0.7430055,1.576507,0.1971681,0.1593987,1.450245,0.3174239,290.8668,49.24459,203.4028,True
2,1.244446,-0.1418727,-0.03299081,0.0909833,4.564447,-4.68266,-2.196954,0.4539233,1.327028,0.4023616,-1.329315,0.750043,1.9,99.9,-0.112521,-0.02727794,0.04114669,-0.4498857,-4.386494,0.1230628,0.6171513,1.537007,0.355304,-0.00158665,0.0927875,-0.07165667,-1.117554,0.2983256,-0.02078384,0.7430373,1.576314,0.1969392,0.1578276,1.448774,0.3166251,290.5966,48.43821,204.118,True
2,1.255558,-0.1375666,-0.05750772,0.0846802,4.565176,-4.681205,-2.19539,0.4534546,1.327339,0.4022443,-1.320702,0.7745144,1.5,100,-0.09969117,-0.02418385,0.04536773,-0.4492726,-4.387036,0.1241182,0.6170824,1.537021,0.3552148,-0.004830938,0.07788832,-0.06736068,-1.118046,0.2986173,-0.02078198,0.7431084,1.576336,0.1969697,0.1561334,1.447021,0.3158232,290.267,47.56759,204.9249,True
2,1.266669,-0.1268544,-0.08734397,0.07626489,4.566319,-4.679616,-2.19419,0.4530893,1.327726,0.4022367,-1.311046,0.8691186,1.5,100,-0.09430337,-0.0285935,0.06128433,-0.4481551,-4.388095,0.1259526,0.616858,1.537321,0.3553264,-0.003709815,0.07788821,-0.06097535,-1.118481,0.2997317,-0.02129464,0.7430658,1.576212,0.1970112,0.1543035,1.445004,0.3150152,289.8832,46.59985,205.8366,True
2,1.27778,-0.1086943,-0.118257,0.06145203,4.568108,-4.678081,-2.193374,0.4527462,1.328155,0.4022806,-1.300334,0.9644049,1.5,100,-0.09848458,-0.04158804,0.08996443,-0.4463634,-4.390679,0.1295159,0.6168671,1.537455,0.355195,-0.003719747,0.07469238,-0.05990981,-1.119111,0.3005024,-0.02158519,0.7430719,1.57617,0.1970155,0.1523412,1.442771,0.3141471,289.4431,45.47566,206.9331,True
2,1.288891,-0.09265006,-0.1534127,0.05304641,4.570219,-4.676193,-2.192544,0.4523926,1.32836,0.4018784,-1.289466,0.9774672,1.1,99.9,-0.09631054,-0.05132126,0.1079875,-0.4447106,-4.392841,0.1324899,0.6168036,1.537783,0.3551855,-0.0006273966,0.0672161,-0.0663241,-1.120047,0.3010384,-0.02187307,0.743045,1.576168,0.1970105,0.1503436,1.440287,0.3131856,288.9817,44.22303,208.1327,True
2,1.300002,-0.07767862,-0.1875189,0.04038177,4.572658,-4.674262,-2.19186,0.4521136,1.328791,0.4018562,-1.277959,1.035326,1.1,99.9,-0.07403897,-0.07169122,0.109829,-0.4437231,-4.396451,0.1359144,0.6168995,1.537969,0.355206,0.002424719,0.04908726,-0.07061067,-1.120984,0.3009506,-0.02197001,0.7430769,1.576126,0.1969647,0.1483715,1.437548,0.3121164,288.4786,42.88206,209.3842,True
2,1.311113,-0.06805838,-0.2056527,0.02872459,4.574981,-4.672637,-2.191276,0.4518977,1.329193,0.4018438,-1.265494,1.122081,1,99.7,-0.06461269,-0.08436923,0.09157,-0.4434664,-4.399383,0.1390048,0.6167969,1.538021,0.3551593,0.002261084,0.03628729,-0.08020164,-1.122232,0.3006536,-0.02176974,0.7430991,1.576347,0.1971867,0.1464331,1.434533,0.3109176,287.9707,41.56351,210.6342,True
2,1.322224,-0.05949114,-0.2333813,0.01603767,4.578018,-4.670742,-2.190639,0.4516425,1.329686,0.401933,-1.252583,1.161849,1,99.7,-0.06472193,-0.0852735,0.07237536,-0.4435814,-4.401495,0.1417491,0.6167737,1.538197,0.355217,-0.0009110533,0.03417585,-0.07591325,-1.122943,0.3009838,-0.02179931,0.7431223,1.576331,0.1972106,0.1445152,1.431216,0.3095098,287.4601,40.13099,212.0148,True
2,1.333336,-0.05202336,-0.2440589,0.005424723,4.580575,-4.669105,-2.190051,0.4513286,1.329969,0.4019885,-1.239157,1.208296,1,99.7,-0.06467987,-0.07673349,0.07031019,-0.4429332,-4.402896,0.1436493,0.6166941,1.538191,0.3551905,-0.007219965,0.03952754,-0.06841137,-1.123549,0.30151,-0.02156761,0.7431011,1.576396,0.197329,0.142581,1.427647,0.3079154,286.8419,38.40291,213.5758,True
2,1.344447,-0.04775965,-0.2440687,-0.0009654462,4.582717,-4.667702,-2.189595,0.4510787,1.330397,0.4022224,-1.225281,1.24895,0.8,98.6,-0.06769885,-0.04907182,0.07693551,-0.4418972,-4.402247,0.1439226,0.6167052,1.538292,0.3551564,-0.005080935,0.0501535,-0.07375248,-1.124542,0.3022717,-0.02183366,0.7431378,1.576321,0.1975584,0.1406248,1.423871,0.3062192,286.1505,36.38729,215.3428,True
2,1.355558,-0.04456326,-0.2429852,0.002223819,4.58481,-4.666032,-2.188977,0.4508393,1.330726,0.4023299,-1.21112,1.274456,0.7,87.1,-0.06981576,-0.03833742,0.06851855,-0.4412133,-4.402506,0.1450376,0.6168518,1.538351,0.3550787,-0.01037644,0.05231562,-0.07157689,-1.125313,0.3029896,-0.02186668,0.7432226,1.576283,0.1975927,0.1386334,1.419943,0.3045037,285.435,34.20172,217.2547,True
2,1.366669,-0.04029909,-0.2450974,0.004365228,4.586925,-4.664218,-2.188383,0.450624,1.331176,0.4024663,-1.196787,1.289778,0.7,87.1,-0.0602963,-0.04043748,0.05886141,-0.44102,-4.403902,0.1467436,0.6169165,1.53839,0.3550432,-0.008264143,0.04589501,-0.06733139,-1.125864,0.3030318,-0.02162061,0.7432569,1.576252,0.1976445,0.1366161,1.415883,0.302868,284.7591,31.75942,219.4072,True
2,1.37778,-0.03710822,-0.2440377,0.001162842,4.589153,-4.662728,-2.187894,0.4504797,1.331439,0.4024575,-1.182011,1.330155,0.7,87.1,-0.04878891,-0.05842647,0.036284,-0.4415287,-4.40661,0.1493503,0.6170076,1.53843,0.3550513,-0.008414034,0.03311233,-0.07691461,-1.127004,0.3029171,-0.02157667,0.7434331,1.576159,0.197624,0.1346101,1.411726,0.3014148,284.1288,28.91813,221.9898,True
2,1.388891,-0.03928977,-0.2152714,0.003195308,4.590161,-4.66174,-2.187299,0.4503445,1.331653,0.4024172,-1.167191,1.333661,1,75.3,-0.04784963,-0.0732754,0.02763632,-0.4416395,-4.409629,0.1526758,0.6170621,1.538428,0.3550429,-0.005273588,0.02456882,-0.07800156,-1.127842,0.3028773,-0.02165629,0.7435603,1.57585,0.1974268,0.1326685,1.407495,0.3001542,283.5705,25.7503,225.0089,True
2,1.400002,-0.03403673,-0.1790478,0.000927031,4.590816,-4.66132,-2.187029,0.4502929,1.331884,0.402432,-1.152248,1.344804,1,75.3,-0.04147543,-0.07972641,0.03074725,-0.4413838,-4.412417,0.1554274,0.6171128,1.538497,0.355005,-0.007450119,0.02138535,-0.08117884,-1.128855,0.3029821,-0.02155589,0.743642,1.57577,0.1974366,0.1308314,1.403228,0.2990431,283.076,22.40258,228.3064,True
2,1.411114,-0.03409083,-0.1492006,0.006145783,4.591223,-4.660674,-2.186576,0.4502338,1.332063,0.402374,-1.136937,1.378154,1.5,82,-0.04244164,-0.07021403,0.041485,-0.4405753,-4.413411,0.1569055,0.6171016,1.538594,0.3548827,-0.01591846,0.02888021,-0.07897364,-1.129622,0.3034548,-0.02116947,0.743645,1.575883,0.197541,0.1291351,1.398908,0.2980277,282.6596,19.05781,231.6375,True
2,1.422225,-0.03098015,-0.1022907,0.01448956,4.590628,-4.660574,-2.186337,0.4502476,1.332183,0.4023099,-1.121905,1.352466,1.5,82,-0.05395573,-0.04469717,0.05559551,-0.4395238,-4.412896,0.1574802,0.6171556,1.538675,0.3548114,-0.0115607,0.03631703,-0.07368699,-1.130296,0.3042409,-0.02163073,0.7437099,1.57576,0.1974649,0.1275179,1.394564,0.2971085,282.3358,15.42071,235.2284,True
2,1.433336,-0.03211711,-0.05964537,0.02392448,4.589673,-4.660452,-2.185979,0.4501987,1.332331,0.4021811,-1.106402,1.3957,1.5,82,-0.05283827,-0.03725453,0.05778376,-0.4388218,-4.413311,0.158379,0.6171471,1.538665,0.3547881,-0.01151923,0.0341877,-0.06836105,-1.1309,0.3045631,-0.02179451,0.743799,1.575666,0.1975162,0.125973,1.390189,0.2963059,282.0836,11.58528,239.0135,True
2,1.444447,-0.03429977,-0.03193927,0.0270206,4.588988,-4.660421,-2.185529,0.4501992,1.332432,0.4020529,-1.091185,1.369153,2.2,99.2,-0.04433952,-0.03082272,0.04501257,-0.4387489,-4.414303,0.1593457,0.6172723,1.538493,0.3545573,-0.01791248,0.0320841,-0.06725501,-1.131823,0.3046642,-0.02142699,0.7439522,1.575732,0.1975608,0.1244897,1.385785,0.2955993,281.9148,7.558076,243.0226,True
2,1.455558,-0.04183714,0.01067472,0.03219981,4.587419,-4.660811,-2.184899,0.4503623,1.332434,0.4018915,-1.075784,1.386379,2.2,99.2,-0.03703349,-0.03600277,0.02150041,-0.4393609,-4.41572,0.1608475,0.6174531,1.538565,0.3545241,-0.01365648,0.02353711,-0.06196393,-1.132323,0.3046454,-0.02139424,0.7440335,1.575675,0.1974905,0.1230602,1.38136,0.2949827,281.8527,3.380316,247.2068,True
2,1.466669,-0.04506538,0.02984944,0.03532903,4.586507,-4.660831,-2.18433,0.4503449,1.332537,0.4016838,-1.060414,1.383353,2.2,99.2,-0.02968794,-0.04016528,0.004374431,-0.4401252,-4.416852,0.1619593,0.6175373,1.53869,0.3546338,-0.01364702,0.01822521,-0.05664052,-1.132835,0.3048984,-0.02130902,0.7442747,1.575495,0.1973662,0.1216564,1.376937,0.2944179,281.8772,359.1786,251.4573,True
2,1.47778,-0.05041831,0.04261828,0.03422065,4.585589,-4.661106,-2.183605,0.4503736,1.332608,0.4015532,-1.044972,1.390016,2.2,99.2,-0.02653915,-0.05193121,0.007458877,-0.4400879,-4.419372,0.1644489,0.6176723,1.538737,0.3545117,-0.01370694,0.02035523,-0.06516282,-1.133829,0.3051808,-0.02128718,0.7444077,1.57542,0.1972663,0.1203523,1.372501,0.2938687,281.9501,355.067,255.6232,True
2,1.488891,-0.05254696,0.04045514,0.02889552,4.585411,-4.66117,-2.183,0.4503773,1.332807,0.4014783,-1.0299,1.356248,1.9,99.9,-0.03390147,-0.05311152,0.02772768,-0.4392304,-4.420848,0.1664707,0.6177943,1.538954,0.3545191,-0.01159512,0.01927074,-0.06518226,-1.134589,0.3052863,-0.0210949,0.7444861,1.575542,0.1974657,0.1191747,1.368066,0.2933271,282.1061,351.0212,259.7175,True
2,1.500003,-0.05253355,0.02976641,0.01934765,4.585501,-4.661255,-2.182429,0.450425,1.332999,0.4014463,-1.014604,1.376937,1.9,99.9,-0.03803531,-0.04362308,0.04274082,-0.43831,-4.42164,0.1677392,0.6179018,1.53901,0.3544269,-0.0105965,0.01393645,-0.06945322,-1.135519,0.3052173,-0.02100728,0.7446233,1.575404,0.1973302,0.1180378,1.363668,0.2927442,282.293,347.1536,263.6379,True
2,1.511114,-0.05252683,0.02336054,0.01617654,4.585402,-4.661182,-2.181789,0.4505105,1.333198,0.4014482,-0.9996303,1.347278,1.8,95.3,-0.03579902,-0.03413079,0.05345097,-0.4375494,-4.422029,0.1684007,0.6180031,1.539113,0.3544991,-0.0137354,0.01823271,-0.0651628,-1.136088,0.30586,-0.02095082,0.7447314,1.575292,0.1973221,0.1169549,1.359312,0.2921159,282.5004,343.376,267.4299,True
2,1.522225,-0.05144804,0.01374987,0.009817672,4.585646,-4.661184,-2.181254,0.4505308,1.333396,0.4014006,-0.984593,1.353427,1.8,95.3,-0.03367891,-0.03090299,0.04813958,-0.4372367,-4.422702,0.1693065,0.6181021,1.539165,0.3544502,-0.01368886,0.02886485,-0.0662352,-1.136955,0.3062964,-0.02086347,0.7447939,1.575433,0.1975646,0.1159479,1.354998,0.2914457,282.7123,339.6963,271.0919,True
2,1.533336,-0.05464508,0.01159373,0.004503264,4.585637,-4.661319,-2.180554,0.4505005,1.333643,0.4014032,-0.969469,1.361263,1.8,95.3,-0.04018474,-0.04358548,0.04061268,-0.4372868,-4.424735,0.1719339,0.6182817,1.539243,0.3543985,-0.01357874,0.03526491,-0.05771961,-1.137401,0.3071013,-0.02105042,0.7448417,1.575438,0.1975255,0.1150638,1.350706,0.2907561,282.954,336.179,274.5606,True
2,1.544447,-0.05675975,0.001976806,-0.0007854858,4.586011,-4.66122,-2.179861,0.4503719,1.333913,0.4014115,-0.9544865,1.348226,1.2,81.8,-0.04024617,-0.04992151,0.03417178,-0.4371712,-4.426464,0.1738559,0.6183552,1.539263,0.354363,-0.01356032,0.04380475,-0.06091213,-1.138173,0.3081895,-0.02130955,0.7449769,1.575139,0.1975317,0.1142936,1.346426,0.2900625,283.253,332.8776,277.8135,True
2,1.555558,-0.06206856,-0.008702416,-0.005002229,4.586512,-4.661112,-2.178987,0.4502821,1.334167,0.4014549,-0.9392564,1.371074,1.2,81.8,-0.03285067,-0.05738281,0.02981184,-0.4371371,-4.428723,0.1760176,0.6184289,1.539301,0.3543372,-0.01675056,0.0555411,-0.06834315,-1.13922,0.3092897,-0.02146907,0.7450566,1.575067,0.197602,0.1135623,1.342151,0.2893658,283.5822,329.7748,280.8748,True
2,1.566669,-0.07057679,-0.0204782,-0.01346734,4.587275,-4.660984,-2.177847,0.4501294,1.334311,0.4015677,-0.9242277,1.35238,0.9,70.5,-0.03390119,-0.04880595,0.02455632,-0.4371195,-4.429053,0.1767897,0.6183712,1.539327,0.3543339,-0.01891056,0.05876057,-0.07472207,-1.140367,0.3102469,-0.02165416,0.7451025,1.575021,0.197711,0.112804,1.337885,0.2886857,283.9582,326.7629,283.8389,True
2,1.577781,-0.07586139,-0.04287158,-0.01657513,4.588445,-4.660514,-2.176752,0.4499244,1.334633,0.4016774,-0.9090248,1.368548,0.9,70.5,-0.03067735,-0.0445704,0.02563953,-0.4368575,-4.429998,0.1778691,0.6184087,1.539377,0.3543203,-0.01366206,0.0544677,-0.08115946,-1.141512,0.3107231,-0.02193299,0.7451643,1.574953,0.1978002,0.1120201,1.333621,0.288026,284.3556,323.8825,286.6813,True
2,1.588892,-0.08327486,-0.06312133,-0.0143591,4.589569,-4.659726,-2.17555,0.4497399,1.334964,0.4017527,-0.8937387,1.375991,0.8,94.6,-0.03292019,-0.05620457,0.01704286,-0.4370263,-4.43222,0.1803924,0.6184111,1.53957,0.3543315,-0.0158444,0.04916286,-0.08327491,-1.142544,0.3112125,-0.02181981,0.7452403,1.574955,0.1977389,0.1112717,1.329341,0.2873981,284.7649,321.1571,289.3641,True
2,1.600003,-0.08325288,-0.07592064,-0.01857272,4.590832,-4.659287,-2.174572,0.4495819,1.335329,0.4018123,-0.8788155,1.342772,0.8,94.6,-0.0351292,-0.06788515,0.01376336,-0.4371856,-4.434904,0.1832867,0.6184624,1.539676,0.3543017,-0.0105583,0.04700421,-0.08758484,-1.143738,0.3117149,-0.02223553,0.7452973,1.574867,0.1976774,0.1105533,1.325042,0.2868148,285.1983,318.545,291.9322,True
2,1.611114,-0.08111589,-0.08232916,-0.02494138,4.591975,-4.659102,-2.173732,0.449459,1.335718,0.4018505,-0.8637851,1.352909,0.7,80.6,-0.02986186,-0.08070401,0.01469336,-0.4372878,-4.438057,0.1862221,0.6184603,1.539701,0.3542781,-0.01166747,0.04383192,-0.08971062,-1.144876,0.3124229,-0.02225923,0.745331,1.574718,0.1976464,0.1098834,1.320752,0.2862585,285.6719,315.989,294.4777,True
2,1.622225,-0.08113601,-0.07597295,-0.03349428,4.592947,-4.659382,-2.172859,0.4492943,1.336169,0.4019859,-0.8489811,1.332058,0.7,80.6,-0.03936649,-0.07648776,0.02649524,-0.4367217,-4.439966,0.1887199,0.618453,1.53985,0.3541934,-0.01273667,0.03746537,-0.08757009,-1.145775,0.3128916,-0.02249439,0.7453662,1.574646,0.1976049,0.1093072,1.316494,0.2856903,286.1822,313.5797,296.9034,True
2,1.633336,-0.08329155,-0.06746989,-0.03671019,4.593551,-4.659403,-2.171781,0.4490713,1.336535,0.402003,-0.8341159,1.337854,0.7,80.6,-0.05296407,-0.06285002,0.06183086,-0.4348085,-4.441177,0.1909628,0.6183383,1.540067,0.3540523,-0.01693583,0.03324617,-0.0768844,-1.146317,0.3133707,-0.02230531,0.745383,1.574492,0.1976576,0.1088381,1.312276,0.2850996,286.7001,311.3343,299.1469,True
2,1.644447,-0.08970122,-0.05789529,-0.03780096,4.593984,-4.659576,-2.170643,0.4487725,1.33694,0.4021499,-0.8190323,1.357734,0.4,58.6,-0.05490092,-0.04595434,0.08221384,-0.4333251,-4.441562,0.1919665,0.6183192,1.540239,0.3541622,-0.009380767,0.04494943,-0.07375525,-1.147132,0.3147908,-0.02309387,0.7453097,1.574616,0.1978402,0.1084558,1.308093,0.2845117,287.2332,309.2332,301.1955,True
2,1.655559,-0.09184355,-0.05043098,-0.03463171,4.594397,-4.659632,-2.169562,0.4485033,1.337343,0.4022148,-0.8038459,1.366934,0.4,58.6,-0.06024418,-0.04912211,0.08221561,-0.4325213,-4.443407,0.1944864,0.618258,1.540362,0.3540885,-0.01672917,0.06949461,-0.07795538,-1.148183,0.3165716,-0.02337323,0.7453256,1.574541,0.1979029,0.1080847,1.303947,0.2839837,287.7946,307.2914,303.0569,True
2,1.66667,-0.1014148,-0.05363061,-0.03034994,4.595103,-4.659357,-2.168157,0.4481868,1.337874,0.4023175,-0.7888874,1.346262,0.3,51.7,-0.05612068,-0.05966602,0.06612848,-0.4325618,-4.445899,0.1972417,0.6181803,1.540557,0.3539996,-0.02631765,0.08555946,-0.08853416,-1.149707,0.3186454,-0.02350426,0.7453095,1.574521,0.1981561,0.1076783,1.299839,0.2835242,288.3925,305.57,304.7345,True
2,1.677781,-0.1077972,-0.06112405,-0.03670835,4.596226,-4.659338,-2.166729,0.4478039,1.338347,0.4023566,-0.7742198,1.3199,0.3,51.7,-0.05628062,-0.06585868,0.04157609,-0.4330902,-4.447969,0.1997568,0.6180817,1.540727,0.3539164,-0.0263553,0.0930159,-0.09812225,-1.151197,0.3200658,-0.02379961,0.7453589,1.574468,0.1982467,0.1072381,1.295787,0.2831431,289.0169,303.9841,306.306,True
2,1.688892,-0.110977,-0.0685875,-0.03667955,4.597293,-4.659148,-2.165427,0.4474393,1.338832,0.4023967,-0.7593274,1.340787,0.3,51.7,-0.06267734,-0.06582141,0.04160742,-0.4327306,-4.449721,0.2023422,0.618095,1.540992,0.3536837,-0.03163982,0.09625179,-0.09594522,-1.152171,0.3213988,-0.02385926,0.7454865,1.574471,0.1982262,0.106835,1.291804,0.2828184,289.6485,302.527,307.7968,True
2,1.700003,-0.1088468,-0.07073354,-0.04199976,4.598375,-4.65921,-2.164294,0.4471005,1.339299,0.4024315,-0.7448547,1.302408,0.3,45.6,-0.06894706,-0.05738688,0.05662297,-0.4316782,-4.451133,0.2046354,0.6179554,1.54121,0.3535032,-0.04021329,0.09523734,-0.1011985,-1.153477,0.3225009,-0.02356551,0.7455523,1.574438,0.1982496,0.106469,1.287925,0.2825078,290.2755,301.1039,309.2747,True
2,1.711114,-0.1099238,-0.06863688,-0.04839757,4.59944,-4.659365,-2.163051,0.4467303,1.339851,0.4024336,-0.7308135,1.263472,0.3,44.2,-0.09013404,-0.04778321,0.06959209,-0.4304851,-4.451851,0.2069636,0.6177959,1.541368,0.3533223,-0.0434099,0.09421461,-0.1001064,-1.154604,0.3239139,-0.02351092,0.7455078,1.574289,0.1983151,0.1061218,1.284163,0.2821889,290.864,299.7584,310.6604,True
2,1.722225,-0.1035348,-0.06437917,-0.05161665,4.600361,-4.659562,-2.162261,0.4463078,1.340297,0.4024293,-0.7170716,1.236691,0.3,44.2,-0.1039518,-0.03701029,0.06442733,-0.429969,-4.452201,0.2088541,0.6176054,1.541629,0.353138,-0.04759426,0.1048987,-0.09900539,-1.155688,0.3256628,-0.02363156,0.7454993,1.574267,0.1984115,0.1058401,1.280521,0.2818558,291.4316,298.5493,311.8859,True
2,1.733337,-0.1024709,-0.06330775,-0.050556,4.601213,-4.659644,-2.161139,0.4458872,1.340807,0.4024158,-0.7033249,1.237461,0.3,44.2,-0.1050177,-0.04130025,0.06865937,-0.4291871,-4.454111,0.2118433,0.6174229,1.541796,0.3529506,-0.04638514,0.1272667,-0.09795,-1.15677,0.328135,-0.02422198,0.7454424,1.57408,0.1986403,0.1056295,1.276983,0.281516,291.9895,297.454,312.977,True
2,1.744448,-0.1014188,-0.05799395,-0.05377364,4.602045,-4.659969,-2.160078,0.4454872,1.341363,0.4023941,-0.6903329,1.168547,1.5,40.9,-0.1007433,-0.04240692,0.07075897,-0.4284675,-4.455842,0.2142479,0.6172111,1.541965,0.3528337,-0.05060426,0.1358365,-0.09898937,-1.158115,0.3303235,-0.02438763,0.745398,1.574096,0.1986029,0.1054432,1.273543,0.2811783,292.5506,296.4237,313.9962,True
2,1.755559,-0.1035555,-0.05480249,-0.05378399,4.602736,-4.660201,-2.158911,0.4449674,1.341796,0.4023771,-0.6769511,1.205097,1.5,40.9,-0.09975617,-0.05088262,0.06429302,-0.4281394,-4.458196,0.2174559,0.6169037,1.542089,0.3526902,-0.05494751,0.1326656,-0.1064097,-1.159568,0.3317484,-0.02421,0.7453108,1.574001,0.1986761,0.1052686,1.270168,0.2808498,293.0905,295.5112,314.9014,True
2,1.76667,-0.1003735,-0.04948036,-0.05487558,4.603524,-4.660514,-2.157912,0.4444345,1.342248,0.4023666,-0.6641311,1.15354,2.3,37.2,-0.1009265,-0.05286301,0.0461679,-0.4284131,-4.459684,0.2199979,0.6165365,1.542164,0.3525517,-0.05392057,0.125232,-0.1053542,-1.160762,0.3333764,-0.02425527,0.7451404,1.574043,0.1986868,0.1051122,1.266857,0.2805285,293.6593,294.6367,315.7792,True
2,1.777781,-0.1046331,-0.05055834,-0.05593363,4.604383,-4.660761,-2.156617,0.4438046,1.342665,0.402446,-0.6516137,1.126717,2.3,37.2,-0.1073546,-0.04095602,0.02712139,-0.4287545,-4.459668,0.2213753,0.6160921,1.542275,0.3523881,-0.06141542,0.129537,-0.112748,-1.162319,0.3350428,-0.02394501,0.7449673,1.573947,0.1987607,0.1049614,1.263626,0.2802254,294.2334,293.7823,316.6337,True
2,1.788892,-0.1109943,-0.07083954,-0.06223821,4.606092,-4.660606,-2.155133,0.4431203,1.343124,0.4024446,-0.6396796,1.073778,2.3,37.2,-0.1105609,-0.03126368,0.01655661,-0.4289468,-4.459568,0.2226994,0.6155005,1.542447,0.3523567,-0.0655558,0.1444909,-0.1095168,-1.16348,0.3375589,-0.02416206,0.7447437,1.573892,0.1988785,0.1047604,1.260479,0.2799462,294.7929,292.9998,317.4134,True
2,1.800003,-0.1141584,-0.08682516,-0.06217598,4.607717,-4.660346,-2.153746,0.4424358,1.343566,0.4025049,-0.6277508,1.074121,3.2,28.2,-0.1073375,-0.03024983,0.02080963,-0.4286501,-4.460449,0.2245713,0.6149899,1.542635,0.3522117,-0.06757434,0.1477039,-0.09884552,-1.164233,0.3394629,-0.02415487,0.7444127,1.573816,0.1990135,0.1045188,1.257424,0.2797065,295.3295,292.2632,318.1378,True
2,1.811115,-0.1173259,-0.1038886,-0.06423284,4.609582,-4.659969,-2.152282,0.4417381,1.344015,0.4024978,-0.616305,1.030137,3.1,22.3,-0.07848194,-0.02410304,0.03242753,-0.4279338,-4.461103,0.2250853,0.6143168,1.542827,0.3521376,-0.07488761,0.1648108,-0.0934582,-1.165202,0.3423463,-0.02416339,0.7440882,1.57362,0.1991012,0.1042111,1.25447,0.279521,295.8484,291.539,318.8553,True
2,1.822226,-0.1109164,-0.1145339,-0.06525292,4.611267,-4.659672,-2.151298,0.4408392,1.344562,0.4025402,-0.6055895,0.9641179,3.1,22.3,-0.06319717,0.009595547,0.06886925,-0.4254959,-4.460001,0.2242749,0.6137013,1.542988,0.3517048,-0.08102436,0.1904148,-0.08275481,-1.165875,0.3455635,-0.02454715,0.743522,1.573431,0.1993318,0.1038628,1.25165,0.2793761,296.3346,290.7813,319.6335,True
2,1.833337,-0.1045363,-0.1145032,-0.0620499,4.612596,-4.659584,-2.150343,0.4400487,1.345069,0.4026093,-0.5951329,0.9412603,3.1,22.3,-0.06613886,0.02102753,0.1062643,-0.4229345,-4.459833,0.2249617,0.6130295,1.543269,0.3514192,-0.09261005,0.1990065,-0.07306844,-1.166433,0.3482963,-0.02420787,0.7430345,1.573386,0.1993985,0.1035243,1.248989,0.2792625,296.7892,290.0823,320.3648,True
2,1.844448,-0.08847027,-0.1155587,-0.05892793,4.61434,-4.658581,-2.149801,0.4391289,1.345666,0.4026542,-0.5856425,0.8534579,2.4,14.8,-0.06483793,0.03462297,0.1372609,-0.4203379,-4.459129,0.2249913,0.6122623,1.543724,0.3512244,-0.09548047,0.1958152,-0.03150386,-1.165524,0.3503466,-0.02377697,0.7423544,1.573447,0.1996982,0.1031669,1.246505,0.279153,297.2325,289.4357,321.0478,True
2,1.855559,-0.07784927,-0.1166015,-0.06210121,4.615746,-4.658772,-2.149283,0.4381316,1.346238,0.4027548,-0.5761371,0.855784,2.4,14.8,-0.04879767,0.03981328,0.1436124,-0.4183698,-4.458658,0.2245977,0.6112638,1.544072,0.3508766,-0.09119537,0.1659633,-0.008101709,-1.164847,0.3513258,-0.02329121,0.7415673,1.573516,0.1996675,0.1027436,1.2442,0.2790422,297.6537,288.8495,321.6434,True
2,1.86667,-0.07252405,-0.1240581,-0.06526391,4.617561,-4.658679,-2.148602,0.4370172,1.346793,0.4028771,-0.5675228,0.7745675,1.9,12.4,-0.05624128,0.04841092,0.1373315,-0.4169637,-4.457954,0.2247737,0.6103535,1.544289,0.3501871,-0.09853721,0.1563962,0.013269,-1.164074,0.3525587,-0.02228001,0.7408469,1.573668,0.1997802,0.1023214,1.242072,0.2789401,298.0505,288.3457,322.1527,True
2,1.877781,-0.07888277,-0.1486392,-0.08327594,4.620481,-4.658635,-2.1475,0.4356925,1.347509,0.4032032,-0.5587722,0.7880351,1.9,12.4,-0.05813624,0.08349741,0.1472144,-0.4145823,-4.453917,0.2218355,0.6092427,1.544516,0.3497946,-0.104545,0.1628276,0.05380276,-1.162044,0.3548337,-0.0217748,0.7399362,1.573801,0.1997519,0.1018757,1.240089,0.2788058,298.3973,287.8513,322.6546,True
2,1.888893,-0.08512247,-0.2328863,-0.1031909,4.62591,-4.657192,-2.146202,0.4340626,1.348435,0.4037833,-0.5502826,0.7642379,1.9,12.4,-0.02275425,0.1184094,0.1547671,-0.4120975,-4.44903,0.2164306,0.6078676,1.544741,0.3497996,-0.1065009,0.1670842,0.07087589,-1.160676,0.3568258,-0.02132952,0.7388909,1.573688,0.1996427,0.101315,1.2382,0.2786809,298.7305,287.3675,323.0833,True
2,1.900004,-0.09134509,-0.3267312,-0.1262731,4.632942,-4.655286,-2.144788,0.4323605,1.349481,0.4044938,-0.5419746,0.7481595,1.4,12.1,-0.02481697,0.1322774,0.1538249,-0.4100213,-4.445198,0.2132561,0.6066245,1.544874,0.3494508,-0.1052324,0.1766668,0.08790885,-1.159235,0.3593503,-0.02121953,0.7379127,1.573634,0.1995211,0.1005841,1.236377,0.2786235,299.0587,286.8028,323.5458,True
2,1.911115,-0.1068203,-0.6007785,-0.1891607,4.64848,-4.650222,-2.142733,0.4299911,1.351195,0.4057357,-0.5344298,0.6788372,1.4,12.1,-0.03882871,0.1283187,0.1261655,-0.4093289,-4.442349,0.2116459,0.6051581,1.544997,0.3492262,-0.08997075,0.1936184,0.1165575,-1.156952,0.3622719,-0.02192367,0.7366415,1.573754,0.1995409,0.09961454,1.234638,0.2787259,299.3865,285.9832,324.2117,True
2,1.922226,-0.1076003,-0.7596331,-0.2215887,4.661348,-4.645843,-2.141229,0.4280693,1.352657,0.4064755,-0.5274044,0.6323262,1.7,13.2,-0.04326178,0.1189438,0.1026748,-0.4088448,-4.440086,0.2102084,0.6037179,1.545055,0.3488791,-0.0855301,0.2084842,0.1282425,-1.155164,0.3649395,-0.02204911,0.7354523,1.573833,0.1995769,0.09842293,1.233032,0.2790638,299.6498,284.8489,325.1854,True
2,1.933337,-0.1104194,-0.9718649,-0.2836522,4.679502,-4.640496,-2.139671,0.4254352,1.354533,0.4073293,-0.5204717,0.6244702,1.7,13.2,-0.04451548,0.1085141,0.07596423,-0.4087223,-4.43809,0.2087988,0.6019562,1.544921,0.3484044,-0.0820963,0.231902,0.1399306,-1.15329,0.368633,-0.02273834,0.7341708,1.573894,0.1996388,0.09704237,1.231591,0.2796975,299.7965,283.3268,326.5436,True
2,1.944448,-0.1272496,-1.097762,-0.3257914,4.695514,-4.636167,-2.137634,0.4229105,1.356292,0.4080424,-0.5147475,0.5141667,1.8,14.2,-0.0670175,0.112057,0.04841262,-0.408628,-4.434387,0.2069249,0.6000733,1.544861,0.3479507,-0.07772812,0.2659409,0.1303138,-1.152142,0.3726397,-0.02346671,0.7328144,1.573946,0.199748,0.09546307,1.230322,0.2806822,299.7869,281.1279,328.5708,True
2,1.955559,-0.1634197,-1.136304,-0.3575772,4.709775,-4.633043,-2.134675,0.4203037,1.357825,0.4088447,-0.5090169,0.5160699,1.8,14.2,-0.1127491,0.1379588,0.03714027,-0.4081071,-4.428745,0.2044104,0.5981297,1.544788,0.347445,-0.07866248,0.2851223,0.1324515,-1.150724,0.3767618,-0.02424728,0.7314733,1.573974,0.1998591,0.09382202,1.229253,0.2819848,299.7371,279.1979,330.5131,True
2,1.966671,-0.1858058,-1.140653,-0.3681829,-1.560873,-4.62998,-2.131848,0.4179317,1.359281,0.4094911,-0.5034781,0.4992508,1.7,14.7,-0.1370969,0.162545,0.04173003,-0.4069188,-4.423101,0.2014309,0.5962974,1.544736,0.3469067,-0.07630731,0.3074642,0.1452121,-1.148824,0.3809335,-0.02498817,0.7301008,1.574062,0.200026,0.09187634,1.228308,0.2835194,299.6784,277.0984,332.6801,True
2,1.977782,-0.2199323,-1.122612,-0.3682206,-1.548597,-4.627177,-2.128253,0.4151458,1.360802,0.410274,-0.4982343,0.4728925,1.7,14.7,-0.1612345,0.2050678,0.06883326,-0.4045182,-4.414612,0.1962337,0.5942048,1.544601,0.3464243,-0.07292101,0.3212948,0.1579664,-1.146723,0.3854436,-0.02615064,0.7286108,1.574104,0.2001739,0.08965951,1.227556,0.2852528,299.7078,275.2532,334.6266,True
2,1.988893,-0.2540312,-1.110915,-0.3543839,-1.536745,-4.623868,-2.124538,0.4122125,1.36222,0.4109805,-0.4947216,0.3153144,1.7,14.7,-0.181595,0.2000021,0.04654505,-0.4041294,-4.41073,0.1948456,0.5923407,1.544021,0.3456988,-0.07044089,0.3553932,0.176034,-1.144692,0.3913832,-0.02779089,0.727133,1.574287,0.2000203,0.08719269,1.227113,0.2871473,299.8097,273.8087,336.2355,True
2,2.000004,-0.2817228,-1.106672,-0.3437216,-1.524626,-4.620463,-2.120584,0.4093542,1.363762,0.4116299,-0.4910033,0.3357628,1.8,14.6,-0.1858785,0.1968374,0.04547613,-0.4032868,-4.405805,0.1925255,0.590396,1.543762,0.3452804,-0.05318661,0.3669947,0.1887097,-1.141831,0.3960326,-0.03011822,0.7250876,1.574279,0.2001457,0.08461671,1.227092,0.2890815,299.8742,272.6107,337.6897,True
2,2.011115,-0.3381882,-1.095049,-0.3351888,-1.512643,-4.617102,-2.115196,0.4060296,1.365741,0.4121554,-0.4883034,0.2426461,1.8,14.6,-0.1838363,0.1818933,0.04324068,-0.4022657,-4.403397,0.1921239,0.5884016,1.543378,0.3448346,-0.03189173,0.3636729,0.1895942,-1.139825,0.4004563,-0.03231,0.7233002,1.574353,0.200294,0.08174764,1.227524,0.2909219,299.8827,271.3917,339.1444,True
2,2.022226,-0.3637462,-1.097234,-0.3330278,-1.500317,-4.613875,-2.110703,0.4030556,1.367296,0.4126346,-0.4859619,0.2109594,1.6,14,-0.1967607,0.1392169,0.05788048,-0.4011136,-4.40386,0.1949943,0.5862697,1.543284,0.3445854,0.006630599,0.3624263,0.2095111,-1.137145,0.4056504,-0.03578969,0.7216487,1.574338,0.2001977,0.07863024,1.228438,0.2925512,299.7661,270.1415,340.5981,True
2,2.033337,-0.4010385,-1.100556,-0.3468334,-1.487468,-4.611273,-2.105182,0.3999115,1.369048,0.4130666,-0.4827912,0.2872119,1.6,14,-0.2277364,0.08473071,0.09701545,-0.3989298,-4.407281,0.2016937,0.5842949,1.542889,0.3441775,0.05337101,0.3493642,0.2027232,-1.135219,0.4096044,-0.03952317,0.7198716,1.574373,0.2003577,0.07534545,1.229842,0.2938921,299.5958,268.8368,342.0339,True
2,2.044448,-0.4308876,-1.097462,-0.3564048,-1.474945,-4.608833,-2.099764,0.3968574,1.37078,0.4132419,-0.4821461,0.05584879,1.6,14,-0.2500432,0.07831129,0.114124,-0.3971183,-4.406256,0.2040796,0.5820349,1.542793,0.3440304,0.07131591,0.3460962,0.1844622,-1.134043,0.4143522,-0.04283615,0.7182728,1.574383,0.2005432,0.071787,1.231781,0.2948975,299.4219,267.4364,343.4741,True
2,2.055559,-0.5011881,-1.104016,-0.361647,-1.462171,-4.606264,-2.092109,0.3935486,1.372545,0.4135876,-0.4801189,0.1844588,1.1,13.4,-0.2741495,0.1068204,0.1613559,-0.393449,-4.402709,0.2046698,0.5798849,1.54229,0.343652,0.09023196,0.3481127,0.1523417,-1.133614,0.4187046,-0.04633021,0.7164335,1.574353,0.2007546,0.068194,1.23418,0.2956315,299.0068,265.9327,344.9021,True
2,2.06667,-0.537431,-1.096659,-0.3669583,-1.449578,-4.603909,-2.085283,0.3903424,1.374232,0.4138515,-0.479182,0.08354614,0.9,13.3,-0.2655672,0.1185078,0.1592878,-0.3913031,-4.399231,0.2038887,0.5776858,1.541632,0.3430605,0.1082724,0.3490645,0.1394525,-1.131994,0.423126,-0.05036863,0.71446,1.574282,0.2012243,0.06452643,1.236916,0.2961939,298.5327,264.3709,346.3091,True
2,2.077781,-0.5875111,-1.09036,-0.3648083,-1.437153,-4.601591,-2.0773,0.3869297,1.375997,0.4141483,-0.4762377,0.2681903,0.9,13.3,-0.2496037,0.1302633,0.1443858,-0.3898633,-4.395048,0.2023142,0.5754849,1.541029,0.3427725,0.1222094,0.3532431,0.1467912,-1.13033,0.4277589,-0.05417988,0.7126006,1.574228,0.2014792,0.06079647,1.239869,0.2966645,298.0286,262.7847,347.7408,True
2,2.088892,-0.6280922,-1.059526,-0.3670382,-1.425793,-4.600363,-2.069105,0.3834915,1.377862,0.4145336,-0.4763543,-0.01323928,0.9,13.3,-0.2263161,0.1067306,0.138754,-0.3884476,-4.395315,0.2042844,0.5729992,1.540606,0.3427844,0.1403977,0.3553008,0.1530034,-1.128718,0.4327542,-0.05862629,0.7103859,1.574159,0.2020521,0.0568601,1.242999,0.2971003,297.6343,261.1369,349.2381,True
2,2.100003,-0.6547529,-1.044657,-0.3649397,-1.413954,-4.59859,-2.061075,0.3800285,1.379663,0.4148705,-0.4749774,0.1261056,0.9,13.6,-0.20841,0.06079413,0.1436215,-0.3867251,-4.398087,0.2085886,0.5707387,1.539909,0.3426235,0.1478599,0.3595212,0.1508051,-1.12738,0.4374959,-0.06254514,0.7084352,1.574204,0.2024667,0.05280704,1.246295,0.2975613,297.2161,259.4457,350.8181,True
2,2.111114,-0.6910352,-1.025541,-0.3692591,-1.402496,-4.597617,-2.052318,0.3763182,1.381785,0.4151485,-0.4745732,0.0357154,0.9,13.6,-0.2074954,0.04061808,0.13493,-0.3854734,-4.399263,0.2119501,0.5684868,1.539222,0.3424523,0.1672338,0.364745,0.1708837,-1.125133,0.4426475,-0.06708556,0.7064154,1.574201,0.2027578,0.04857443,1.249755,0.2980779,296.864,257.8099,352.3621,True
2,2.122225,-0.6995666,-1.049978,-0.3767142,-1.389578,-4.596842,-2.044403,0.3725948,1.383851,0.4155769,-0.4745353,0.003275903,1.2,13.6,-0.2173657,0.02498713,0.09650113,-0.385696,-4.3999,0.2153328,0.5661505,1.538767,0.3422463,0.1864897,0.3625115,0.1803155,-1.123027,0.4474349,-0.07200655,0.7043809,1.574209,0.2031741,0.04420266,1.25343,0.2987115,296.5237,256.2463,353.8603,True
2,2.133336,-0.6973721,-1.081929,-0.375534,-1.375969,-4.594532,-2.037128,0.3689239,1.386152,0.4156575,-0.4738637,0.06127235,1.2,13.6,-0.2228477,0.01344444,0.07832486,-0.3855245,-4.400759,0.2188141,0.5639098,1.538159,0.3420782,0.1866115,0.3646423,0.1930985,-1.120744,0.4522266,-0.07617626,0.7023443,1.574121,0.2035351,0.03972923,1.257307,0.2994559,296.1566,254.6458,355.4696,True
2,2.144447,-0.7037758,-1.104243,-0.3808376,-1.362793,-4.59345,-2.029231,0.3654389,1.388694,0.4157426,-0.474627,-0.07026324,1.2,13.6,-0.2154045,0.0112388,0.08040963,-0.384324,-4.401742,0.22202,0.5616459,1.537591,0.3419032,0.1854281,0.3635965,0.1803203,-1.119534,0.4570269,-0.08022773,0.7003027,1.574081,0.203969,0.03506905,1.261406,0.3002927,295.8285,252.9685,357.1806,True
2,2.155558,-0.7047991,-1.12877,-0.3871398,-1.348716,-4.591576,-2.021731,0.3618765,1.391022,0.4156427,-0.4749998,-0.03344862,1.7,13.7,-0.2091073,0.004909426,0.0686066,-0.3839799,-4.402402,0.2247487,0.5593264,1.537002,0.3416791,0.1800389,0.3668234,0.1707782,-1.118281,0.4618405,-0.08418173,0.6982843,1.574037,0.2043519,0.03036758,1.265683,0.3012528,295.4293,251.035,359.1837,True
2,2.166669,-0.7080517,-1.1149,-0.3904619,-1.336038,-4.591038,-2.014146,0.3584115,1.392954,0.4149039,-0.474521,0.04376406,1.6,13.7,-0.2143649,0.01987097,0.06662527,-0.3831703,-4.400782,0.2257793,0.5570993,1.536217,0.341285,0.1746635,0.3615318,0.1697706,-1.116678,0.4663104,-0.08779243,0.6961673,1.574,0.2046857,0.02582982,1.270062,0.3022227,295.0395,249.0448,1.374113,True
2,2.17778,-0.7144923,-1.086122,-0.3831019,-1.324183,-4.58992,-2.006226,0.3548493,1.395035,0.4146745,-0.4746025,-0.007775587,1.6,13.7,-0.2362824,0.05256826,0.1213329,-0.3797465,-4.398322,0.2269037,0.5547016,1.535572,0.3409524,0.1758967,0.3594021,0.1900033,-1.114261,0.4711143,-0.09198851,0.6940588,1.573898,0.205029,0.02148557,1.274498,0.3031088,294.7189,247.0791,3.565857,True
2,2.188891,-0.7114321,-1.023163,-0.3652284,-1.314515,-4.589491,-1.998542,0.3511032,1.396945,0.4141271,-0.4747287,-0.01153564,1.6,13.7,-0.2592849,0.06813079,0.1887009,-0.3751744,-4.397221,0.2294478,0.5522754,1.53481,0.3406572,0.1825261,0.3668264,0.2144566,-1.111424,0.4762824,-0.09638513,0.6918641,1.573785,0.2054441,0.01721543,1.278865,0.3037673,294.3722,245.043,5.884384,True
2,2.200002,-0.7157421,-0.9900908,-0.3493626,-1.304168,-4.588476,-1.990702,0.3474944,1.398899,0.4137776,-0.4741982,0.04858746,1.6,13.2,-0.2825576,0.05618569,0.2323955,-0.3713762,-4.399086,0.235147,0.5498567,1.534288,0.3404732,0.1847892,0.3710857,0.2261502,-1.109026,0.481454,-0.1009045,0.6896766,1.573746,0.2059236,0.01294951,1.283039,0.3040737,294.0247,243.1219,8.051658,True
2,2.211113,-0.7200832,-0.9516496,-0.3249938,-1.294462,-4.58726,-1.982732,0.3440233,1.400718,0.41309,-0.4744768,-0.02598951,1.6,13.2,-0.344489,0.04922548,0.2124277,-0.3694752,-4.399225,0.2411351,0.5473629,1.533507,0.3400283,0.1880937,0.3806613,0.2335759,-1.106707,0.4868738,-0.1054143,0.6874331,1.573609,0.2063744,0.008656587,1.287009,0.3040068,293.8016,241.381,9.87109,True
2,2.222224,-0.7287385,-0.877105,-0.3145698,-1.28595,-4.586922,-1.974175,0.3407423,1.402352,0.4123533,-0.4741662,0.02869123,1.5,12.9,-0.3742916,0.06436551,0.2052481,-0.3673314,-4.396795,0.2441594,0.5448194,1.532826,0.3398161,0.182784,0.3881321,0.2304246,-1.10472,0.4919189,-0.1095854,0.6851497,1.573415,0.206964,0.004292331,1.2908,0.3035605,293.6432,239.8077,11.4295,True
2,2.233335,-0.7341502,-0.8259357,-0.3019639,-1.277742,-4.586717,-1.965915,0.3372885,1.403836,0.411705,-0.4739085,0.02322502,1.5,12.9,-0.3890333,0.07812858,0.2246054,-0.364012,-4.395332,0.2475549,0.5422664,1.532091,0.3394473,0.1764363,0.3956267,0.2304786,-1.102702,0.4974021,-0.1137966,0.6829743,1.573241,0.2073958,5.671475E-05,1.294465,0.3028007,293.5508,238.1171,13.03581,True
2,2.244446,-0.7330685,-0.8057808,-0.2988119,-1.26815,-4.58584,-1.958114,0.3338659,1.405495,0.4111521,-0.4735425,0.03326577,1.5,12.9,-0.3647073,0.05895093,0.210473,-0.3621377,-4.396221,0.2516,0.5394975,1.531271,0.3390763,0.1613623,0.391452,0.2157052,-1.101178,0.5023237,-0.1172076,0.6806803,1.573006,0.2076929,-0.003961354,1.298065,0.3017408,293.4727,236.455,14.61947,True
2,2.255557,-0.7449755,-0.7034973,-0.2885174,-1.263086,-4.586982,-1.94913,0.3304997,1.406365,0.4103251,-0.4738728,-0.03036077,0.9,11.7,-0.3649297,0.04640993,0.1805427,-0.3611545,-4.396644,0.2560384,0.536849,1.530451,0.3387058,0.150464,0.3883179,0.1891649,-1.10048,0.5071556,-0.1206697,0.6784074,1.572746,0.2080123,-0.007805601,1.30166,0.3004417,293.374,234.869,16.05615,True
2,2.266668,-0.7461305,-0.6417559,-0.2833716,-1.256807,-4.587428,-1.940726,0.3270697,1.40769,0.4093676,-0.4741907,-0.02878859,0.9,11.7,-0.3684454,0.04369572,0.1251387,-0.3615625,-4.394615,0.2586172,0.5340421,1.529535,0.338321,0.1417608,0.3862445,0.1700578,-1.099849,0.5121521,-0.1241499,0.6760892,1.57249,0.2082791,-0.01161936,1.305265,0.2990114,293.2538,233.1324,17.54019,True
2,2.277779,-0.7462993,-0.5447255,-0.2592224,-1.253563,-4.588539,-1.932067,0.3236941,1.408408,0.4085944,-0.4736421,0.05034206,0.8,10.9,-0.3505872,0.05902576,0.06230861,-0.3626501,-4.390267,0.2578888,0.5311908,1.528678,0.3379908,0.1341596,0.3756352,0.160535,-1.098934,0.5165566,-0.127379,0.6736174,1.572187,0.2085679,-0.01543629,1.30887,0.2975745,293.0959,231.2688,19.13964,True
2,2.28889,-0.7390215,-0.4434038,-0.22869,-1.25127,-4.589353,-1.92374,0.3205254,1.408982,0.4076362,-0.4739708,-0.03039463,0.8,10.9,-0.3284599,0.04212007,0.03223054,-0.3632051,-4.389704,0.260243,0.5283156,1.527813,0.3375998,0.1247871,0.3810166,0.1776378,-1.097154,0.521848,-0.1311306,0.6710485,1.571872,0.2087727,-0.0193909,1.312472,0.2961935,292.8288,229.9407,20.32794,True
2,2.300001,-0.7306232,-0.3708737,-0.2087211,-1.249307,-4.590416,-1.915743,0.3172493,1.409471,0.4068642,-0.4739771,-0.0003523315,0.6,9.4,-0.2862564,0.007090509,-0.01089206,-0.3650917,-4.391893,0.2639134,0.5253963,1.526819,0.3370805,0.1188549,0.4151611,0.2064433,-1.094752,0.528908,-0.1356199,0.668417,1.571639,0.2091098,-0.02341761,1.316089,0.2948762,292.5818,228.6818,21.54298,True
2,2.311112,-0.7180457,-0.2599826,-0.1835469,-1.24959,-4.591751,-1.907742,0.3141302,1.409663,0.4060259,-0.4742131,-0.02158148,0.6,9.4,-0.2733631,0.03263777,-0.0150055,-0.3648605,-4.38791,0.262796,0.522428,1.525854,0.3364236,0.1204388,0.4386009,0.2522387,-1.091255,0.5358277,-0.1401217,0.6657174,1.57128,0.2094138,-0.02740708,1.319684,0.2936317,292.2187,227.6042,22.64423,True
2,2.322223,-0.7096662,-0.1746784,-0.1625684,-1.249961,-4.59319,-1.899714,0.3107172,1.409819,0.4053309,-0.4746174,-0.03677797,0.7,8.9,-0.2723452,0.05526707,-0.04679478,-0.366028,-4.382674,0.2609528,0.5193192,1.524812,0.3359084,0.1239804,0.4396647,0.2905532,-1.087527,0.5421976,-0.1447319,0.6629942,1.571061,0.2097597,-0.03123101,1.323193,0.2924035,291.7921,226.6175,23.71051,True
2,2.333334,-0.7022712,-0.1319422,-0.1328895,-1.249723,-4.593557,-1.892084,0.3072292,1.409864,0.4044478,-0.4746776,-0.005270567,0.7,8.9,-0.2607516,0.06721455,-0.08190723,-0.3676121,-4.378124,0.259263,0.5160609,1.523791,0.335223,0.1222756,0.4460716,0.3374423,-1.083024,0.5486723,-0.1489458,0.660207,1.570605,0.2100353,-0.03493053,1.326535,0.2911711,291.3549,225.6163,24.74665,True
2,2.344445,-0.6948349,-0.1148344,-0.113774,-1.248519,-4.593744,-1.884565,0.3039322,1.409996,0.4035425,-0.4746067,0.006467063,0.7,8.9,-0.2512176,0.07904992,-0.1021103,-0.3690912,-4.373481,0.2575045,0.5128684,1.522771,0.3347335,0.1107127,0.4610675,0.3503483,-1.079513,0.5557603,-0.1528239,0.6573679,1.570332,0.2103989,-0.0385638,1.32966,0.2899177,290.8978,224.8349,25.52751,True
2,2.355556,-0.6842793,-0.05400176,-0.08950565,-1.249785,-4.594378,-1.877113,0.3004289,1.409395,0.4024744,-0.4745806,0.00226349,0.6,8.8,-0.2416235,0.1069119,-0.1285686,-0.370859,-4.366047,0.2528927,0.5094503,1.521664,0.3340299,0.1097696,0.4664009,0.3610094,-1.076024,0.5625536,-0.1572123,0.6544455,1.569936,0.2106092,-0.04232866,1.332541,0.2886253,290.4949,224.0946,26.24626,True
2,2.366668,-0.6726521,-0.004912585,-0.07478356,-1.251087,-4.595377,-1.86949,0.2971728,1.408963,0.4015191,-0.4745588,0.001923841,0.6,8.8,-0.2659347,0.14327,-0.1281537,-0.3715088,-4.357156,0.2485142,0.5060506,1.520493,0.3332932,0.1225588,0.4556752,0.3715623,-1.072278,0.5687057,-0.1618019,0.6515921,1.569342,0.2107863,-0.04615417,1.335164,0.2872326,290.1809,223.2795,27.09357,True
2,2.377779,-0.6493594,0.07830431,-0.05380529,-1.254691,-4.596453,-1.86277,0.2938007,1.408214,0.4004464,-0.474692,-0.01225303,0.4,8.8,-0.2861578,0.1487193,-0.1301348,-0.3725145,-4.351233,0.2468814,0.5027615,1.519214,0.3325565,0.1269716,0.4567165,0.38857,-1.068251,0.575322,-0.1665528,0.6485933,1.568764,0.2110555,-0.04991652,1.337537,0.2856978,289.9063,222.4,28.0107,True
2,2.38889,-0.6324132,0.1348333,-0.04017317,-1.257657,-4.597348,-1.856126,0.2905413,1.407565,0.3991976,-0.4745732,0.01093264,0.4,8.8,-0.2874314,0.161946,-0.1832898,-0.3756474,-4.342941,0.2423301,0.4995221,1.51759,0.3317838,0.1259544,0.4663107,0.3907251,-1.064727,0.5823858,-0.1710847,0.6456065,1.568207,0.2112775,-0.053666,1.339642,0.2839907,289.5309,221.743,28.6587,True
2,2.400001,-0.617606,0.1977814,-0.0223089,-1.2621,-4.598299,-1.849505,0.2871649,1.406532,0.398093,-0.4753801,-0.07395904,0.4,8.8,-0.2918675,0.1729743,-0.2268637,-0.3790669,-4.334301,0.2376972,0.4961407,1.516112,0.3311036,0.1343868,0.4758479,0.3736075,-1.062206,0.5894711,-0.1763223,0.6425706,1.567605,0.2115357,-0.05728859,1.34153,0.2821654,289.1821,221.329,28.97596,True
2,2.411112,-0.607015,0.2308536,-0.01391296,-1.265459,-4.599136,-1.842816,0.2839524,1.405354,0.397053,-0.4753471,0.003540917,0.2,7.6,-0.2823202,0.180494,-0.2406989,-0.3815319,-4.326283,0.2331129,0.4926964,1.514396,0.3304541,0.1470274,0.480045,0.3543254,-1.060079,0.5963929,-0.1817496,0.639513,1.566922,0.2116849,-0.0608389,1.343236,0.2802474,288.7939,221.1216,29.07942,True
2,2.422223,-0.6123919,0.2564099,-0.01294249,-1.268823,-4.600337,-1.835484,0.2805604,1.404006,0.3959634,-0.4752049,0.01280928,0.1,6.9,-0.2719679,0.1476086,-0.2644546,-0.3849285,-4.322833,0.232515,0.4891907,1.5127,0.3298481,0.1566761,0.4736123,0.3670405,-1.056425,0.6032072,-0.1871366,0.636399,1.56633,0.2120407,-0.06432129,1.344781,0.2782487,288.4304,220.891,29.21246,True
2,2.433334,-0.6252055,0.267014,-0.01935292,-1.271876,-4.601584,-1.827732,0.2772347,1.402481,0.3948722,-0.4749396,0.02403769,0.1,6.9,-0.2843923,0.1100947,-0.3605731,-0.3922293,-4.318974,0.2325286,0.4855681,1.51055,0.3290563,0.1705437,0.4703339,0.3733157,-1.053043,0.6097741,-0.1926083,0.6331521,1.565516,0.212183,-0.06778274,1.346169,0.2762138,288.0201,220.5733,29.38977,True
2,2.444445,-0.6326792,0.2690778,-0.03107543,-1.274488,-4.60309,-1.820085,0.2737741,1.401105,0.393894,-0.474269,0.06101078,0.1,6.9,-0.2822914,0.1337391,-0.3870343,-0.3966587,-4.309641,0.2270811,0.4819764,1.508817,0.3284485,0.1704758,0.483127,0.3616153,-1.050537,0.6172042,-0.197851,0.6297166,1.564772,0.212539,-0.07120422,1.347388,0.2742113,287.6212,220.0431,29.75067,True
2,2.455556,-0.6369331,0.2594345,-0.04381952,-1.276704,-4.604685,-1.812459,0.2704151,1.399552,0.392827,-0.4737487,0.04705678,0.2,6.1,-0.2734883,0.152594,-0.3528376,-0.3987849,-4.302073,0.222816,0.4783728,1.506975,0.3277767,0.1750192,0.5022781,0.3818175,-1.047029,0.625266,-0.2039454,0.6263095,1.563859,0.2127483,-0.07472931,1.348476,0.2722882,287.2569,219.4962,30.13508,True
2,2.466667,-0.6358562,0.2402022,-0.05972625,-1.278351,-4.606318,-1.804862,0.2671688,1.397949,0.391911,-0.4738845,-0.01278502,0.2,6.1,-0.2616307,0.1351488,-0.309358,-0.4003061,-4.29851,0.2220182,0.474795,1.505146,0.3270059,0.1827804,0.5267464,0.4052087,-1.043051,0.6341284,-0.2104595,0.6228783,1.562932,0.2130122,-0.07834664,1.349502,0.2704935,286.9453,219.0204,30.47228,True
2,2.477778,-0.6230506,0.2209891,-0.07671171,-1.279806,-4.608199,-1.79769,0.2638188,1.396147,0.3908823,-0.4739644,-0.007117729,0.2,5.4,-0.2545595,0.09381437,-0.3406237,-0.4051488,-4.296513,0.2228645,0.4711205,1.503153,0.3262875,0.1818666,0.5374055,0.4158695,-1.039463,0.6426902,-0.2168332,0.6192809,1.561911,0.2132075,-0.08205878,1.350554,0.2688779,286.6689,218.5105,30.87533,True
2,2.488889,-0.6124087,0.2209486,-0.08844827,-1.281789,-4.610137,-1.79073,0.2605783,1.39443,0.3899288,-0.4740144,-0.004527952,0.2,5.4,-0.2334084,0.08213487,-0.3578737,-0.4095212,-4.292214,0.2208184,0.4674314,1.501097,0.3255477,0.185859,0.5288603,0.3934696,-1.037233,0.6498053,-0.222363,0.6158003,1.560878,0.2132838,-0.08573501,1.351655,0.2674748,286.3618,217.8189,31.5298,True
2,2.5,-0.5922055,0.2347953,-0.09917162,-1.284448,-4.61232,-1.784251,0.2572758,1.392333,0.3889558,-0.4744965,-0.04410226,0.2,5.4,-0.2149839,0.105184,-0.3215689,-0.4114046,-4.285982,0.2168287,0.4636862,1.498991,0.3247609,0.194305,0.5202893,0.3902024,-1.034368,0.6570837,-0.2285131,0.6123256,1.559868,0.2134156,-0.08931281,1.352787,0.2662921,286.0099,216.8932,32.47606,True
2,2.511111,-0.5656307,0.2636366,-0.09290686,-1.288164,-4.613977,-1.778345,0.2539294,1.390148,0.3881028,-0.4747223,-0.0202961,0.6,4.7,-0.223205,0.1498674,-0.3073102,-0.4134243,-4.276237,0.2107958,0.459886,1.496853,0.3240631,0.1953694,0.4968624,0.4040425,-1.030579,0.66397,-0.234355,0.6087642,1.558478,0.2133808,-0.0928564,1.353894,0.2652925,285.6043,215.8485,33.59639,True
2,2.522222,-0.545429,0.2882152,-0.08236448,-1.291991,-4.615381,-1.772599,0.2505312,1.387951,0.3871646,-0.4751921,-0.04287563,0.6,4.7,-0.2009386,0.1391829,-0.3192549,-0.4174894,-4.271711,0.2079585,0.4561322,1.494575,0.323487,0.2092114,0.4893326,0.4081878,-1.027257,0.6712477,-0.2408957,0.6052426,1.557322,0.2136028,-0.09635638,1.35492,0.2644436,285.1626,214.8857,34.66653,True
2,2.533333,-0.4997009,0.343809,-0.05171514,-1.297598,-4.616068,-1.768479,0.2471766,1.385289,0.3862782,-0.4755186,-0.02959095,0.6,4.5,-0.1543318,0.1167896,-0.3473808,-0.4222048,-4.268191,0.2048378,0.4524724,1.492182,0.3228157,0.2282436,0.4966759,0.3888617,-1.025056,0.6787646,-0.2478468,0.6016884,1.556154,0.2136638,-0.09986542,1.35576,0.2637005,284.6532,213.9351,35.74104,True
2,2.544444,-0.4454818,0.4025697,-0.03387821,-1.303788,-4.617285,-1.764648,0.2439366,1.382678,0.3854537,-0.4754573,0.005688422,0.6,4.5,-0.1490053,0.1178256,-0.35062,-0.4261612,-4.263546,0.2021132,0.4486119,1.489994,0.32217,0.2281687,0.5275794,0.360096,-1.023825,0.6877162,-0.2549314,0.5980035,1.554955,0.2138615,-0.1033978,1.356324,0.2629967,284.1232,213.2335,36.58302,True
2,2.555555,-0.4082625,0.4421111,-0.02021043,-1.310043,-4.618312,-1.761014,0.2406254,1.380045,0.384547,-0.4766488,-0.1091702,0.5,4.1,-0.1493987,0.08298978,-0.390316,-0.431937,-4.261424,0.2018889,0.4448708,1.487674,0.321373,0.2337541,0.5403266,0.3824186,-1.020676,0.6965186,-0.2623389,0.5943518,1.553623,0.2139826,-0.1069441,1.356552,0.2622353,283.6212,212.797,37.1838,True
2,2.566666,-0.3476241,0.4923774,0.0008570477,-1.317181,-4.619007,-1.758804,0.2374125,1.377314,0.3836627,-0.4769152,-0.02360029,0.5,4.1,-0.1574461,0.1231278,-0.3398764,-0.4333751,-4.253509,0.1969224,0.4411051,1.485275,0.3204155,0.2372174,0.5478225,0.4047234,-1.017377,0.7060664,-0.2703521,0.5906432,1.551925,0.2138684,-0.1103706,1.356324,0.2613568,283.0648,212.5542,37.54695,True
2,2.577777,-0.289082,0.5202152,0.007090472,-1.323774,-4.620077,-1.757151,0.2343148,1.374389,0.3827171,-0.4767208,0.01758764,0.4,3.9,-0.1643974,0.1760841,-0.2967988,-0.4344479,-4.243747,0.1901138,0.4375015,1.482882,0.3195605,0.2149209,0.5490178,0.4123629,-1.014369,0.7146443,-0.2765858,0.5869717,1.550513,0.2141318,-0.1136885,1.355602,0.2603613,282.5765,212.728,37.3912,True
2,2.588888,-0.2539621,0.5330524,0.003815979,-1.329989,-4.62136,-1.755076,0.2312767,1.371649,0.3817761,-0.477655,-0.08586337,0.4,3.9,-0.1644738,0.1697717,-0.3053677,-0.437845,-4.238127,0.18687,0.4339036,1.480571,0.3186638,0.2061759,0.5447985,0.391137,-1.012474,0.7225027,-0.282632,0.5834451,1.549066,0.2142439,-0.1169784,1.354436,0.2592571,282.2078,213.3913,36.68234,True
2,2.599999,-0.2060432,0.5416477,0.000535965,-1.335938,-4.622624,-1.754111,0.2284724,1.368412,0.3809011,-0.4779756,-0.02885539,0.4,3.9,-0.1537758,0.1717966,-0.2990219,-0.4406227,-4.232348,0.1830084,0.4304609,1.478085,0.317909,0.2163922,0.5330188,0.3473721,-1.011804,0.7294799,-0.2890345,0.5800327,1.547531,0.2144098,-0.1201759,1.352856,0.2580913,281.8661,214.264,35.7325,True
2,2.61111,-0.1836977,0.5469745,-0.01122186,-1.341918,-4.624289,-1.752397,0.2254518,1.365412,0.3800826,-0.4771655,0.07391622,0.2,3.7,-0.1467577,0.1284088,-0.3377531,-0.44541,-4.229892,0.1822039,0.4269367,1.475418,0.3171639,0.2235444,0.5212546,0.3217529,-1.01069,0.7363679,-0.2952724,0.5765271,1.545829,0.2145891,-0.1232849,1.350867,0.25693,281.5775,215.1976,34.69757,True
2,2.622221,-0.1634871,0.5415784,-0.03997573,-1.347281,-4.626606,-1.750567,0.2225625,1.362178,0.379504,-0.4777296,-0.05258001,0.2,3.7,-0.1575709,0.1093794,-0.3474398,-0.4493914,-4.226442,0.1813389,0.4233533,1.472874,0.3165886,0.2254212,0.5116664,0.2961507,-1.01012,0.743214,-0.3015356,0.5730211,1.544387,0.2150986,-0.1263266,1.348567,0.2558485,281.3893,216.344,33.44011,True
2,2.633332,-0.1496869,0.5532255,-0.06666462,-1.353364,-4.629478,-1.748741,0.2196279,1.358936,0.3787634,-0.4767277,0.09183948,0.1,3.1,-0.1599433,0.06788042,-0.3520239,-0.4534373,-4.226106,0.1828779,0.4197415,1.470307,0.3158634,0.2348595,0.5233179,0.2715831,-1.009729,0.7508419,-0.3084287,0.5692968,1.542525,0.2152796,-0.1292663,1.345977,0.2549338,281.1947,217.3841,32.29092,True
2,2.644443,-0.1294826,0.5585017,-0.08800954,-1.359143,-4.632127,-1.747281,0.2166367,1.355672,0.3780727,-0.4762691,0.04080747,0.1,3.1,-0.1447544,0.09423375,-0.3252514,-0.4557531,-4.220364,0.1788829,0.416088,1.467536,0.3151283,0.2285822,0.5553231,0.2641734,-1.009387,0.7600144,-0.3155465,0.5656949,1.54072,0.2155254,-0.1323313,1.343237,0.25424,281.0693,218.7599,30.80224,True
2,2.655554,-0.1071185,0.5595924,-0.09336106,-1.365038,-4.634476,-1.746285,0.2136151,1.352462,0.3774817,-0.4760517,0.01938083,0.1,3.1,-0.1126392,0.1024159,-0.3040473,-0.4581265,-4.216167,0.1753087,0.4125425,1.464783,0.314363,0.2450707,0.5989109,0.2949254,-1.007885,0.7706393,-0.3244638,0.5621562,1.538813,0.2156799,-0.1355075,1.340459,0.2538791,280.9751,220.1768,29.30523,True
2,2.666665,-0.08690428,0.5638746,-0.09659453,-1.371103,-4.636754,-1.745325,0.210676,1.349242,0.3768742,-0.4760715,-0.002095417,0,2.3,-0.07868235,0.09274837,-0.3160425,-0.4622438,-4.212844,0.1724266,0.409299,1.462194,0.3136172,0.2622654,0.5988507,0.3064567,-1.006672,0.7800445,-0.3333212,0.5586593,1.53658,0.2156456,-0.1388429,1.337769,0.253884,280.8465,221.873,27.65673,True
2,2.677776,-0.05706671,0.5618243,-0.09128827,-1.377018,-4.638715,-1.745321,0.2076846,1.346104,0.3763089,-0.4762014,-0.01203213,0,2,-0.05961685,0.07562825,-0.3194849,-0.4658758,-4.210776,0.1707044,0.4058782,1.459542,0.313061,0.2752111,0.5923885,0.3297848,-1.00458,0.7888505,-0.3415576,0.555162,1.534714,0.2156925,-0.1422787,1.335214,0.2542153,280.6634,223.5915,26.12427,True
2,2.688887,-0.01872382,0.5661762,-0.0870776,-1.383263,-4.64067,-1.745936,0.2047496,1.342888,0.3757694,-0.4759634,0.0217053,0,2,-0.04065929,0.05760393,-0.3410349,-0.4703052,-4.208599,0.1687062,0.4022869,1.456823,0.3123584,0.278761,0.5891925,0.3744887,-1.001507,0.7984184,-0.3498738,0.5515492,1.532948,0.2158756,-0.1457155,1.332788,0.2547776,280.4164,225.3232,24.6809,True
2,2.699998,0.02282113,0.5683966,-0.08499691,-1.389433,-4.642771,-1.74703,0.2019211,1.339698,0.3750672,-0.4765439,-0.05349642,0,2,-0.04061043,0.06611703,-0.3399086,-0.4739851,-4.204938,0.1659205,0.3989925,1.454294,0.3116846,0.2617791,0.5818444,0.3884792,-0.9992985,0.8074344,-0.3569826,0.5481334,1.531232,0.2159095,-0.1490722,1.330461,0.2554415,280.1317,227.1393,23.20721,True
2,2.711109,0.0515865,0.5631161,-0.08819857,-1.39529,-4.644948,-1.748139,0.199169,1.336557,0.3743827,-0.4769093,-0.03316997,0,1.3,-0.06045936,0.09461305,-0.291633,-0.4751745,-4.199424,0.1625324,0.3955668,1.451782,0.3109517,0.2509903,0.5659255,0.3832463,-0.9974678,0.815632,-0.3638826,0.5447462,1.529398,0.2159469,-0.1523268,1.328161,0.256082,279.805,228.8025,21.87042,True
2,2.72222,0.09950778,0.5706761,-0.08826956,-1.401735,-4.647177,-1.750414,0.1966453,1.33348,0.3738039,-0.4770824,-0.01583047,0,1.3,-0.09087114,0.1380592,-0.2421207,-0.4758914,-4.192486,0.1584615,0.392385,1.449173,0.3102632,0.2463226,0.5286882,0.3577038,-0.9963903,0.8224045,-0.3702902,0.5414881,1.527441,0.2158751,-0.1554551,1.325768,0.2566141,279.4409,230.4753,20.47929,True
2,2.733331,0.1378543,0.5707387,-0.09256658,-1.407795,-4.649544,-1.752878,0.1941314,1.330388,0.3731403,-0.4767469,0.03051236,0,1,-0.118489,0.154192,-0.2429098,-0.4782142,-4.186658,0.1554985,0.3892815,1.446726,0.3095455,0.2584454,0.4785445,0.316065,-0.9957543,0.8274594,-0.3762248,0.5384144,1.525453,0.2160141,-0.1584622,1.32317,0.2569751,279.1127,232.2408,18.94488,True
2,2.744442,0.1612925,0.5686648,-0.09365302,-1.413951,-4.651968,-1.754847,0.1917929,1.327015,0.3725405,-0.4774925,-0.06872076,0,1,-0.1343569,0.1712844,-0.2363005,-0.4804433,-4.180252,0.1519597,0.3860708,1.444131,0.3088379,0.2667234,0.4635831,0.2989495,-0.9948947,0.8340933,-0.3829612,0.5352526,1.52352,0.2161465,-0.1613396,1.320315,0.2571603,278.9052,234.2363,17.08508,True
2,2.755553,0.1740687,0.5708095,-0.09686886,-1.420083,-4.65436,-1.756863,0.1892653,1.323832,0.3719618,-0.4773737,0.01120672,0,1,-0.1118175,0.1773513,-0.210802,-0.4815411,-4.174924,0.147701,0.3831003,1.441611,0.3082197,0.2707156,0.4497308,0.2743946,-0.9947008,0.8404849,-0.3897299,0.5321787,1.521716,0.2164862,-0.164034,1.317167,0.257231,278.77,236.4654,14.90267,True
2,2.766664,0.18257,0.576114,-0.1000789,-1.426019,-4.656385,-1.758881,0.1868863,1.320642,0.3713369,-0.4764566,0.08338309,0,0.7,-0.08862093,0.136784,-0.215522,-0.4841941,-4.174067,0.1471181,0.3801897,1.439129,0.3075922,0.2651448,0.4486893,0.2478087,-0.9948419,0.8467496,-0.395771,0.5289938,1.519757,0.216579,-0.1666273,1.313697,0.2572441,278.6865,238.7195,12.66375,True
2,2.777775,0.1932232,0.5707644,-0.1085903,-1.431602,-4.658923,-1.761026,0.1845147,1.317503,0.3708262,-0.4760592,0.03540887,0.1,0.6,-0.08210795,0.1451454,-0.2005843,-0.4857872,-4.169504,0.1438506,0.3774266,1.436767,0.307126,0.2713067,0.4592997,0.2136636,-0.9959317,0.8533069,-0.4025213,0.5260906,1.517809,0.2166502,-0.169189,1.309927,0.2572609,278.6915,241.2244,10.1603,True
2,2.788886,0.1996268,0.5622131,-0.1181451,-1.43707,-4.661545,-1.763176,0.1822354,1.31453,0.3704972,-0.4757023,0.0322163,0.1,0.6,-0.072623,0.1280722,-0.2018386,-0.487905,-4.166553,0.1418352,0.374544,1.434265,0.3064685,0.2891712,0.4336431,0.2007247,-0.9958715,0.8587711,-0.4094261,0.5231978,1.51591,0.2167916,-0.1718636,1.30598,0.257313,278.8266,244.0089,7.402734,True
2,2.799997,0.209234,0.5451249,-0.1340593,-1.442104,-4.664392,-1.765445,0.1801697,1.31172,0.3702011,-0.4756326,0.005991407,0.1,0.6,-0.05259648,0.08102909,-0.1948868,-0.4902576,-4.167716,0.1428695,0.3719175,1.432078,0.3059835,0.3016681,0.4037567,0.1856993,-0.9958971,0.8635046,-0.4158641,0.5203714,1.514068,0.2167737,-0.174561,1.301966,0.2574148,279.0466,246.7471,4.735282,True
2,2.811108,0.2199268,0.5130853,-0.1616483,-1.446197,-4.667964,-1.767784,0.1782466,1.308927,0.369977,-0.4754312,0.01820633,0.6,0.4,-0.02161241,0.07320688,-0.1684776,-0.4910826,-4.165983,0.1406469,0.3692475,1.429902,0.3052495,0.3005318,0.3931124,0.1867851,-0.9955269,0.868938,-0.421968,0.5173707,1.512122,0.2166274,-0.1772417,1.297995,0.2576228,279.3039,249.1448,2.377602,True
2,2.822219,0.2189046,0.4842575,-0.1764502,-1.450057,-4.671153,-1.769781,0.176218,1.306085,0.3697398,-0.475362,0.006039874,0.6,0.4,-0.001070395,0.1016331,-0.1395867,-0.4913143,-4.161116,0.135777,0.366724,1.427703,0.304565,0.2953394,0.3920923,0.2017285,-0.9949186,0.8752427,-0.4286067,0.5145338,1.510282,0.2164724,-0.1798156,1.294176,0.2580219,279.5769,251.3441,0.1989151,True
2,2.83333,0.2210883,0.447955,-0.199754,-1.453159,-4.674913,-1.771861,0.1744124,1.303529,0.3696315,-0.4753343,0.002387982,0.8,0.2,0.02359913,0.09909832,-0.1056461,-0.4912009,-4.158875,0.1327064,0.3643159,1.425678,0.3039515,0.2985765,0.3569236,0.2304751,-0.9927902,0.8800048,-0.4346047,0.5118555,1.508468,0.2162819,-0.1821972,1.290584,0.2586754,279.8076,253.2096,358.3948,True
2,2.844441,0.2179794,0.3978197,-0.2134074,-1.455276,-4.678098,-1.773795,0.172644,1.301114,0.3695886,-0.4747788,0.05062445,0.8,0.2,0.02891511,0.09371953,-0.10252,-0.4922022,-4.156899,0.1305269,0.3618627,1.423464,0.3033383,0.2983838,0.3111308,0.2390005,-0.9910629,0.8835999,-0.4398389,0.5092423,1.506797,0.2160597,-0.184438,1.287225,0.2596309,279.9251,254.6648,357.0639,True
2,2.855552,0.2201843,0.3583767,-0.2217853,-1.457275,-4.681382,-1.775937,0.170828,1.29867,0.3694851,-0.4747447,0.002631035,0.8,0.2,0.05761541,0.08722028,-0.1080507,-0.4935136,-4.155161,0.1272275,0.3595677,1.421489,0.3028851,0.2982783,0.2972815,0.2358085,-0.9899934,0.8879374,-0.445554,0.5065814,1.505119,0.2158136,-0.1866567,1.284088,0.2608527,279.9784,256.1391,355.8059,True
2,2.866663,0.2277076,0.3189317,-0.231229,-1.458733,-4.684537,-1.77831,0.1691753,1.296314,0.3694704,-0.4744384,0.02794564,1.4,0.3,0.08668578,0.1306321,-0.09293398,-0.4935407,-4.148032,0.1189085,0.357311,1.419731,0.3024211,0.301293,0.2642478,0.2368611,-0.988429,0.8913665,-0.4508423,0.5039818,1.503501,0.2156453,-0.1888032,1.281152,0.2623124,280.0312,257.408,354.8087,True
2,2.877774,0.2320002,0.3061692,-0.2279845,-1.461244,-4.68749,-1.780715,0.167607,1.294099,0.3695593,-0.4745503,-0.01051155,1.4,0.3,0.1165805,0.1250026,-0.07502615,-0.4935051,-4.145434,0.1141958,0.3552227,1.417964,0.3020225,0.306355,0.2109547,0.2410913,-0.9860641,0.8932925,-0.4554679,0.5015973,1.502029,0.2153685,-0.1908983,1.278387,0.2639214,280.0679,258.4657,354.0923,True
2,2.888885,0.23417,0.2966614,-0.2077104,-1.463787,-4.689701,-1.783132,0.1661089,1.291967,0.3696456,-0.4747069,-0.01423126,1.7,0.2,0.1413281,0.1502727,-0.05364319,-0.4931296,-4.140439,0.1074988,0.3532155,1.416027,0.3017123,0.3157619,0.1693597,0.2463415,-0.9837664,0.8954157,-0.4605351,0.499258,1.50052,0.2151518,-0.1929634,1.275728,0.2655731,280.0519,259.4734,353.4601,True
2,2.899997,0.2352862,0.2807743,-0.1852715,-1.46613,-4.691517,-1.785543,0.164672,1.289804,0.3698711,-0.4746445,0.005738985,1.7,0.2,0.1743155,0.1415564,-0.05174714,-0.4933122,-4.137667,0.102076,0.3514498,1.414438,0.3014505,0.320951,0.1458866,0.2473866,-0.9815741,0.8978797,-0.4655051,0.4969875,1.499127,0.2149758,-0.1949023,1.273089,0.2671918,280.0374,260.4916,352.7803,True
2,2.911108,0.2310823,0.2584338,-0.1745314,-1.46785,-4.693518,-1.787751,0.1632649,1.287704,0.3699527,-0.4744858,0.01443505,2,0.3,0.1879894,0.1234954,-0.06688063,-0.4945357,-4.135962,0.09799874,0.3495788,1.412771,0.30109,0.3220389,0.1320322,0.2590994,-0.9790627,0.900646,-0.4706674,0.4946106,1.497767,0.2146533,-0.1966953,1.270442,0.2687136,280.0847,261.8435,351.7213,True
2,2.922219,0.2322255,0.2254559,-0.1648172,-1.468943,-4.695303,-1.790152,0.1621152,1.285735,0.3701706,-0.4743527,0.01198853,2,0.3,0.2085814,0.1690241,-0.04424861,-0.4938411,-4.128056,0.08817247,0.3479613,1.411613,0.3008969,0.3211739,0.09796606,0.3049248,-0.9745561,0.9034035,-0.4757538,0.4925174,1.496575,0.2141848,-0.1983351,1.267769,0.2700468,280.1728,263.1805,350.6512,True
2,2.93333,0.2397164,0.2127159,-0.1573197,-1.470439,-4.697155,-1.792827,0.1610302,1.283934,0.370218,-0.4741119,0.02188276,2.3,0.2,0.2030805,0.1456944,-0.05399703,-0.4946934,-4.126247,0.08455537,0.3462163,1.410259,0.3005753,0.3029933,0.05653214,0.325336,-0.970295,0.9049432,-0.4792241,0.4904908,1.495544,0.2137992,-0.1998546,1.26505,0.271133,280.2683,264.2068,349.8316,True
2,2.944441,0.2461458,0.2021223,-0.1445017,-1.472067,-4.698769,-1.795652,0.1599224,1.282192,0.3703439,-0.474228,-0.0108272,2.3,0.2,0.1925644,0.1734674,-0.05477617,-0.4951541,-4.120178,0.07757522,0.3445312,1.409028,0.3003154,0.2599331,0.03229091,0.2894849,-0.968572,0.9059101,-0.4810241,0.4884799,1.494602,0.2133365,-0.201277,1.26229,0.2719664,280.3967,264.7992,349.359,True
2,2.955552,0.2493576,0.1978955,-0.1370319,-1.473777,-4.700458,-1.798378,0.1587956,1.280383,0.370384,-0.4744895,-0.02383552,2.3,0.2,0.1769101,0.2181555,-0.03728808,-0.4945927,-4.111469,0.06847573,0.3429585,1.407881,0.3000789,0.2467287,0.005723204,0.2576433,-0.9666412,0.9059271,-0.4832977,0.4866025,1.493529,0.2130568,-0.2025136,1.259511,0.2726094,280.5773,265.1256,349.0613,True
2,2.966663,0.2472178,0.207531,-0.1232181,-1.476136,-4.701954,-1.800867,0.1577605,1.278697,0.3704081,-0.4745849,-0.008549868,2.7,0.4,0.1563402,0.1693734,-0.05142294,-0.495675,-4.111093,0.06706798,0.3414835,1.406792,0.2998335,0.2303641,-0.01654284,0.2268873,-0.9650566,0.9060433,-0.4854221,0.4848862,1.492465,0.2128615,-0.2036357,1.256766,0.2731188,280.7933,265.5557,348.6262,True
2,2.977774,0.2365486,0.2171119,-0.1189826,-1.478551,-4.703722,-1.802925,0.1566749,1.276978,0.370434,-0.4744347,0.01376557,2.7,0.4,0.1360589,0.1673952,-0.05666122,-0.4963658,-4.107182,0.0628008,0.3399877,1.405748,0.2997162,0.2043881,-0.03132315,0.1887603,-0.9639812,0.9055119,-0.4864836,0.483272,1.491503,0.2126756,-0.2047386,1.254077,0.2735531,280.9869,266.058,348.1074,True
2,2.988885,0.2184287,0.2309964,-0.1009001,-1.481499,-4.704825,-1.804605,0.1555528,1.275453,0.3705709,-0.4741098,0.02953764,3.2,0.4,0.1297114,0.161979,-0.04175391,-0.4961405,-4.103727,0.05862576,0.3385943,1.404515,0.2995977,0.1807027,-0.03224944,0.1601946,-0.9632121,0.9058605,-0.4878474,0.4817346,1.490556,0.2126236,-0.2058722,1.25145,0.2739582,281.1587,266.6722,347.4934,True
2,2.999996,0.1918107,0.2320682,-0.08383664,-1.483886,-4.705776,-1.80573,0.1544032,1.274037,0.3706508,-0.4736554,0.04130907,3.2,0.4,0.1339445,0.1480401,-0.03336561,-0.4960665,-4.101214,0.05476418,0.3371719,1.403502,0.2994976,0.166873,-0.02364399,0.1549622,-0.9621053,0.9067584,-0.4899194,0.4801342,1.489588,0.2124662,-0.2070202,1.248916,0.2743653,281.3478,267.447,346.7385,True
2,3.011107,0.1578051,0.2011779,-0.06345019,-1.485094,-4.706059,-1.806311,0.1532453,1.272911,0.3706932,-0.473207,0.04067986,3.2,0.4,0.1295469,0.1257336,-0.03778359,-0.4966247,-4.099713,0.05210901,0.3356879,1.402472,0.2993615,0.1553051,-0.008657414,0.1635812,-0.9604339,0.9084728,-0.4921572,0.4784557,1.488604,0.2124147,-0.2082215,1.246522,0.2748078,281.5582,268.2488,345.9572,True
2,3.022218,0.1450612,0.179876,-0.05589361,-1.486309,-4.706675,-1.807386,0.1520943,1.271716,0.3708847,-0.4726909,0.04696302,4.6,0.6,0.1116517,0.1459038,-0.01728312,-0.4959456,-4.094926,0.04734275,0.3343363,1.401537,0.299309,0.1429861,0.01913596,0.1988303,-0.9581132,0.9119136,-0.495364,0.476872,1.487893,0.2125506,-0.2094667,1.244351,0.2752835,281.7968,269.1156,345.1404,True
2,3.033329,0.1270627,0.1319391,-0.04504661,-1.486157,-4.706787,-1.808204,0.1509291,1.270789,0.370944,-0.4721966,0.04496166,5.3,0.7,0.09888995,0.141638,-0.007666409,-0.4956366,-4.091494,0.043809,0.3330039,1.400837,0.2993526,0.1455395,0.0553553,0.2243619,-0.9560423,0.9158527,-0.499388,0.4752652,1.487116,0.2125182,-0.2107401,1.242481,0.2757461,282.0227,269.7758,344.587,True
2,3.04444,0.116577,0.0616503,-0.03305665,-1.484722,-4.706431,-1.809343,0.1498437,1.270014,0.3709719,-0.4728544,-0.06036508,5.3,0.7,0.09455677,0.1321053,-0.01092489,-0.495985,-4.088986,0.04070881,0.3317554,1.400152,0.2992489,0.1370281,0.0703283,0.2159082,-0.9549185,0.9185007,-0.5021164,0.473745,1.486489,0.2124028,-0.2119951,1.240983,0.2761302,282.1931,270.0448,344.429,True
2,3.055551,0.1113428,0.01903541,-0.03076344,-1.483473,-4.706409,-1.810395,0.1487881,1.269195,0.3709884,-0.4728006,0.005605879,5.3,0.7,0.07964869,0.1300272,-0.007666722,-0.495895,-4.086153,0.03787627,0.3305029,1.399337,0.2991619,0.1327323,0.06395431,0.2159476,-0.953033,0.920332,-0.5045132,0.4722436,1.485783,0.2123933,-0.2131887,1.239831,0.2764424,282.2093,270.1731,344.3499,True
2,3.066662,0.09762897,-0.04062668,-0.02413827,-1.481183,-4.705943,-1.811122,0.1479042,1.268594,0.3709877,-0.4732006,-0.03660138,6.5,1.1,0.05751209,0.1630705,0.005512185,-0.4950614,-4.079577,0.03231906,0.3294721,1.398782,0.2990916,0.1211054,0.06615762,0.2256301,-0.9510308,0.9228244,-0.5068398,0.4710617,1.485249,0.2124691,-0.2143037,1.238956,0.2766555,282.1371,270.0626,344.5113,True
2,3.077773,0.09026933,-0.0832255,-0.01651525,-1.479002,-4.705306,-1.811988,0.1470264,1.268064,0.3709116,-0.4732986,-0.008517066,6.5,1.1,0.03706317,0.1387975,-0.009491764,-0.4956633,-4.078029,0.03125006,0.3283498,1.398125,0.2990339,0.1030904,0.05774803,0.2417634,-0.9484736,0.9252346,-0.508835,0.4698776,1.484787,0.2126348,-0.2152977,1.238245,0.2767371,281.9861,269.6328,344.9802,True
2,3.088884,0.08393154,-0.1012918,-0.001522083,-1.477556,-4.704412,-1.812862,0.1462878,1.267326,0.3708582,-0.4730392,0.02379469,6.9,1.3,0.01049575,0.1442088,-0.001854546,-0.4955482,-4.074419,0.02883298,0.3274594,1.397639,0.2991438,0.09320255,0.04714519,0.2152163,-0.9472161,0.9263457,-0.510002,0.4687694,1.484174,0.2127748,-0.2161616,1.237644,0.2766905,281.7978,269.3205,345.2719,True
2,3.099995,0.07539031,-0.0884902,0.008025059,-1.477213,-4.703944,-1.813453,0.1454558,1.266733,0.3707678,-0.4732368,-0.01820535,6.9,1.3,-0.001197495,0.1399411,0.006701108,-0.495039,-4.07129,0.02639858,0.3265466,1.396972,0.2990716,0.09074968,0.0492801,0.1758174,-0.9471197,0.9274235,-0.5116177,0.4677003,1.483639,0.2129083,-0.2167972,1.237342,0.2765772,281.5595,268.9143,345.6524,True
2,3.111106,0.05722588,-0.05329324,0.02815564,-1.478069,-4.703132,-1.813621,0.1446975,1.266284,0.3706481,-0.4733428,-0.009419497,6.9,1.3,-0.01004267,0.0953781,-0.009591572,-0.4956537,-4.072101,0.02752084,0.3258884,1.396408,0.2991014,0.09016124,0.04074585,0.1140361,-0.948056,0.9271365,-0.5122526,0.4667441,1.483094,0.2130361,-0.2173674,1.237134,0.276391,281.2881,268.3024,346.263,True
2,3.122217,0.04975767,-0.04583237,0.03346123,-1.477958,-4.702538,-1.813967,0.1438822,1.265695,0.3705547,-0.473199,0.01324815,7.1,1,-0.003679827,0.09217732,-0.01179324,-0.4960042,-4.069721,0.02521774,0.3250233,1.395924,0.29919,0.08779825,0.04181638,0.08635649,-0.9482148,0.9278052,-0.5135014,0.465791,1.482661,0.2131321,-0.2178798,1.236912,0.2761722,281.0145,267.7831,346.8,True
2,3.133328,0.02420231,-0.04048838,0.05264081,-1.478058,-4.701286,-1.813616,0.1430519,1.265376,0.370388,-0.4728315,0.03353075,7.1,1,-0.01258048,0.04232913,-0.03345911,-0.4971434,-4.072203,0.02781006,0.324255,1.395714,0.2992525,0.07506818,0.03336929,0.09818698,-0.9469774,0.928799,-0.5144892,0.4649163,1.482339,0.2132182,-0.2184573,1.236723,0.2759767,280.8266,267.6713,346.9438,True
2,3.144439,0.01037421,-0.04370155,0.0558594,-1.477585,-4.700509,-1.813573,0.1423278,1.264989,0.3703609,-0.4731159,-0.026168,7.1,1,-0.02963762,0.03920721,-0.03126278,-0.4973592,-4.071255,0.0279829,0.3234297,1.395357,0.2992198,0.06459662,0.04303494,0.1142558,-0.9458046,0.9309537,-0.5159837,0.4640723,1.482082,0.2131717,-0.218865,1.236571,0.2758619,280.8816,267.8069,346.8558,True
2,3.15555,-0.003456489,-0.05225321,0.05590328,-1.476911,-4.699709,-1.813159,0.1415894,1.264711,0.3702469,-0.4725321,0.05375593,7.1,1,-0.03685158,0.070017,-0.01605849,-0.4970002,-4.067495,0.02536182,0.3226188,1.395004,0.2991197,0.05409843,0.06227618,0.1196657,-0.9451804,0.9334046,-0.5177484,0.4632272,1.481846,0.2133641,-0.219393,1.236429,0.2757469,280.7959,268.0324,346.6988,True
2,3.166661,-0.0194363,-0.05442054,0.05486698,-1.476465,-4.698925,-1.812502,0.1408944,1.264441,0.3701277,-0.4729636,-0.03984796,6.4,0.9,-0.05359986,0.09542362,0.01513119,-0.4957996,-4.063329,0.02282462,0.3219323,1.394798,0.2990649,0.0422888,0.06873202,0.1059128,-0.9451053,0.9348839,-0.5185364,0.4625634,1.481536,0.2134423,-0.2199916,1.236353,0.2755751,280.744,268.033,346.7706,True
2,3.177772,-0.03431564,-0.06720409,0.0634499,-1.475581,-4.697673,-1.811737,0.140144,1.264381,0.370033,-0.4727942,0.01598457,6.4,0.9,-0.07058025,0.08038317,0.04173635,-0.494402,-4.062561,0.0234723,0.3212586,1.394558,0.2989569,0.03563131,0.0762144,0.06974192,-0.9460794,0.935809,-0.519289,0.4619556,1.481226,0.2136288,-0.2206323,1.236289,0.2753566,280.6539,267.6164,347.2199,True
2,3.188883,-0.0534534,-0.08966768,0.0486383,-1.473965,-4.697165,-1.810664,0.139432,1.264477,0.3699293,-0.4726759,0.01077182,6,0.9,-0.06862587,0.05272352,0.03617926,-0.4941554,-4.063179,0.02472266,0.3206571,1.394384,0.298851,0.01283307,0.07632136,0.01986607,-0.9477647,0.9358295,-0.5187169,0.4613273,1.48094,0.2137456,-0.2212894,1.236247,0.2751177,280.5887,267.071,347.7843,True
2,3.199994,-0.05874066,-0.1121193,0.031686,-1.471948,-4.696784,-1.810003,0.1387323,1.264656,0.3698721,-0.4726733,0.0002470955,6,0.9,-0.06648766,0.04947432,0.04145991,-0.4936798,-4.0622,0.02457379,0.3199404,1.394301,0.2989013,-0.01173623,0.07753827,0.01047578,-0.948586,0.9369514,-0.5185377,0.4606957,1.480882,0.2136104,-0.2219532,1.236242,0.2748707,280.5624,266.5521,348.3401,True
2,3.211105,-0.06405549,-0.1228146,0.02321126,-1.47029,-4.696336,-1.809116,0.1379951,1.264749,0.3698306,-0.4726019,0.006647687,6,0.9,-0.06957761,0.04825592,0.06278148,-0.4921245,-4.060945,0.02439882,0.3193879,1.394115,0.2989101,-0.01157127,0.08392963,0.02538615,-0.9484342,0.9385682,-0.5193532,0.4599939,1.480664,0.2136583,-0.2226493,1.236301,0.274586,280.5841,265.8664,349.0682,True
2,3.222216,-0.06724016,-0.1313665,0.01899,-1.468576,-4.695717,-1.808318,0.1372737,1.264941,0.3697345,-0.4731713,-0.05197955,5.3,0.6,-0.07169233,0.04716658,0.06704161,-0.4912563,-4.059924,0.02441,0.3187721,1.394003,0.2989259,-0.007307399,0.07538557,0.03067495,-0.9482984,0.9394551,-0.5200775,0.4592814,1.480505,0.2139304,-0.2234025,1.236427,0.2742755,280.6371,264.8339,350.0933,True
2,3.233327,-0.06829821,-0.1356378,0.0168761,-1.467007,-4.695224,-1.807561,0.1366208,1.265174,0.369693,-0.4731271,0.004611822,5.3,0.6,-0.05803937,0.03450096,0.04343124,-0.4916078,-4.059916,0.02467259,0.3182027,1.394073,0.2989221,-0.008298997,0.07219968,0.04133802,-0.9479058,0.9407057,-0.5206972,0.4586997,1.480452,0.2139997,-0.2242066,1.236557,0.2739815,280.6658,263.6296,351.2407,True
2,3.244438,-0.07044048,-0.1324569,0.01473992,-1.465682,-4.694731,-1.806719,0.1360566,1.265435,0.3697033,-0.4732874,-0.014704,4.8,0.6,-0.04637771,0.02485154,0.0432925,-0.491081,-4.060076,0.02501188,0.3176955,1.394091,0.2989011,-0.01886767,0.07548016,0.05209847,-0.9474904,0.9428397,-0.52104,0.4581379,1.480587,0.2143657,-0.2250331,1.236661,0.2737361,280.701,262.7048,352.1228,True
2,3.255549,-0.06514649,-0.113235,0.02425213,-1.465186,-4.69403,-1.806223,0.1354819,1.265612,0.3696909,-0.4734477,-0.01445727,4.8,0.6,-0.03870564,0.05133042,0.05731723,-0.48993,-4.056942,0.0224081,0.3172014,1.394109,0.298945,-0.01353158,0.05095539,0.06910719,-0.9462414,0.9434318,-0.5213913,0.4576202,1.480612,0.2144012,-0.2258173,1.236761,0.2735198,280.7592,262.0716,352.7511,True
2,3.26666,-0.06304404,-0.09509429,0.03164706,-1.464877,-4.693233,-1.80574,0.1348655,1.265734,0.3696818,-0.4734525,-0.000278407,3.6,0.6,-0.02728102,0.03453322,0.01982957,-0.4909697,-4.056955,0.02244645,0.316678,1.394165,0.2991056,-0.01571173,0.03286994,0.07658653,-0.9452863,0.9439564,-0.5212632,0.4571452,1.480437,0.2144234,-0.2265055,1.236872,0.2733211,280.8335,261.5071,353.3079,True
2,3.277771,-0.05134099,-0.08223476,0.04543843,-1.464654,-4.692162,-1.805692,0.1343342,1.265846,0.3696716,-0.4738307,-0.03455425,3.6,0.6,-0.02832601,0.03665463,0.02197942,-0.4907577,-4.055974,0.02199185,0.3161595,1.394324,0.2992566,-0.02132944,0.009466447,0.05747072,-0.945044,0.9434305,-0.5205202,0.4567367,1.480444,0.2144294,-0.2271042,1.236995,0.2731315,280.9145,260.971,353.8248,True
2,3.288882,-0.04815001,-0.07902521,0.04968946,-1.463876,-4.691203,-1.805322,0.1339117,1.265948,0.3695304,-0.4739074,-0.006688586,2.9,0.7,-0.02420076,0.01536088,0.01752709,-0.4905884,-4.057092,0.02312503,0.3156937,1.39448,0.2992928,-0.02796936,-0.001149118,0.03622277,-0.9452656,0.9429476,-0.5195875,0.4564085,1.480582,0.2143745,-0.2277014,1.237075,0.2728447,280.9558,261.1564,353.5771,True
2,3.299993,-0.03859673,-0.06195238,0.05174874,-1.463973,-4.690543,-1.80534,0.1334571,1.265967,0.3694797,-0.4743175,-0.03748606,2.9,0.7,-0.02530691,0.01542989,0.01007545,-0.4907913,-4.056869,0.0232707,0.315206,1.394597,0.2993193,-0.03565913,-0.01069477,0.01498762,-0.9455394,0.9423525,-0.5186088,0.4560502,1.480651,0.2144043,-0.2282558,1.237119,0.2723932,280.9979,261.6151,353.006,True
2,3.311104,-0.0226612,-0.03738818,0.06015975,-1.464518,-4.689807,-1.805678,0.1330563,1.266006,0.36938,-0.4740363,0.02603049,2.9,0.7,-0.03893457,0.04953274,0.0178873,-0.490199,-4.052852,0.02064269,0.31485,1.394758,0.2992969,-0.03139148,-0.009657662,0.01495262,-0.9452789,0.9423199,-0.5183955,0.4557102,1.480637,0.2146411,-0.2286734,1.23714,0.271833,281.0228,261.3163,353.2145,True
2,3.322215,-0.02055471,-0.02351701,0.0643715,-1.464912,-4.688971,-1.8056,0.1326679,1.266062,0.3693714,-0.4743942,-0.03301778,2.7,0.5,-0.05593329,0.05599646,0.02015508,-0.4899748,-4.051151,0.02035587,0.3144832,1.394946,0.2994187,-0.03229227,0.001025725,0.02774796,-0.9448379,0.9436119,-0.5187103,0.4552617,1.480843,0.2147553,-0.2289729,1.237173,0.2712284,281.0429,260.7086,353.7354,True
2,3.333326,-0.0141846,-0.01069638,0.07071049,-1.465477,-4.688074,-1.805752,0.1323581,1.26602,0.3693092,-0.4747026,-0.02789441,2.7,0.5,-0.03877493,0.06754001,0.03081551,-0.4891939,-4.048725,0.01816249,0.3141705,1.39508,0.2995696,-0.03851237,0.010654,0.04164673,-0.9442339,0.9447008,-0.5186999,0.4549529,1.48098,0.214915,-0.2292782,1.237186,0.2705502,281.0305,261.2637,352.9815,True
2,3.344437,-0.002504712,0.007465355,0.07702494,-1.466363,-4.687198,-1.806116,0.1320104,1.265976,0.3693185,-0.4742456,0.04194379,2.5,0.6,-0.02089184,0.04739269,0.008180055,-0.4899263,-4.048908,0.01789351,0.3138509,1.395151,0.2997069,-0.03959466,0.009610817,0.0416504,-0.9440538,0.9451937,-0.5183372,0.4547411,1.481128,0.2152042,-0.2295255,1.237167,0.2698853,281.0441,261.247,352.8167,True
2,3.355548,0.008109523,0.02559794,0.07694883,-1.467416,-4.686579,-1.80661,0.1317558,1.265867,0.369184,-0.4743644,-0.01125774,2.5,0.6,-0.01516194,-0.009622581,-0.05837221,-0.4930055,-4.053065,0.02155669,0.3135488,1.395211,0.2999446,-0.04929423,0.01072366,0.02788344,-0.9442397,0.9452842,-0.5175171,0.4545179,1.481178,0.2154298,-0.2297334,1.237177,0.269369,281.0687,260.6702,353.2973,True
2,3.366659,0.01340706,0.03732368,0.07477805,-1.468425,-4.685961,-1.806936,0.1313373,1.265881,0.369144,-0.4745508,-0.01697932,2.5,0.6,-0.01847377,-0.02769032,-0.06169438,-0.4936957,-4.054854,0.02350293,0.3131884,1.395269,0.3000298,-0.04941064,0.01392446,0.0129837,-0.9445859,0.9456441,-0.5170841,0.4542671,1.481499,0.2157209,-0.2299616,1.23717,0.2689108,281.0439,261.3419,352.5168,True
2,3.37777,0.0208195,0.05649902,0.07043967,-1.469859,-4.685649,-1.807447,0.1309302,1.265823,0.3690276,-0.4746616,-0.01003912,2.3,0.5,-0.05464331,-0.01576078,-0.06353652,-0.4944127,-4.054138,0.02472692,0.3127405,1.395297,0.3000567,-0.04832719,0.03202463,0.003379421,-0.9453812,0.9465303,-0.5171097,0.4540764,1.481535,0.2159944,-0.230156,1.237125,0.2685267,281.034,261.5598,352.2387,True
2,3.388881,0.02296763,0.05118604,0.07259586,-1.47043,-4.684763,-1.807903,0.1305562,1.265797,0.3688869,-0.4744336,0.02086913,1.9,0.5,-0.06934518,0.006538935,-0.04516367,-0.4942065,-4.052319,0.02444755,0.3124147,1.395374,0.3001132,-0.04932737,0.05227767,-0.000890512,-0.9462723,0.9478914,-0.5171864,0.4539998,1.481511,0.2161827,-0.2303199,1.23708,0.2683108,281.0267,261.1229,352.7165,True
2,3.399992,0.02083915,0.05119272,0.07579197,-1.471141,-4.683971,-1.80812,0.130114,1.265798,0.3687913,-0.4745588,-0.01169164,1.9,0.5,-0.07340957,0.02558888,-0.02687943,-0.4938598,-4.050245,0.02352477,0.312004,1.395398,0.300154,-0.06643298,0.06834593,-0.01777735,-0.9473375,0.9489682,-0.5164418,0.4538527,1.481627,0.2165694,-0.2306075,1.237067,0.2682354,281.025,261.3903,352.5019,True
2,3.411103,0.02086084,0.04588967,0.08113601,-1.471752,-4.683062,-1.808517,0.1296806,1.265791,0.3686287,-0.4744022,0.0144086,1.9,0.5,-0.07107629,0.05855636,-0.02129326,-0.4938395,-4.046434,0.02085868,0.3117212,1.395311,0.3002379,-0.06847839,0.06836706,-0.00710897,-0.9475144,0.9499736,-0.5161025,0.45352,1.481765,0.2166684,-0.2307283,1.236944,0.2681476,280.8691,264.7837,348.9343,True
2,3.422215,0.02511686,0.04695513,0.07792734,-1.472497,-4.682582,-1.809008,0.1293696,1.265737,0.3685758,-0.4741082,0.026715,1.1,0.5,-0.07668875,0.01930044,-0.03756632,-0.4949224,-4.048982,0.02397324,0.3114468,1.395274,0.3002987,-0.05636011,0.07044977,0.03862306,-0.9458009,0.9522913,-0.5173239,0.4531725,1.481775,0.2170331,-0.2310929,1.236945,0.2679137,281.0281,264.4572,349.3697,True
2,3.433326,0.03048825,0.02780336,0.08118989,-1.472412,-4.681501,-1.809658,0.1290729,1.265703,0.368475,-0.4742195,-0.01043377,1.1,0.5,-0.07971952,0.03410037,-0.02144909,-0.4945831,-4.047174,0.02337909,0.3111659,1.395266,0.3003311,-0.04974099,0.08213986,0.05773839,-0.9453428,0.954438,-0.5182431,0.4529206,1.481842,0.2172644,-0.231569,1.236963,0.2676352,281.0096,263.6804,350.2311,True
2,3.444437,0.0422408,0.0075843,0.07911946,-1.472076,-4.680659,-1.810489,0.1289121,1.265707,0.3685143,-0.4743447,-0.01131801,0.9,0.6,-0.07209321,0.0542025,-0.009602642,-0.4941218,-4.044225,0.02134204,0.3110096,1.395267,0.3003325,-0.02604938,0.08947455,0.08309644,-0.9445652,0.956699,-0.5199609,0.4528441,1.48189,0.2171412,-0.2320055,1.236969,0.2673528,280.9995,262.8955,351.085,True
2,3.455548,0.04116733,0.009696864,0.07485135,-1.472402,-4.680029,-1.810959,0.1288119,1.265674,0.3683875,-0.4744166,-0.006522324,0.9,0.6,-0.06897137,0.04892887,-0.01818513,-0.4946012,-4.043419,0.02126774,0.3109093,1.395212,0.3004193,-0.01556249,0.08408308,0.06702916,-0.9447271,0.9576389,-0.5207183,0.4527797,1.481886,0.2173247,-0.2321763,1.236911,0.2671798,281.0798,262.8566,351.1594,True
2,3.466659,0.04648345,0.01181938,0.06951307,-1.472793,-4.679502,-1.811657,0.1287369,1.265621,0.3683269,-0.4745721,-0.01422963,0.9,0.6,-0.06391424,0.01602624,-0.03659514,-0.4957687,-4.045451,0.02356791,0.310851,1.395214,0.3005691,-0.02122559,0.07984207,0.0308507,-0.9460486,0.9578285,-0.5202562,0.452747,1.481763,0.217592,-0.2321831,1.236855,0.2671245,281.0541,262.9807,351.0287,True
2,3.47777,0.0347384,0.01920402,0.05671204,-1.473308,-4.679431,-1.811638,0.1286745,1.265548,0.3682413,-0.4741955,0.03450992,0.6,0.5,-0.05127466,-0.005302526,-0.04216561,-0.4964697,-4.04697,0.02508991,0.3107215,1.395254,0.3007376,-0.02398823,0.06065502,-0.03090785,-0.9482686,0.9563166,-0.5189856,0.4527823,1.481737,0.2177374,-0.2321154,1.236759,0.2670542,280.9955,262.7458,351.2916,True
2,3.488881,0.02620485,0.02020125,0.04499016,-1.473475,-4.679447,-1.811642,0.1284585,1.265404,0.36817,-0.4743484,-0.01431277,0.5,0.4,-0.0377022,-0.04146519,-0.05851043,-0.4976298,-4.050303,0.02793576,0.3105668,1.395239,0.3007228,-0.02856039,0.04362708,-0.05643063,-0.9494451,0.9553912,-0.5179873,0.4526806,1.481833,0.2178073,-0.2320592,1.236697,0.2669705,280.9363,262.5818,351.5233,True
2,3.499992,0.0155319,0.02011935,0.02901922,-1.473626,-4.679665,-1.811386,0.1283092,1.265172,0.3682013,-0.4736805,0.06121952,0.5,0.4,-0.03976159,-0.02545704,-0.06050418,-0.4984196,-4.049566,0.02788969,0.3103093,1.395301,0.3006887,-0.03795841,0.05966508,-0.04463373,-0.9500241,0.9568108,-0.5180724,0.452527,1.48165,0.2181468,-0.2320062,1.236704,0.2669182,280.857,262.7993,351.3404,True
2,3.511103,0.004881078,0.01365356,0.0152031,-1.473487,-4.67991,-1.811062,0.1281516,1.265043,0.3682072,-0.4736533,0.00196751,0.5,0.4,-0.05813762,0.05612074,0.007377345,-0.4961267,-4.042642,0.02304753,0.3099949,1.395354,0.3005302,-0.02885698,0.08413954,0.007480858,-0.9493653,0.9597823,-0.5197862,0.4523813,1.48169,0.2182324,-0.2320341,1.236689,0.2668793,280.8486,263.0641,351.0841,True
