loc,t,aDotUA,bDotUA,gDotUA,aUA,bUA,gUA,xUA,yUA,zUA,qE,qDotE,emgA,emgB,aDotSH,bDotSH,gDotSH,aSH,bSH,gSH,xSH,ySH,zSH,aDotUB,bDotUB,gDotUB,aUB,bUB,gUB,xUB,yUB,zUB,xHand,yHand,zHand,aHand,bHand,gHand,enable
2,0,-0.2849342,-2.305296,-0.01896697,-1.450531,-4.203626,-2.976939,0.6550286,1.250411,0.47316,-1.256309,-0.1075546,6.7,0,-0.4519132,0.1313084,0.2761486,-0.6373866,-4.218043,-0.4921913,0.7024778,1.501976,0.3843081,-0.2043062,0.2293614,-0.07981414,-0.9577484,0.1373861,-0.0911411,0.7643824,1.586427,0.1985493,0.4397271,1.081228,0.2873319,303.5848,247.7693,347.0482,True
2,0.01111111,-0.335112,-2.282052,-0.02868776,-1.445694,-4.178758,-2.974534,0.6512254,1.251666,0.4729187,-1.254837,0.135759,6.7,0,-0.4424312,0.1132219,0.270561,-0.635222,-4.214687,-0.4902067,0.7017565,1.50257,0.3846157,-0.2004726,0.1941345,-0.107479,-0.9598975,0.1384981,-0.08966783,0.7644859,1.586287,0.1989214,0.4396857,1.082356,0.2832775,303.4796,243.6088,349.8284,True
2,0.02222222,-0.424773,-2.211001,-0.04196168,-1.440797,-4.156619,-2.969711,0.6477099,1.252872,0.4725223,-1.254307,0.04750825,6.1,0.1,-0.4081806,0.1000903,0.293586,-0.6319079,-4.210255,-0.4903724,0.701456,1.503128,0.3846877,-0.1944193,0.1748738,-0.1351935,-0.962435,0.1399026,-0.08851309,0.7646219,1.586231,0.1993237,0.4403694,1.083452,0.2776096,303.5493,240.9926,350.756,True
2,0.03333334,-0.5103564,-2.101609,-0.05965462,-1.435955,-4.136991,-2.963683,0.6443602,1.254109,0.4720306,-1.254785,-0.0434555,6.1,0.1,-0.3772092,0.06033331,0.3174365,-0.6276815,-4.207847,-0.4891915,0.7011628,1.503858,0.3849719,-0.1874167,0.1268536,-0.157535,-0.964884,0.1394057,-0.08637164,0.7647378,1.586111,0.1996534,0.4416719,1.084639,0.2708186,303.619,238.8059,350.81,True
2,0.04444445,-0.572479,-2.006964,-0.06136915,-1.431518,-4.11789,-2.957974,0.640922,1.255327,0.4716966,-1.253236,0.1423066,5.1,0,-0.3841586,0.06621873,0.3740018,-0.6231089,-4.201529,-0.4896621,0.7008163,1.504632,0.3853316,-0.1919047,0.1023425,-0.1681088,-0.9670519,0.139401,-0.08404271,0.7648405,1.58601,0.1999211,0.4434797,1.086037,0.2635125,303.5954,236.5293,350.6741,True
2,0.05555556,-0.6655847,-1.843175,-0.06559465,-1.427663,-4.103496,-2.949495,0.637885,1.256436,0.4711695,-1.25276,0.0428416,5.1,0,-0.3550847,0.05187392,0.4162161,-0.617929,-4.196528,-0.4907639,0.7007318,1.505322,0.3855789,-0.1793034,0.09052764,-0.1820423,-0.9696271,0.1398018,-0.08274361,0.7649401,1.585893,0.2002537,0.4453837,1.087746,0.2562402,303.5386,234.2721,350.4719,True
2,0.06666667,-0.7588995,-1.636781,-0.07429419,-1.424029,-4.092213,-2.939206,0.6348749,1.257644,0.4705477,-1.253754,-0.09055664,4,0.1,-0.3457471,0.01148438,0.4029659,-0.6137196,-4.195242,-0.4882951,0.700588,1.506014,0.3858337,-0.1718538,0.07878274,-0.1756951,-0.9714077,0.1403415,-0.08141017,0.7650477,1.585803,0.2007012,0.4469388,1.089896,0.249485,303.4197,232.1331,350.3181,True
2,0.07777778,-0.8468156,-1.426123,-0.08619966,-1.420731,-4.083846,-2.928092,0.6320415,1.258857,0.4699924,-1.252408,0.1242803,4,0.1,-0.3528189,-0.07436562,0.3564193,-0.6096135,-4.199515,-0.4807586,0.7007419,1.50649,0.385869,-0.1762742,0.05642383,-0.1809485,-0.9736075,0.1399114,-0.07916167,0.7652146,1.585631,0.2009957,0.4478639,1.092534,0.2436249,303.1288,230.2093,350.2973,True
2,0.08888889,-0.9219567,-1.219776,-0.1098151,-1.417091,-4.077284,-2.916365,0.6293062,1.260094,0.4693155,-1.251633,0.07035244,2.8,0.3,-0.3520274,-0.1007971,0.334852,-0.6060652,-4.200082,-0.4764614,0.700716,1.507149,0.3861036,-0.1637608,0.04564768,-0.2066022,-0.9767436,0.1396976,-0.07770172,0.7654208,1.585501,0.2013574,0.4477387,1.095658,0.2387906,302.7527,228.7194,350.3448,True
2,0.1,-0.9713521,-1.083564,-0.1233664,-1.413667,-4.070593,-2.904872,0.6265328,1.261511,0.4687257,-1.25201,-0.0342559,2.8,0.3,-0.3523263,-0.1378907,0.3142777,-0.6020981,-4.202019,-0.4709779,0.7007121,1.507706,0.3862734,-0.1596935,0.04238749,-0.2279363,-0.9799799,0.139843,-0.07618665,0.7655842,1.585402,0.201674,0.4463021,1.099341,0.2349923,302.3191,227.5759,350.5868,True
2,0.1111111,-1.035796,-0.8909945,-0.1426549,-1.410498,-4.067853,-2.891587,0.6239102,1.26281,0.4679976,-1.252554,-0.04879038,2.8,0.3,-0.3491676,-0.1410635,0.3110277,-0.5983814,-4.201762,-0.4674894,0.7006726,1.508385,0.3864772,-0.160998,0.02957802,-0.2481418,-0.9833956,0.139446,-0.07415359,0.7657837,1.58527,0.202028,0.4436233,1.103659,0.2322263,301.7366,226.7056,351.0999,True
2,0.1222222,-1.097984,-0.7229772,-0.1661039,-1.406984,-4.066074,-2.877804,0.6213369,1.263935,0.4668679,-1.253588,-0.0935719,2,0.3,-0.3409563,-0.1728327,0.2882634,-0.5950381,-4.204604,-0.461557,0.70052,1.5091,0.3869233,-0.1534747,0.03380504,-0.2428864,-0.9859017,0.1398631,-0.07291735,0.7659544,1.585106,0.2023525,0.4399523,1.108594,0.2303449,300.9821,226.0381,351.9035,True
2,0.1333333,-1.141945,-0.6187547,-0.1805927,-1.403546,-4.063291,-2.864044,0.6187656,1.265124,0.4660971,-1.253225,0.03443594,2,0.3,-0.3452768,-0.1727435,0.2808439,-0.591682,-4.205382,-0.4570661,0.7003934,1.50964,0.3871245,-0.1534402,0.02849454,-0.2354208,-0.9882548,0.139865,-0.07124169,0.7660605,1.584938,0.2027011,0.4356819,1.11405,0.2290999,300.0653,225.5125,352.8846,True
2,0.1444445,-1.201953,-0.4730821,-0.2028314,-1.400295,-4.064138,-2.84873,0.6163315,1.266114,0.4651611,-1.253521,-0.02694861,1.5,0.3,-0.3517238,-0.1641094,0.272449,-0.5887088,-4.205523,-0.4527352,0.7001268,1.510358,0.3873398,-0.1469927,0.03591283,-0.2344292,-0.9909409,0.1403157,-0.07014047,0.7661973,1.584755,0.203032,0.4308978,1.119838,0.2280935,299.0444,225.17,353.8586,True
2,0.1555556,-1.252401,-0.3230705,-0.2176,-1.397798,-4.066368,-2.832601,0.6136312,1.26722,0.4643188,-1.254083,-0.05056604,1.5,0.3,-0.3634281,-0.1491049,0.2673666,-0.5856941,-4.205182,-0.4486793,0.6998627,1.51094,0.3875239,-0.136248,0.04971398,-0.2324104,-0.9934885,0.1414852,-0.06961743,0.7663059,1.584536,0.2034087,0.4258775,1.125799,0.2270234,297.9495,224.8066,354.9211,True
2,0.1666667,-1.290056,-0.1751475,-0.2280963,-1.3957,-4.069737,-2.816335,0.6113569,1.268475,0.4634871,-1.253823,0.02454114,0.9,0.4,-0.3719027,-0.1395058,0.2696589,-0.5823699,-4.204802,-0.4445319,0.6996281,1.511562,0.3877459,-0.1426386,0.05932778,-0.2398314,-0.9965096,0.1424502,-0.06840196,0.76649,1.58439,0.2036989,0.4210835,1.131811,0.2257824,296.8356,224.297,355.9821,True
2,0.1777778,-1.324498,-0.02724926,-0.2439267,-1.3938,-4.075161,-2.799535,0.608898,1.269587,0.4625616,-1.25385,-0.002230759,0.9,0.4,-0.3910513,-0.1501602,0.2771715,-0.5785792,-4.205597,-0.4388469,0.6993927,1.512114,0.3878274,-0.1362962,0.05928035,-0.246278,-0.9995397,0.1429379,-0.06742698,0.7666433,1.584196,0.2039597,0.4164714,1.137763,0.2242113,295.8051,223.7399,356.8107,True
2,0.1888889,-1.356813,0.1152722,-0.2650222,-1.392189,-4.081604,-2.781965,0.6066964,1.27077,0.4616101,-1.254541,-0.06266639,0.9,0.4,-0.4014997,-0.146069,0.2986066,-0.5742691,-4.20506,-0.4345096,0.6992819,1.512645,0.3878887,-0.1278441,0.05496575,-0.2516687,-1.002589,0.1433335,-0.06645226,0.7667665,1.583997,0.2042353,0.4120014,1.143699,0.2223679,294.9156,223.2029,357.3954,True
2,0.2,-1.395558,0.2791187,-0.284127,-1.391455,-4.090823,-2.763553,0.604346,1.271871,0.4606788,-1.255011,-0.04200213,0.6,0.5,-0.422313,-0.1347753,0.3510909,-0.5686499,-4.202445,-0.4312467,0.6990877,1.513242,0.387958,-0.1160703,0.05065712,-0.24217,-1.004994,0.1436233,-0.06568634,0.766876,1.583768,0.2044921,0.4077389,1.149714,0.220429,294.082,222.6205,357.9392,True
2,0.2111111,-1.422436,0.3780476,-0.2996519,-1.390472,-4.099043,-2.745008,0.6020012,1.273091,0.4597628,-1.254989,0.002733393,0.6,0.5,-0.4079176,-0.1290102,0.411747,-0.562066,-4.199484,-0.4296536,0.6989167,1.513802,0.3880372,-0.1203819,0.05599135,-0.2517283,-1.008125,0.144362,-0.06458618,0.7669212,1.583611,0.2047966,0.4034603,1.155834,0.2184716,293.2242,221.9693,358.505,True
2,0.2222222,-1.465398,0.5258155,-0.3314484,-1.390073,-4.110495,-2.725444,0.5995793,1.27427,0.4587941,-1.255133,-0.01293156,0.4,0.6,-0.3810339,-0.1122794,0.4319291,-0.5565906,-4.196554,-0.4290725,0.6989418,1.514012,0.3878849,-0.1192515,0.06663848,-0.2517585,-1.011004,0.1454262,-0.06393264,0.7670373,1.583381,0.2051966,0.3990564,1.16213,0.2166573,292.3503,221.3196,359.0812,True
2,0.2333333,-1.510442,0.654377,-0.3705801,-1.389811,-4.123563,-2.704893,0.5971202,1.275381,0.4577575,-1.255329,-0.01741089,0.4,0.6,-0.3741498,-0.152304,0.381415,-0.5530767,-4.199807,-0.4224186,0.6988893,1.5144,0.3879189,-0.1118335,0.07083509,-0.2592832,-1.014126,0.1461597,-0.06331772,0.7672163,1.583165,0.2054868,0.3942915,1.168669,0.215118,291.4384,220.7496,359.6461,True
2,0.2444444,-1.536194,0.7351343,-0.396632,-1.389424,-4.135692,-2.685179,0.5947158,1.276477,0.4568579,-1.255373,-0.003560495,0.3,0.5,-0.3756237,-0.1753766,0.3439073,-0.5498453,-4.20275,-0.4156624,0.6988232,1.514821,0.3881669,-0.100151,0.06543956,-0.2604379,-1.01705,0.1465127,-0.0628751,0.7673724,1.582984,0.2056937,0.3891595,1.175501,0.2139661,290.4857,220.1568,0.3948751,True
2,0.2555556,-1.571615,0.8435023,-0.4292482,-1.389927,-4.149992,-2.663893,0.5923417,1.277677,0.4557405,-1.255146,0.02107321,0.3,0.5,-0.3772672,-0.2089607,0.2903239,-0.5472413,-4.207881,-0.4070857,0.6987269,1.515106,0.3882632,-0.0917674,0.04726505,-0.2647342,-1.020048,0.1459762,-0.06186523,0.767575,1.582808,0.2059362,0.3834702,1.182662,0.2132498,289.4703,219.5771,1.259737,True
2,0.2666667,-1.601706,0.9508222,-0.4597242,-1.390891,-4.165184,-2.642572,0.5898471,1.278822,0.4545996,-1.256228,-0.09878896,0.3,0.5,-0.370356,-0.240468,0.2398783,-0.5448865,-4.213603,-0.3983671,0.6985431,1.515524,0.3883457,-0.08319987,0.05041472,-0.2616179,-1.022879,0.1465242,-0.06149106,0.767742,1.582547,0.2060659,0.377237,1.19018,0.2130817,288.3719,219.021,2.310748,True
2,0.2777778,-1.621112,1.050874,-0.4709638,-1.393124,-4.181226,-2.621313,0.5873156,1.279975,0.4536126,-1.255571,0.06123989,1,0.5,-0.3886102,-0.2445265,0.2229725,-0.5417109,-4.217264,-0.3905331,0.6984011,1.515639,0.3881385,-0.08525321,0.06108306,-0.2605575,-1.025827,0.1475422,-0.06109025,0.767929,1.582356,0.2063532,0.3707489,1.197998,0.2135414,287.1712,218.4515,3.619044,True
2,0.2888889,-1.640524,1.14021,-0.482147,-1.395953,-4.197554,-2.599485,0.5847691,1.281194,0.4524205,-1.255992,-0.03881172,1,0.5,-0.420439,-0.2605982,0.2433404,-0.5372453,-4.220882,-0.3818281,0.6981632,1.516033,0.3880672,-0.08413462,0.0781152,-0.2659119,-1.028886,0.1490192,-0.06098719,0.7681417,1.582142,0.2065849,0.3639844,1.206091,0.2144563,285.9652,218.0508,4.933884,True
2,0.3,-1.650227,1.191319,-0.4845899,-1.398843,-4.213355,-2.57819,0.5822241,1.282352,0.4512494,-1.256605,-0.05540997,2.3,0.6,-0.441648,-0.2852203,0.2635224,-0.5325332,-4.225593,-0.3722394,0.6978334,1.516523,0.3881655,-0.08307129,0.08768516,-0.272333,-1.032227,0.150286,-0.06074537,0.7683575,1.581841,0.2068162,0.3570294,1.214431,0.215735,284.7263,217.6309,6.331077,True
2,0.3111111,-1.662181,1.281883,-0.4766034,-1.40394,-4.23095,-2.556293,0.5796692,1.283519,0.4500582,-1.256435,0.01628683,2.3,0.6,-0.4830318,-0.2852518,0.2819957,-0.527879,-4.22866,-0.3629212,0.6973084,1.516932,0.3880701,-0.08424129,0.08980166,-0.2861732,-1.035858,0.1512964,-0.06027959,0.7685947,1.581642,0.2070441,0.3500257,1.222971,0.217338,283.4405,217.2822,7.691343,True
2,0.3222222,-1.660305,1.386468,-0.4473948,-1.411012,-4.249121,-2.5351,0.5769702,1.284769,0.4487698,-1.257097,-0.06047399,3.4,0.5,-0.5321761,-0.2774525,0.2622621,-0.5247163,-4.232527,-0.3521591,0.6967394,1.517263,0.3878319,-0.09064455,0.0908982,-0.2882513,-1.039151,0.1522602,-0.05955094,0.7687435,1.581512,0.2070541,0.3430692,1.23166,0.2191202,282.1363,216.8913,9.167381,True
2,0.3333333,-1.652017,1.467645,-0.4105765,-1.419126,-4.266666,-2.514259,0.5744254,1.285907,0.447468,-1.257067,0.003319567,3.4,0.5,-0.5779943,-0.2623187,0.2553457,-0.5215199,-4.235462,-0.3417635,0.6960814,1.517803,0.3876774,-0.1002392,0.09413627,-0.2913747,-1.042548,0.153277,-0.05864068,0.7688518,1.581255,0.2072029,0.336337,1.240417,0.2209894,280.8124,216.1909,10.91759,True
2,0.3444445,-1.647858,1.511474,-0.3947868,-1.427445,-4.283782,-2.493536,0.5717396,1.287217,0.4467669,-1.257964,-0.08176515,4.8,0.3,-0.5991577,-0.2549279,0.2694342,-0.5174756,-4.238226,-0.3321532,0.6954314,1.51831,0.3876584,-0.1045346,0.09840719,-0.2977383,-1.046109,0.1544302,-0.05787635,0.7690406,1.581031,0.2074239,0.3297486,1.249244,0.2228719,279.515,215.7553,12.27465,True
2,0.3555556,-1.63946,1.563832,-0.372745,-1.436224,-4.301203,-2.473298,0.5689337,1.288321,0.4451911,-1.258333,-0.03284892,4.8,0.3,-0.6264411,-0.2371136,0.3103262,-0.5122463,-4.238906,-0.3236569,0.6945308,1.51886,0.3874454,-0.1150493,0.1197821,-0.2955604,-1.049466,0.1566537,-0.05740071,0.7691557,1.580859,0.2075996,0.3232837,1.258141,0.2247879,278.1926,215.6195,13.27543,True
2,0.3666667,-1.64057,1.5777,-0.3674994,-1.444389,-4.317626,-2.453131,0.5662528,1.289531,0.4439538,-1.25837,-0.003078798,4.8,0.3,-0.6442134,-0.2031913,0.3363598,-0.5078563,-4.237909,-0.3169564,0.6936349,1.51954,0.3874638,-0.1244774,0.1336966,-0.2859246,-1.052454,0.1585758,-0.05668911,0.7692763,1.580642,0.2077451,0.3171239,1.267024,0.2268317,276.8561,215.2323,14.47332,True
2,0.3777778,-1.625781,1.61195,-0.3389347,-1.454278,-4.333835,-2.433856,0.5635157,1.290792,0.4424851,-1.258814,-0.04060456,6.7,0.3,-0.6813452,-0.1775727,0.344385,-0.5036922,-4.237242,-0.3086804,0.6925461,1.520188,0.3872833,-0.136916,0.1604408,-0.2624339,-1.054726,0.1614473,-0.05621533,0.7693834,1.58044,0.2078586,0.3112112,1.275864,0.2290355,275.5374,214.0567,16.40154,True
2,0.3888889,-1.599184,1.607915,-0.3058721,-1.464064,-4.348656,-2.415368,0.5607687,1.292206,0.441123,-1.2587,0.01068364,6.7,0.3,-0.6994957,-0.166768,0.3371783,-0.5001486,-4.238121,-0.2995249,0.6915965,1.520836,0.3870749,-0.1538148,0.1744022,-0.2548586,-1.057411,0.1640643,-0.05532344,0.7695519,1.580285,0.2079635,0.3053471,1.284625,0.2312691,274.1914,211.5337,19.76601,True
2,0.4,-1.568267,1.5985,-0.2887751,-1.473594,-4.363406,-2.397601,0.5578707,1.293639,0.439779,-1.259408,-0.06477906,8.5,0.3,-0.7283863,-0.1836338,0.3297999,-0.4962343,-4.241131,-0.2878946,0.6905644,1.521564,0.3866918,-0.1708447,0.1776926,-0.2547209,-1.060315,0.1661943,-0.05390931,0.769694,1.580083,0.2080455,0.2996778,1.293242,0.2335816,272.9336,206.808,25.32394,True
2,0.4111111,-1.541569,1.569867,-0.2757914,-1.483013,-4.377234,-2.380261,0.5550453,1.295086,0.4384365,-1.259929,-0.04699047,8.5,0.3,-0.7655365,-0.2093239,0.3554406,-0.4907796,-4.244955,-0.2748742,0.6895212,1.522289,0.386312,-0.1847755,0.1841428,-0.2684647,-1.063833,0.16864,-0.05261634,0.7698356,1.579938,0.2080526,0.2941913,1.301725,0.2359337,271.7375,198.2797,34.6794,True
2,0.4222222,-1.502053,1.532734,-0.2681078,-1.492113,-4.390814,-2.363506,0.5521134,1.2967,0.4371822,-1.260434,-0.04582835,10.4,0.5,-0.7664131,-0.233042,0.386112,-0.4847475,-4.248785,-0.2629017,0.6884302,1.523087,0.3859992,-0.1933506,0.1916244,-0.2801306,-1.067546,0.1711223,-0.05141952,0.7699786,1.579654,0.2081125,0.2889465,1.310054,0.2382903,270.7517,163.7138,70.04587,True
2,0.4333333,-1.449817,1.508405,-0.2551358,-1.50194,-4.404,-2.347912,0.5493144,1.29831,0.4356997,-1.260518,-0.007614956,10.4,0.5,-0.7648557,-0.2164794,0.4363297,-0.4777908,-4.248964,-0.254166,0.68712,1.524082,0.385591,-0.204136,0.1959168,-0.2992224,-1.071653,0.1736518,-0.05004186,0.7700164,1.579479,0.2080941,0.2838998,1.318202,0.2406293,271.0164,82.20216,152.2908,True
2,0.4444444,-1.408302,1.518173,-0.2402796,-1.512901,-4.417856,-2.332505,0.5465929,1.299836,0.4341836,-1.260768,-0.02294534,11.7,1,-0.7912334,-0.2038578,0.459065,-0.4714519,-4.249911,-0.2436963,0.6858376,1.524939,0.3849206,-0.2063439,0.2022943,-0.313068,-1.075797,0.1762302,-0.04891162,0.7700859,1.579306,0.2080462,0.2790597,1.326144,0.2429586,272.0248,62.26155,172.9069,True
2,0.4555556,-1.338137,1.569629,-0.213926,-1.526023,-4.43244,-2.319185,0.5441908,1.301399,0.4325976,-1.261561,-0.07241642,11.7,1,-0.8234713,-0.2248264,0.4356867,-0.4668964,-4.254992,-0.2288135,0.6844028,1.526208,0.3845012,-0.2424351,0.1971997,-0.2935756,-1.078419,0.178294,-0.04596483,0.7700613,1.579167,0.2079632,0.274354,1.333908,0.2452846,273.0486,56.17438,179.6346,True
2,0.4666667,-1.254104,1.628752,-0.1630928,-1.540735,-4.446211,-2.307817,0.5417101,1.302857,0.431329,-1.261455,0.01009999,11.7,1,-0.8567953,-0.2511138,0.4112206,-0.462435,-4.261073,-0.2128654,0.682863,1.527474,0.383997,-0.2761841,0.2240679,-0.2709634,-1.080827,0.1820219,-0.04368277,0.7700652,1.579073,0.2079129,0.2698005,1.341478,0.247634,274.0788,52.65006,183.8134,True
2,0.4777778,-1.165808,1.672896,-0.120707,-1.555787,-4.459867,-2.297287,0.5391883,1.304417,0.4299967,-1.263029,-0.1442922,12.7,2.1,-0.8707516,-0.263787,0.4005957,-0.4573537,-4.266941,-0.1975994,0.6813498,1.528641,0.3834133,-0.2961492,0.23701,-0.2463167,-1.082962,0.1854146,-0.04134345,0.7700896,1.578933,0.2079027,0.2653754,1.348864,0.2500839,275.0771,49.71273,187.3816,True
2,0.4888889,-1.098679,1.663708,-0.07905948,-1.569891,-4.471539,-2.287264,0.5364591,1.305912,0.428652,-1.264436,-0.1276153,12.7,2.1,-0.8625019,-0.2314449,0.3571427,-0.4546809,-4.269142,-0.1863627,0.6794389,1.529952,0.3827674,-0.3193615,0.2372047,-0.2194927,-1.084696,0.1885055,-0.03850931,0.7700921,1.578899,0.2077801,0.2611578,1.356015,0.2528029,276.0928,46.95899,190.7286,True
2,0.5,-1.046297,1.595789,-0.05841696,4.701687,-4.481681,-2.277355,0.533725,1.307532,0.427367,-1.264579,-0.01243079,13.7,7,-0.9003216,-0.1772726,0.274874,-0.4547268,-4.269465,-0.1749071,0.6773542,1.531406,0.382241,-0.349066,0.2469714,-0.2107418,-1.086967,0.1917792,-0.03520432,0.7700911,1.578768,0.2076249,0.2570786,1.362841,0.2558846,277.1794,44.50677,193.7795,True
2,0.5111111,-1.015204,1.525629,-0.04517305,4.690393,-4.491077,-2.267495,0.5307739,1.309199,0.4260001,-1.264188,0.03516707,13.7,7,-0.9225737,-0.1013898,0.2587491,-0.4527273,-4.265245,-0.1677272,0.6751101,1.532831,0.3814421,-0.3712491,0.2620361,-0.1988596,-1.088909,0.1956142,-0.03220561,0.770022,1.578765,0.2074134,0.2529443,1.3693,0.2592711,278.2827,42.58992,196.4265,True
2,0.5222223,-0.9637613,1.39793,-0.04226595,4.681798,-4.498628,-2.258519,0.527767,1.31094,0.4246969,-1.263482,0.06377863,14.2,11.1,-0.9455603,-0.01944816,0.2789016,-0.4495166,-4.258277,-0.1627554,0.6728776,1.534348,0.3806126,-0.3689483,0.2641895,-0.1797081,-1.090434,0.1989773,-0.02972674,0.7699453,1.578674,0.2072783,0.2487206,1.375329,0.262769,279.3433,41.23473,198.6868,True
2,0.5333334,-0.9111871,1.25633,-0.04992449,4.675068,-4.505036,-2.250506,0.5247678,1.312768,0.4232774,-1.26279,0.06229488,14.2,11.1,-0.9801389,0.04205489,0.321327,-0.4451666,-4.250807,-0.1574895,0.670786,1.535765,0.3797615,-0.3868996,0.2653846,-0.1603746,-1.091581,0.2022386,-0.02625238,0.7696945,1.578619,0.2070789,0.2444693,1.38092,0.2661141,280.2524,40.34584,200.5479,True
2,0.5444446,-0.8779206,1.158331,-0.06209677,4.66812,-4.511856,-2.242131,0.5217727,1.314679,0.4220114,-1.263058,-0.02531348,14.2,11.1,-1.01229,0.1149879,0.3936917,-0.4390211,-4.239677,-0.1552785,0.6689231,1.537011,0.3785279,-0.3942298,0.263333,-0.1443291,-1.092733,0.2054907,-0.02321051,0.7697225,1.578621,0.2068529,0.240196,1.38617,0.2690791,281.0209,39.5228,202.2878,True
2,0.5555557,-0.815747,1.012442,-0.08035898,4.663672,-4.517014,-2.235497,0.5187948,1.316624,0.4206727,-1.263528,-0.04311349,15,18.3,-1.00797,0.1105644,0.4010732,-0.4344085,-4.236633,-0.1474089,0.6671332,1.538072,0.3772979,-0.3994845,0.2665704,-0.1378989,-1.094097,0.208917,-0.02018223,0.7696538,1.578614,0.2066736,0.2361096,1.391085,0.2714682,281.6689,39.13331,203.5056,True
2,0.5666668,-0.7804308,0.9571098,-0.08532578,4.65727,-4.523226,-2.228574,0.5158165,1.318401,0.419426,-1.262636,0.08156991,15,18.3,-1.019832,0.0658648,0.4007437,-0.4299918,-4.236987,-0.1355821,0.665499,1.539134,0.3762431,-0.4003994,0.2666054,-0.1197845,-1.094882,0.212116,-0.01720003,0.76963,1.57862,0.2063754,0.2323144,1.395685,0.2731389,282.1984,39.12915,204.1279,True
2,0.577778,-0.7312481,0.8826659,-0.08485904,4.651907,-4.528347,-2.222464,0.5127764,1.320205,0.4184327,-1.263791,-0.1067369,15.3,23.2,-1.004369,0.007574677,0.3638144,-0.4272025,-4.240531,-0.1218375,0.6639879,1.540122,0.375464,-0.3886197,0.2782573,-0.1199076,-1.096341,0.2159513,-0.01505245,0.7695432,1.578548,0.2061999,0.2287573,1.400095,0.2741387,282.5982,39.15105,204.4596,True
2,0.5888891,-0.6809714,0.8018197,-0.08542612,4.647552,-4.532794,-2.217031,0.5098774,1.32207,0.4173045,-1.263028,0.07039925,15.3,23.2,-0.9716431,-0.01465631,0.3377469,-0.4242911,-4.241716,-0.1112131,0.662487,1.541006,0.3745379,-0.3736535,0.2930731,-0.1232595,-1.097907,0.2200045,-0.01324177,0.769338,1.57842,0.2059982,0.2254911,1.404306,0.27455,282.9566,39.6232,204.1417,True
2,0.6000003,-0.6434866,0.7219965,-0.08920255,4.643669,-4.536995,-2.211295,0.5067704,1.323914,0.4163108,-1.263235,-0.02000078,15.6,28,-0.9202201,-0.08024657,0.2727309,-0.4233004,-4.248816,-0.09644478,0.6611094,1.541798,0.373734,-0.3629991,0.2930102,-0.122287,-1.099287,0.2235318,-0.01110059,0.7691536,1.578454,0.2057624,0.2223424,1.408388,0.2746201,283.291,39.97409,203.7148,True
2,0.6111114,-0.6144638,0.6197505,-0.09819323,4.641443,-4.540319,-2.205668,0.503799,1.325577,0.4152508,-1.263437,-0.01863645,15.6,28,-0.8779581,-0.1067153,0.2412125,-0.4216349,-4.253281,-0.08429491,0.6594918,1.542463,0.3729215,-0.3416867,0.2833244,-0.1160552,-1.100369,0.2267216,-0.009636648,0.7688545,1.578407,0.2055497,0.2192726,1.412344,0.2745847,283.6099,40.35329,203.2289,True
2,0.6222225,-0.6004698,0.5611888,-0.09891111,4.638447,-4.543879,-2.199636,0.5007873,1.327357,0.4142261,-1.262631,0.07343107,15.6,28,-0.8058833,-0.1258227,0.2031304,-0.4203139,-4.258602,-0.07345664,0.6582421,1.542789,0.3717928,-0.3183495,0.2789109,-0.1247675,-1.102102,0.2299296,-0.008279768,0.7686025,1.578275,0.2052331,0.2162559,1.416154,0.274562,283.9195,40.8792,202.6859,True
2,0.6333337,-0.5800021,0.4749483,-0.101597,4.637053,-4.546378,-2.19411,0.4978786,1.329065,0.4132426,-1.262231,0.03561438,15.2,38.1,-0.7453707,-0.1514306,0.1874375,-0.4186644,-4.263883,-0.06232782,0.6567022,1.543722,0.3710225,-0.289672,0.275528,-0.131391,-1.103764,0.2331167,-0.007306915,0.7682518,1.578225,0.2050271,0.2131886,1.419839,0.2746266,284.2296,41.49456,202.1356,True
2,0.6444448,-0.5681607,0.4248641,-0.1066186,4.635255,-4.54918,-2.188463,0.4950204,1.33084,0.4123557,-1.261376,0.07757987,15.2,38.1,-0.6718997,-0.1804991,0.1804478,-0.41621,-4.270052,-0.0507745,0.6552729,1.544352,0.3701577,-0.2790791,0.2775833,-0.1400062,-1.105639,0.2366233,-0.006158826,0.7679586,1.578162,0.2047939,0.210147,1.423349,0.2747843,284.5308,42.13603,201.6429,True
2,0.655556,-0.5391515,0.3268529,-0.117757,4.635774,-4.550762,-2.183616,0.492522,1.332228,0.4113576,-1.261533,-0.01518912,14.9,45.8,-0.6380773,-0.1899295,0.1669656,-0.4151133,-4.276101,-0.03992105,0.6537834,1.545089,0.3693018,-0.2726828,0.2786023,-0.1400587,-1.107128,0.2399694,-0.004820055,0.7676804,1.578123,0.2044647,0.2070762,1.426777,0.2750413,284.7921,42.49444,201.4738,True
2,0.6666671,-0.5177248,0.2821831,-0.1142776,4.634898,-4.552642,-2.17876,0.4899597,1.333713,0.4103894,-1.261116,0.03807218,14.9,45.8,-0.610404,-0.176097,0.159398,-0.4135362,-4.279806,-0.03047562,0.6522954,1.545721,0.3683851,-0.2596988,0.2732526,-0.1124614,-1.107484,0.2432131,-0.003747866,0.7673442,1.578062,0.2041295,0.2041136,1.430105,0.2753481,285.0312,42.90111,201.3033,True
2,0.6777782,-0.4728991,0.2460985,-0.110857,4.634036,-4.554556,-2.174989,0.4877372,1.335046,0.4096074,-1.261664,-0.05060052,14.2,59.3,-0.5929976,-0.136986,0.1873081,-0.4106062,-4.280058,-0.02395061,0.6506867,1.54639,0.3674667,-0.2585706,0.2700699,-0.1018108,-1.108338,0.2465014,-0.002223207,0.7668661,1.577999,0.2038822,0.2013449,1.433339,0.2756692,285.2771,43.37922,201.0917,True
2,0.6888894,-0.4164403,0.2484044,-0.1044594,4.632128,-4.556983,-2.17243,0.4856285,1.336254,0.4087286,-1.261393,0.02493456,14.2,59.3,-0.580865,-0.1021827,0.2216242,-0.4070098,-4.27974,-0.01814119,0.6493441,1.547069,0.3665359,-0.2638874,0.2764804,-0.1049816,-1.109709,0.2501865,-0.0007195861,0.7664561,1.577914,0.2036388,0.198983,1.43633,0.2758809,285.573,44.16306,200.6005,True
2,0.7000005,-0.3738115,0.2411628,-0.08735467,4.630117,-4.558822,-2.169664,0.4837225,1.33747,0.4078782,-1.262108,-0.06576975,13.7,59.9,-0.5631106,-0.05169037,0.2847967,-0.4018241,-4.276457,-0.01536644,0.6478976,1.547721,0.3656871,-0.2649531,0.2743586,-0.1039054,-1.110876,0.2535557,0.0007997472,0.765884,1.577889,0.2033741,0.1968399,1.439169,0.2759227,285.8512,44.74015,200.1924,True
2,0.7111117,-0.3333848,0.269176,-0.05235611,4.626574,-4.560635,-2.167519,0.4819375,1.338351,0.4069524,-1.262971,-0.07861215,13.7,59.9,-0.5338075,-0.02886742,0.3380304,-0.3963662,-4.275596,-0.0112191,0.646739,1.548255,0.3646035,-0.2671939,0.2700804,-0.1145273,-1.112394,0.2566508,0.002412558,0.7653342,1.577806,0.2031515,0.1949416,1.44179,0.2758455,286.1085,45.25047,199.7368,True
2,0.7222228,-0.3035589,0.2789569,-0.03322776,4.623556,-4.562409,-2.165434,0.4800589,1.339472,0.4059446,-1.262447,0.04820375,13.7,59.9,-0.5037872,-0.04629236,0.3674305,-0.3913835,-4.278209,-0.004185956,0.645631,1.549098,0.3637133,-0.2640959,0.2519549,-0.1134513,-1.113582,0.259115,0.004194212,0.7648222,1.57782,0.2028682,0.1931744,1.444152,0.2757187,286.3738,45.63354,199.3639,True
2,0.7333339,-0.268476,0.3079276,-0.01208517,4.619603,-4.564382,-2.163874,0.4789301,1.340108,0.4048209,-1.262547,-0.009924373,13.4,67.5,-0.4983824,-0.08061075,0.38943,-0.3863373,-4.283652,0.006127401,0.6444658,1.549887,0.3628585,-0.2569138,0.2167413,-0.123031,-1.115209,0.2604429,0.006159625,0.7643053,1.577754,0.2025466,0.1914698,1.446248,0.2755768,286.6063,45.73894,199.2812,True
2,0.7444451,-0.2377234,0.369909,0.006744176,4.614076,-4.567308,-2.162533,0.4778811,1.340643,0.4036918,-1.261705,0.07614963,13.4,67.5,-0.4760744,-0.09449866,0.3891019,-0.3822355,-4.287127,0.01416509,0.6432226,1.550687,0.3621879,-0.2562301,0.1772838,-0.1421366,-1.117326,0.2612734,0.00864036,0.7637035,1.577632,0.2022374,0.1897354,1.448074,0.2754389,286.8559,45.59182,199.4926,True
2,0.7555562,-0.2145049,0.4605878,0.01900405,4.607088,-4.571312,-2.161318,0.4770901,1.34088,0.4025984,-1.26077,0.08344755,13.5,69.6,-0.4369377,-0.07722905,0.3473939,-0.3796709,-4.288585,0.01875212,0.6420009,1.551227,0.3612549,-0.2659599,0.1645384,-0.1505541,-1.119269,0.2628311,0.01123268,0.7631754,1.577566,0.2019455,0.1879307,1.449625,0.2752819,287.0505,45.3017,199.9118,True
2,0.7666674,-0.2071611,0.5043644,0.03260402,4.600899,-4.574522,-2.15945,0.4761454,1.341235,0.4017246,-1.258973,0.161899,13.5,69.6,-0.4273287,-0.01313797,0.3266111,-0.3767553,-4.283204,0.01829618,0.6407112,1.551861,0.3604145,-0.2648664,0.1687835,-0.1495021,-1.12078,0.2650595,0.01317705,0.7626799,1.577616,0.2016995,0.1863695,1.450699,0.2751567,287.2158,44.83135,200.5116,True
2,0.7777785,-0.1943942,0.5108548,0.04428655,4.595538,-4.577041,-2.158012,0.4752541,1.341466,0.4010265,-1.256553,0.2178174,12.9,88.1,-0.4101414,0.03688824,0.323752,-0.3730892,-4.278262,0.01768525,0.6395732,1.552388,0.359539,-0.2528629,0.1804846,-0.1240598,-1.12128,0.2677404,0.01430863,0.762126,1.577559,0.2014019,0.1849119,1.451348,0.275153,287.3557,44.10289,201.3039,True
2,0.7888896,-0.1761048,0.440573,0.04256868,4.593364,-4.577997,-2.156911,0.4741888,1.34191,0.4004259,-1.253047,0.3163864,12.9,88.1,-0.3919705,0.04851592,0.3268905,-0.3694406,-4.276132,0.01943575,0.6385095,1.552966,0.3587303,-0.2452017,0.1815532,-0.1006865,-1.121519,0.2700309,0.0157478,0.761444,1.577504,0.2011452,0.1834259,1.451625,0.2754062,287.4736,43.16604,202.2934,True
2,0.8000008,-0.1491413,0.2977841,0.02640554,4.594192,-4.577101,-2.156011,0.4731095,1.342504,0.4005277,-1.250144,0.2601863,12.9,88.1,-0.3687166,0.03582531,0.3105941,-0.3666257,-4.276344,0.02301238,0.6374574,1.553548,0.3581064,-0.2268258,0.1751247,-0.06353913,-1.120901,0.2718668,0.01695528,0.7608778,1.577483,0.2008779,0.1817434,1.451683,0.2759326,287.5318,42.10862,203.4946,True
2,0.8111119,-0.1254333,0.1912135,0.009983994,4.59558,-4.57663,-2.155533,0.4719791,1.343197,0.3999732,-1.246863,0.2948425,13.5,88.3,-0.3223986,0.01274781,0.2556358,-0.36588,-4.278731,0.02713122,0.6365286,1.553864,0.3575132,-0.2182671,0.1772061,-0.06042496,-1.121535,0.2740357,0.01819365,0.7604007,1.57751,0.2006321,0.1799393,1.451539,0.2766409,287.5787,41.14871,204.7569,True
2,0.8222231,-0.09744801,0.07712108,-0.01814657,4.598924,-4.576149,-2.1554,0.4708745,1.343685,0.3995199,-1.242984,0.3489285,13.5,88.3,-0.2836227,-0.01021704,0.1900969,-0.3660568,-4.281824,0.03180001,0.6355947,1.553972,0.357003,-0.1991494,0.1781482,-0.06804478,-1.122545,0.2762367,0.01881363,0.7598821,1.577495,0.2004805,0.1780969,1.451189,0.2772754,287.5564,40.50233,205.7983,True
2,0.8333342,-0.07172384,0.01525339,-0.04228342,4.601102,-4.576151,-2.155548,0.469858,1.344224,0.3990679,-1.23848,0.4051549,13.4,95.5,-0.259485,-0.002416074,0.1452109,-0.3660707,-4.281245,0.03330523,0.6346676,1.554121,0.3564639,-0.1810372,0.185501,-0.07247445,-1.123501,0.2788751,0.01908874,0.7594683,1.577406,0.2003388,0.1763218,1.450605,0.2775893,287.4401,40.0945,206.5583,True
2,0.8444453,-0.05677569,0.001397535,-0.0496591,4.601957,-4.576559,-2.155483,0.4687664,1.344671,0.3986166,-1.233325,0.463735,13.4,95.5,-0.2372231,0.01257011,0.1249348,-0.364974,-4.280611,0.03438514,0.6337825,1.554385,0.3558185,-0.1724772,0.1918449,-0.0714907,-1.124188,0.2814779,0.01970127,0.7589824,1.577332,0.2000766,0.1745457,1.449802,0.2773512,287.2986,39.877,207.0841,True
2,0.8555565,-0.03548876,0.006838573,-0.03903837,4.601449,-4.576913,-2.155731,0.4678842,1.34501,0.3983028,-1.227506,0.5235729,11,99.9,-0.2307478,0.02101928,0.1324107,-0.3632935,-4.278836,0.03525253,0.6328405,1.55479,0.3553259,-0.1522596,0.1927887,-0.07486,-1.125129,0.2838414,0.01967091,0.7585168,1.577263,0.1998982,0.1728133,1.448659,0.2764826,287.0617,39.85059,207.2055,True
2,0.8666676,-0.01419272,0.01125718,-0.02095208,4.600886,-4.576763,-2.15628,0.4668809,1.345288,0.3980982,-1.220627,0.6196601,11,99.9,-0.2080881,0.0387817,0.1590127,-0.3606304,-4.27664,0.03469806,0.6321569,1.554961,0.3548198,-0.1415885,0.1906003,-0.07068864,-1.125761,0.2859668,0.02005067,0.7580875,1.577215,0.1996472,0.1710258,1.447183,0.2750992,286.7116,39.48856,207.3821,True
2,0.8777788,0.002878925,-0.0003177219,-0.002769674,4.600851,-4.576005,-2.156793,0.4658379,1.345751,0.3978469,-1.213786,0.6150759,8.8,99.8,-0.184726,0.01747912,0.1512299,-0.3589845,-4.277361,0.03695402,0.6314696,1.555103,0.3542469,-0.1394842,0.1810069,-0.06749256,-1.126354,0.2878198,0.0207162,0.7576109,1.577165,0.1994131,0.1690995,1.445413,0.2734432,286.2696,38.56996,207.9251,True
2,0.8888899,0.009334266,-0.02585521,0.0005796151,4.601786,-4.575166,-2.157011,0.4648144,1.346218,0.3975451,-1.206497,0.6557546,8.8,99.8,-0.1658258,-0.00697463,0.1358436,-0.3581792,-4.281585,0.04195411,0.6307625,1.55527,0.3537643,-0.1214059,0.156427,-0.05480613,-1.126397,0.2887371,0.02105628,0.75705,1.577035,0.1991081,0.1671175,1.443348,0.2717906,285.7912,37.18743,208.8903,True
2,0.900001,0.01906146,-0.08341841,-0.00974087,4.604563,-4.57388,-2.157433,0.4638526,1.346782,0.3972275,-1.198383,0.7304822,8.8,99.8,-0.1544668,-0.03975046,0.1066498,-0.3583251,-4.285926,0.04740826,0.6301278,1.555567,0.3535147,-0.1077116,0.1265243,-0.05487238,-1.127074,0.2891552,0.02144963,0.7565411,1.577022,0.1988895,0.1650436,1.441037,0.2702983,285.3225,35.56271,210.2021,True
2,0.9111122,0.02344861,-0.1346299,-0.02542534,4.607674,-4.572871,-2.15772,0.4630809,1.347359,0.3968444,-1.189376,0.8110764,6.9,99.8,-0.1492343,-0.04502336,0.09697105,-0.3574601,-4.288411,0.05122111,0.6293933,1.555733,0.3530641,-0.1003828,0.1073031,-0.05596359,-1.127737,0.2898084,0.02224405,0.7560966,1.576965,0.1986928,0.1628606,1.438549,0.2689877,284.8578,33.79547,211.8327,True
2,0.9222233,0.02243111,-0.1538771,-0.0380998,4.610025,-4.572363,-2.157872,0.4623192,1.347726,0.3965042,-1.180415,0.8059255,6.9,99.8,-0.1439994,-0.03425056,0.08316748,-0.3571741,-4.288308,0.05259903,0.628682,1.555871,0.3526657,-0.09507915,0.1125911,-0.06240885,-1.128607,0.2914939,0.02239425,0.7555748,1.576949,0.1985273,0.1606324,1.435914,0.267808,284.3774,32.047,213.5916,True
2,0.9333345,0.01175004,-0.1400724,-0.04137329,4.611181,-4.572223,-2.157729,0.461557,1.347987,0.3961511,-1.170697,0.8749903,5.3,100,-0.1406308,-0.004538372,0.09302188,-0.3555858,-4.28596,0.05194869,0.6278838,1.556076,0.3523216,-0.09083866,0.1125597,-0.06456927,-1.129308,0.2929248,0.02267229,0.7549536,1.576917,0.1984167,0.1584881,1.433126,0.2666613,283.8624,30.40584,215.3162,True
2,0.9444456,0.003154396,-0.1091277,-0.02876413,4.61124,-4.571959,-2.157495,0.4608359,1.3481,0.3958647,-1.160451,0.9223483,5.3,100,-0.1277985,0.01779851,0.09206437,-0.3544428,-4.283582,0.05091591,0.6272567,1.556269,0.3518891,-0.09827518,0.1147343,-0.0634448,-1.129932,0.2944464,0.02339907,0.7544014,1.576859,0.1982138,0.1564956,1.430191,0.2654946,283.3413,28.71034,217.0516,True
2,0.9555568,-0.006493083,-0.08458197,-0.01718767,4.611219,-4.571734,-2.157082,0.4600814,1.348277,0.3955832,-1.149671,0.9705679,4.7,99.9,-0.1118663,0.02635312,0.0834861,-0.3537807,-4.281949,0.05007542,0.6265689,1.556462,0.3515155,-0.09813544,0.1264623,-0.05387718,-1.130108,0.2963847,0.02373995,0.753937,1.57681,0.1981452,0.1545857,1.427138,0.2643345,282.8747,26.81068,218.8893,True
2,0.9666679,-0.01720465,-0.06000387,-0.0002861395,4.610793,-4.571416,-2.156526,0.4593691,1.348412,0.3953307,-1.138674,0.9895411,4.7,99.9,-0.0874362,0.02207614,0.07683777,-0.353247,-4.282003,0.05029007,0.6259506,1.556619,0.3511579,-0.09702802,0.1339017,-0.05390915,-1.130773,0.2981543,0.02399375,0.7533785,1.576726,0.1979494,0.1526656,1.424005,0.2632417,282.4836,24.52445,221.0599,True
2,0.977779,-0.02359198,-0.06210069,0.008247936,4.611232,-4.570673,-2.155972,0.4587302,1.348587,0.3951082,-1.127191,1.03364,4.7,99.9,-0.0746934,0.01460142,0.07558626,-0.3525061,-4.281975,0.0507982,0.6253205,1.556692,0.3506815,-0.09913197,0.1232781,-0.04428716,-1.130988,0.2992663,0.02463957,0.7528533,1.576724,0.197783,0.1507147,1.420797,0.2622596,282.1644,21.87138,223.621,True
2,0.9888902,-0.02782608,-0.07384519,0.005120412,4.612345,-4.570035,-2.155466,0.4581276,1.348789,0.394815,-1.115387,1.062471,4,99.9,-0.07468741,0.01031033,0.07661556,-0.3515005,-4.282967,0.05244536,0.6247318,1.556625,0.3503852,-0.09492828,0.107278,-0.04003169,-1.131263,0.299898,0.02534104,0.7523547,1.576725,0.1975739,0.1487084,1.417539,0.2613834,281.8707,18.95919,226.5015,True
2,1.000001,-0.02886041,-0.08665559,0.0009328499,4.613625,-4.569359,-2.155056,0.4575407,1.348975,0.3945503,-1.103329,1.085112,4,99.9,-0.07371065,0.02321594,0.06075564,-0.351207,-4.281964,0.05214683,0.6241847,1.556397,0.3496597,-0.08643244,0.09871714,-0.03795553,-1.131582,0.3008407,0.02555916,0.7518171,1.576679,0.1974237,0.1467196,1.414216,0.2605951,281.6092,15.87045,229.6137,True
2,1.011112,-0.03525215,-0.08989158,-0.003311161,4.614651,-4.568937,-2.154301,0.4569368,1.34912,0.3942523,-1.090876,1.120768,3.6,99.9,-0.06304888,0.02849489,0.06072653,-0.3503436,-4.281075,0.05175374,0.6234803,1.556343,0.3494191,-0.08549394,0.09336264,-0.04860362,-1.132437,0.3017915,0.0261621,0.751309,1.576599,0.1972926,0.144835,1.410797,0.2598239,281.3538,12.7952,232.7666,True
2,1.022224,-0.04270408,-0.09201451,0.002030812,4.615456,-4.568049,-2.153503,0.4562981,1.349242,0.3939898,-1.078123,1.147655,3.6,99.9,-0.05132791,0.03057588,0.05852107,-0.3496123,-4.281375,0.05193377,0.622997,1.556212,0.3488317,-0.08225882,0.09335001,-0.0432957,-1.132584,0.3028881,0.02660125,0.7508131,1.576581,0.1971116,0.1430599,1.407259,0.258993,281.0914,9.733163,235.905,True
2,1.033335,-0.0448113,-0.1016316,-0.002175227,4.616758,-4.567396,-2.152862,0.4557164,1.349384,0.3938055,-1.064605,1.217137,3.3,97.6,-0.0387161,0.01040726,0.04648981,-0.3496746,-4.283392,0.05401423,0.6225998,1.556307,0.348999,-0.07477245,0.09544345,-0.04123209,-1.132948,0.3041333,0.02667715,0.7502608,1.576528,0.1969547,0.14136,1.403582,0.2580649,280.8459,6.522751,239.1352,True
2,1.044446,-0.04799605,-0.1059435,-0.009605289,4.618028,-4.566926,-2.152205,0.4552087,1.349523,0.3934979,-1.051166,1.209302,3.3,97.6,-0.04826217,0.006123913,0.05292665,-0.3487995,-4.283224,0.05476897,0.6222166,1.556314,0.3486278,-0.07476625,0.09544105,-0.04016962,-1.133366,0.3052672,0.02707662,0.7497956,1.576436,0.1968136,0.139658,1.399777,0.2570366,280.64,2.908895,242.7118,True
2,1.055557,-0.0469588,-0.0942352,-0.01180332,4.618672,-4.566743,-2.151696,0.4546688,1.349631,0.393261,-1.037685,1.213082,3.2,100,-0.04939656,-0.00234133,0.04858651,-0.3485343,-4.283698,0.05591759,0.621717,1.556446,0.3485069,-0.07365515,0.08906139,-0.03057906,-1.133356,0.3060989,0.02749128,0.749275,1.576375,0.1966305,0.1379589,1.395855,0.2559147,280.4744,358.8987,246.6563,True
2,1.066668,-0.04804542,-0.0836019,-0.01399487,4.619287,-4.566573,-2.151174,0.4540766,1.349738,0.3929026,-1.023729,1.256149,3.2,100,-0.04844571,-0.01395199,0.03888447,-0.3483473,-4.284495,0.05710616,0.6211151,1.556413,0.3481586,-0.06403632,0.08049857,-0.02106178,-1.133342,0.3066421,0.02766944,0.7488432,1.576269,0.1964564,0.136315,1.391799,0.2547323,280.3188,354.6534,250.8204,True
2,1.077779,-0.04380963,-0.07296344,-0.01831716,4.619842,-4.566625,-2.150835,0.4534611,1.349829,0.3927178,-1.00961,1.27053,3.2,100,-0.04959851,-0.009574015,0.02826761,-0.3486014,-4.28401,0.05736875,0.6205443,1.556552,0.3480072,-0.06616337,0.08583485,-0.02424793,-1.133697,0.3079629,0.02789155,0.7483454,1.576214,0.1962852,0.134734,1.38761,0.2535308,280.2137,350.1606,255.2158,True
2,1.08889,-0.04381283,-0.07190672,-0.02045378,4.620635,-4.566462,-2.15032,0.4528991,1.349905,0.3925281,-0.9951173,1.30446,2.5,100,-0.04105821,0.001083754,0.02616673,-0.3483122,-4.28242,0.05599989,0.6198935,1.556666,0.3476315,-0.06943201,0.08796755,-0.03381256,-1.134349,0.309197,0.02831819,0.7478139,1.576211,0.1960866,0.1331622,1.383308,0.2523702,280.2072,345.5264,259.7429,True
2,1.100002,-0.03956432,-0.06658237,-0.02261485,4.621245,-4.566439,-2.150046,0.4522496,1.35002,0.3923657,-0.9805616,1.309781,2.5,100,-0.03466771,-0.003209334,0.02819076,-0.3481002,-4.282772,0.0565959,0.6193171,1.556819,0.3473892,-0.05557288,0.08150745,-0.02859304,-1.13451,0.309918,0.02815574,0.7473011,1.576148,0.1959281,0.1315563,1.378904,0.2512759,280.2834,340.867,264.3198,True
2,1.111113,-0.03105562,-0.06230099,-0.02263466,4.621781,-4.56626,-2.149935,0.4517159,1.3501,0.3922186,-0.965519,1.354137,2.2,94.8,-0.03039076,-0.001076594,0.02817422,-0.3477817,-4.282075,0.05602199,0.6186263,1.556893,0.3469839,-0.06743644,0.08897983,-0.04981273,-1.135712,0.311146,0.02886361,0.7467389,1.57615,0.1956985,0.1299519,1.374384,0.2503005,280.4207,336.2444,268.8673,True
2,1.122224,-0.01508332,-0.05694145,-0.02373191,4.622303,-4.566281,-2.150393,0.4511337,1.350315,0.3919959,-0.9506643,1.336488,2.2,94.8,-0.03575351,-0.002085375,0.02500905,-0.3477082,-4.281864,0.05647659,0.618074,1.556991,0.3466625,-0.08023675,0.09223823,-0.05397277,-1.136421,0.3124156,0.02966096,0.7462027,1.576119,0.1955049,0.1283829,1.369754,0.2494574,280.6338,331.6539,273.4223,True
2,1.133335,-0.005497852,-0.05589603,-0.03119462,4.623105,-4.566466,-2.150668,0.4505565,1.35051,0.3918312,-0.9356558,1.350674,1.9,89.4,-0.03670543,-5.202182E-05,0.03675708,-0.3468991,-4.281241,0.0562678,0.6173792,1.557031,0.3463171,-0.07693268,0.09011951,-0.03908177,-1.136258,0.3134543,0.03002608,0.7456694,1.576039,0.195363,0.1268478,1.365035,0.248743,280.9339,327.234,277.8464,True
2,1.144446,0.003025443,-0.0548607,-0.04079246,4.623997,-4.566873,-2.151009,0.4499752,1.35066,0.3915064,-0.9208646,1.330574,1.9,89.4,-0.03994198,-0.008543698,0.03458782,-0.3463952,-4.282427,0.05787315,0.6167697,1.556919,0.3455598,-0.07682025,0.09547128,-0.02843534,-1.136121,0.3149264,0.03032595,0.7451051,1.576054,0.1952319,0.1254142,1.36023,0.2481311,281.3243,323.0726,282.0632,True
2,1.155557,0.007274185,-0.04956705,-0.04827994,4.624741,-4.567328,-2.151267,0.4493612,1.350835,0.3913307,-0.9052351,1.407273,1.9,89.4,-0.04433794,-0.01800284,0.02280041,-0.3468,-4.283813,0.05987905,0.6160668,1.557246,0.3454354,-0.07790826,0.08802416,-0.02628154,-1.136294,0.3157228,0.03089666,0.74451,1.576009,0.1950219,0.1240505,1.35535,0.2475681,281.7659,319.2064,286.013,True
2,1.166668,0.01258294,-0.04110276,-0.06111104,4.625444,-4.568163,-2.151656,0.4486647,1.350991,0.3912306,-0.8896759,1.400173,1.8,87.4,-0.0516929,-0.0116718,0.03251381,-0.3461321,-4.283323,0.06025242,0.6154234,1.557348,0.345015,-0.08762763,0.07953488,-0.03576561,-1.136958,0.3163855,0.03199841,0.7440434,1.575917,0.1947615,0.1227378,1.350391,0.2470217,282.2401,315.5836,289.717,True
2,1.17778,0.01576371,-0.03472796,-0.06540885,4.626079,-4.568784,-2.151986,0.4479296,1.351165,0.3910708,-0.8739568,1.41486,1.8,87.4,-0.06225739,-0.005325336,0.0411744,-0.3455979,-4.282833,0.06091821,0.6147189,1.557601,0.344743,-0.09089249,0.08698663,-0.0485339,-1.137843,0.3178129,0.0325622,0.7434276,1.575855,0.1945317,0.1214546,1.345355,0.2464651,282.7563,312.1978,293.1697,True
2,1.188891,0.01682318,-0.03365018,-0.06434957,4.626711,-4.569152,-2.152182,0.4473097,1.351326,0.3910081,-0.8583565,1.403843,1.7,97,-0.06322474,-0.007556681,0.0528798,-0.3446716,-4.283182,0.06193767,0.6139976,1.557673,0.3443925,-0.08663258,0.08696502,-0.04856833,-1.138313,0.3189614,0.03289696,0.742772,1.575723,0.1943696,0.1201896,1.340258,0.2459172,283.3328,308.9525,296.4239,True
2,1.200002,0.01679777,-0.02302196,-0.068672,4.627104,-4.570014,-2.15244,0.4465418,1.351485,0.3908176,-0.8425938,1.418792,1.7,97,-0.06012749,-0.02242088,0.04737509,-0.3444825,-4.28517,0.06444584,0.6132303,1.557858,0.3440759,-0.09191728,0.09445456,-0.04853537,-1.138783,0.3204908,0.03343599,0.7420638,1.575702,0.194211,0.1189147,1.335116,0.2454216,283.9605,305.9353,299.4254,True
2,1.211113,0.01357763,-0.0113832,-0.08045612,4.627636,-4.57115,-2.152638,0.4457073,1.351555,0.3904359,-0.826708,1.429844,1.7,87.8,-0.0667135,-0.03713528,0.03023664,-0.3448969,-4.28707,0.06720567,0.6122367,1.557891,0.3437171,-0.09819885,0.1019659,-0.03997278,-1.138898,0.3220986,0.03411749,0.7413195,1.575711,0.1940315,0.1176878,1.329945,0.2449949,284.6412,303.2097,302.1715,True
2,1.222224,0.008248961,-0.01037365,-0.08791937,4.628384,-4.572151,-2.152638,0.4448658,1.351715,0.3902884,-0.8110439,1.409646,1.7,87.8,-0.07007527,-0.04014751,0.01212513,-0.3454312,-4.288638,0.06958733,0.6113468,1.557981,0.343339,-0.09817378,0.1041026,-0.03784404,-1.139196,0.3235023,0.03468155,0.7407042,1.575628,0.1938479,0.1165781,1.324773,0.2446312,285.3637,300.756,304.6826,True
2,1.233335,-0.004531554,-0.01152485,-0.09750116,4.6293,-4.573243,-2.15226,0.4439152,1.351886,0.3901298,-0.795393,1.408743,1.6,88.9,-0.08740154,-0.04298545,-0.01758952,-0.3467329,-4.2892,0.07185715,0.6102901,1.557905,0.3428416,-0.1076371,0.1169502,-0.03139564,-1.139222,0.3254138,0.03540087,0.7398024,1.575559,0.1936877,0.1154589,1.319637,0.2442936,286.0987,298.6299,306.9047,True
2,1.244446,-0.02159667,-0.002053645,-0.1103398,4.629974,-4.574697,-2.151625,0.4429091,1.352029,0.389868,-0.7797192,1.410839,1.6,88.9,-0.09590577,-0.03120839,-0.019536,-0.3469763,-4.288497,0.07253252,0.6092654,1.557832,0.342356,-0.1097453,0.1265489,-0.03458714,-1.139625,0.3273816,0.03589355,0.739055,1.575437,0.1934326,0.1143082,1.314544,0.2439623,286.8259,296.7237,308.906,True
2,1.255558,-0.04081525,0.01598541,-0.1147058,4.630125,-4.576277,-2.150688,0.4417931,1.352138,0.3896625,-0.7639294,1.421488,1.6,88.9,-0.105171,0.02191354,-0.0008445024,-0.3463393,-4.282664,0.06857294,0.6080304,1.557862,0.3419442,-0.1032893,0.1499364,-0.04214247,-1.140259,0.3301678,0.03565414,0.7380823,1.575373,0.1933019,0.1131718,1.309516,0.2436671,287.5644,294.8734,310.7986,True
2,1.266669,-0.04939698,0.03832271,-0.1169664,4.629916,-4.578019,-2.149973,0.4408171,1.35228,0.3891761,-0.7483152,1.4054,1.2,82.4,-0.1039908,0.03355882,0.007783118,-0.3459063,-4.280236,0.06731193,0.6069726,1.557835,0.3414774,-0.09687154,0.1626742,-0.04754399,-1.140893,0.3325818,0.03544081,0.7370585,1.575393,0.193229,0.1119992,1.304593,0.2434263,288.3169,293.1594,312.5486,True
2,1.27778,-0.06543033,0.0606858,-0.1117693,4.629295,-4.579683,-2.148819,0.4395428,1.352419,0.3889565,-0.7327773,1.398668,1.2,82.4,-0.09119262,0.02706987,0.009762069,-0.3454067,-4.281559,0.06888639,0.6059373,1.557409,0.340548,-0.09788178,0.1690897,-0.04434919,-1.141183,0.3350167,0.03563523,0.7361236,1.575383,0.1931577,0.1107584,1.29981,0.2432593,289.0793,291.6951,314.0674,True
2,1.288891,-0.07505329,0.0745454,-0.1054571,4.628839,-4.58111,-2.147818,0.4382937,1.352467,0.3884697,-0.7178156,1.346043,1.1,71.5,-0.06485701,-0.01009959,-0.01105672,-0.3462349,-4.28524,0.07229577,0.6047912,1.557309,0.340235,-0.09879701,0.1733841,-0.02943455,-1.140961,0.3372565,0.03580806,0.7349579,1.575375,0.193007,0.1094697,1.295203,0.243177,289.8546,290.5471,315.3254,True
2,1.300002,-0.08463296,0.07237985,-0.1075792,4.62897,-4.582583,-2.146758,0.436855,1.352664,0.3881061,-0.7023086,1.396348,1.1,71.5,-0.06077831,-0.03235932,-0.024106,-0.3472485,-4.288189,0.07561806,0.6034908,1.557744,0.340307,-0.1017854,0.1830214,-0.01131747,-1.140407,0.3397965,0.03593936,0.7338301,1.575438,0.1929162,0.108212,1.290777,0.2431399,290.6042,289.6657,316.3727,True
2,1.311113,-0.08781088,0.06490292,-0.1096668,4.629246,-4.583933,-2.145769,0.4353293,1.352983,0.3879092,-0.6873651,1.344414,1,69.2,-0.05775886,-0.0578021,-0.03717112,-0.348309,-4.291773,0.07940428,0.6020655,1.558025,0.3396552,-0.09703594,0.2075873,0.03119845,-1.138686,0.343338,0.03549035,0.7324632,1.575417,0.19276,0.106897,1.28652,0.2431081,291.3258,288.9352,317.2608,True
2,1.322224,-0.08992501,0.05633824,-0.1149428,4.629817,-4.58527,-2.144797,0.4339439,1.353116,0.387264,-0.6723981,1.347203,1,69.2,-0.05557109,-0.04074737,-0.03703976,-0.348856,-4.290409,0.07862584,0.6004114,1.558234,0.3393657,-0.1044621,0.2140363,0.03125183,-1.138332,0.3463749,0.03566718,0.7313001,1.575426,0.1926062,0.1055568,1.282392,0.2430144,291.9875,288.2952,318.0776,True
2,1.333336,-0.09840875,0.04028327,-0.1244382,4.63081,-4.586639,-2.143519,0.4322656,1.353585,0.3870285,-0.657674,1.325043,1,69.2,-0.0809484,-0.002390385,-0.02794417,-0.3489716,-4.286518,0.07677467,0.5987768,1.558414,0.3387847,-0.1065716,0.2278849,0.02485225,-1.138158,0.3496712,0.03555906,0.7299126,1.575422,0.1924071,0.1041708,1.278359,0.2428482,292.6385,287.5278,318.9373,True
2,1.344447,-0.1100834,0.02205595,-0.1403056,4.632096,-4.588157,-2.142075,0.4304264,1.354363,0.3872011,-0.6430144,1.319377,0.9,55,-0.1084247,0.01777989,-0.009392681,-0.348252,-4.283529,0.07605189,0.5971509,1.558466,0.3381145,-0.1023245,0.2353205,0.01840333,-1.138176,0.3529629,0.03519367,0.7284929,1.575417,0.1921887,0.1027966,1.274401,0.2426457,293.2748,286.7684,319.7642,True
2,1.355558,-0.1260033,-0.003680833,-0.1646369,4.633902,-4.589741,-2.140266,0.4284412,1.355034,0.3871608,-0.628122,1.34076,0.9,55,-0.1411989,0.03898576,0.01239134,-0.347404,-4.280333,0.07578477,0.5953872,1.558538,0.3373196,-0.1065607,0.2300288,0.02484119,-1.137625,0.3556272,0.03543948,0.7269161,1.575479,0.1919742,0.1014776,1.270464,0.2423845,293.8968,286.0646,320.5572,True
2,1.366669,-0.1440576,-0.02404559,-0.1794398,4.635981,-4.59143,-2.138307,0.4263659,1.355654,0.3870337,-0.6134315,1.322183,0.6,45.4,-0.1602024,0.03352532,0.03381206,-0.3462866,-4.279791,0.07755178,0.593583,1.558569,0.3365753,-0.1022032,0.2438789,0.02795902,-1.137299,0.3593642,0.03498302,0.7253473,1.575476,0.1917498,0.1001109,1.266575,0.2421332,294.6201,285.1201,321.4418,True
2,1.37778,-0.172732,-0.06156339,-0.2079765,4.639289,-4.59305,-2.135551,0.4240235,1.356416,0.3869522,-0.5987947,1.317686,0.6,45.4,-0.1423793,0.0123878,0.006828854,-0.3470211,-4.282464,0.08093853,0.5916501,1.558387,0.3354921,-0.09679276,0.2545381,0.03212681,-1.13707,0.3632758,0.03443281,0.723794,1.575663,0.1915185,0.09861958,1.262815,0.242043,295.4019,284.0437,322.3733,True
2,1.388891,-0.2014085,-0.1022573,-0.2343589,4.642941,-4.594553,-2.132368,0.4216695,1.357236,0.3872213,-0.5845628,1.280864,0.4,35.9,-0.1265511,0.008225486,-0.008253586,-0.3475729,-4.282244,0.08168554,0.5897258,1.558443,0.3348727,-0.09107445,0.2833226,0.05972378,-1.135374,0.3677232,0.03335529,0.7219355,1.575787,0.191252,0.09690512,1.259221,0.2421844,296.1204,283.109,323.2689,True
2,1.400002,-0.2205121,-0.1321863,-0.2437743,4.64665,-4.595767,-2.129362,0.4191817,1.358149,0.3872533,-0.5700491,1.307189,0.4,35.9,-0.1148672,0.01891397,-0.01572105,-0.3481391,-4.28036,0.08080696,0.587447,1.558739,0.334228,-0.09928621,0.3079251,0.08209658,-1.133853,0.3723949,0.03294463,0.7200136,1.575812,0.1910651,0.09494834,1.25581,0.242568,296.7521,282.336,324.1324,True
2,1.411114,-0.2501644,-0.2080595,-0.2720785,4.652564,-4.596364,-2.125681,0.4161739,1.359295,0.3872666,-0.5561532,1.250662,0.2,33.2,-0.1274241,0.04543532,0.001678613,-0.3474797,-4.2758,0.07849401,0.585005,1.558979,0.3334889,-0.1016276,0.3421787,0.1608874,-1.129277,0.3777797,0.0318807,0.7178903,1.575994,0.1907148,0.09274393,1.252619,0.2431965,297.3434,281.5086,325.0768,True
2,1.422225,-0.2628552,-0.2486515,-0.2856953,4.657783,-4.597321,-2.122446,0.4134152,1.360536,0.3873034,-0.5432987,1.15633,0.2,33.2,-0.1454224,0.05712831,0.01046826,-0.3469684,-4.272809,0.07791238,0.582693,1.55915,0.3325882,-0.09610941,0.3464128,0.1811092,-1.126193,0.3813905,0.03115712,0.7154663,1.575966,0.1904652,0.0904085,1.249732,0.2441098,297.9144,280.7096,326.0126,True
2,1.433336,-0.2776467,-0.2999741,-0.3120323,4.664382,-4.598363,-2.118961,0.4102756,1.361957,0.3873329,-0.5299973,1.198121,0.2,33.2,-0.2005003,0.06979366,0.04301616,-0.3455041,-4.2693,0.0786791,0.5799963,1.559459,0.3314703,-0.09910129,0.3656273,0.1928174,-1.123528,0.3864769,0.03014778,0.7132909,1.576094,0.1901655,0.08788059,1.24717,0.2452128,298.4191,280.0132,326.9715,True
2,1.444447,-0.3020926,-0.3236024,-0.3310642,4.670443,-4.59968,-2.114979,0.407015,1.363419,0.3866792,-0.5180482,1.074371,0.6,32.3,-0.2257694,0.07704227,0.07419822,-0.3436005,-4.266293,0.07903063,0.577468,1.559679,0.3304293,-0.1053694,0.3965057,0.1864677,-1.12104,0.3918828,0.02899117,0.7108208,1.576414,0.1899662,0.08506769,1.244946,0.2463888,298.8604,279.1964,328.0893,True
2,1.455558,-0.3297275,-0.3525099,-0.3479339,4.676648,-4.60104,-2.110421,0.4034775,1.36519,0.3869123,-0.5058765,1.096053,0.6,32.3,-0.2540652,0.09906498,0.1204647,-0.3405256,-4.261379,0.07818002,0.5748321,1.559901,0.3293476,-0.09793469,0.4124208,0.1735908,-1.119375,0.3975993,0.02736531,0.7085693,1.576522,0.1897473,0.08216678,1.243095,0.2476049,299.2284,278.45,329.1124,True
2,1.466669,-0.348862,-0.3760252,-0.3573703,4.68281,-4.602217,-2.10583,0.4001925,1.366785,0.3871248,-0.4937937,1.087994,1.4,31.8,-0.2804643,0.08178774,0.1546193,-0.3376627,-4.260768,0.08167196,0.5722505,1.560112,0.3282359,-0.0756048,0.427167,0.158484,-1.117779,0.403208,0.0248963,0.706615,1.576532,0.1895044,0.07902779,1.241559,0.2487919,299.5417,277.7427,330.1155,True
2,1.47778,-0.3753403,-0.4432951,-0.3761515,4.691342,-4.602786,-2.100671,0.3964273,1.368844,0.3874068,-0.4820338,1.05882,1.4,31.8,-0.286737,0.0549475,0.1789093,-0.3350305,-4.262292,0.08658203,0.5696534,1.560367,0.3272667,-0.06408423,0.4291908,0.1338819,-1.116929,0.408661,0.02285738,0.7042924,1.576531,0.1892202,0.07561108,1.240333,0.2498565,299.8687,277.074,331.0656,True
2,1.488891,-0.408181,-0.5244747,-0.4012508,4.701333,-4.603163,-2.094929,0.3925616,1.370942,0.3876531,-0.4713081,0.964954,2.4,32,-0.3025626,0.01313259,0.2127371,-0.3315907,-4.267063,0.09500854,0.5668875,1.560523,0.3261554,-0.06435928,0.4184886,0.1083412,-1.116399,0.4134251,0.02152633,0.7021568,1.576762,0.1888976,0.07203951,1.239492,0.2509116,300.199,276.2847,331.9208,True
2,1.500003,-0.4314032,-0.6152819,-0.4358816,-1.570364,-4.60347,-2.089321,0.3886226,1.373196,0.3879123,-0.4605426,0.9695587,2.4,32,-0.3346574,-0.04861657,0.2198816,-0.3291502,-4.276023,0.1083648,0.5640858,1.5607,0.3251123,-0.05738884,0.4034496,0.06037051,-1.117152,0.4179622,0.0199564,0.6998372,1.576778,0.1886568,0.06843822,1.239042,0.2520523,300.4273,275.4766,332.7456,True
2,1.511114,-0.4705929,-0.7135941,-0.4715322,-1.557681,-4.603538,-2.082798,0.3847022,1.375432,0.3882089,-0.4501866,0.9324421,2.4,32,-0.3602253,-0.08488549,0.2325166,-0.3266309,-4.283764,0.1203123,0.5611614,1.560682,0.3237677,-0.03855383,0.4107313,0.01651948,-1.118254,0.4234534,0.01745676,0.6975639,1.576894,0.1884022,0.06461,1.238944,0.2533213,300.5909,274.4181,333.8232,True
2,1.522225,-0.5151355,-0.8034587,-0.516817,-1.544268,-4.604179,-2.07581,0.3806887,1.37763,0.3882918,-0.4409833,0.8276249,3,32.3,-0.395489,-0.09747733,0.2252468,-0.3245829,-4.288565,0.1303633,0.558074,1.560629,0.3227065,-0.04069865,0.4203354,0.007994831,-1.118252,0.4292649,0.01541757,0.6952721,1.576972,0.1882293,0.06051278,1.239183,0.2547798,300.6743,273.1947,335.0985,True
2,1.533336,-0.5416057,-0.8729429,-0.5473085,-1.530558,-4.604627,-2.069,0.3767155,1.379808,0.3887076,-0.4311876,0.8829083,3,32.3,-0.4369201,-0.07824969,0.2311081,-0.3219282,-4.291308,0.138927,0.5549439,1.560477,0.321286,-0.03947064,0.435261,0.01754541,-1.117672,0.4351059,0.01324177,0.6927535,1.576972,0.1880298,0.05621377,1.239724,0.256494,300.6451,271.8987,336.4882,True
2,1.544447,-0.574411,-0.9670702,-0.598978,-1.514666,-4.60549,-2.061666,0.3725978,1.382176,0.3891573,-0.4221984,0.8089337,4.5,29.4,-0.4561051,-0.07387957,0.2281223,-0.3195809,-4.29388,0.1469133,0.5518112,1.560441,0.3200467,-0.04147747,0.4714984,0.006839819,-1.117867,0.4425451,0.01038979,0.6901112,1.577077,0.1878624,0.05174132,1.240514,0.2584863,300.5555,270.5961,337.9663,True
2,1.555558,-0.5912516,-1.050446,-0.6379195,-1.49782,-4.606182,-2.054454,0.3682736,1.384601,0.3896732,-0.4143069,0.7096559,4.5,29.4,-0.4364231,-0.008217692,0.2626762,-0.3154354,-4.28907,0.146582,0.5483136,1.560586,0.3189461,-0.03810215,0.4928001,0.01422974,-1.117418,0.4494839,0.007674165,0.6873922,1.577117,0.1876476,0.04707991,1.24151,0.2607473,300.4401,269.2896,339.5139,True
2,1.566669,-0.5986075,-1.095289,-0.6515069,-1.482431,-4.606654,-2.047579,0.36404,1.387045,0.390147,-0.4061278,0.7367806,6.1,24,-0.428193,0.05719489,0.3282152,-0.3091653,-4.281861,0.1440459,0.5450584,1.560596,0.3176169,-0.02443212,0.5291307,0.09500146,-1.113658,0.4577579,0.003875698,0.684461,1.577127,0.1874049,0.04233147,1.242677,0.2632996,300.2951,267.9087,341.133,True
2,1.577781,-0.607065,-1.12089,-0.6524304,-1.467066,-4.607026,-2.040445,0.3597158,1.389509,0.3906224,-0.3988872,0.6510862,6.1,24,-0.4021986,0.1004728,0.3614345,-0.3036254,-4.27538,0.1414964,0.54177,1.560411,0.3165884,-0.005598128,0.5504675,0.1661795,-1.109233,0.4654927,-0.0001781655,0.6815898,1.577083,0.1871486,0.03740792,1.243962,0.2661699,300.1862,266.2964,342.9762,True
2,1.588892,-0.6176723,-1.141114,-0.6459247,-1.45199,-4.607252,-2.033094,0.3554639,1.391894,0.391067,-0.3922511,0.5967226,7.5,19.4,-0.3684783,0.06228507,0.3330865,-0.3011156,-4.27915,0.1481032,0.5386989,1.560139,0.3154678,0.03574735,0.5643148,0.2605907,-1.103354,0.4736985,-0.005429919,0.6787524,1.576838,0.1867828,0.03229921,1.245367,0.2693633,300.119,264.6531,344.9279,True
2,1.600003,-0.6432801,-1.124178,-0.6534896,-1.437872,-4.608928,-2.024777,0.3511081,1.39435,0.3913796,-0.3853125,0.6249369,7.5,19.4,-0.3412038,-0.03246474,0.3180977,-0.2987417,-4.292802,0.1639967,0.5356346,1.559822,0.3145075,0.0580304,0.5460677,0.2593918,-1.100516,0.4796849,-0.009738381,0.6755803,1.576973,0.186435,0.0271471,1.246922,0.2727691,300.0703,263.277,346.7881,True
2,1.611114,-0.6720924,-1.104062,-0.6631918,-1.42401,-4.610918,-2.015951,0.3468163,1.396619,0.3916926,-0.3785912,0.6049861,7.5,19.4,-0.3326279,-0.08173773,0.3431168,-0.2946228,-4.304103,0.1782848,0.5325084,1.559375,0.3135068,0.07154197,0.51823,0.2391043,-1.098471,0.4845884,-0.01320156,0.6722022,1.576361,0.1862648,0.02198461,1.248613,0.2762022,300.0283,261.9997,348.6514,True
2,1.622225,-0.6945556,-1.096589,-0.6761273,-1.410085,-4.614572,-2.006854,0.3425406,1.399044,0.3921728,-0.371576,0.632233,8.4,14.9,-0.3356786,-0.1289422,0.3778462,-0.2896944,-4.317177,0.1946547,0.5293123,1.55872,0.3121164,0.08497798,0.4786694,0.2134983,-1.097042,0.4887416,-0.01665807,0.6691507,1.576115,0.185874,0.01682626,1.250436,0.27949,300.0099,260.7476,350.4775,True
2,1.633336,-0.7104936,-1.114858,-0.6973283,-1.394571,-4.616886,-1.997959,0.3382359,1.401369,0.392477,-0.3652185,0.5723282,8.4,14.9,-0.3459244,-0.09621581,0.4134018,-0.2842062,-4.321183,0.2027907,0.5260575,1.558131,0.3109787,0.1083323,0.4753318,0.205848,-1.095104,0.4946268,-0.02132207,0.66615,1.575826,0.1855555,0.01154608,1.252441,0.2825505,300.056,259.5505,352.1389,True
2,1.644447,-0.7274231,-1.160854,-0.7183629,-1.377654,-4.61868,-1.988968,0.3338715,1.403802,0.3927019,-0.3596684,0.4990965,8.7,10.4,-0.3506935,-0.02304302,0.4514303,-0.2776297,-4.316926,0.2027971,0.5227293,1.557543,0.3098302,0.1425894,0.4751806,0.2257921,-1.092117,0.500709,-0.0267685,0.6633292,1.575637,0.1854064,0.006145082,1.254704,0.2854064,300.0975,258.3014,353.6892,True
2,1.655559,-0.7401327,-1.192904,-0.7288312,-1.361068,-4.620677,-1.979873,0.3295608,1.406156,0.392993,-0.3544412,0.4703959,8.7,10.4,-0.3503573,0.0332471,0.4700741,-0.2714699,-4.312813,0.2028152,0.519442,1.556639,0.3087802,0.1628331,0.4708147,0.2288235,-1.089616,0.5065425,-0.03196539,0.6603614,1.575337,0.1851473,0.0006327005,1.257298,0.2882122,300.0793,256.9107,355.2457,True
2,1.66667,-0.7496142,-1.242049,-0.7487973,-1.343175,-4.622931,-1.970644,0.3252773,1.408592,0.3931384,-0.3492011,0.4715794,7.9,8.6,-0.338474,0.08220789,0.4715133,-0.2657782,-4.307225,0.2008394,0.5161579,1.55573,0.3077681,0.1926613,0.4525552,0.2403278,-1.086711,0.511539,-0.03738919,0.6574364,1.574957,0.1848793,-0.004939292,1.260184,0.2910267,299.9423,255.2733,357.1066,True
2,1.677781,-0.7623326,-1.268756,-0.7561178,-1.326223,-4.62521,-1.96135,0.3210461,1.410777,0.3932438,-0.3447281,0.4023898,7.9,8.6,-0.3173878,0.06421073,0.4530414,-0.2616535,-4.309773,0.2060576,0.5130032,1.554546,0.3070915,0.234457,0.4396144,0.2783561,-1.082477,0.5166687,-0.04369821,0.6544577,1.574665,0.1847053,-0.01053615,1.263314,0.2938434,299.7762,253.4709,359.2058,True
2,1.688892,-0.7815253,-1.26887,-0.767828,-1.309879,-4.628261,-1.951204,0.31683,1.412752,0.3932807,-0.3408931,0.3451573,7.9,8.6,-0.3101574,-0.009206697,0.3297606,-0.2629563,-4.320496,0.2195622,0.5099832,1.552973,0.3063083,0.2579752,0.4331179,0.2920179,-1.078988,0.5220122,-0.04987781,0.6514234,1.574208,0.1844454,-0.0161235,1.266658,0.2966558,299.6139,251.6724,1.333388,True
2,1.700003,-0.7943372,-1.258265,-0.7668231,-1.293949,-4.631233,-1.941066,0.3128065,1.414766,0.3931677,-0.3376185,0.2947033,6.4,8.1,-0.3019519,0.008242562,0.2872342,-0.2610095,-4.317443,0.2198429,0.5068994,1.551446,0.3056879,0.2832628,0.421221,0.2683868,-1.077188,0.5269713,-0.0560369,0.6484561,1.573584,0.1843524,-0.02170208,1.270183,0.2994613,299.4713,249.8044,3.546433,True
2,1.711114,-0.946891,-1.165949,-0.7684119,-1.282073,-4.636182,-1.924083,0.3090392,1.416153,0.3932796,-0.3342294,0.3058336,6.4,8.1,-0.2475157,-0.01450516,0.3078597,-0.2572566,-4.324633,0.227675,0.5039262,1.549802,0.3052254,0.3227527,0.427428,0.2755144,-1.074037,0.5328924,-0.06361014,0.6454047,1.573195,0.1844044,-0.02729005,1.273836,0.3022281,299.2959,248.012,5.721186,True
2,1.722225,-1.105881,-1.047836,-0.7254219,-1.27287,-4.640201,-1.905364,0.3050711,1.41762,0.3931942,-0.331864,0.2124044,4.7,8.1,-0.1667387,-0.02523989,0.2900079,-0.254873,-4.328698,0.2307989,0.5010063,1.547931,0.304805,0.3753051,0.4378738,0.3134081,-1.069601,0.5390722,-0.0721674,0.6423447,1.572566,0.1843245,-0.03289727,1.277594,0.304908,299.1368,246.3483,7.809773,True
2,1.733337,-1.123124,-0.9623301,-0.6694502,-1.263923,-4.643072,-1.89153,0.3008954,1.418761,0.3930767,-0.3238324,0.7315547,4.7,8.1,-0.1210932,-0.004893601,0.2631782,-0.2528235,-4.328064,0.229952,0.4980482,1.546008,0.3043797,0.4118832,0.4334462,0.3514086,-1.065294,0.54442,-0.08080057,0.6394377,1.571587,0.183732,-0.03841508,1.281471,0.3074389,298.9586,244.7861,9.802886,True
2,1.744448,-1.122258,-0.8842456,-0.6155676,-1.254916,-4.645935,-1.878407,0.2967831,1.419848,0.3929687,-0.3201338,0.3316011,3.1,7.7,-0.07789308,0.08839283,0.2977933,-0.2474391,-4.314912,0.2169003,0.4951522,1.543731,0.3040609,0.4527053,0.4258429,0.3947639,-1.059686,0.5501435,-0.09015892,0.6362628,1.570879,0.1837244,-0.04408571,1.285732,0.30969,298.9536,243.9385,11.12576,True
2,1.755559,-1.042468,-0.8356453,-0.532772,-1.246475,-4.646935,-1.868656,0.2922491,1.421006,0.3923976,-0.3238734,-0.3445313,3.1,7.7,-0.06052123,0.1157675,0.3266662,-0.2423679,-4.309679,0.2120433,0.4923253,1.541204,0.3039229,0.5052375,0.4277477,0.429441,-1.054416,0.5562677,-0.1007847,0.633252,1.570127,0.1839106,-0.05005856,1.290807,0.3113503,298.957,243.3524,12.29401,True
2,1.76667,-0.8774035,-0.8167075,-0.455097,-1.237317,-4.646653,-1.864407,0.2879948,1.421899,0.3918598,-0.3244348,-0.04860758,2.3,7.2,-0.0492376,0.1087395,0.2785646,-0.2408041,-4.307171,0.2098898,0.4895127,1.538687,0.3037996,0.5394442,0.4297114,0.441933,-1.049611,0.5625284,-0.1111116,0.630354,1.569365,0.183933,-0.05611098,1.296653,0.3122342,298.428,242.0416,14.06456,True
2,1.777781,-0.8839234,-0.7592098,-0.4554476,-1.229204,-4.650402,-1.852693,0.2840746,1.422074,0.391006,-0.3264167,-0.1816742,2.3,7.2,-0.005296485,0.07527508,0.1969045,-0.2416963,-4.308218,0.2093697,0.4868943,1.535714,0.3040354,0.5634015,0.3943638,0.4002389,-1.0471,0.5666915,-0.1204335,0.6276637,1.568641,0.1841424,-0.06203754,1.302925,0.3123358,297.5156,240.1652,16.18042,True
2,1.788892,-0.9032957,-0.6780318,-0.4100972,-1.22393,-4.652191,-1.841195,0.280418,1.422203,0.3902225,-0.3306149,-0.3831812,2.3,7.2,0.04878838,-0.01324639,0.07735577,-0.245259,-4.31804,0.216527,0.4842967,1.532864,0.3042748,0.5598284,0.3110884,0.2864349,-1.048208,0.5670654,-0.1264309,0.6251254,1.567746,0.1840966,-0.06771582,1.309088,0.3116537,296.3926,237.808,18.63388,True
2,1.800003,-0.9590472,-0.5278147,-0.3821931,-1.222223,-4.655463,-1.827292,0.2771585,1.421161,0.3889599,-0.3237232,0.6323565,1.6,7.4,0.03344259,-0.2026573,-0.2758873,-0.2617424,-4.337311,0.2355582,0.4815505,1.530074,0.3044677,0.5464153,0.2022737,0.1578526,-1.050573,0.5652363,-0.1311292,0.6224605,1.566893,0.1842239,-0.07280664,1.314337,0.3104017,295.1125,234.7574,21.53283,True
2,1.811115,-0.9692215,-0.2762298,-0.3484841,-1.227273,-4.660064,-1.814424,0.2739775,1.41972,0.38779,-0.321615,0.1865469,1.6,7.4,-0.004649341,-0.3084278,-0.4555549,-0.2746912,-4.353106,0.2521542,0.4787716,1.527463,0.3048291,0.5222567,0.1745902,0.09099546,-1.051907,0.5663269,-0.1367033,0.6197204,1.565862,0.1845648,-0.07758077,1.318335,0.308894,294.3509,232.4232,23.54203,True
2,1.822226,-0.9314761,-0.01674622,-0.2551746,-1.235318,-4.661949,-1.804851,0.2708999,1.418404,0.386528,-0.3191266,0.2261157,1.1,7.7,0.0006581619,-0.322323,-0.4525245,-0.2792639,-4.361703,0.2601474,0.4760934,1.524954,0.3050363,0.5151471,0.2321798,0.09735268,-1.051039,0.5718884,-0.144778,0.6168475,1.56473,0.1851761,-0.08197796,1.321247,0.3072603,294.0076,231.1512,24.5906,True
2,1.833337,-0.8521705,0.2388011,-0.1245472,-1.24726,-4.661734,-1.798202,0.2679962,1.416772,0.3852389,-0.3200917,-0.09017302,1.1,7.7,0.02367913,-0.3038786,-0.3832946,-0.2817278,-4.369833,0.2669153,0.4735781,1.522532,0.3053184,0.5341502,0.349327,0.1267961,-1.049821,0.5813258,-0.1561723,0.613799,1.563696,0.1860569,-0.0861499,1.323349,0.3054607,293.8042,231.0391,24.68097,True
2,1.844448,-0.7961388,0.4215998,-0.03612196,-1.257686,-4.661721,-1.791364,0.2651309,1.4155,0.3840024,-0.3222883,-0.1999386,0.8,8.5,0.05124556,-0.2578439,-0.4161171,-0.2873029,-4.367599,0.2632282,0.4712624,1.519866,0.3053999,0.5571471,0.4025443,0.168067,-1.047505,0.5887601,-0.1666052,0.6108706,1.562715,0.1867616,-0.0901112,1.325022,0.3034538,293.521,231.9374,23.80396,True
2,1.855559,-0.7423723,0.6642004,0.07647002,-1.27473,-4.660498,-1.785537,0.2624257,1.413425,0.382571,-0.3242308,-0.176177,0.8,8.5,0.02796891,-0.2727963,-0.5162159,-0.2973313,-4.37073,0.2667851,0.4688962,1.517086,0.3054955,0.5890414,0.4377078,0.2625409,-1.042387,0.5967974,-0.1783466,0.6077979,1.561597,0.1875129,-0.09367664,1.326468,0.3010832,293.0778,233.1922,22.62782,True
2,1.86667,-0.7257671,0.8489524,0.1520981,-1.290123,-4.659771,-1.77822,0.259641,1.411326,0.3811014,-0.3236124,0.05743779,0.8,8.5,0.003268797,-0.2639607,-0.5404227,-0.3043961,-4.373178,0.2700973,0.4665322,1.514123,0.3056896,0.5800385,0.4623543,0.3169184,-1.038191,0.6044317,-0.188102,0.6049809,1.560599,0.1880376,-0.0967739,1.327668,0.2981654,292.4554,234.4339,21.40443,True
2,1.877781,-0.7163169,0.9034792,0.1858585,-1.301676,-4.659091,-1.770838,0.2568032,1.409142,0.3794608,-0.323451,0.01348737,0.6,9.9,-0.01704902,-0.250977,-0.5539808,-0.3112452,-4.374259,0.2721146,0.4640915,1.511053,0.305815,0.5542897,0.4135112,0.3268059,-1.035168,0.6085033,-0.1953202,0.6024129,1.55944,0.1885304,-0.099569,1.328645,0.2946902,291.8645,235.5887,20.0489,True
2,1.888893,-0.6951643,0.9687691,0.2302243,-1.315138,-4.657695,-1.764228,0.2537638,1.406746,0.3777466,-0.3214947,0.1783545,0.6,9.9,0.0005959049,-0.297594,-0.5886695,-0.3200124,-4.383183,0.2798942,0.4614883,1.507703,0.3062096,0.5420012,0.349609,0.3003939,-1.033131,0.611013,-0.2022333,0.5997097,1.558296,0.188926,-0.1022015,1.329421,0.2906504,291.1251,237.2733,18.03496,True
2,1.900004,-0.6995004,0.9966323,0.2620201,-1.32729,-4.655955,-1.756727,0.2508324,1.404368,0.3762102,-0.3207538,0.06579524,0.9,11.8,-0.003555983,-0.3712768,-0.7938941,-0.3369442,-4.388989,0.2856605,0.4587088,1.504572,0.3066218,0.5069014,0.2889371,0.220896,-1.033789,0.6122867,-0.2072158,0.5970953,1.556938,0.189441,-0.1049347,1.330046,0.28615,290.509,238.6895,16.11102,True
2,1.911115,-0.7208998,1.036077,0.2756422,-1.340521,-4.65481,-1.748379,0.2476227,1.401719,0.3745947,-0.3209168,-0.01553954,0.9,11.8,-0.01860231,-0.4158756,-0.9167078,-0.3524912,-4.394245,0.2913429,0.4558948,1.501502,0.3068225,0.4552079,0.2944119,0.1520798,-1.03521,0.6159153,-0.212219,0.5944277,1.555569,0.1900268,-0.107863,1.330615,0.2814175,290.023,239.4016,14.74352,True
2,1.922226,-0.7218646,0.9861773,0.3057488,-1.350012,-4.652097,-1.740886,0.2445999,1.399126,0.373426,-0.3196678,0.1142008,1.5,13.2,-0.02115893,-0.3417595,-0.8669732,-0.3597174,-4.390545,0.2881799,0.4529434,1.49834,0.3070805,0.4201224,0.3318743,0.1384683,-1.034974,0.6220872,-0.2187462,0.5916957,1.554164,0.1907413,-0.1109496,1.331206,0.2766657,289.4723,240.2261,13.24144,True
2,1.933337,-0.7259206,0.8999596,0.3200957,-1.357669,-4.649159,-1.733277,0.2412138,1.396503,0.3721542,-0.3186238,0.09427551,1.5,13.2,-0.04966083,-0.244758,-0.7496843,-0.3634453,-4.384871,0.2843305,0.4497496,1.495181,0.3070602,0.3906609,0.3885077,0.1460729,-1.034499,0.6298601,-0.226002,0.5888326,1.552721,0.1915715,-0.1141103,1.331876,0.2720748,288.9102,241.2152,11.62569,True
2,1.944448,-0.7117982,0.7904772,0.3473424,-1.364257,-4.645684,-1.726388,0.2381611,1.393995,0.371017,-0.3189109,-0.02710764,1.5,13.2,-0.1503377,-0.2566806,-0.8053994,-0.3751765,-4.385795,0.2903194,0.4466732,1.492,0.3068988,0.3879575,0.4375954,0.1737,-1.033117,0.6381861,-0.234673,0.5858241,1.55128,0.1926382,-0.1173793,1.332698,0.2677796,288.3297,242.2073,10.07317,True
2,1.955559,-0.6913854,0.7170328,0.3498959,-1.370217,-4.642491,-1.720107,0.2350927,1.391493,0.3697605,-0.3187234,0.01752527,2.2,14.3,-0.2501113,-0.2321685,-0.769159,-0.3827367,-4.384224,0.2950186,0.443611,1.489063,0.3066387,0.3897816,0.4909566,0.2279024,-1.030674,0.647507,-0.2439277,0.5828042,1.549743,0.1935163,-0.1205549,1.333627,0.2638912,287.7081,242.5053,9.288057,True
2,1.966671,-0.675219,0.6391631,0.3247641,-1.374974,-4.64069,-1.713615,0.2322478,1.388516,0.3682871,-0.3192118,-0.04488838,2.2,14.3,-0.2707224,-0.2029431,-0.6973172,-0.3881174,-4.383614,0.2980908,0.4403723,1.486451,0.3062258,0.3567888,0.5807544,0.2993964,-1.027427,0.6596324,-0.2530791,0.5796302,1.548163,0.1942904,-0.1237329,1.334584,0.260414,287.0711,242.5011,8.940252,True
2,1.977782,-0.6570599,0.6177416,0.2939466,-1.38127,-4.639369,-1.707226,0.2295422,1.385719,0.3670948,-0.3198014,-0.05363761,2.7,14.1,-0.2914492,-0.1115624,-0.6621803,-0.3936344,-4.373881,0.2928052,0.437158,1.483836,0.3059611,0.3132001,0.6801867,0.3688068,-1.024261,0.6733863,-0.2624138,0.5765607,1.546583,0.1950696,-0.1267074,1.335489,0.2573204,286.4313,242.5418,8.678609,True
2,1.988893,-0.6251096,0.6196704,0.2503064,-1.38841,-4.638915,-1.701386,0.226774,1.382653,0.3659937,-0.3197381,0.006029942,2.7,14.1,-0.3309176,0.009367287,-0.5925097,-0.3966858,-4.360136,0.2850991,0.4338128,1.481454,0.3049469,0.2989216,0.7229536,0.4135924,-1.020916,0.6857611,-0.2718462,0.5735093,1.544988,0.1956844,-0.1295404,1.336207,0.2545257,285.7504,242.5729,8.54309,True
2,2.000004,-0.6027691,0.637756,0.2374165,-1.39631,-4.637572,-1.695551,0.2239782,1.379393,0.3646095,-0.3197114,0.002188806,2.6,13.9,-0.3402685,0.09886646,-0.4754526,-0.3975167,-4.349631,0.2794516,0.4306806,1.478587,0.304477,0.2902663,0.7134046,0.406241,-1.018887,0.6955988,-0.2800687,0.5703994,1.543179,0.1963069,-0.1322505,1.336589,0.2520001,285.0877,242.6158,8.399682,True
2,2.011115,-0.582588,0.6632777,0.2212898,-1.404647,-4.636689,-1.689926,0.2212268,1.376423,0.3635197,-0.3201982,-0.04469476,2.6,13.9,-0.3466508,0.1918148,-0.3882194,-0.3972185,-4.335431,0.2703553,0.4276819,1.475744,0.3036571,0.2747841,0.6803764,0.360625,-1.018344,0.7035811,-0.2867415,0.567435,1.541326,0.1966095,-0.1348942,1.336633,0.2497668,284.545,243.2044,7.6439,True
2,2.022226,-0.550656,0.6738097,0.1882074,-1.412348,-4.636607,-1.684839,0.2185399,1.373142,0.3624647,-0.3198563,0.03143279,2.5,13.5,-0.3329554,0.1406156,-0.3856344,-0.4020074,-4.333008,0.2712733,0.4248677,1.472722,0.303376,0.271198,0.6526984,0.3426453,-1.016835,0.7121125,-0.2938772,0.5645951,1.539524,0.1974647,-0.1376131,1.336327,0.2478279,284.0411,244.2936,6.442988,True
2,2.033337,-0.5357247,0.6662952,0.1722709,-1.41966,-4.636038,-1.679432,0.2157958,1.370032,0.3615334,-0.3198723,-0.00185273,2.5,13.5,-0.3050324,0.0814566,-0.3363646,-0.4043366,-4.334084,0.2747881,0.421971,1.469839,0.3029284,0.2754716,0.6516147,0.3447414,-1.0152,0.7216558,-0.3021447,0.5617059,1.537544,0.1978979,-0.1404216,1.3357,0.2460396,283.6418,245.9524,4.816963,True
2,2.044448,-0.5166095,0.6917299,0.1422925,-1.428011,-4.636417,-1.674295,0.2131996,1.366971,0.3607304,-0.3203048,-0.03973636,2.5,13.5,-0.250336,-0.01527256,-0.3782424,-0.4105135,-4.338226,0.2795118,0.4190194,1.467026,0.3025675,0.2903485,0.6621953,0.338223,-1.013954,0.7317793,-0.3111102,0.5588209,1.535334,0.1985068,-0.1432492,1.334859,0.2443266,283.3671,247.6836,3.093208,True
2,2.055559,-0.4952397,0.6639225,0.1147545,-1.434422,-4.636773,-1.669531,0.2106043,1.364208,0.360081,-0.3197034,0.05509605,2.4,12.8,-0.1949907,-0.1179719,-0.4660035,-0.4198617,-4.343396,0.2847106,0.4162432,1.464207,0.3023837,0.2909178,0.6951123,0.2561015,-1.016754,0.7423992,-0.3201381,0.5559846,1.532856,0.1988366,-0.1460477,1.333844,0.2427053,283.0938,249.1198,1.57798,True
2,2.06667,-0.4599143,0.5870958,0.08003809,-1.438105,-4.637347,-1.665453,0.2080418,1.361581,0.3594475,-0.3198121,-0.01054819,2.4,12.8,-0.1289527,-0.2015862,-0.4364761,-0.4249132,-4.351875,0.2916614,0.4133348,1.461491,0.3021841,0.2771975,0.7024277,0.1422175,-1.021325,0.7505325,-0.3269265,0.5530705,1.530624,0.1992993,-0.1488196,1.332762,0.2411926,282.8962,250.6394,359.9262,True
2,2.077781,-0.4096902,0.5188298,0.0463284,-1.441509,-4.638366,-1.66241,0.2055364,1.359077,0.3587441,-0.3199703,-0.01455768,2.5,12.4,-0.08990432,-0.2601327,-0.4554867,-0.4315226,-4.358704,0.2977545,0.4105565,1.458543,0.3016851,0.3140312,0.6574535,0.1164025,-1.022878,0.757218,-0.3351314,0.550262,1.528472,0.1996591,-0.1515266,1.331741,0.2398605,282.7451,252.2789,358.1147,True
2,2.088892,-0.3743832,0.4526134,0.003027789,-1.444341,-4.639971,-1.659179,0.2031218,1.356556,0.3582926,-0.3204454,-0.04345331,2.5,12.4,-0.0974218,-0.236485,-0.4733013,-0.4374706,-4.358117,0.2985518,0.4074908,1.45595,0.300874,0.3331768,0.6179841,0.1397756,-1.022188,0.7643274,-0.3431169,0.5472881,1.526318,0.1997521,-0.1541833,1.330855,0.2387745,282.5873,253.3073,356.9352,True
2,2.100003,-0.3562385,0.4321634,-0.03843362,-1.44829,-4.642302,-1.655285,0.200695,1.353938,0.3578541,-0.321272,-0.07545165,2.8,11.4,-0.1131716,-0.1522898,-0.3573018,-0.437095,-4.354817,0.2974154,0.4046742,1.453417,0.3000677,0.3183745,0.6053377,0.1633754,-1.021834,0.7726033,-0.3504057,0.5443664,1.524311,0.2001164,-0.1568026,1.33009,0.2379771,282.3464,253.6201,356.5472,True
2,2.111114,-0.3210494,0.4181395,-0.0830948,-1.452228,-4.645146,-1.652581,0.1982463,1.351702,0.3573887,-0.3208779,0.03635963,2.8,11.4,-0.1237862,-0.09785815,-0.2512205,-0.4361469,-4.353958,0.2983356,0.4017599,1.451097,0.2991912,0.2780066,0.583225,0.1903933,-1.020973,0.7801316,-0.3560854,0.5415078,1.522267,0.2000918,-0.1593861,1.329359,0.2374993,282.001,253.8756,356.2711,True
2,2.122225,-0.2932711,0.3838645,-0.123414,-1.454929,-4.648269,-1.649836,0.1959787,1.349508,0.3571677,-0.3199048,0.08834358,2.8,11.4,-0.1533949,0.02166846,-0.1486248,-0.4341043,-4.345811,0.2936969,0.3991612,1.449209,0.2982793,0.2558748,0.5663769,0.2311071,-1.019392,0.788021,-0.3623534,0.5385695,1.520343,0.2002711,-0.1619719,1.328567,0.2373909,281.6352,254.3765,355.767,True
2,2.133336,-0.277212,0.350762,-0.1434626,-1.457482,-4.650776,-1.647026,0.1935231,1.347376,0.3567955,-0.3207495,-0.07816403,3,10.5,-0.1748819,0.06568633,-0.06385605,-0.4314864,-4.342193,0.2930716,0.3963741,1.446957,0.2975032,0.242273,0.5633088,0.2621232,-1.017897,0.7964288,-0.3690151,0.5357415,1.518309,0.2003596,-0.1646777,1.327723,0.2376606,281.3842,255.5081,354.7055,True
2,2.144447,-0.2547329,0.3038458,-0.1560126,-1.458731,-4.653299,-1.644526,0.1911982,1.345284,0.356631,-0.3205301,0.02061044,3,10.5,-0.1794429,0.1343856,-0.003507812,-0.4288733,-4.335471,0.2889588,0.3936589,1.444441,0.2969267,0.2337632,0.5229489,0.2931922,-1.015449,0.8034465,-0.3749952,0.5329412,1.51621,0.2006831,-0.1674677,1.326845,0.2382994,281.2084,256.6395,353.7267,True
2,2.155558,-0.2462161,0.304899,-0.1592371,-1.461883,-4.655641,-1.641688,0.1888338,1.343021,0.3562632,-0.3200438,0.04394269,3.1,9.9,-0.1615833,0.132456,-0.03139104,-0.4298401,-4.330768,0.285966,0.3910188,1.442169,0.2965758,0.2237943,0.4814369,0.2763335,-1.014489,0.8092022,-0.3801862,0.5301872,1.514258,0.2009575,-0.1702495,1.325908,0.2392834,281.0517,257.5028,353.1034,True
2,2.166669,-0.2303403,0.350831,-0.1445904,-1.46732,-4.657211,-1.639577,0.1865723,1.340915,0.3560901,-0.320031,0.0006119053,3.1,9.9,-0.1416897,0.07074513,-0.04600205,-0.4314028,-4.333114,0.2890973,0.3884831,1.4398,0.2963119,0.2362209,0.4483492,0.2603084,-1.013823,0.8147764,-0.3858566,0.5274546,1.512008,0.2013025,-0.1730682,1.324925,0.240461,280.9015,258.3664,352.598,True
2,2.17778,-0.2101471,0.3691218,-0.120198,-1.471893,-4.658103,-1.637773,0.1844177,1.338804,0.3558404,-0.319436,0.05429681,3.8,8.9,-0.09694187,0.02138381,-0.02555342,-0.4311839,-4.336413,0.2918284,0.3862669,1.437353,0.2962959,0.2595118,0.4375715,0.247341,-1.013342,0.8211524,-0.3930093,0.5247242,1.509856,0.2013521,-0.1758283,1.323871,0.2416977,280.7327,259.1957,352.165,True
2,2.188891,-0.1856403,0.3660043,-0.1169786,-1.475784,-4.659562,-1.636321,0.1823968,1.336694,0.355823,-0.3197967,-0.03356,3.8,8.9,-0.06739164,-0.007288925,-0.04632314,-0.4326209,-4.337906,0.2929719,0.3840959,1.435019,0.2960572,0.2935032,0.4331292,0.2385287,-1.013002,0.8274014,-0.4006369,0.5221736,1.507872,0.2014427,-0.1785312,1.322786,0.2428238,280.6252,260.9187,350.8361,True
2,2.200002,-0.176014,0.3479417,-0.1115534,-1.478837,-4.660941,-1.634429,0.180427,1.334499,0.3556366,-0.3198611,-0.005702455,5.4,8,-0.01796347,-0.1147747,-0.07655577,-0.4360798,-4.347372,0.3003193,0.3820637,1.433141,0.2958338,0.3124919,0.4106289,0.2223814,-1.012899,0.8325478,-0.4077489,0.5194635,1.506016,0.2013135,-0.1810539,1.321719,0.2436913,280.5679,263.2885,348.802,True
2,2.211113,-0.1450115,0.3032033,-0.126223,-1.480817,-4.663237,-1.63347,0.1788312,1.332451,0.3556893,-0.3200321,-0.01577629,5.4,8,0.02306676,-0.1560583,-0.1199171,-0.4397097,-4.352713,0.3035176,0.3799055,1.431203,0.2954688,0.3269199,0.3519205,0.1999983,-1.012363,0.8354048,-0.4134683,0.5170236,1.504404,0.2012134,-0.1833294,1.320646,0.244175,280.4783,265.1019,347.2126,True
2,2.222224,-0.1311222,0.2872363,-0.1293292,-1.483425,-4.665015,-1.632261,0.1770438,1.330359,0.3555617,-0.3193705,0.06045637,5.4,8,0.05042513,-0.03612337,-0.08280095,-0.4385033,-4.344365,0.2948908,0.3775121,1.429537,0.2950368,0.3009157,0.2923722,0.1832833,-1.011551,0.8377255,-0.4172896,0.5144925,1.502822,0.2012177,-0.1853824,1.31952,0.2443184,280.3179,266.1177,346.2149,True
2,2.233335,-0.1183691,0.3000188,-0.1358148,-1.487202,-4.667229,-1.631047,0.1754654,1.328189,0.355407,-0.3200923,-0.0666806,6.1,6.9,0.05165057,0.007534452,-0.0813458,-0.438996,-4.340295,0.2906151,0.3752078,1.42782,0.2945902,0.2617573,0.2851891,0.2166431,-1.009722,0.8428571,-0.4217446,0.5120404,1.501356,0.2011302,-0.1872639,1.31831,0.2442283,280.1641,266.6141,345.5872,True
2,2.244446,-0.108804,0.3170601,-0.14551,-1.491626,-4.669664,-1.630046,0.1739066,1.325971,0.3554173,-0.3196582,0.04015512,6.1,6.9,-0.007621266,0.06721184,-0.06108679,-0.438604,-4.335094,0.2878065,0.3731652,1.426193,0.2941864,0.2460712,0.2768403,0.2594213,-1.006896,0.848249,-0.4267718,0.5096571,1.499612,0.2012651,-0.1889582,1.316977,0.2441241,280.0178,266.7568,345.2108,True
2,2.255557,-0.1002993,0.3266781,-0.1434345,-1.495457,-4.671439,-1.629096,0.1722704,1.323839,0.355263,-0.3194142,0.02172454,5.7,6.7,-0.03639913,0.1431424,0.03043156,-0.4344292,-4.32827,0.2829742,0.3711023,1.424652,0.2940257,0.2312536,0.2460895,0.2883674,-1.003789,0.8523436,-0.431186,0.5072784,1.498129,0.2012289,-0.1906799,1.31553,0.244116,279.9356,267.4438,344.365,True
2,2.266668,-0.08542557,0.3437824,-0.1392703,-1.499839,-4.673143,-1.628519,0.1707665,1.32181,0.3552661,-0.3194312,-0.001815365,5.7,6.7,-0.04143241,0.1332184,0.06766367,-0.4321091,-4.326807,0.2820892,0.3693033,1.422819,0.2938199,0.2510388,0.1969571,0.265933,-1.001976,0.8542238,-0.4354945,0.5050862,1.496457,0.201416,-0.1924119,1.313996,0.2442913,279.92,268.7095,343.0201,True
2,2.277779,-0.0843314,0.3299762,-0.1285211,-1.502714,-4.674154,-1.627594,0.1690803,1.319838,0.3553133,-0.3192523,0.01628721,4.9,6.3,0.02906282,0.1199186,0.09461492,-0.4306236,-4.326506,0.2791994,0.3676677,1.421228,0.2939031,0.2560136,0.190474,0.227552,-1.001662,0.8571251,-0.4402235,0.5027799,1.494854,0.2015781,-0.1941845,1.312403,0.244712,279.935,270.2145,341.5147,True
2,2.28889,-0.06938472,0.3152216,-0.1071268,-1.505687,-4.674809,-1.627256,0.1675152,1.317978,0.3554327,-0.3194265,-0.01620336,4.9,6.3,0.0888501,0.09721459,-0.005193971,-0.4335845,-4.323546,0.273582,0.3657803,1.419533,0.2939866,0.2330779,0.191523,0.1606288,-1.002963,0.8592847,-0.4432983,0.5006192,1.49336,0.2016723,-0.1959995,1.310787,0.2453278,279.9855,271.6981,340.1549,True
2,2.300001,-0.04907022,0.2812595,-0.0898798,-1.507466,-4.6753,-1.627354,0.1659139,1.316216,0.3556077,-0.3188901,0.04907033,4.9,6.3,0.07503173,0.03532921,-0.1015537,-0.4381656,-4.323874,0.2734888,0.3640041,1.417938,0.2937779,0.2125843,0.1798496,0.1373962,-1.002748,0.8614202,-0.4461706,0.4984055,1.491891,0.2018251,-0.1977879,1.309179,0.24608,280.0407,273.1368,338.8908,True
2,2.311112,-0.02338181,0.2290616,-0.09809455,-1.508178,-4.676711,-1.627721,0.1645373,1.31454,0.355746,-0.3192491,-0.03337751,3.5,5.6,0.04411439,0.01621063,-0.09614163,-0.4389145,-4.324421,0.2746134,0.3622524,1.416253,0.2934763,0.2008038,0.1596748,0.1417954,-1.001662,0.8634485,-0.449071,0.4963576,1.490553,0.2018874,-0.1995872,1.307608,0.2468618,280.0945,274.2601,337.9717,True
2,2.322223,-0.01053019,0.2013394,-0.107519,-1.509406,-4.678298,-1.627933,0.1631177,1.312808,0.3558886,-0.3195649,-0.0286267,3.5,5.6,0.03908826,0.007333893,-0.05676167,-0.4380623,-4.325274,0.2752009,0.3605281,1.414866,0.2933049,0.207071,0.142603,0.1385779,-1.000708,0.8654107,-0.4525832,0.4942279,1.489287,0.2019432,-0.2013031,1.306086,0.2475853,280.1223,275.2297,337.1874,True
2,2.333334,0.005568077,0.1512864,-0.1146802,-1.509698,-4.679832,-1.628341,0.161866,1.311263,0.3562839,-0.3197333,-0.01529171,2.9,5.3,0.07052572,0.05474498,-0.01289741,-0.436131,-4.321078,0.2695455,0.3587849,1.413421,0.2931552,0.2133733,0.1372313,0.1310771,-1.00023,0.8674477,-0.4562722,0.4921059,1.488003,0.2019169,-0.2029183,1.304572,0.2481991,280.0928,275.802,336.7411,True
2,2.344445,0.01734665,0.1267637,-0.1230581,-1.510115,-4.681522,-1.628861,0.1605646,1.309633,0.3564904,-0.3194036,0.0300815,2.9,5.3,0.1230098,0.1130579,-0.003211752,-0.4350668,-4.313152,0.2591178,0.3572073,1.412241,0.2930181,0.2167119,0.1351203,0.1502451,-0.9986822,0.8703014,-0.4602954,0.4900326,1.486745,0.201853,-0.2044076,1.30301,0.2487484,280.0275,275.9851,336.5912,True
2,2.355556,0.03339117,0.0990008,-0.1409885,-1.510246,-4.683493,-1.629634,0.1593544,1.307922,0.3568358,-0.3193732,0.002421838,2.4,4.6,0.1257244,0.1082385,-0.05761126,-0.4373784,-4.309603,0.2544168,0.3554663,1.410964,0.2927899,0.1916434,0.1236529,0.2154574,-0.9950965,0.8738179,-0.4635139,0.4879606,1.4858,0.2017326,-0.2058413,1.30138,0.2493126,280.0037,276.1584,336.3741,True
2,2.366668,0.05159282,0.06169176,-0.1524875,-1.509475,-4.685551,-1.630708,0.1580993,1.306354,0.3571599,-0.3193231,0.004427028,2.4,4.6,0.1273973,0.1460592,-0.001862422,-0.434891,-4.304165,0.2481789,0.353674,1.409699,0.2927682,0.1876733,0.1205478,0.2527863,-0.9920914,0.8772807,-0.4672759,0.4859268,1.484725,0.2016912,-0.2072057,1.299678,0.2499754,280.0169,276.1351,336.3536,True
2,2.377779,0.1336727,0.037416,-0.1469968,-1.509052,-4.68678,-1.63489,0.1567267,1.304794,0.3574498,-0.3194185,-0.008905093,1.9,3.8,0.1340307,0.1746474,0.01432169,-0.4335509,-4.297794,0.2406339,0.3519644,1.408654,0.2927079,0.176184,0.1078953,0.2880639,-0.9886533,0.8806358,-0.4706738,0.4839429,1.483688,0.2016511,-0.2085795,1.297897,0.2507615,280.0252,276.1633,336.3523,True
2,2.38889,0.1326857,0.006384581,-0.1702539,-1.507904,-4.68946,-1.636246,0.1555583,1.303346,0.3579142,-0.3195596,-0.01290934,1.9,3.8,0.1212948,0.1971053,0.01038241,-0.4329581,-4.290848,0.2333933,0.3502432,1.40755,0.2924898,0.1559093,0.0813741,0.2989425,-0.9853893,0.8826492,-0.4729228,0.4819909,1.482687,0.2015407,-0.2099566,1.296004,0.2517068,280.0242,276.1306,336.4464,True
2,2.400001,0.1104088,-0.03204872,-0.174282,-1.506159,-4.691135,-1.6365,0.1545088,1.30195,0.3583453,-0.3223522,-0.2554241,1.9,3.8,0.1176273,0.2338867,0.06508804,-0.4296669,-4.283042,0.2252318,0.3486706,1.406573,0.2922676,0.1633711,0.07070176,0.3042159,-0.9826159,0.8850766,-0.4764763,0.4800367,1.481644,0.2014723,-0.2113834,1.293989,0.2528055,280.0524,275.9726,336.7299,True
2,2.411112,0.1083464,-0.05982492,-0.1869055,-1.504369,-4.693529,-1.637468,0.1534573,1.300647,0.3588548,-0.3195724,0.256082,1.7,3.1,0.09934624,0.2041953,0.05750296,-0.4290427,-4.280451,0.2223931,0.3471172,1.405564,0.291991,0.1654032,0.08024769,0.2871358,-0.9808545,0.8878246,-0.4799626,0.4782835,1.480678,0.2013192,-0.2128083,1.29169,0.2540072,279.9907,275.9852,336.8827,True
2,2.422223,0.1447022,-0.1110014,-0.2089658,-1.501247,-4.696234,-1.640401,0.1525861,1.299501,0.3594255,-0.3178328,0.1564248,1.7,3.1,0.1358162,0.2913766,0.1741479,-0.4222932,-4.268944,0.2091458,0.3457968,1.40479,0.2919309,0.1599331,0.07706139,0.2733398,-0.9790371,0.8902075,-0.4827299,0.4766644,1.479646,0.2013681,-0.2142227,1.289113,0.255341,280.1442,275.6471,337.3557,True
2,2.433334,0.1969521,-0.1301117,-0.2194967,-1.499072,-4.698728,-1.644195,0.1517091,1.29847,0.3600202,-0.3183804,-0.05119863,1.6,2.6,0.1535746,0.2179026,0.1637001,-0.4207933,-4.269366,0.2072669,0.3444982,1.403822,0.2921283,0.154306,0.06425734,0.2446454,-0.977631,0.8915489,-0.4850495,0.4750593,1.478669,0.2013955,-0.215578,1.286466,0.25677,280.5069,274.8816,338.302,True
2,2.444445,0.1830504,-0.1087718,-0.2079034,-1.49842,-4.700572,-1.645701,0.1509057,1.297386,0.3606193,-0.3203607,-0.1805646,1.6,2.6,0.1764067,0.1682358,0.1129586,-0.4215241,-4.268785,0.2040706,0.3434096,1.40262,0.2922964,0.1550512,0.05672857,0.2105571,-0.9768049,0.8924931,-0.4873548,0.4733435,1.477762,0.2012818,-0.2168568,1.283938,0.2582941,280.8742,273.899,339.4626,True
2,2.455556,0.1595623,-0.08847404,-0.1877733,-1.498036,-4.701773,-1.646417,0.149871,1.296332,0.361203,-0.3211735,-0.07298978,1.5,2.2,0.2053406,0.1092338,0.03330581,-0.4239827,-4.268946,0.2009802,0.3423943,1.401554,0.2926772,0.1654459,0.05449744,0.1806397,-0.9762989,0.893661,-0.490243,0.4718696,1.476906,0.2013299,-0.2179573,1.281528,0.2599496,281.0738,272.882,340.6389,True
2,2.466667,0.1595383,-0.0798042,-0.1622558,-1.49742,-4.702592,-1.648133,0.1489724,1.295392,0.3617585,-0.318627,0.2330983,1.5,2.2,0.2143105,0.0392973,-0.00898847,-0.4257899,-4.272562,0.2017422,0.3411864,1.400803,0.2927923,0.1920315,0.04265768,0.1825705,-0.9743931,0.8950267,-0.4939802,0.4704452,1.476048,0.2014046,-0.2189329,1.279168,0.2617269,281.1772,272.5587,341.1486,True
2,2.477778,0.15851,-0.09363074,-0.1579002,-1.495716,-4.703925,-1.649879,0.1480239,1.294516,0.3623152,-0.3173742,0.1124105,1.5,2.2,0.21864,0.0007003397,0.01511239,-0.4249281,-4.276359,0.2026423,0.3401415,1.399904,0.2928376,0.1961149,0.01812524,0.175125,-0.9725838,0.8954425,-0.4965323,0.4689336,1.475296,0.2014627,-0.2199247,1.27692,0.2635111,281.4019,272.9426,341.0392,True
2,2.488889,0.1639061,-0.1223865,-0.1587986,-1.493264,-4.705497,-1.651732,0.1471644,1.29372,0.36271,-0.3182445,-0.0803413,1.6,1.9,0.1535388,0.02244706,-0.006497867,-0.4253638,-4.273371,0.2006636,0.3389089,1.399362,0.2927024,0.1768535,0.00755634,0.1710465,-0.9709475,0.8961138,-0.498176,0.4674931,1.474623,0.201479,-0.221042,1.274935,0.2651324,281.6991,273.277,341.0381,True
2,2.5,0.1682061,-0.139435,-0.1608216,-1.491021,-4.707051,-1.653582,0.1462736,1.292771,0.3632195,-0.3184161,-0.01493144,1.6,1.9,0.1129332,0.1445512,0.05360056,-0.4218468,-4.260224,0.1889257,0.3376305,1.398962,0.2926629,0.1462792,0.01523889,0.2053889,-0.968116,0.8988646,-0.5001478,0.4661168,1.474169,0.2016096,-0.2221337,1.273247,0.2664759,281.8779,273.2017,341.3892,True
2,2.511111,0.1692958,-0.1500361,-0.1522378,-1.488844,-4.708277,-1.655419,0.1453832,1.291964,0.3635886,-0.3185034,-0.007951132,1.7,1.9,0.09107464,0.2199982,0.08220815,-0.4189866,-4.249016,0.1783876,0.3362624,1.398409,0.2926431,0.1242624,0.03244422,0.2375059,-0.9651977,0.9020719,-0.5026349,0.4648377,1.473639,0.2017527,-0.223182,1.271801,0.2675437,281.907,272.6598,342.0629,True
2,2.522222,0.1703404,-0.1413932,-0.1320366,-1.487567,-4.70881,-1.657281,0.1445325,1.290996,0.363992,-0.3184544,0.004520532,1.7,1.9,0.06780986,0.2626824,0.08494426,-0.41741,-4.239147,0.1693477,0.3350793,1.397566,0.2924936,0.1071997,0.0378553,0.2333776,-0.9635099,0.9041511,-0.504378,0.4635307,1.473026,0.201931,-0.2241484,1.270497,0.2684077,281.8257,271.8696,342.8598,True
2,2.533333,0.1659858,-0.1039086,-0.09496173,-1.487598,-4.708548,-1.658996,0.1436845,1.290183,0.3642855,-0.3183554,0.008978564,2.1,2.3,0.05086955,0.2636964,0.09681761,-0.4154361,-4.23249,0.1633418,0.3340627,1.396997,0.2927558,0.0974824,0.0389366,0.2174777,-0.9621415,0.9057388,-0.5059804,0.4624103,1.472501,0.2021196,-0.2250685,1.269219,0.2691685,281.7115,271.2091,343.4645,True
2,2.544444,0.1701057,-0.04820542,-0.04307837,-1.48893,-4.70742,-1.66112,0.1429359,1.289394,0.3644469,-0.3182712,0.007570249,2.1,2.3,0.06862861,0.2137629,0.07594483,-0.4152491,-4.231005,0.1604978,0.3330934,1.396338,0.2932944,0.08230918,0.02831194,0.1941904,-0.9609228,0.9064057,-0.5066765,0.4612089,1.471953,0.2022157,-0.2259564,1.267889,0.2698629,281.6459,270.7704,343.8919,True
2,2.555555,0.1732064,-0.01074133,-0.01346411,-1.490094,-4.706707,-1.663211,0.142178,1.288539,0.3646386,-0.3180219,0.02273789,2.1,2.3,0.08695361,0.148332,0.003782079,-0.4178686,-4.23174,0.1595497,0.332156,1.395761,0.2936177,0.0755441,-0.0004805326,0.1666016,-0.9596413,0.9057954,-0.5069098,0.4601278,1.471555,0.2025032,-0.2267835,1.266455,0.270467,281.6591,270.7508,343.968,True
2,2.566666,0.1720608,0.02138765,0.01618333,-1.491524,-4.70564,-1.665201,0.1414312,1.287677,0.3648443,-0.3183106,-0.02662178,2.7,2.3,0.03321274,0.1105352,-0.03340879,-0.4197845,-4.230915,0.1605236,0.331699,1.395644,0.2937453,0.09234741,-0.01444814,0.1462449,-0.9584776,0.9056864,-0.5084006,0.4590988,1.471179,0.2026978,-0.2275348,1.264952,0.270879,281.8076,271.2284,343.6201,True
2,2.577777,0.1678484,0.004375995,0.02374348,-1.490917,-4.705086,-1.667094,0.1408377,1.287045,0.3651378,-0.3183196,-0.0006060887,2.7,2.3,0.01312477,0.1147157,-0.01721677,-0.4191714,-4.227602,0.1580706,0.3307901,1.395156,0.2939224,0.1084349,-0.003869867,0.1535466,-0.9568354,0.907087,-0.510929,0.458039,1.470839,0.2029066,-0.2281654,1.263414,0.2709764,281.9948,271.8663,343.1029,True
2,2.588888,0.1551648,-0.03617253,0.01758294,-1.489167,-4.704911,-1.668406,0.1403181,1.28631,0.3652987,-0.3181551,0.01502145,3.3,2.2,0.002761796,0.1657451,-0.001727201,-0.4177605,-4.218502,0.1506271,0.3302271,1.394855,0.2937863,0.1087594,0.01428368,0.1812063,-0.9546047,0.9097272,-0.5137608,0.4571306,1.470401,0.2031732,-0.2287344,1.261848,0.2707524,282.1545,272.1897,342.753,True
2,2.599999,0.1477733,-0.06180994,0.008148026,-1.487787,-4.70492,-1.669868,0.1396938,1.285663,0.365438,-0.3180587,0.008673701,3.3,2.2,0.05614454,0.2157014,-0.009175695,-0.417753,-4.207956,0.1383829,0.3293422,1.394483,0.2938111,0.08218904,0.009096093,0.192099,-0.9522255,0.9110649,-0.5144801,0.4562106,1.470215,0.2034061,-0.2292493,1.260274,0.2702817,282.309,272.1411,342.6194,True
2,2.61111,0.144622,-0.0799397,0.006121185,-1.486292,-4.70478,-1.6714,0.1390999,1.285044,0.3656068,-0.3175074,0.05034717,4,1.7,0.03551565,0.176635,-0.03813916,-0.4190542,-4.205738,0.1366076,0.3284659,1.394164,0.2940063,0.04476711,0.01776087,0.1721579,-0.9513653,0.9122776,-0.5143158,0.4553435,1.469947,0.2036288,-0.229682,1.258707,0.2697265,282.4427,271.3604,343.1159,True
2,2.622221,0.1457474,-0.1044395,0.006270425,-1.484395,-4.704388,-1.673126,0.1384482,1.284484,0.3657997,-0.3176475,-0.01321829,4,1.7,0.01315943,0.1274947,-0.01393507,-0.4187064,-4.206144,0.137939,0.3273781,1.3936,0.2944548,0.04459476,0.02196138,0.1497827,-0.9506292,0.9130142,-0.5152676,0.4545815,1.469642,0.2039158,-0.2301008,1.257178,0.2692514,282.5727,270.3312,343.8659,True
2,2.633332,0.1436318,-0.1117912,0.02548798,-1.483014,-4.703259,-1.67473,0.137771,1.283944,0.3659308,-0.3177726,-0.01126849,4.5,1.4,0.02159592,0.1190035,-0.02048042,-0.4189807,-4.203508,0.1350212,0.3266407,1.393175,0.294791,0.04981125,0.01765556,0.1390933,-0.9496305,0.9137708,-0.5164348,0.4537903,1.469341,0.2041297,-0.2305969,1.255737,0.2689761,282.7078,269.5872,344.4026,True
2,2.644443,0.1286718,-0.09672388,0.05949669,-1.482692,-4.70122,-1.675705,0.1370768,1.283451,0.3660583,-0.317982,-0.01900331,4.5,1.4,0.03481808,0.1014694,-0.08577058,-0.4224269,-4.200627,0.1315972,0.3261094,1.392747,0.2951002,0.0528391,0.01440464,0.1220372,-0.9487975,0.9142134,-0.5173134,0.4529726,1.469135,0.2044082,-0.2311468,1.254393,0.2689461,282.8205,269.0675,344.8286,True
2,2.655554,0.1168755,-0.06674751,0.09021775,-1.483214,-4.699175,-1.676792,0.1364701,1.282919,0.3661528,-0.3178318,0.01388367,4.5,1.4,0.05823521,0.1035471,-0.08914356,-0.423286,-4.197246,0.1270557,0.3254608,1.392386,0.2954581,0.06553993,0.002620153,0.118756,-0.9475602,0.9145381,-0.518693,0.4522445,1.468972,0.2046638,-0.2317369,1.253129,0.2691278,282.8989,268.6753,345.2533,True
2,2.666665,0.1029568,-0.03998104,0.118825,-1.483949,-4.69695,-1.677708,0.1359928,1.282326,0.3662815,-0.3171415,0.06300192,4.8,0.9,0.04104284,0.09629926,-0.1039854,-0.4247678,-4.194487,0.1246098,0.3246584,1.391847,0.2958775,0.07507225,-0.009135762,0.119761,-0.9461349,0.9148819,-0.5199545,0.4516546,1.469047,0.2048562,-0.2323258,1.251939,0.2693891,282.9849,268.6496,345.433,True
2,2.677776,0.09016149,-0.03882531,0.1390612,-1.483768,-4.694702,-1.678419,0.1355727,1.281861,0.366261,-0.3172565,-0.0110043,4.8,0.9,0.002905399,0.1250841,-0.09165028,-0.4248541,-4.188763,0.1207001,0.3241384,1.391405,0.296083,0.08474144,-0.01661164,0.1335421,-0.9442243,0.9156938,-0.5217314,0.4510867,1.469062,0.205086,-0.2328702,1.250866,0.2695347,283.1223,269.01,345.2831,True
2,2.688887,0.08907516,-0.03127901,0.1549972,-1.483912,-4.69244,-1.679552,0.1352385,1.281405,0.3662176,-0.3171905,0.006229647,4.4,0.8,-0.009238079,0.1031327,-0.1311741,-0.4274651,-4.186778,0.119545,0.323959,1.39136,0.2964382,0.08780758,-0.03473914,0.1292865,-0.942652,0.9154847,-0.5225745,0.4507218,1.469067,0.2053313,-0.2332852,1.249934,0.2694192,283.2319,269.4334,345.0051,True
2,2.699998,0.08694633,-0.03235996,0.1539347,-1.48361,-4.690857,-1.680618,0.1349582,1.280919,0.366153,-0.317077,0.01039275,4.4,0.8,-0.00207901,0.08096909,-0.1559588,-0.4301964,-4.186074,0.1187043,0.3239014,1.391382,0.2968011,0.07598032,-0.03043653,0.1155274,-0.9419899,0.9159291,-0.5230579,0.4502637,1.468999,0.2057819,-0.2335216,1.249135,0.268975,283.2879,269.6619,344.7987,True
2,2.711109,0.08586735,-0.02603222,0.1432449,-1.483674,-4.689639,-1.681628,0.1346417,1.280406,0.3660939,-0.3175804,-0.04601583,3.6,0.7,-0.0135659,0.09679629,-0.1354675,-0.4307999,-4.181927,0.1154326,0.323471,1.391279,0.2971344,0.05875484,-0.01017618,0.08260927,-0.9424565,0.9164038,-0.5234084,0.4499277,1.46906,0.2060635,-0.2336154,1.248461,0.268187,283.3136,269.5249,344.8436,True
2,2.72222,0.07944313,-0.01222746,0.13783,-1.484171,-4.688484,-1.682414,0.1344126,1.279968,0.3661692,-0.3176959,-0.01012175,3.6,0.7,-0.04441427,0.09259388,-0.128855,-0.4318129,-4.17916,0.1143149,0.3230827,1.391339,0.2974682,0.03717188,-0.01225613,0.05082792,-0.9428581,0.9160073,-0.5228973,0.4497153,1.469205,0.2064137,-0.2335953,1.247875,0.2671137,283.2828,269.2396,344.9154,True
2,2.733331,0.07092025,-0.01222999,0.1410244,-1.484223,-4.686802,-1.683038,0.1341472,1.27948,0.3661768,-0.3177183,-0.001972614,3.6,0.7,-0.05716862,0.09795585,-0.1276298,-0.4330156,-4.175838,0.1123686,0.3226851,1.391278,0.2977357,0.0211402,-0.01964157,0.04884528,-0.9422306,0.9157965,-0.5224534,0.4493898,1.469259,0.20667,-0.2335538,1.247309,0.2658955,283.215,268.8262,345.0033,True
2,2.744442,0.05917559,-0.001622975,0.137768,-1.484738,-4.685353,-1.683388,0.1339036,1.279139,0.3662553,-0.3175447,0.01594687,3,0.5,-0.03447773,0.1414006,-0.1082475,-0.43343,-4.167251,0.104177,0.3224825,1.391187,0.2980406,0.004078886,-0.02701218,0.05112549,-0.9414253,0.9155432,-0.5218073,0.448989,1.469322,0.2069926,-0.2335616,1.246718,0.2647093,283.1708,268.4768,344.969,True
2,2.755553,0.0559913,-0.005889475,0.1388592,-1.484659,-4.683738,-1.68407,0.1336402,1.278739,0.3662691,-0.3173726,0.01559295,3,0.5,-0.02929769,0.09448114,-0.1055446,-0.4345661,-4.168129,0.1051238,0.3221279,1.391192,0.2983732,0.002137968,-0.01737966,0.06816901,-0.9403813,0.9165722,-0.5224142,0.4487137,1.469488,0.2073176,-0.2335952,1.246092,0.2637047,283.1796,268.2685,344.8406,True
2,2.766664,0.05707774,-0.01011932,0.1442109,-1.484555,-4.681905,-1.685084,0.1331484,1.278519,0.3663754,-0.3171819,0.01739959,2.9,0.4,-0.005693689,0.08672932,-0.08239552,-0.4348383,-4.166141,0.1027064,0.3215252,1.390988,0.2987266,0.004433203,0.00074213,0.07770451,-0.9397007,0.9179953,-0.5233974,0.4484136,1.469431,0.2077639,-0.2336594,1.245437,0.2629178,283.2304,268.1299,344.7767,True
2,2.777775,0.06135207,-0.0143553,0.1474321,-1.484412,-4.680135,-1.686119,0.132824,1.278321,0.366441,-0.3175623,-0.03484777,2.9,0.4,-0.005973801,0.07528059,-0.1102026,-0.4369086,-4.164276,0.1011037,0.3211446,1.390934,0.2990277,0.0109137,0.0135038,0.08082028,-0.939169,0.9191926,-0.5244629,0.4481767,1.469546,0.2080674,-0.2337507,1.244806,0.2623487,283.326,268.0833,344.7245,True
2,2.788886,0.06356874,-0.04851253,0.1348454,-1.482843,-4.678854,-1.68701,0.1325978,1.278357,0.3665271,-0.3179745,-0.03735264,2.4,0.3,-0.02721576,0.07850652,-0.1046734,-0.4380602,-4.161534,0.09963285,0.3208439,1.391126,0.2991197,0.004541356,0.02100229,0.07979233,-0.9388011,0.9203676,-0.5248808,0.4478648,1.469704,0.2081962,-0.2338965,1.244211,0.2619511,283.395,268.0003,344.7817,True
2,2.799997,0.06794505,-0.09129602,0.1042056,-1.480518,-4.678257,-1.688023,0.1324359,1.278391,0.3665993,-0.3180565,-0.007187499,2.4,0.3,-0.05019106,0.097344,-0.0584869,-0.4369193,-4.156999,0.09683786,0.3207474,1.39115,0.2990818,-0.01043277,0.03702783,0.06390465,-0.939192,0.9215026,-0.5248699,0.447704,1.469875,0.2084734,-0.2341412,1.243656,0.2616649,283.4506,267.9496,344.8369,True
2,2.811108,0.07014676,-0.1190861,0.08732097,-1.478336,-4.677581,-1.688939,0.1322871,1.278408,0.3667173,-0.3179569,0.009138996,1.8,0.2,-0.04973734,0.1118088,-0.01147544,-0.4353698,-4.153248,0.09400852,0.3205351,1.391223,0.2992983,-0.01793528,0.0349244,0.05971024,-0.9389172,0.9221619,-0.5248076,0.4476125,1.469966,0.2087409,-0.234341,1.243127,0.2614381,283.5076,267.8394,344.9644,True
2,2.822219,0.07659557,-0.1404396,0.07679629,-1.476164,-4.676664,-1.690159,0.1322131,1.278409,0.3668592,-0.3181231,-0.01525801,1.8,0.2,-0.03592318,0.092536,-0.006461669,-0.435519,-4.152296,0.09315924,0.3203652,1.391323,0.2996912,-0.02317525,0.04349601,0.06612606,-0.9385379,0.9236929,-0.5252193,0.4475538,1.469924,0.2090206,-0.2344482,1.24263,0.2612652,283.5761,267.2935,345.4936,True
2,2.83333,0.07127836,-0.1436577,0.07575152,-1.474499,-4.675589,-1.690903,0.1320263,1.27843,0.3669214,-0.318031,0.008543719,1.8,0.2,0.00375399,0.03767194,-0.07763614,-0.4389054,-4.154846,0.09408389,0.3201524,1.391316,0.3000498,-0.02414763,0.05948428,0.06823482,-0.9384272,0.9255159,-0.5259839,0.4474784,1.470033,0.2092936,-0.2344812,1.242158,0.2611911,283.6171,266.5127,346.2162,True
2,2.844441,0.07017571,-0.1277008,0.07140092,-1.473809,-4.674811,-1.691738,0.1317842,1.278373,0.3669753,-0.3182824,-0.02312544,1.2,0.3,0.003586061,0.01754883,-0.08848882,-0.4403547,-4.155024,0.09428309,0.3199642,1.391441,0.3002734,-0.03275795,0.06589913,0.05444242,-0.9389278,0.9267561,-0.5260513,0.4474757,1.470255,0.2097011,-0.2344654,1.2417,0.2612354,283.6451,265.8967,346.7914,True
2,2.855552,0.06901148,-0.08501381,0.08500957,-1.47453,-4.673387,-1.692719,0.1316663,1.278305,0.3668666,-0.3178078,0.04360662,1.2,0.3,-0.0250452,0.03355172,-0.07957052,-0.4407542,-4.152615,0.09339733,0.3197259,1.391563,0.3004141,-0.05750407,0.05105689,0.03336195,-0.9393406,0.9263887,-0.5243983,0.4475072,1.470428,0.2099838,-0.2344203,1.241227,0.2613567,283.6603,265.5011,347.2173,True
2,2.866663,0.07529842,-0.04337268,0.0986203,-1.475696,-4.671961,-1.693893,0.1314659,1.278198,0.3667762,-0.317876,-0.006616638,0.8,0.2,-0.04422669,0.04005168,-0.0825407,-0.4416096,-4.150387,0.09259199,0.3195365,1.391803,0.3004818,-0.06723168,0.0478823,0.01852958,-0.9398679,0.9266611,-0.5234672,0.4476243,1.47071,0.2101159,-0.2344669,1.24075,0.2614626,283.7198,265.3512,347.4543,True
2,2.877774,0.08265875,-0.008077137,0.1186606,-1.476999,-4.670134,-1.695119,0.1313628,1.278134,0.3666821,-0.3179857,-0.009966682,0.8,0.2,-0.06498134,0.100479,-0.04342858,-0.4404682,-4.143276,0.08753651,0.3193559,1.391944,0.3005371,-0.06295873,0.053191,0.01634773,-0.9402349,0.9276542,-0.52364,0.4476685,1.470933,0.2105315,-0.2345906,1.240293,0.2614846,283.8044,265.5083,347.3968,True
2,2.888885,0.09112003,0.01646975,0.1227822,-1.478157,-4.66876,-1.69651,0.1312617,1.278078,0.3665006,-0.3181913,-0.01871015,0.6,0.1,-0.07778101,0.103754,-0.04648877,-0.4410189,-4.140163,0.08601611,0.3191934,1.392116,0.3006597,-0.0617453,0.05747207,0.03124673,-0.9398535,0.9289844,-0.5238033,0.4476811,1.471187,0.2108068,-0.2346723,1.239877,0.2613171,283.8961,265.9948,347.0194,True
2,2.899997,0.09215477,0.02715816,0.125923,-1.479085,-4.667321,-1.697622,0.1310892,1.278107,0.3665454,-0.3182115,-0.001688177,0.6,0.1,-0.08636294,0.1220371,-0.06115683,-0.4421002,-4.135409,0.08295534,0.3189898,1.392323,0.3008389,-0.06260735,0.05221239,0.05788901,-0.9388777,0.9304829,-0.523991,0.4476188,1.471578,0.2111292,-0.2346936,1.239493,0.260889,283.9648,266.4595,346.5952,True
2,2.911108,0.09747702,0.02927127,0.1205853,-1.479607,-4.666238,-1.698976,0.1310631,1.278108,0.3663425,-0.3183894,-0.01631305,0.6,0.1,-0.1001876,0.09638932,-0.04743156,-0.442203,-4.135112,0.08425283,0.3190537,1.392579,0.3008518,-0.05602247,0.06286752,0.07485875,-0.9381959,0.9324476,-0.524754,0.4476676,1.471866,0.2114122,-0.2345918,1.239326,0.2604311,283.8986,265.1368,348.0522,True
2,2.922219,0.1006718,0.03034931,0.1184555,-1.480334,-4.665014,-1.700296,0.1311307,1.278179,0.366292,-0.3180922,0.02731804,0.3,0.2,-0.1042217,0.1068565,-0.02597738,-0.4414413,-4.131671,0.08231805,0.3192141,1.392644,0.3008986,-0.05802793,0.07462086,0.08337755,-0.9378822,0.9346228,-0.5252952,0.4477053,1.472258,0.2117298,-0.2345144,1.23924,0.2598137,283.8185,265.8585,347.2614,True
2,2.93333,0.09748776,0.02605426,0.1120887,-1.48075,-4.663982,-1.701351,0.1311829,1.278288,0.3661532,-0.3183053,-0.01974855,0.3,0.2,-0.08314019,0.09312455,-0.04653016,-0.4425364,-4.129981,0.08100324,0.3192882,1.392802,0.3010783,-0.04840383,0.07671237,0.08648863,-0.9374551,0.9362582,-0.5260414,0.4478326,1.472559,0.2119381,-0.2344316,1.23915,0.2590494,283.779,266.2665,346.6561,True
2,2.944441,0.09432501,0.01643467,0.1078846,-1.480751,-4.66289,-1.702488,0.1312366,1.278414,0.3660159,-0.3182568,0.004592292,0.3,0.1,-0.06428292,0.05917429,-0.06833388,-0.4443463,-4.130878,0.08196038,0.3194309,1.393314,0.3013811,-0.03452454,0.07346185,0.09168079,-0.9370939,0.9374552,-0.526831,0.4479802,1.472686,0.211941,-0.2342912,1.239101,0.2583635,283.6684,265.3777,347.4636,True
2,2.955552,0.09435645,0.00466162,0.09943023,-1.480442,-4.662016,-1.703599,0.1313776,1.278576,0.3658366,-0.3179772,0.0254767,0.3,0.1,-0.07497283,0.04214288,-0.06520876,-0.4448816,-4.130715,0.08302378,0.3194734,1.393694,0.3014898,-0.03880158,0.06815758,0.09279235,-0.9364638,0.9387301,-0.5270033,0.4481939,1.473024,0.2120705,-0.2340847,1.239065,0.257762,283.6137,265.4448,347.2727,True
2,2.966663,0.09229206,-0.01781838,0.081453,-1.479561,-4.661561,-1.704698,0.1314267,1.278817,0.3657987,-0.318015,-0.003686195,0.2,0.2,-0.08126875,0.05063766,-0.05761515,-0.4451426,-4.128115,0.08179926,0.3195105,1.394059,0.3013892,-0.06355788,0.05545349,0.06956733,-0.9369123,0.9388019,-0.5254552,0.448565,1.473311,0.212147,-0.2338835,1.23904,0.2572891,283.5418,265.0609,347.6369,True
2,2.977774,0.09127134,-0.03174619,0.06981774,-1.478752,-4.660942,-1.705854,0.1314308,1.278981,0.3656983,-0.3180155,1.54819E-05,0.2,0.2,-0.08111949,0.06865476,-0.04785508,-0.4452241,-4.124856,0.07975449,0.3195003,1.394378,0.301425,-0.07760006,0.04803003,0.04944011,-0.9374577,0.9389754,-0.5243772,0.4488698,1.473773,0.2123313,-0.2336718,1.239021,0.2569445,283.4914,264.8289,347.8911,True
2,2.988885,0.08168294,-0.0307597,0.06022238,-1.478509,-4.660545,-1.706477,0.1314678,1.279248,0.3656454,-0.3180379,-0.002030019,0.1,0.2,-0.07342401,0.07797796,-0.0233293,-0.4444965,-4.121862,0.07762103,0.3193878,1.394883,0.3011959,-0.09488475,0.04595422,0.02294769,-0.9385272,0.9393681,-0.5228832,0.4490967,1.474209,0.2122741,-0.2334785,1.239017,0.2567546,283.4228,264.2813,348.5,True
2,2.999996,0.06997833,-0.03293817,0.05704015,-1.478211,-4.659897,-1.707084,0.1314372,1.279545,0.3656032,-0.3180778,-0.003649926,0.1,0.2,-0.07951105,0.09798326,0.003548799,-0.4435319,-4.118383,0.07551127,0.3193424,1.395239,0.3010838,-0.1130746,0.04497713,0.01456894,-0.9390903,0.9400734,-0.5214126,0.4493507,1.474592,0.2126734,-0.2333573,1.23901,0.2567025,283.3667,264.097,348.7018,True
2,3.011107,0.05827955,-0.04045469,0.05175459,-1.477578,-4.659395,-1.70739,0.1314555,1.279911,0.3655434,-0.3175756,0.04595413,0.1,0.2,-0.08784674,0.11385,0.01868705,-0.4426712,-4.114281,0.07306862,0.3193712,1.395613,0.3010719,-0.1140569,0.04925792,0.02202618,-0.9389976,0.9411266,-0.5207369,0.449652,1.474937,0.2127626,-0.2330388,1.238921,0.2568621,283.2863,264.6821,348.1276,True
2,3.022218,0.04662777,-0.06929937,0.04233356,-1.475908,-4.658947,-1.707512,0.1316044,1.280355,0.3655322,-0.3175175,0.004938105,0.1,0.1,-0.08688874,0.0925748,0.01529808,-0.4424187,-4.113739,0.07356343,0.319736,1.39587,0.3009317,-0.09240723,0.05350199,0.0591091,-0.9379888,0.9431812,-0.5218126,0.4500502,1.475274,0.2132661,-0.2331445,1.238976,0.2568587,283.4011,264.9605,347.9109,True
2,3.033329,0.04031752,-0.1013094,0.03612866,-1.473833,-4.658374,-1.707866,0.1317334,1.280973,0.3655167,-0.3172949,0.0203919,0.1,0.1,-0.07503786,0.0987971,0.0280393,-0.4416693,-4.110888,0.07140201,0.3197799,1.396313,0.3010144,-0.09117251,0.05672857,0.07719976,-0.9371461,0.9448008,-0.521811,0.4503977,1.475636,0.2134447,-0.2331982,1.239025,0.2568114,283.4588,264.9855,347.9548,True
2,3.04444,0.04246178,-0.10985,0.03191848,-1.472406,-4.657916,-1.708364,0.1319287,1.281432,0.3654175,-0.3171745,0.01090628,0.2,0,-0.08156684,0.09361692,0.01420189,-0.4418147,-4.109089,0.0708803,0.3197314,1.396829,0.3008862,-0.1123586,0.06431875,0.08801778,-0.9365587,0.9468424,-0.5208781,0.4507215,1.476079,0.2134697,-0.2332144,1.239123,0.2567057,283.5086,264.5494,348.4084,True
2,3.055551,0.0488575,-0.1119672,0.03086697,-1.471235,-4.65741,-1.709136,0.1321904,1.281985,0.3652785,-0.3174717,-0.02721227,0.2,0,-0.1100373,0.09446388,0.04854684,-0.4400783,-4.106756,0.07100307,0.3202001,1.397314,0.3008623,-0.1457447,0.04524145,0.05530621,-0.9371046,0.9464342,-0.5179102,0.4512381,1.476354,0.2136436,-0.2332202,1.239202,0.2565587,283.5411,264.0379,348.9698,True
2,3.066662,0.04564466,-0.1055529,0.03615604,-1.470373,-4.656685,-1.7096,0.1323229,1.282466,0.3651626,-0.3177274,-0.0230495,0.1,0.1,-0.1321967,0.107145,0.06803356,-0.4385502,-4.103209,0.07002196,0.320363,1.397672,0.300765,-0.1470733,0.03879574,0.02763294,-0.9377102,0.9462064,-0.5161489,0.4516969,1.476544,0.2139127,-0.2332078,1.239376,0.2565046,283.5457,263.8458,349.2196,True
2,3.077773,0.03280888,-0.08528107,0.04775428,-1.470247,-4.655713,-1.709574,0.132398,1.282945,0.3650362,-0.3180539,-0.02969274,0.1,0.1,-0.1383972,0.1337008,0.07899344,-0.4372058,-4.097512,0.06654813,0.3205526,1.398056,0.3007348,-0.1365483,0.04935218,0.006215334,-0.938727,0.9467272,-0.5154021,0.4521667,1.476715,0.2139585,-0.2330855,1.239511,0.2564059,283.556,262.9858,350.048,True
2,3.088884,0.01892018,-0.07035771,0.05512813,-1.470165,-4.654722,-1.709374,0.1325354,1.283353,0.3649206,-0.3177705,0.02618972,0.1,0.1,-0.1323029,0.0933618,0.06150812,-0.4371542,-4.098437,0.06864005,0.3207374,1.398442,0.3007517,-0.1365699,0.05042146,0.003012668,-0.9391968,0.9474528,-0.5143049,0.4526922,1.477077,0.2139268,-0.2326747,1.239612,0.2562675,283.8694,262.5001,350.5385,True
2,3.099995,0.008255351,-0.06614716,0.05191288,-1.469532,-4.654083,-1.709175,0.1326596,1.28382,0.3648238,-0.3172549,0.04689152,0.1,0,-0.1261134,0.05292642,0.05573479,-0.4369049,-4.100204,0.07145501,0.321089,1.398782,0.3005817,-0.1388597,0.03444552,-0.007591158,-0.9395946,0.9471415,-0.5125347,0.4531918,1.477407,0.2141435,-0.2324698,1.239694,0.2561125,283.7324,262.1126,351.1278,True
2,3.111106,0.005095745,-0.08005881,0.04240445,-1.468205,-4.653751,-1.709174,0.1329441,1.284383,0.3647299,-0.3171058,0.01330897,0.1,0,-0.1196245,0.04744357,0.0694771,-0.4356005,-4.099586,0.07199536,0.3214124,1.399101,0.300503,-0.1281817,0.03439458,-0.005544864,-0.9396617,0.9475228,-0.5118188,0.4536108,1.477524,0.2143924,-0.2323518,1.239825,0.2559672,283.8567,261.2292,352.0554,True
2,3.122217,0.0009102058,-0.1057407,0.02443938,-1.466137,-4.653804,-1.709213,0.1331794,1.28506,0.3647151,-0.3172325,-0.01157366,0,0.2,-0.1035655,0.03873079,0.08310623,-0.4341964,-4.099251,0.07236368,0.3216162,1.399773,0.3004124,-0.1195764,0.04715236,-0.002438584,-0.9400437,0.9488682,-0.5115514,0.4540022,1.477912,0.2142806,-0.232259,1.239955,0.255786,283.9792,260.4151,352.9889,True
2,3.133328,-0.01072189,-0.1388944,0.007584302,-1.463443,-4.653855,-1.708729,0.1334939,1.285636,0.3646321,-0.3175654,-0.03029586,0,0.2,-0.09511715,0.02380629,0.08076363,-0.4333261,-4.099939,0.0737645,0.321945,1.400029,0.3002164,-0.1205723,0.05569357,0.0007487927,-0.9404378,0.9500263,-0.5108697,0.4545386,1.478141,0.2143269,-0.232031,1.24009,0.2556221,284.293,259.8906,353.5459,True
2,3.144439,-0.01812558,-0.157091,-0.004022671,-1.461105,-4.653825,-1.708374,0.1338682,1.286184,0.3645415,-0.3177407,-0.0156861,0.1,0.2,-0.08789325,0.01654164,0.05825634,-0.433552,-4.100013,0.07480101,0.3227546,1.40031,0.3000045,-0.1175554,0.04820088,-0.01416883,-0.9411057,0.9500862,-0.5094518,0.4552436,1.478274,0.2144048,-0.2317247,1.240256,0.2555396,284.4614,259.4665,353.9701,True
2,3.15555,-0.02872306,-0.1753204,-0.01990125,-1.458499,-4.65425,-1.707781,0.1342544,1.286683,0.3644485,-0.3172858,0.04172455,0.1,0.2,-0.07926699,0.006766926,0.07407203,-0.4321426,-4.10076,0.07601541,0.3230206,1.400699,0.2998376,-0.1176504,0.04392131,-0.02267635,-0.9416698,0.9501316,-0.5081319,0.4558381,1.478449,0.2144077,-0.2313026,1.240393,0.2555091,284.7502,259.2908,354.0427,True
2,3.166661,-0.03723223,-0.179663,-0.03052855,-1.456315,-4.654651,-1.70702,0.1345767,1.287231,0.3643739,-0.3174227,-0.01284575,0.1,0.2,-0.07409944,-0.01125959,0.06320126,-0.4318752,-4.10263,0.07836112,0.3233045,1.401043,0.2996361,-0.1242225,0.04072321,-0.04178614,-0.9428149,0.9499418,-0.5063345,0.4563318,1.478615,0.2142513,-0.2309487,1.24052,0.2554864,284.7926,258.8682,354.4105,True
2,3.177772,-0.04470865,-0.1712177,-0.04123275,-1.454716,-4.655288,-1.706172,0.1348804,1.287806,0.364346,-0.3173348,0.008225897,0,0.6,-0.08140557,0.005735587,0.07301077,-0.430777,-4.100644,0.07766124,0.3238016,1.401223,0.2992311,-0.1326905,0.04930295,-0.03958101,-0.9433875,0.9510477,-0.5051561,0.4569055,1.478867,0.2143588,-0.2304419,1.240644,0.2554379,285.1216,258.8737,354.3233,True
2,3.188883,-0.05427551,-0.1766067,-0.04759396,-1.452466,-4.655707,-1.705308,0.1351184,1.288321,0.3643117,-0.3172363,0.009002091,0,0.6,-0.08324601,0.02253149,0.09982231,-0.4286933,-4.098938,0.07711689,0.3240829,1.401534,0.2989478,-0.1217758,0.06422246,-0.01519324,-0.9433343,0.9529858,-0.5051084,0.4575396,1.478925,0.2143743,-0.2301501,1.240775,0.2553619,285.0166,258.1289,355.0471,True
2,3.199994,-0.05748867,-0.1691521,-0.04657305,-1.45075,-4.655959,-1.704565,0.1354107,1.288928,0.3642039,-0.3172581,-0.001996713,0,1,-0.07997214,0.01173256,0.1135482,-0.4268813,-4.099992,0.07883063,0.3243957,1.401841,0.2986953,-0.1172781,0.07596937,0.00713817,-0.9429502,0.9550806,-0.5051316,0.4581051,1.478979,0.2143271,-0.2297537,1.240927,0.2552817,285.444,258.0692,354.9986,True
2,3.211105,-0.06709377,-0.1617495,-0.0519442,-1.449122,-4.656529,-1.703394,0.1357534,1.289437,0.3640547,-0.3173124,-0.004882261,0,1,-0.08109967,0.02357091,0.100888,-0.4261963,-4.098811,0.07867191,0.3248282,1.402097,0.2984121,-0.1193258,0.08239342,0.01569452,-0.9427984,0.9568315,-0.5044616,0.4587642,1.479079,0.2142372,-0.2295161,1.24111,0.255228,285.5519,257.618,355.3583,True
2,3.222216,-0.06925992,-0.1447027,-0.05097904,-1.448111,-4.656942,-1.702644,0.1361274,1.2899,0.3639302,-0.3175021,-0.01723929,0,1.6,-0.07999595,0.03208193,0.1020202,-0.4250773,-4.097352,0.07822023,0.3253045,1.402421,0.2981367,-0.1225544,0.07921392,0.01360212,-0.9430967,0.9577907,-0.5035713,0.4592061,1.479307,0.2140372,-0.2292487,1.241267,0.2551672,285.8778,257.6255,355.2727,True
2,3.233327,-0.06402726,-0.106373,-0.05652629,-1.448079,-4.65781,-1.702002,0.1367484,1.29042,0.3638043,-0.3172102,0.02688438,0,1.6,-0.08606559,0.04137102,0.136251,-0.4223411,-4.095867,0.07807723,0.3259127,1.40278,0.297931,-0.1196384,0.05997358,-0.008749814,-0.9437215,0.9572256,-0.5019904,0.4598678,1.479428,0.213737,-0.2289106,1.241439,0.2550875,286.1148,257.5191,355.3195,True
2,3.244438,-0.05767281,-0.09252616,-0.05980224,-1.447411,-4.658513,-1.701458,0.1373282,1.290909,0.3637395,-0.3176517,-0.04058918,0,2.1,-0.07988805,0.004145704,0.1273178,-0.4212753,-4.098945,0.08156677,0.3265305,1.403114,0.2977402,-0.09532323,0.03959606,-0.01956822,-0.9440906,0.9566053,-0.5013883,0.4605297,1.479621,0.2135677,-0.2286347,1.241686,0.2550088,286.1824,257.1562,355.7184,True
2,3.255549,-0.053461,-0.07227813,-0.05991668,-1.447164,-4.659132,-1.700944,0.1379488,1.291436,0.3636882,-0.3179196,-0.0240655,0,2.1,-0.05684227,-0.02009766,0.0927944,-0.4215869,-4.100802,0.08324269,0.3273863,1.40332,0.2975209,-0.0890141,0.02996551,-0.02386442,-0.9443878,0.9563546,-0.5004601,0.4612065,1.479719,0.2133353,-0.2282715,1.242085,0.2549412,286.2281,257.1608,355.7044,True
2,3.26666,-0.05881505,-0.06060653,-0.06531213,-1.446718,-4.659991,-1.700017,0.1387296,1.291859,0.3637412,-0.3180363,-0.01051351,0,2.1,-0.04309863,-0.02858942,0.08407347,-0.4210239,-4.102417,0.08471622,0.3279967,1.403701,0.2973714,-0.0880344,0.03098995,-0.03666602,-0.9453647,0.9560689,-0.4995704,0.4618914,1.479981,0.2129726,-0.2278286,1.242544,0.2549509,286.278,257.0825,355.7881,True
2,3.277771,-0.06202204,-0.0553239,-0.07067148,-1.446037,-4.660871,-1.699142,0.1393775,1.292418,0.3638322,-0.3180656,-0.002610925,0.8,3.2,-0.02610973,-0.04464112,0.08483829,-0.4200849,-4.104995,0.08687125,0.3285665,1.40424,0.2971065,-0.08072286,0.02558909,-0.05272279,-0.9467069,0.9552221,-0.4985677,0.4627143,1.479972,0.2127199,-0.227268,1.243057,0.255027,286.3073,256.9724,355.8932,True
2,3.288882,-0.06200852,-0.05966458,-0.08449558,-1.44509,-4.662155,-1.698294,0.1401513,1.293113,0.3639791,-0.317689,0.03446135,0.8,3.2,-0.01303483,-0.03218231,0.1136129,-0.4178745,-4.105362,0.08690827,0.3292887,1.40483,0.2968709,-0.08080423,0.01599296,-0.05696408,-0.9473184,0.9546371,-0.4973317,0.4634512,1.480252,0.2124646,-0.2266502,1.243698,0.2551539,286.2612,257.0803,355.7683,True
2,3.299993,-0.05771228,-0.07250018,-0.09507535,-1.443662,-4.663387,-1.697675,0.1408747,1.293749,0.3641109,-0.3177268,-0.00372135,1.4,3.2,0.002202064,-0.007971637,0.1392873,-0.4153839,-4.10346,0.08449997,0.3300335,1.405131,0.2967088,-0.08169654,0.01071489,-0.03352679,-0.9471191,0.9546048,-0.4963616,0.4643934,1.48063,0.2124248,-0.2259593,1.244471,0.2553294,286.2034,257.2305,355.5543,True
2,3.311104,-0.0491408,-0.09069882,-0.1141446,-1.441818,-4.665101,-1.697178,0.1417977,1.294662,0.3643804,-0.3178451,-0.01076584,1.4,3.2,0.01601285,-0.01546977,0.138033,-0.4139207,-4.104774,0.08507948,0.3308391,1.405811,0.2965515,-0.07612,-0.00308419,0.003740486,-0.9457988,0.9548305,-0.4958649,0.4652691,1.481077,0.2121687,-0.2252875,1.245385,0.2555326,286.1533,257.3456,355.3371,True
