loc,t,aDotUA,bDotUA,gDotUA,aUA,bUA,gUA,xUA,yUA,zUA,qE,qDotE,emgA,emgB,aDotSH,bDotSH,gDotSH,aSH,bSH,gSH,xSH,ySH,zSH,aDotUB,bDotUB,gDotUB,aUB,bUB,gUB,xUB,yUB,zUB,xHand,yHand,zHand,aHand,bHand,gHand,enable
0,0,0.1763243,0.762328,0.1679052,-1.569855,-1.986534,2.980527,0.7465274,1.228386,-0.02826759,-1.232987,-0.02227866,0,0,0.3162865,-0.365002,-0.1379013,-1.033564,-1.539898,-0.2057976,0.7797277,1.401175,-0.02806857,0.1912908,-0.2944898,0.08623882,-0.9005916,-0.08853825,0.1030846,0.8365939,1.507161,0.1778442,0.4902777,1.02078,0.1254996,63.66253,102.4077,168.5667,True
0,0.01111111,0.192229,0.7346282,0.157142,-1.570012,-1.993894,2.977972,0.7453012,1.228423,-0.02789512,-1.233359,-0.03606511,0,0,0.3184583,-0.349034,-0.1442814,-1.034601,-1.544291,-0.2071095,0.7786653,1.401149,-0.02806643,0.1923646,-0.2891414,0.08416943,-0.8999402,-0.09239504,0.1034473,0.8365771,1.507347,0.1775081,0.4890835,1.021133,0.1272262,63.8163,102.5114,168.6863,True
0,0.02222222,0.2017027,0.7122391,0.1432437,-1.569954,-2.001043,2.97545,0.7438352,1.228369,-0.02753517,-1.233498,-0.01434381,0,0,0.319628,-0.3298661,-0.1431932,-1.0355,-1.548014,-0.2087516,0.7776866,1.401061,-0.0281052,0.1964732,-0.2965415,0.07657123,-0.8997426,-0.09692894,0.1039634,0.8364514,1.507344,0.1771554,0.48796,1.021746,0.1289837,63.96489,102.6293,168.7225,True
0,0.03333334,0.2016512,0.6994421,0.1368727,-1.569986,-2.008575,2.973316,0.7422893,1.228345,-0.02715501,-1.233787,-0.02952003,0,0,0.3123687,-0.3138838,-0.1260836,-1.035724,-1.551801,-0.2101338,0.7766809,1.400945,-0.02814874,0.2047723,-0.3060569,0.06571703,-0.8995828,-0.1015415,0.1044455,0.8362844,1.507234,0.1768735,0.4869575,1.022585,0.1308983,64.1529,102.7753,168.7032,True
0,0.04444445,0.1973326,0.6770459,0.1284453,-1.569955,-2.015337,2.971302,0.740844,1.228336,-0.02683702,-1.234172,-0.0372569,0,0,0.3008307,-0.3064024,-0.1036268,-1.035481,-1.555467,-0.211194,0.775651,1.400924,-0.02819178,0.2152738,-0.3113494,0.05701151,-0.8994608,-0.1058776,0.1045006,0.8362074,1.507288,0.1765329,0.4861648,1.023631,0.1330158,64.37556,103.0157,168.6691,True
0,0.05555556,0.1887032,0.6567644,0.1157951,-1.569695,-2.02203,2.969541,0.7393019,1.228251,-0.02653423,-1.234812,-0.0604226,0,0,0.2934646,-0.307464,-0.0886841,-1.035432,-1.559793,-0.2120579,0.7746451,1.400871,-0.02822104,0.2194127,-0.3144903,0.04946522,-0.8995529,-0.1105031,0.1048415,0.8360562,1.507254,0.1762204,0.4854067,1.024791,0.135383,64.65376,103.3558,168.605,True
0,0.06666667,0.1779976,0.6471479,0.1095361,-1.569499,-2.029073,2.96792,0.7378402,1.228209,-0.02622509,-1.235422,-0.05637318,0,0,0.2807921,-0.3148929,-0.06517869,-1.034534,-1.564116,-0.2125541,0.7735236,1.400868,-0.02825528,0.2320707,-0.3176961,0.04181,-0.8997468,-0.1151296,0.1047805,0.8358842,1.507252,0.1758756,0.4846892,1.025982,0.1379604,64.96136,103.7505,168.5001,True
0,0.07777778,0.159924,0.6364734,0.1118855,-1.569736,-2.035938,2.966812,0.7363501,1.22808,-0.02598295,-1.236024,-0.05587731,0,0,0.2690267,-0.3404358,-0.05130044,-1.033766,-1.56965,-0.2123242,0.772208,1.400771,-0.02824944,0.239514,-0.3241856,0.04483677,-0.8995402,-0.1200401,0.1049259,0.8357042,1.507254,0.1755037,0.4840348,1.02712,0.1406242,65.27631,104.205,168.3714,True
0,0.08888889,0.1502983,0.6321895,0.1077341,-1.569568,-2.042913,2.965512,0.734921,1.228033,-0.02569619,-1.236507,-0.04463625,0,0,0.2678542,-0.3510826,-0.05770653,-1.033819,-1.574797,-0.2125565,0.7712598,1.400758,-0.02828041,0.2491784,-0.3254084,0.05326482,-0.898623,-0.1244607,0.1048601,0.8351249,1.506966,0.1751924,0.4834151,1.028113,0.1432541,65.57239,104.6967,168.2642,True
0,0.1,0.1184017,0.6342882,0.1144588,-1.569897,-2.050229,2.965324,0.7330043,1.227758,-0.02538827,-1.237107,-0.05539489,0,0,0.2739703,-0.3745127,-0.08228473,-1.034455,-1.580858,-0.2127203,0.7700047,1.400715,-0.0283075,0.2618475,-0.336137,0.05084955,-0.8985782,-0.1297567,0.1048194,0.8349513,1.506953,0.1747781,0.4828883,1.028908,0.1457586,65.81335,105.1472,168.1682,True
0,0.1111111,0.09596889,0.643838,0.1104076,-1.569666,-2.057778,2.965006,0.731535,1.227683,-0.02509919,-1.237299,-0.01696309,0,0,0.2822524,-0.3915682,-0.106869,-1.035402,-1.586964,-0.2130633,0.7687035,1.400548,-0.0283573,0.2639211,-0.3403752,0.0497174,-0.8983673,-0.1343274,0.1048686,0.8346902,1.506987,0.174352,0.4824629,1.029459,0.148095,65.98151,105.5246,168.0642,True
0,0.1222222,0.08846046,0.6491446,0.1062123,-1.569399,-2.065298,2.964282,0.7301273,1.22769,-0.02480188,-1.238002,-0.06536682,0,0,0.298944,-0.4129001,-0.1453602,-1.037188,-1.593816,-0.21352,0.7674298,1.400513,-0.02846047,0.270043,-0.3541195,0.03669129,-0.8988994,-0.1400006,0.1051285,0.8345358,1.506945,0.1738879,0.4820284,1.029744,0.1502998,66.07764,105.9169,168.0258,True
0,0.1333333,0.06732766,0.6523511,0.1234676,-1.570018,-2.072876,2.964134,0.7289486,1.227726,-0.02455646,-1.238279,-0.02284886,0,0,0.3072102,-0.4470161,-0.159312,-1.03794,-1.601345,-0.2134462,0.7661843,1.40051,-0.02840826,0.2761229,-0.3667432,0.02047781,-0.8997011,-0.1453354,0.105368,0.834576,1.506941,0.1734697,0.4815225,1.029737,0.1524209,66.12315,106.2761,167.9958,True
0,0.1444445,0.06305536,0.6683272,0.1245414,-1.570019,-2.080927,2.963589,0.7275884,1.227718,-0.02425417,-1.237954,0.02986013,0,0,0.3039344,-0.4480465,-0.1710115,-1.039133,-1.607608,-0.2135288,0.7650089,1.40048,-0.02844179,0.2792239,-0.3687945,0.01510121,-0.8999418,-0.1498677,0.1052375,0.8344113,1.506982,0.1731546,0.4812001,1.029516,0.1544196,66.06206,106.6823,168.0583,True
0,0.1555556,0.05664217,0.702415,0.1277282,-1.569932,-2.090001,2.963178,0.7263463,1.227729,-0.02398467,-1.237888,0.004337853,0,0,0.3018366,-0.4437777,-0.1709915,-1.039929,-1.61346,-0.2139517,0.7640941,1.400548,-0.02846417,0.2791591,-0.3622878,0.005591328,-0.900614,-0.1546342,0.1050955,0.8342731,1.50695,0.1727307,0.4810839,1.02918,0.1563445,65.90881,107.0578,168.1151,True
0,0.1666667,0.05343336,0.7194577,0.1287887,-1.569853,-2.098766,2.962693,0.7250218,1.227735,-0.02371415,-1.237442,0.04147658,0,0,0.2998266,-0.4373969,-0.1571196,-1.040171,-1.619082,-0.2143581,0.7630298,1.400555,-0.02853078,0.2780391,-0.3590061,0.0003049793,-0.9013224,-0.1592672,0.1050819,0.8340418,1.506956,0.1722799,0.481225,1.028823,0.1582563,65.73138,107.3413,168.0973,True
0,0.1777778,0.05544555,0.7354208,0.1202013,-1.56933,-2.107424,2.962079,0.7238805,1.227834,-0.02343756,-1.237037,0.03543692,0,0,0.2967305,-0.4288811,-0.147499,-1.04045,-1.624535,-0.2147451,0.7619076,1.400588,-0.02848306,0.2737171,-0.3567285,-0.00707988,-0.9020803,-0.1638047,0.104928,0.8340068,1.50701,0.1718871,0.4814498,1.028487,0.1603047,65.5827,107.7353,168.1519,True
0,0.1888889,0.0713411,0.7311609,0.1115284,-1.568879,-2.11535,2.960801,0.7222841,1.227648,-0.02311283,-1.236608,0.03847551,0,0,0.2841791,-0.4086062,-0.1292821,-1.040513,-1.629141,-0.2153057,0.7613325,1.400792,-0.02849776,0.2674328,-0.3438985,-0.005769896,-0.9023152,-0.167938,0.1049168,0.8345896,1.5073,0.1713055,0.4817862,1.028229,0.1625525,65.47654,108.2309,168.2329,True
0,0.2,0.08624964,0.7269179,0.1103172,-1.568604,-2.123339,2.959383,0.7210181,1.227678,-0.02280298,-1.23614,0.04166761,0,0,0.2661919,-0.3978778,-0.1184977,-1.040589,-1.63397,-0.2152215,0.760504,1.400809,-0.02851209,0.2632503,-0.3342777,-0.005602976,-0.9026998,-0.172227,0.1048119,0.8345432,1.507302,0.1709356,0.4821754,1.02808,0.1650091,65.4016,108.7951,168.2762,True
0,0.2111111,0.1139775,0.7088484,0.1111373,-1.568573,-2.130719,2.957237,0.7194891,1.227547,-0.02247986,-1.23533,0.07261097,0,0,0.2353733,-0.3860113,-0.1161505,-1.040948,-1.638853,-0.2144175,0.7598703,1.400912,-0.02856699,0.2482656,-0.3201182,-0.01908098,-0.9034433,-0.1756527,0.1049131,0.8344797,1.507219,0.1705297,0.482534,1.028059,0.1676249,65.37804,109.458,168.3134,True
0,0.2222222,0.137339,0.6907493,0.1013467,-1.568025,-2.137827,2.95495,0.7182171,1.227539,-0.02216798,-1.23466,0.05785956,0,0,0.2226777,-0.3582353,-0.1245486,-1.04189,-1.642768,-0.2145333,0.7591753,1.400888,-0.02860236,0.2417967,-0.3167688,-0.0274855,-0.9043882,-0.179872,0.105051,0.8344585,1.507202,0.1701422,0.4826009,1.028137,0.1703597,65.40668,110.1008,168.2793,True
0,0.2333333,0.1446097,0.6704718,0.0810843,-1.567117,-2.144524,2.953264,0.7167368,1.227472,-0.021927,-1.233803,0.07570806,0,0,0.2195261,-0.342229,-0.1308942,-1.042797,-1.646878,-0.2148995,0.7584813,1.40084,-0.02868265,0.2310344,-0.3122481,-0.03898868,-0.9051467,-0.183442,0.1052021,0.8342788,1.506817,0.1698352,0.48253,1.028363,0.1730465,65.44447,110.6508,168.2074,True
0,0.2444444,0.1572498,0.6534091,0.0650107,-1.566052,-2.151069,2.951163,0.7154984,1.227507,-0.02165571,-1.233225,0.04841295,0,0,0.215395,-0.2942411,-0.1489029,-1.044613,-1.649282,-0.2159299,0.75791,1.400767,-0.02874443,0.2235973,-0.3036205,-0.04304313,-0.90596,-0.187349,0.1053808,0.83451,1.506606,0.1695298,0.482242,1.028741,0.1756388,65.51353,111.1313,168.128,True
0,0.2555556,0.1890019,0.6235729,0.0413098,-1.564644,-2.156837,2.948132,0.7144356,1.227603,-0.0214698,-1.233423,-0.02152551,0,0,0.2165067,-0.261193,-0.1691043,-1.046723,-1.652041,-0.2170924,0.75721,1.400599,-0.02887347,0.2193863,-0.2982506,-0.04289595,-0.9064021,-0.1911275,0.1054215,0.8345977,1.506804,0.1691042,0.4818729,1.029298,0.1780122,65.63046,111.6592,168.1427,True
0,0.2666667,0.2197964,0.5905606,0.02721988,-1.563523,-2.16224,2.944795,0.7131386,1.227602,-0.02119711,-1.233512,-0.008631364,0,0,0.2218653,-0.2217626,-0.195709,-1.04951,-1.653967,-0.2187923,0.7567029,1.400523,-0.02895156,0.2006169,-0.2619733,-0.0326147,-0.9062594,-0.1929436,0.1051131,0.8346562,1.506832,0.1687771,0.4814233,1.030006,0.1800931,65.80882,112.2004,168.2105,True
0,0.2777778,0.2379036,0.5682075,0.0238857,-1.562569,-2.167705,2.941576,0.7119193,1.227675,-0.02091688,-1.233093,0.0357498,0,0,0.2240973,-0.182338,-0.2127048,-1.052115,-1.655689,-0.2206296,0.7563915,1.40055,-0.02906257,0.1891447,-0.2374208,-0.02898145,-0.9065954,-0.1952915,0.1047522,0.834601,1.506836,0.1685056,0.4809553,1.030854,0.1818473,65.99795,112.6713,168.3128,True
0,0.2888889,0.2560013,0.5256081,0.01740275,-1.561703,-2.172123,2.93829,0.7107086,1.227741,-0.02059898,-1.23275,0.02628369,0,0,0.2157903,-0.1578239,-0.1976988,-1.053486,-1.657409,-0.2218197,0.7558727,1.400639,-0.02902144,0.1650086,-0.208594,-0.01660593,-0.9063067,-0.1969499,0.1048851,0.83426,1.506632,0.1683425,0.4803457,1.031828,0.1833487,66.1888,113.0796,168.437,True
0,0.3,0.2633991,0.5042939,0.008850813,-1.560503,-2.176834,2.935139,0.7095344,1.227842,-0.02029118,-1.232819,-0.01066817,0,0,0.2096642,-0.1429243,-0.1678074,-1.054065,-1.658838,-0.2232365,0.7553737,1.400677,-0.0290361,0.1566341,-0.1936387,-0.01419495,-0.9065453,-0.1990011,0.1046779,0.8341781,1.506605,0.1681024,0.4794393,1.032902,0.184734,66.39877,113.353,168.5211,True
0,0.3111111,0.263284,0.4541843,-0.009144314,-1.559104,-2.18003,2.932265,0.7087636,1.228044,-0.01994804,-1.233069,-0.02586688,0,0,0.206896,-0.132353,-0.1091777,-1.052941,-1.660011,-0.2248901,0.7546365,1.400721,-0.02896917,0.1554296,-0.1999125,-0.02168325,-0.906972,-0.2018796,0.104744,0.8343014,1.506717,0.1678734,0.4783666,1.034077,0.1860538,66.62643,113.5333,168.5871,True
0,0.3222222,0.2600158,0.434983,-0.01865565,-1.557706,-2.184041,2.929516,0.7076857,1.228115,-0.01958016,-1.233527,-0.04489058,0,0,0.1933693,-0.1302287,-0.06008384,-1.0516,-1.661291,-0.2259362,0.7541299,1.400777,-0.02888897,0.1499186,-0.2082774,-0.03130537,-0.9079376,-0.2050934,0.1052345,0.8342539,1.50669,0.1676419,0.4772088,1.035339,0.1873453,66.87962,113.7005,168.6531,True
0,0.3333333,0.2525224,0.4243062,-0.0238793,-1.556369,-2.188298,2.926977,0.7069643,1.22825,-0.01926488,-1.234211,-0.06479323,0,0,0.1755561,-0.1334137,-0.009909151,-1.04988,-1.662781,-0.2264702,0.7533402,1.400676,-0.02886125,0.1530201,-0.210348,-0.03772405,-0.9083883,-0.2079592,0.1052367,0.8342407,1.506671,0.167414,0.4761417,1.036673,0.1885886,67.15366,113.9298,168.7696,True
0,0.3444445,0.2280856,0.4104328,-0.01933259,-1.555444,-2.19227,2.92534,0.7059703,1.228282,-0.01892284,-1.234884,-0.06302373,0,0,0.1734875,-0.1398179,0.005008411,-1.04889,-1.664634,-0.227385,0.7527051,1.400616,-0.02877459,0.1497973,-0.215672,-0.03560424,-0.9088144,-0.2110808,0.1057248,0.8341206,1.506686,0.1671814,0.4752572,1.038051,0.1897406,67.44783,114.1996,168.9024,True
0,0.3555556,0.1940392,0.3869549,-0.01786136,-1.554553,-2.195761,2.924396,0.70491,1.228184,-0.01863655,-1.235537,-0.06130588,0,0,0.1819038,-0.1451679,-0.007839398,-1.049181,-1.666823,-0.2286923,0.7523639,1.400673,-0.02875209,0.1466216,-0.2263951,-0.02713991,-0.908784,-0.2146978,0.1064665,0.8340691,1.506624,0.166932,0.4744781,1.039395,0.1908844,67.76366,114.4636,169.0301,True
0,0.3666667,0.1749113,0.3698881,-0.01549357,-1.553704,-2.199176,2.923172,0.7039392,1.228143,-0.01836058,-1.236595,-0.09786921,0,0,0.1932966,-0.1611468,-0.0462883,-1.050475,-1.669934,-0.2296992,0.7516062,1.400555,-0.02866939,0.1539856,-0.239259,-0.02523346,-0.9091435,-0.218568,0.1070737,0.8339655,1.506629,0.1666418,0.473922,1.04065,0.1920338,68.0727,114.7138,169.1441,True
0,0.3777778,0.1282281,0.3240409,-0.003186472,-1.553632,-2.201269,2.923307,0.7030816,1.228013,-0.0181523,-1.237754,-0.1047293,0,0,0.1938706,-0.2026296,-0.08897492,-1.052115,-1.674664,-0.2293951,0.7503345,1.400321,-0.02861911,0.1633975,-0.2563384,-0.02872563,-0.9097475,-0.2227849,0.107515,0.8340228,1.506663,0.1663329,0.473463,1.041709,0.1932651,68.38049,114.9826,169.2005,True
0,0.3888889,0.1123742,0.3006042,0.006620867,-1.553469,-2.203979,2.922547,0.7019999,1.227944,-0.01797649,-1.238219,-0.04054582,0,0,0.1924632,-0.2377383,-0.1145889,-1.053361,-1.679603,-0.2290353,0.7495146,1.400203,-0.02854878,0.1653855,-0.2777002,-0.02578168,-0.9101278,-0.2275956,0.1087289,0.8342817,1.506741,0.1659991,0.4730582,1.042474,0.1945291,68.64614,115.3048,169.2361,True
0,0.4,0.08481429,0.2750196,0.016553,-1.553498,-2.20621,2.922587,0.7011778,1.227836,-0.01775312,-1.239194,-0.09005042,0,0,0.2037725,-0.2750287,-0.1488138,-1.055122,-1.685143,-0.2288968,0.7487268,1.400106,-0.02847296,0.1706516,-0.2787576,-0.03011922,-0.9109215,-0.2314772,0.1090317,0.8342541,1.506707,0.1657498,0.4727059,1.042912,0.195743,68.81263,115.624,169.2504,True
0,0.4111111,0.06160678,0.2611821,0.03706412,-1.553956,-2.208909,2.922647,0.7003884,1.22774,-0.01747757,-1.23907,0.01500335,0,0,0.2164822,-0.2804115,-0.1552933,-1.056173,-1.689174,-0.229675,0.7481172,1.400033,-0.02843022,0.1717629,-0.268067,-0.03315037,-0.9111164,-0.2345663,0.1091089,0.8344203,1.506551,0.16548,0.4724171,1.043002,0.1967813,68.8736,115.8437,169.1813,True
0,0.4222222,0.04365046,0.2473364,0.05006612,-1.554436,-2.211392,2.922759,0.6995969,1.227698,-0.01723805,-1.239142,-0.008639886,0,0,0.2240038,-0.2889988,-0.1383094,-1.056318,-1.693376,-0.2303762,0.7473612,1.399999,-0.02839038,0.1738365,-0.2594504,-0.04264764,-0.9120512,-0.2377476,0.1091779,0.8342645,1.506597,0.1651835,0.47205,1.042782,0.19768,68.81276,116.0229,169.1449,True
0,0.4333333,0.03091237,0.2462643,0.05446436,-1.554513,-2.214254,2.922787,0.6993032,1.227883,-0.01707318,-1.238976,0.01659189,0,0,0.1996481,-0.2942463,-0.1115353,-1.055876,-1.697401,-0.2298098,0.7469566,1.400072,-0.02838302,0.1813418,-0.2595649,-0.03951865,-0.9124767,-0.2417417,0.1092575,0.8343734,1.506629,0.1647213,0.4717235,1.042323,0.1983938,68.68198,116.1031,169.1275,True
0,0.4444444,0.02975473,0.2558314,0.04699546,-1.554073,-2.217375,2.922526,0.6989269,1.228033,-0.0169197,-1.23861,0.03351348,0,0,0.1816594,-0.2877839,-0.09756174,-1.055795,-1.700909,-0.2295064,0.746315,1.40008,-0.02838093,0.1815219,-0.2500768,-0.03088947,-0.9128405,-0.2448232,0.1091209,0.8343056,1.506629,0.1644629,0.4714702,1.041707,0.1990066,68.48994,116.0838,169.0937,True
0,0.4555556,0.03399049,0.2632943,0.04586346,-1.553762,-2.220574,2.922106,0.6979697,1.227874,-0.01668507,-1.238054,0.05057916,0,0,0.1775184,-0.2750024,-0.08792622,-1.05589,-1.704136,-0.2296995,0.7457528,1.400178,-0.02837804,0.1722291,-0.2320207,-0.01880305,-0.9123841,-0.2472854,0.1090394,0.8341408,1.50644,0.1641679,0.4713675,1.041042,0.1995632,68.24178,116.0778,169.0884,True
0,0.4666667,0.04032823,0.2675548,0.04152469,-1.553413,-2.223632,2.921561,0.6977077,1.228106,-0.0164946,-1.237271,0.07074681,60,0,0.1755253,-0.2600926,-0.07830218,-1.055869,-1.70696,-0.2301882,0.7451987,1.40018,-0.02837101,0.1701596,-0.2213269,-0.02078403,-0.912897,-0.249871,0.1088088,0.8340755,1.506421,0.1639422,0.4715768,1.040465,0.2000665,67.97519,116.1952,169.1865,True
0,0.4777778,0.04992814,0.2665056,0.04249263,-1.553265,-2.226598,2.920774,0.6970415,1.228146,-0.01632881,-1.236472,0.07127751,60,0,0.1682302,-0.2323641,-0.07394732,-1.056141,-1.708961,-0.2307664,0.7448704,1.4002,-0.02828008,0.1563364,-0.2008635,-0.03207723,-0.9136475,-0.2521828,0.1089419,0.8345015,1.50661,0.1637613,0.4718143,1.040032,0.2007118,67.7961,116.4726,169.3315,True
0,0.4888889,0.05840479,0.2601197,0.03708704,-1.552805,-2.229306,2.919931,0.6963041,1.228059,-0.01603484,-1.235767,0.06269578,60,0,0.1631098,-0.2014553,-0.06640889,-1.056343,-1.710341,-0.2317158,0.744446,1.400206,-0.02825347,0.1488414,-0.1932332,-0.04042853,-0.9146094,-0.2542689,0.1087648,0.8345633,1.506417,0.1636964,0.4718414,1.039747,0.2016002,67.70425,116.739,169.3901,True
0,0.5,0.06370686,0.2462688,0.03280168,-1.552527,-2.23155,2.919105,0.6956885,1.228117,-0.01590887,-1.235109,0.0583831,60,0,0.1400315,-0.1459586,-0.05445203,-1.056533,-1.710068,-0.2325973,0.7441192,1.400175,-0.02814895,0.1372163,-0.1739041,-0.04539133,-0.9154094,-0.2557769,0.1085414,0.83453,1.506383,0.1635643,0.4719234,1.039689,0.2025639,67.63106,116.9716,169.4199,True
0,0.5111111,0.0657868,0.2270876,0.02535454,-1.55199,-2.233503,2.918399,0.6952615,1.22812,-0.01577026,-1.234653,0.03953943,60,0,0.1327903,-0.1193029,-0.04156514,-1.05626,-1.710527,-0.2335832,0.7421315,1.399793,-0.02803701,0.134041,-0.1631537,-0.05056102,-0.9163032,-0.2573331,0.1081145,0.83452,1.506392,0.1634543,0.4718747,1.039838,0.2036563,67.6527,117.2199,169.4235,True
0,0.5222223,0.06034751,0.2057427,0.01160981,-1.551341,-2.234984,2.917938,0.6947227,1.228205,-0.01563385,-1.234441,0.01782734,60,0,0.1265431,-0.09903987,-0.03510167,-1.056322,-1.710987,-0.2345225,0.7417853,1.399837,-0.02799413,0.1213797,-0.1481392,-0.05023456,-0.9169519,-0.258628,0.1080141,0.8344579,1.50639,0.1633416,0.4716814,1.040151,0.2048087,67.75652,117.5064,169.439,True
0,0.5333334,0.06026975,0.1833445,0.001012515,-1.550784,-2.236177,2.917312,0.6944723,1.228472,-0.01547834,-1.234482,-0.004887985,60,0,0.1245147,-0.08837205,-0.02867282,-1.056165,-1.711566,-0.2356852,0.7418334,1.400081,-0.0280441,0.1108762,-0.1320584,-0.04884017,-0.9171991,-0.2593273,0.1075243,0.8330146,1.505891,0.1632917,0.4714886,1.040607,0.205832,67.8896,117.7665,169.434,True
0,0.5444446,0.05584805,0.1492033,-0.01910629,-1.549794,-2.236458,2.916849,0.6939738,1.228551,-0.01539123,-1.234785,-0.0281488,60,0,0.1170904,-0.08727533,-0.02436265,-1.056058,-1.712629,-0.2362008,0.7415323,1.400124,-0.02800301,0.1045676,-0.1170575,-0.05178575,-0.9179612,-0.2602338,0.107131,0.8328141,1.50583,0.1632297,0.4713359,1.041153,0.2066301,68.04999,118.0198,169.4695,True
0,0.5555557,0.06755682,0.1129854,-0.02553915,-1.549282,-2.236476,2.915625,0.6938913,1.228676,-0.01541257,-1.235275,-0.04400704,60,0,0.1128458,-0.08405766,-0.02433061,-1.05613,-1.71362,-0.2368163,0.7412357,1.400179,-0.02797025,0.09938294,-0.0999424,-0.05154207,-0.918748,-0.2603161,0.1061778,0.8327942,1.50568,0.1631033,0.4711585,1.04175,0.207184,68.1769,118.2187,169.518,True
0,0.5666668,0.07392333,0.07142539,-0.03403508,-1.548768,-2.235878,2.914562,0.693485,1.22865,-0.01538846,-1.236334,-0.09661604,60,0,0.1054069,-0.07655752,-0.02746756,-1.05641,-1.714388,-0.2373606,0.7409706,1.400227,-0.02793652,0.09207989,-0.093592,-0.04285698,-0.9190036,-0.2613546,0.106026,0.832581,1.505629,0.1630679,0.4709363,1.042406,0.2075026,68.27518,118.3661,169.5856,True
0,0.577778,0.07499893,0.0490509,-0.03612624,-1.548357,-2.235576,2.913688,0.6930289,1.22871,-0.01531842,-1.237553,-0.1095973,60,0,0.09693255,-0.06479126,-0.02953046,-1.056806,-1.714927,-0.2379566,0.740721,1.400288,-0.02801585,0.09005789,-0.09472942,-0.03432285,-0.9191847,-0.262599,0.1056407,0.8323972,1.505555,0.1630743,0.4705351,1.043111,0.2076148,68.3943,118.4877,169.6543,True
0,0.5888891,0.06859631,0.01813646,-0.04131528,-1.547916,-2.234707,2.913157,0.6926699,1.228864,-0.01536703,-1.239759,-0.2018641,60,0,0.08846126,-0.05196086,-0.0315857,-1.057151,-1.715222,-0.2385106,0.7405107,1.400356,-0.02798048,0.08910389,-0.08409405,-0.03205597,-0.9195123,-0.2632669,0.1050987,0.8321891,1.50548,0.1630808,0.4699951,1.043916,0.2075144,68.51777,118.4446,169.6453,True
0,0.6000003,0.06751621,-0.002115353,-0.04551936,-1.547443,-2.233877,2.912428,0.6922634,1.228931,-0.01530185,-1.243135,-0.3058671,60,0,0.08313515,-0.04660056,-0.03580474,-1.057569,-1.715727,-0.2390129,0.7403045,1.400424,-0.0279277,0.08181613,-0.06055302,-0.03280359,-0.9204572,-0.2623247,0.1039131,0.8328867,1.505625,0.1631072,0.4691669,1.044852,0.2073243,68.66502,118.306,169.6013,True
0,0.6111114,0.0632202,-0.009590326,-0.04971743,-1.546875,-2.233436,2.911884,0.6916206,1.228884,-0.015288,-1.247718,-0.4143813,60,0,0.07677148,-0.04551218,-0.03149578,-1.057577,-1.716389,-0.2392927,0.7400987,1.400434,-0.02785793,0.08081,-0.04878406,-0.03584959,-0.9209685,-0.2624032,0.1030502,0.8327669,1.505631,0.163142,0.4681659,1.046,0.207067,68.8214,118.1021,169.5474,True
0,0.6222225,0.05787498,-0.01173347,-0.0517877,-1.546307,-2.233076,2.911398,0.6912262,1.228947,-0.01519758,-1.253129,-0.4877442,60,0,0.06934565,-0.04868147,-0.02399629,-1.057429,-1.717113,-0.2394453,0.7398975,1.400501,-0.02781874,0.07124934,-0.04336557,-0.03567659,-0.9214271,-0.2624585,0.1028172,0.8326949,1.505593,0.1632141,0.4671414,1.047447,0.2067217,69.0248,117.8663,169.4779,True
0,0.6333337,0.06107616,-0.009595793,-0.05075739,-1.545876,-2.232977,2.910645,0.6910799,1.229159,-0.01511183,-1.259442,-0.5705176,60,0,0.06720433,-0.05613267,-0.01973102,-1.057248,-1.718067,-0.2396557,0.739738,1.40062,-0.02772534,0.06288645,-0.03267752,-0.02909985,-0.9219954,-0.2615954,0.1018606,0.8329896,1.505822,0.1632048,0.4660647,1.049226,0.2063929,69.3446,117.6167,169.3956,True
0,0.6444448,0.06110492,0.001066914,-0.04652057,-1.545416,-2.233264,2.909966,0.6907246,1.229219,-0.01501077,-1.266544,-0.6405,60,0,0.06507538,-0.05185566,-0.02290677,-1.057476,-1.718632,-0.2400288,0.7396047,1.400684,-0.02764848,0.05655098,-0.02408715,-0.03000349,-0.9225627,-0.261398,0.101272,0.8331536,1.50565,0.1633859,0.4649695,1.051325,0.2061416,69.78231,117.3562,169.2833,True
0,0.655556,0.06653586,0.006426807,-0.03593362,-1.545314,-2.23351,2.908985,0.6906235,1.22933,-0.01494214,-1.274093,-0.6803619,60,0,0.05767445,-0.04329858,-0.01965221,-1.057603,-1.718843,-0.2402216,0.739336,1.400753,-0.0275414,0.05452757,-0.01985388,-0.02356835,-0.9229915,-0.2609108,0.1004243,0.8332345,1.505874,0.1632848,0.4640606,1.053743,0.2059528,70.26682,117.0299,169.1258,True
0,0.6666671,0.06978995,0.01070751,-0.03064648,-1.545085,-2.233758,2.907982,0.6905365,1.229477,-0.01488262,-1.282398,-0.7494085,60,0,0.03650432,-0.02082354,-0.01628653,-1.057796,-1.718242,-0.2401668,0.7392356,1.400817,-0.02744076,0.05775724,-0.01776416,-0.02145397,-0.9231752,-0.260897,0.09974923,0.8329996,1.505959,0.1633402,0.4634312,1.056477,0.2058825,70.79578,116.6863,168.9223,True
0,0.6777782,0.06664026,0.01710688,-0.02530162,-1.544888,-2.234131,2.907348,0.6902065,1.229555,-0.01474372,-1.291041,-0.7791904,60,0,0.03134374,0.004760945,-0.009821407,-1.057905,-1.71713,-0.2407921,0.7390587,1.400898,-0.02737585,0.05987081,-0.00701569,-0.02990686,-0.9241797,-0.2601855,0.09849461,0.8332351,1.50614,0.1633473,0.4630102,1.059476,0.2060284,71.4118,116.3666,168.647,True
0,0.6888894,0.06028733,0.0267036,-0.01993023,-1.544715,-2.234812,2.906953,0.6897085,1.229481,-0.01461622,-1.300232,-0.8292502,60,0,0.03462911,0.008989054,0.0008175122,-1.057598,-1.716752,-0.2414885,0.7389092,1.400986,-0.0273079,0.05780484,-0.0006191172,-0.02874864,-0.9245536,-0.2598414,0.09770339,0.833348,1.506068,0.1634287,0.4628392,1.062696,0.2063672,72.07133,116.0325,168.2673,True
0,0.7000005,0.0496083,0.03733878,-0.02090902,-1.544282,-2.235509,2.906786,0.6893935,1.229529,-0.01448762,-1.310183,-0.8977388,60,0,0.03040073,-0.01339551,0.023178,-1.05638,-1.717647,-0.2414206,0.7388341,1.401023,-0.02732146,0.03956439,-0.01642285,-0.02873873,-0.9251944,-0.2601216,0.09803868,0.8332144,1.505959,0.1633946,0.4628125,1.066085,0.2068979,72.7721,115.7761,167.8619,True
0,0.7111117,0.04003818,0.0437234,-0.01869396,-1.54394,-2.236158,2.906602,0.6896505,1.229691,-0.01448411,-1.320486,-0.9281294,60,0,0.02504413,-0.02722763,0.02958402,-1.05569,-1.718351,-0.2411519,0.738703,1.401068,-0.02722001,0.03665846,-0.01130366,-0.00946424,-0.9246271,-0.2602469,0.09756198,0.8331468,1.505922,0.1633869,0.462763,1.06956,0.2076083,73.54144,115.5752,167.4245,True
0,0.7222228,0.03367357,0.0405232,-0.01648977,-1.543751,-2.236469,2.906451,0.6893821,1.229675,-0.0143919,-1.331036,-0.9498451,60,0,0.02388904,-0.03679976,0.02318453,-1.055478,-1.719148,-0.2409881,0.7385466,1.401089,-0.02712113,0.03686734,-0.01258304,0.008630743,-0.9239017,-0.2605534,0.09730898,0.8330225,1.505951,0.1634479,0.4626804,1.073011,0.2083843,74.34251,115.3697,166.9549,True
0,0.7333339,0.02953148,0.03415103,-0.005776448,-1.544016,-2.236693,2.906242,0.6894271,1.22975,-0.014386,-1.341586,-0.9492721,60,0,0.01727479,-0.03671611,-0.01086523,-1.056601,-1.719935,-0.2404819,0.7382519,1.401055,-0.02699062,0.03690013,-0.01688045,0.01388234,-0.9239156,-0.2604253,0.09673426,0.8330278,1.505861,0.1634793,0.4627731,1.076371,0.209013,75.07599,115.1241,166.5012,True
0,0.7444451,0.02534158,0.03096377,0.000666583,-1.544173,-2.236975,2.906105,0.6891754,1.229735,-0.01430938,-1.35215,-0.9511089,60,0,0.01823299,-0.03776194,-0.02685275,-1.057268,-1.72065,-0.2403703,0.7380853,1.401056,-0.02689007,0.03900906,-0.01472484,0.01174112,-0.924004,-0.2602196,0.09628525,0.8329101,1.505891,0.1635157,0.4631493,1.079616,0.20939,75.73912,114.8051,166.0297,True
0,0.7555562,0.02005192,0.03096234,0.003916916,-1.544185,-2.237327,2.906017,0.6896949,1.23006,-0.01426354,-1.362513,-0.9327157,60,0,0.02027405,-0.04095663,-0.0375248,-1.057876,-1.721539,-0.240174,0.7379026,1.401142,-0.02679324,0.04217095,-0.01684472,0.009556523,-0.9238538,-0.2603944,0.09569404,0.8326694,1.505802,0.1635743,0.463477,1.082729,0.2096516,76.37409,114.3649,165.4474,True
0,0.7666674,0.009372173,0.03094041,0.0008346746,-1.544013,-2.237649,2.906184,0.6900086,1.230245,-0.0141581,-1.372828,-0.928466,60,0,0.01698705,-0.04945086,-0.04497439,-1.058423,-1.722707,-0.2396624,0.7377186,1.40115,-0.02672672,0.04101435,-0.02640725,0.009453855,-0.9238431,-0.2608964,0.09583838,0.8325477,1.505837,0.1635803,0.4637486,1.085712,0.2097822,76.96081,113.7331,164.728,True
0,0.7777785,0.005095432,0.03412768,-0.0001935838,-1.543853,-2.238118,2.906287,0.6898046,1.230234,-0.01407695,-1.383114,-0.9257262,60,0,0.01908847,-0.06118777,-0.03862156,-1.058414,-1.723918,-0.2392054,0.7373958,1.401104,-0.02666697,0.04097286,-0.03599769,0.01144872,-0.9239912,-0.2613645,0.09554863,0.8326,1.505917,0.1636777,0.4639432,1.088584,0.2098147,77.48201,112.9852,163.9745,True
0,0.7888896,0.004024506,0.03945576,-0.0001920834,-1.54372,-2.238771,2.906256,0.6898763,1.230303,-0.01401401,-1.39353,-0.9375288,60,0,0.0201644,-0.06439573,-0.03437215,-1.058453,-1.724905,-0.2389857,0.7372358,1.401104,-0.02658913,0.03877067,-0.03482428,0.006128058,-0.9245238,-0.2611283,0.09524556,0.8325998,1.506022,0.163659,0.464372,1.091405,0.209667,77.92213,112.1933,163.2745,True
0,0.8000008,-0.0001906254,0.03839407,0.004115556,-1.543821,-2.239214,2.906427,0.6896951,1.230279,-0.01395056,-1.403691,-0.9138203,60,0,0.02026277,-0.06122307,-0.02053069,-1.058261,-1.725491,-0.2388352,0.7370591,1.401117,-0.02663332,0.03344033,-0.03370507,0.00514018,-0.9245244,-0.2615111,0.09528764,0.8325528,1.50603,0.1636697,0.4648462,1.094219,0.2095237,78.4252,111.472,162.5922,True
0,0.8111119,-0.0001025372,0.0394835,0.01369728,-1.544131,-2.239786,2.906561,0.689343,1.230166,-0.01375118,-1.413639,-0.8949251,60,0,0.01820602,-0.05803241,-0.01092165,-1.05791,-1.726035,-0.238623,0.7371569,1.401109,-0.02662644,0.03564337,-0.03161774,0.009379927,-0.9245228,-0.2613944,0.09467005,0.8326015,1.505956,0.1636201,0.4651669,1.097023,0.209501,78.99541,110.6907,161.764,True
0,0.8222231,-0.001144007,0.04588103,0.0168895,-1.544245,-2.240567,2.906628,0.6891546,1.230139,-0.01368284,-1.423708,-0.9064449,60,0,0.0162011,-0.04418604,-0.002364799,-1.057641,-1.725961,-0.2387726,0.7370508,1.401098,-0.02658594,0.05061199,-0.03608169,0.01766663,-0.9241095,-0.2618895,0.09411931,0.8325223,1.505996,0.1636178,0.4654433,1.099799,0.2095424,79.55944,109.783,160.7943,True
0,0.8333342,-0.002189015,0.04588719,0.01903184,-1.544384,-2.241168,2.906734,0.6890099,1.230076,-0.01360965,-1.433755,-0.9037446,60,0,0.02048361,-0.03674906,-0.004506525,-1.057685,-1.726167,-0.238986,0.7371867,1.401206,-0.02654582,0.04523355,-0.03920566,0.01449072,-0.9242336,-0.2626943,0.09412703,0.8326815,1.506053,0.163651,0.4656121,1.102536,0.2096674,80.12432,108.7073,159.6409,True
0,0.8444453,-0.01176351,0.04481037,0.02019908,-1.544541,-2.241676,2.907204,0.6888266,1.230055,-0.01355726,-1.443631,-0.8887315,60,0,0.02260118,-0.03995449,-0.003453685,-1.057506,-1.72673,-0.2389809,0.7374892,1.401367,-0.02652091,0.04401468,-0.04226591,0.003814418,-0.9246266,-0.2633707,0.09408975,0.8327242,1.506057,0.1636378,0.4656997,1.105215,0.2098629,80.66925,107.4476,158.3164,True
0,0.8555565,-0.01391588,0.04160246,0.01810036,-1.544634,-2.241977,2.907495,0.6887054,1.230098,-0.01348108,-1.453525,-0.8903589,60,0,0.02676764,-0.0570181,-0.0045685,-1.057272,-1.72803,-0.2387612,0.7372572,1.401316,-0.02645853,0.03851933,-0.04846941,-0.005799522,-0.9252812,-0.2636129,0.09405859,0.8327461,1.50607,0.1635787,0.4658887,1.107822,0.2100256,81.1678,106.1826,156.9851,True
0,0.8666676,-0.0171974,0.03837691,0.009619087,-1.544411,-2.242184,2.907818,0.688499,1.230032,-0.01345202,-1.463695,-0.9155094,60,0,0.03202164,-0.06556495,-0.008882655,-1.057356,-1.729269,-0.238653,0.7369847,1.401242,-0.02646399,0.03629607,-0.05478916,-0.009054025,-0.9256237,-0.2642661,0.09415686,0.8326646,1.506092,0.1634723,0.4662106,1.110373,0.2101244,81.64092,104.8678,155.587,True
0,0.8777788,-0.01617791,0.03943404,0.005344647,-1.544223,-2.242626,2.907973,0.6882999,1.230014,-0.01340932,-1.473598,-0.8901057,60,0,0.0351404,-0.08049534,-0.008925609,-1.057115,-1.730854,-0.2383649,0.7368386,1.40122,-0.02645239,0.02774942,-0.05791888,-0.008988209,-0.9257792,-0.265193,0.0947068,0.8326337,1.506098,0.1634132,0.4666264,1.112895,0.2101508,82.09496,103.4547,154.0769,True
0,0.8888899,-0.008802033,0.03729341,-0.002185702,-1.543901,-2.242831,2.907919,0.688091,1.229991,-0.01330411,-1.483465,-0.887787,60,0,0.03508715,-0.08154393,-0.01530902,-1.057155,-1.731793,-0.2381558,0.7368162,1.401302,-0.02637169,0.0213969,-0.05790772,-0.005714993,-0.9257883,-0.2659755,0.09516114,0.8325844,1.506106,0.163367,0.4670585,1.115421,0.2101186,82.55613,101.9428,152.466,True
0,0.900001,-0.0002706666,0.03837365,-0.001211367,-1.543804,-2.243285,2.907655,0.6878703,1.229945,-0.01325884,-1.49324,-0.8792132,60,0,0.03083619,-0.07299147,-0.02059531,-1.057422,-1.732495,-0.2380064,0.7367232,1.401253,-0.02636001,0.02047881,-0.05480974,0.003899103,-0.9257611,-0.2664075,0.09511693,0.8328207,1.506236,0.1632633,0.4674337,1.117959,0.2100298,83.04664,100.25,150.674,True
0,0.9111122,0.007165276,0.03625114,-0.003414618,-1.543629,-2.243623,2.907409,0.6876183,1.229806,-0.01328093,-1.502975,-0.8760355,60,0,0.02347811,-0.04951698,-0.02371665,-1.057967,-1.732385,-0.2380387,0.7366271,1.401136,-0.02642807,0.01932217,-0.06545907,0.003786133,-0.9258682,-0.267918,0.09594037,0.8328447,1.506196,0.163106,0.4677235,1.120528,0.2098997,83.52686,98.15717,148.5189,True
0,0.9222233,0.008263776,0.02880053,-0.001278238,-1.543666,-2.243731,2.90728,0.6873758,1.229717,-0.01325718,-1.512585,-0.8653615,60,0,0.01613599,-0.02070766,-0.02895187,-1.058648,-1.731672,-0.2383175,0.7365675,1.401067,-0.02644426,0.02679195,-0.06875044,0.006852849,-0.9257787,-0.2690419,0.09607726,0.8328503,1.50617,0.1630647,0.4679216,1.12314,0.209747,83.99786,95.61243,145.9473,True
0,0.9333345,0.009333439,0.0277351,-0.001280104,-1.543686,-2.243989,2.907122,0.6875401,1.229788,-0.01330346,-1.522345,-0.8791679,60,0,0.01296924,-0.007901199,-0.03317287,-1.059208,-1.731479,-0.2383196,0.7362442,1.401019,-0.02641377,0.02903498,-0.05918501,0.01012646,-0.9256647,-0.2688324,0.09557153,0.8327436,1.506196,0.1629618,0.4680952,1.125789,0.2095592,84.46328,92.42294,142.7389,True
0,0.9444456,0.008298414,0.01495244,-0.0001747524,-1.543773,-2.243741,2.907032,0.6873145,1.22972,-0.01327065,-1.532348,-0.9007726,60,0,0.01928315,-0.006850503,-0.04493893,-1.060166,-1.731867,-0.2384645,0.7360933,1.400996,-0.02644792,0.03124084,-0.04855458,0.00916184,-0.9256482,-0.2694016,0.09544716,0.8327948,1.50613,0.1628692,0.4682919,1.128457,0.2093173,84.92657,88.53775,138.8245,True
0,0.9555568,0.01039577,3.416731E-05,-0.005491787,-1.543599,-2.243276,2.906839,0.6875656,1.229822,-0.01326466,-1.542458,-0.9098917,60,0,0.02454924,-0.0132631,-0.04924371,-1.060745,-1.732452,-0.2386349,0.7359347,1.400971,-0.02643067,0.03230151,-0.04748486,0.008096383,-0.9256402,-0.2700308,0.09543517,0.8328189,1.506105,0.1628281,0.4685859,1.13114,0.2089902,85.32345,83.92928,134.2155,True
0,0.9666679,0.006081371,-0.00957327,-0.01181843,-1.543342,-2.242849,2.906931,0.6877704,1.22996,-0.01321423,-1.552584,-0.9119036,60,0,0.03835558,-0.03145281,-0.03976293,-1.060486,-1.733446,-0.238909,0.7353749,1.400815,-0.02632704,0.0310687,-0.05050806,-0.003661418,-0.9263401,-0.2703492,0.0953433,0.8327407,1.506075,0.1627767,0.4690667,1.133856,0.2085713,85.67474,78.64825,128.9522,True
0,0.977779,0.01016411,-0.01600011,-0.02995716,-1.542553,-2.242245,2.906693,0.6875315,1.229965,-0.01316065,-1.562651,-0.9057818,60,0,0.05005315,-0.04857437,-0.02921088,-1.060171,-1.734709,-0.2392648,0.7351811,1.400812,-0.02630058,0.02759622,-0.06094372,-0.01972633,-0.927195,-0.2715114,0.09585755,0.8327943,1.506065,0.1627396,0.4695736,1.136636,0.2081504,86.01961,72.24155,122.539,True
0,0.9888902,0.01545836,-0.02452314,-0.03425116,-1.542239,-2.241654,2.906325,0.6874058,1.230094,-0.01313394,-1.572944,-0.926946,60,0,0.05424301,-0.05604618,-0.03458372,-1.06065,-1.735836,-0.2394435,0.735142,1.400904,-0.02631316,0.02850431,-0.05969994,-0.03359749,-0.9283305,-0.2717591,0.09561281,0.8329823,1.506088,0.1626706,0.470217,1.139468,0.2076656,86.30896,64.96983,115.2806,True
0,1.000001,0.0356129,-0.03410265,-0.04402652,-1.541582,-2.240769,2.905239,0.6870875,1.230152,-0.01306528,-1.582886,-0.8939963,60,0,0.05748121,-0.05180652,-0.0314018,-1.060785,-1.736413,-0.2398901,0.7349775,1.40095,-0.02630842,0.02537627,-0.054375,-0.03136479,-0.9286304,-0.2722701,0.09572147,0.8330258,1.506069,0.1626778,0.470878,1.142371,0.207189,86.5823,56.10833,106.3982,True
0,1.011112,0.06109314,-0.04047715,-0.05386294,-1.54087,-2.239976,2.903665,0.6870275,1.230346,-0.01305804,-1.592718,-0.8853564,60,0,0.06716174,-0.03908225,-0.02718157,-1.060924,-1.736477,-0.2409133,0.7348995,1.400989,-0.02625418,0.02539891,-0.04580638,-0.03552409,-0.9291465,-0.2725259,0.09548897,0.8331558,1.506132,0.162618,0.4713439,1.145343,0.2067864,86.80635,45.16646,95.37245,True
0,1.022224,0.08127604,-0.04685347,-0.06044984,-1.540179,-2.239053,2.902047,0.6866388,1.230436,-0.01300231,-1.602165,-0.8501605,0,0,0.07691633,-0.01997336,-0.01656074,-1.060861,-1.735925,-0.2423943,0.7348194,1.401055,-0.02624747,0.0190055,-0.03609384,-0.04172281,-0.9298219,-0.272495,0.09549323,0.833221,1.506129,0.1626465,0.4716271,1.148352,0.2063993,86.87157,33.37621,83.50967,True
0,1.033335,0.1247814,-0.06494189,-0.08003086,-1.53905,-2.237461,2.899216,0.6860595,1.230508,-0.01299733,-1.611533,-0.8450371,0,0,0.07608397,0.009838896,-0.005865338,-1.060967,-1.73478,-0.2439245,0.7351737,1.401208,-0.02629098,0.01261906,-0.03066943,-0.04372494,-0.9305516,-0.2721817,0.09550575,0.8330829,1.506144,0.1625723,0.4717119,1.151392,0.2060019,86.80426,22.13854,72.24266,True
0,1.044446,0.1449249,-0.07452401,-0.0908714,-1.538006,-2.236051,2.896913,0.6855879,1.230633,-0.01292753,-1.62111,-0.8648303,0,0,0.07621624,0.02793426,-0.000516355,-1.06108,-1.733973,-0.2452119,0.7349541,1.401194,-0.02625626,0.005083144,-0.02407635,-0.05317109,-0.9317543,-0.2715802,0.09548897,0.8331927,1.506117,0.1625325,0.4717245,1.154469,0.205529,86.62485,12.30563,62.42873,True
0,1.055557,0.1767199,-0.07238072,-0.1061203,-1.536631,-2.234967,2.894016,0.6845436,1.230458,-0.01282784,-1.630183,-0.8173954,0,0,0.08385402,0.04705077,0.01224867,-1.060839,-1.732559,-0.247067,0.7349343,1.401248,-0.02621877,0.01042399,-0.01554438,-0.05739495,-0.9324899,-0.271358,0.09505514,0.8332648,1.506096,0.1625908,0.4715762,1.157626,0.2050259,86.35304,2.970891,53.09489,True
0,1.066668,0.1947676,-0.07556424,-0.1126923,-1.535442,-2.233699,2.891238,0.6840069,1.230593,-0.01274022,-1.63991,-0.8811241,0,0,0.09138342,0.05978848,0.012219,-1.060994,-1.731512,-0.2489464,0.7346072,1.401176,-0.02614087,0.01137244,-0.01434142,-0.06700444,-0.9338241,-0.2708146,0.09466393,0.8333272,1.506161,0.16253,0.4711936,1.160906,0.2044832,85.9944,354.5165,44.63696,True
0,1.077779,0.2222655,-0.07768731,-0.1321497,-1.533595,-2.232456,2.887876,0.6833801,1.23078,-0.01257583,-1.649255,-0.8423877,0,0,0.09570037,0.08108547,0.003702324,-1.061622,-1.72975,-0.2510141,0.7345726,1.401222,-0.02608299,0.009096116,-0.01632702,-0.07765528,-0.9350523,-0.2709432,0.09471772,0.8333842,1.506153,0.1625822,0.4706715,1.164269,0.203848,85.51053,347.0342,37.19253,True
0,1.08889,0.2350208,-0.08622541,-0.1376092,-1.531991,-2.230472,2.884641,0.6832373,1.23119,-0.01256225,-1.658663,-0.8505644,0,0,0.0924978,0.09496972,-0.009037491,-1.062484,-1.728319,-0.2526378,0.7344544,1.401207,-0.02598056,0.01338108,-0.009939743,-0.07868256,-0.9356644,-0.2704757,0.09433236,0.8332918,1.506059,0.1626608,0.469984,1.167665,0.2031679,84.91678,340.8403,31.0705,True
0,1.100002,0.2466582,-0.09901358,-0.1472887,-1.530496,-2.228498,2.88144,0.6825957,1.231363,-0.01242322,-1.667502,-0.7976193,0,0,0.09462612,0.1024258,-0.01543126,-1.063213,-1.726891,-0.2544435,0.7343524,1.401256,-0.02594146,0.01877443,-0.004680268,-0.07655369,-0.9364441,-0.2702363,0.09380346,0.8332856,1.506037,0.1627376,0.4693685,1.171029,0.2023902,84.33586,336.645,27.02826,True
0,1.111113,0.2518991,-0.1043601,-0.1579982,-1.528624,-2.226561,2.878241,0.6823123,1.231687,-0.01218206,-1.676075,-0.7757509,0,0,0.1031578,0.1141135,-0.02184534,-1.063859,-1.725108,-0.2566219,0.7342916,1.401414,-0.02581108,0.02083862,-0.007824427,-0.07877436,-0.9376825,-0.2695622,0.09330012,0.8333998,1.506043,0.162824,0.4688734,1.174384,0.2015799,83.80318,333.3161,23.87136,True
0,1.122224,0.2506573,-0.1374405,-0.1802875,-1.52659,-2.223307,2.875277,0.6817389,1.231898,-0.01200247,-1.684318,-0.7443708,0,0,0.1010901,0.1183755,-0.01543349,-1.064192,-1.723482,-0.2584534,0.7340484,1.401493,-0.02575392,0.02606759,-0.01528289,-0.08212431,-0.9387408,-0.2699994,0.0930884,0.8333673,1.506026,0.1628459,0.468592,1.177737,0.2007122,83.27061,330.3658,21.05449,True
0,1.133335,0.2484364,-0.1715602,-0.1950996,-1.524828,-2.219842,2.872283,0.6813252,1.232224,-0.01192421,-1.692033,-0.6967875,0,0,0.1064598,0.120471,-0.01013193,-1.064376,-1.72188,-0.2605445,0.7340415,1.401724,-0.02570486,0.03761736,-0.03235824,-0.08569432,-0.9402391,-0.2706561,0.09259571,0.8334768,1.506104,0.1626327,0.4683319,1.181108,0.199901,82.63689,327.4627,18.25245,True
0,1.144446,0.2505946,-0.2099211,-0.1982331,-1.523535,-2.215715,2.869175,0.6807401,1.232412,-0.01180524,-1.699217,-0.6493118,0,0,0.1106843,0.0959253,0.004720647,-1.063902,-1.72139,-0.2620785,0.7337706,1.40188,-0.02561468,0.04293344,-0.04204998,-0.08054885,-0.9410279,-0.271576,0.09247294,0.8334309,1.506084,0.1626852,0.4681008,1.184413,0.1991657,81.97742,324.6164,15.49354,True
0,1.155557,0.2625224,-0.2706017,-0.1875634,-1.523168,-2.210355,2.865486,0.6801639,1.232653,-0.01173019,-1.705549,-0.5711538,0,0,0.120104,0.05431802,0.0120525,-1.063369,-1.722072,-0.2633877,0.7332835,1.402004,-0.02549118,0.05043795,-0.03892497,-0.07847419,-0.9418504,-0.271625,0.09175229,0.8332925,1.505862,0.1627579,0.467756,1.187566,0.198476,81.33154,321.7839,12.67046,True
0,1.166668,0.2638482,-0.3280856,-0.1714629,-1.523326,-2.204812,2.862173,0.6795855,1.232904,-0.01163962,-1.710685,-0.4639208,0,0,0.1380736,0.02012944,0.01828205,-1.06273,-1.72271,-0.265135,0.7326701,1.402085,-0.02538547,0.05475161,-0.03362764,-0.07741503,-0.9429465,-0.2714219,0.09089661,0.8333223,1.50607,0.162728,0.4672475,1.190465,0.1977336,80.73306,319.5161,10.40934,True
0,1.17778,0.2703499,-0.378137,-0.1682189,-1.523229,-2.198717,2.858644,0.6788297,1.233061,-0.01154542,-1.714282,-0.324953,0,0,0.1497571,-0.002322055,0.0309562,-1.061789,-1.723286,-0.266942,0.732094,1.402188,-0.02525818,0.06318568,-0.04326639,-0.07869974,-0.9439446,-0.2723002,0.09042018,0.8332292,1.506054,0.1627397,0.4664147,1.193053,0.1969153,80.17933,317.7869,8.736682,True
0,1.188891,0.2757048,-0.4058304,-0.1703412,-1.522732,-2.193141,2.855004,0.6781719,1.233327,-0.01152048,-1.717083,-0.2552253,0,0,0.1454486,-0.01295175,0.03310054,-1.061287,-1.72349,-0.2681753,0.7313342,1.402182,-0.02518699,0.07158352,-0.05715796,-0.07898796,-0.9451127,-0.2732106,0.09011818,0.8331205,1.506065,0.162628,0.4651534,1.195295,0.195973,79.72536,316.6826,7.790192,True
0,1.200002,0.2735628,-0.4271492,-0.1745312,-1.522302,-2.187261,2.85176,0.6773455,1.233511,-0.01142833,-1.718788,-0.1543104,0,0,0.1431615,-0.03530165,0.02668831,-1.060897,-1.724724,-0.2690765,0.7306921,1.402236,-0.02508387,0.05873133,-0.07953283,-0.07057907,-0.9457982,-0.2751213,0.09095707,0.8329378,1.506107,0.1626218,0.46349,1.197142,0.194868,79.3721,315.9991,7.387791,True
0,1.211113,0.2756267,-0.4293024,-0.1820139,-1.521339,-2.182005,2.848233,0.6766641,1.233712,-0.01129866,-1.719576,-0.07288112,0,0,0.141957,-0.04912165,0.01708789,-1.060827,-1.725701,-0.2700296,0.7300789,1.402153,-0.02506897,0.06314401,-0.08505756,-0.05367802,-0.9461764,-0.2756938,0.09066146,0.832597,1.505995,0.1624848,0.4614436,1.198588,0.1936158,79.12728,315.4579,7.221719,True
0,1.222224,0.2840766,-0.4090638,-0.1864137,-1.520311,-2.177626,2.844506,0.6757715,1.233835,-0.01112795,-1.720039,-0.04445977,0,0,0.1365187,-0.05759975,0.006456139,-1.060879,-1.726829,-0.270778,0.7294462,1.402124,-0.02493018,0.08028135,-0.09494205,-0.04015591,-0.9462648,-0.2774083,0.09015066,0.8323442,1.505971,0.1624943,0.4591409,1.199663,0.1922471,79.00259,315.1296,7.340802,True
0,1.233335,0.2861557,-0.3856212,-0.1886135,-1.519389,-2.173793,2.840991,0.6749504,1.234055,-0.01094511,-1.719801,0.02037978,0,0,0.1322578,-0.043708,-0.005213851,-1.061332,-1.726812,-0.272141,0.7293677,1.402323,-0.02476028,0.07697645,-0.1055094,-0.04239459,-0.9471905,-0.2785242,0.09005612,0.8320887,1.505974,0.1624491,0.4566683,1.200435,0.1908291,78.95111,314.9826,7.694113,True
0,1.244446,0.286182,-0.3365954,-0.179141,-1.518369,-2.17129,2.837667,0.6740499,1.234169,-0.01071465,-1.719087,0.06157366,0,0,0.135454,-0.02132539,-0.02330981,-1.062394,-1.726409,-0.2739583,0.7287097,1.402311,-0.02461106,0.07038722,-0.1192176,-0.0499392,-0.9481764,-0.2806811,0.0907813,0.8318535,1.505971,0.1624866,0.4541667,1.200991,0.189465,78.95142,314.9711,8.218952,True
0,1.255558,0.2811664,-0.3066921,-0.1450605,-1.518719,-2.168901,2.834623,0.6731491,1.234399,-0.01048538,-1.718404,0.05796597,0,0,0.1396569,-0.009603068,-0.04249726,-1.063574,-1.726517,-0.2757115,0.7283447,1.402536,-0.02444836,0.07137998,-0.1266642,-0.05113001,-0.949239,-0.2824689,0.09105454,0.8316709,1.506113,0.1624002,0.4517034,1.201463,0.1883103,78.97028,315.0892,8.838524,True
0,1.266669,0.2813897,-0.2778757,-0.1195642,-1.518926,-2.166587,2.831331,0.6722131,1.234571,-0.01018822,-1.717785,0.0527754,0,0,0.1406622,-0.01172952,-0.04996426,-1.064222,-1.727054,-0.2769879,0.7279034,1.40265,-0.02424338,0.06910285,-0.1254326,-0.0628124,-0.9504747,-0.2838024,0.09128517,0.8312389,1.505913,0.1624158,0.4494382,1.201933,0.1874446,79.00092,315.2889,9.467743,True
0,1.27778,0.2731193,-0.1968395,-0.08344385,-1.519035,-2.167137,2.828586,0.6712422,1.234761,-0.009825438,-1.717353,0.03591833,0,0,0.1480681,-0.02028874,-0.05109014,-1.064669,-1.727801,-0.2785358,0.7271383,1.402743,-0.02403575,0.07331156,-0.125413,-0.06712535,-0.9514894,-0.2854228,0.09125321,0.8309393,1.505883,0.1624935,0.4474882,1.202466,0.1869433,79.00705,315.5154,10.00417,True
0,1.288891,0.2624576,-0.1531711,-0.07810989,-1.518373,-2.166411,2.825938,0.670279,1.234872,-0.009460866,-1.716749,0.05242432,0,0,0.1480677,-0.03735985,-0.03832678,-1.064261,-1.728949,-0.279727,0.726686,1.403086,-0.02369887,0.07549394,-0.1211807,-0.06497295,-0.9522351,-0.2865834,0.09109902,0.8302978,1.50582,0.1625659,0.4458638,1.203146,0.1868246,78.98226,315.7777,10.43147,True
0,1.300002,0.2411773,-0.09671787,-0.067366,-1.517762,-2.167094,2.824049,0.6693022,1.235062,-0.009083569,-1.716466,0.02170635,0,0,0.1459349,-0.06401408,-0.01704835,-1.063336,-1.730506,-0.2805235,0.7258995,1.403211,-0.02348143,0.07792448,-0.1129093,-0.04572351,-0.9522106,-0.2877692,0.09085774,0.8298894,1.505806,0.1626893,0.4445461,1.204003,0.1870652,78.89027,315.8247,10.54087,True
0,1.311113,0.226265,-0.06584067,-0.06301605,-1.517216,-2.166986,2.821914,0.6683612,1.235145,-0.00870648,-1.716329,0.01014911,0,0,0.1363893,-0.07891154,3.666058E-05,-1.062383,-1.731918,-0.2812149,0.725404,1.403388,-0.02326226,0.08025225,-0.1077555,-0.03290357,-0.9522457,-0.2890469,0.09061166,0.8294398,1.505785,0.1628256,0.443613,1.204982,0.187665,78.72765,315.6629,10.34092,True
0,1.322224,0.2135816,-0.02960534,-0.04805315,-1.516919,-2.167935,2.820024,0.6674125,1.235256,-0.008305997,-1.716622,-0.02917855,0,0,0.1172612,-0.08948995,0.01612196,-1.061263,-1.733245,-0.2812274,0.7246006,1.403464,-0.02296969,0.08374978,-0.1016158,-0.0116051,-0.9522132,-0.2896369,0.08998821,0.8290639,1.505971,0.1628692,0.4429877,1.206019,0.1885409,78.53452,314.8701,9.361259,True
0,1.333336,0.2041856,0.004527381,-0.02459667,-1.517035,-2.169136,2.818042,0.6665056,1.235351,-0.007856786,-1.716642,-0.002122501,0,0,0.1013014,-0.0915502,0.02048462,-1.060614,-1.734342,-0.2813542,0.7240443,1.403581,-0.02267954,0.0849197,-0.10711,4.101149E-05,-0.9519347,-0.2917064,0.09018902,0.8285748,1.506002,0.1629995,0.4425977,1.207044,0.1895759,78.32879,314.015,8.217881,True
0,1.344447,0.1968938,0.007743767,-0.008552641,-1.517312,-2.169258,2.816,0.6655607,1.235446,-0.007437825,-1.716659,-0.003830206,0,0,0.08002999,-0.08185217,0.01850356,-1.060357,-1.734964,-0.2812546,0.7231688,1.403662,-0.02231941,0.09026956,-0.1125414,0.005236508,-0.9518271,-0.2934869,0.09003402,0.8281018,1.506005,0.1631397,0.4422786,1.208014,0.1906548,78.11677,313.206,7.092181,True
0,1.355558,0.1809925,0.007737204,-0.0009303242,-1.517533,-2.169431,2.814553,0.6646464,1.235467,-0.007033944,-1.716524,0.01088799,0,0,0.06723928,-0.07538427,0.01220327,-1.060263,-1.735666,-0.2812117,0.7223117,1.403691,-0.0219838,0.09558954,-0.1254459,0.01350891,-0.9519442,-0.295351,0.09003295,0.8276241,1.506144,0.1632355,0.4419346,1.208893,0.1917144,77.92347,312.7817,6.409367,True
0,1.366669,0.1331886,-0.01255949,0.0092014,-1.518205,-2.16861,2.814625,0.6638324,1.235499,-0.006561816,-1.716336,0.01485794,0,0,0.06489085,-0.09025649,-0.01016997,-1.060594,-1.737701,-0.2809353,0.7213819,1.403688,-0.02160239,0.1062588,-0.1373557,0.02069529,-0.9516561,-0.2981374,0.089899,0.827144,1.50614,0.1632213,0.4414886,1.209674,0.1927374,77.76752,312.5898,6.019156,True
0,1.37778,0.1066085,-0.02431008,0.01269993,-1.518661,-2.168061,2.81432,0.6629927,1.235493,-0.006156951,-1.716533,-0.02014759,0,0,0.0700027,-0.1040979,-0.03259578,-1.061253,-1.739821,-0.2808461,0.7203946,1.403648,-0.02121392,0.1073445,-0.1448983,0.02698245,-0.9513205,-0.3004669,0.09005426,0.8266308,1.506144,0.1633464,0.440863,1.210357,0.1936552,77.64982,312.3452,5.604798,True
0,1.388891,0.073634,-0.03500102,0.01625835,-1.519093,-2.167503,2.814531,0.6621928,1.235411,-0.005706012,-1.717664,-0.1035831,0,0,0.08151184,-0.1275784,-0.04655662,-1.061554,-1.742623,-0.280817,0.7192245,1.403569,-0.0208306,0.1104299,-0.1512439,0.02047577,-0.9514846,-0.3029167,0.08991817,0.825983,1.506093,0.1634165,0.4401195,1.210868,0.1943528,77.55837,312.158,5.304141,True
0,1.400002,0.04168654,-0.04144051,0.01660422,-1.519499,-2.166902,2.815145,0.661412,1.235314,-0.005259812,-1.71811,-0.03650594,0,0,0.08440288,-0.1627194,-0.06580543,-1.062068,-1.74634,-0.2800506,0.7181234,1.403512,-0.02040914,0.1093414,-0.1576529,0.02254151,-0.9513376,-0.3053576,0.0901504,0.8254366,1.506066,0.16356,0.4393136,1.21114,0.1947422,77.50134,312.1078,5.228339,True
0,1.411114,0.02253408,-0.04253285,0.01892967,-1.519825,-2.166475,2.815452,0.6606014,1.235254,-0.004725486,-1.718492,-0.03490924,0,0,0.0789306,-0.1893245,-0.06687614,-1.061938,-1.749822,-0.2789909,0.7171645,1.403469,-0.02004334,0.1135595,-0.1629987,0.02135227,-0.9513701,-0.3077609,0.08999673,0.8244162,1.505797,0.1638026,0.4384027,1.211201,0.1948723,77.4625,312.2097,5.404501,True
0,1.422225,0.005624402,-0.04359419,0.03189167,-1.520752,-2.166234,2.815997,0.6598547,1.235092,-0.004242152,-1.718821,-0.02852956,0,0,0.06172271,-0.2115955,-0.07425837,-1.062117,-1.753617,-0.2772127,0.7160566,1.403377,-0.0196169,0.1167641,-0.1737661,0.02863927,-0.9510281,-0.3106308,0.09027237,0.8237691,1.505795,0.1639594,0.4374038,1.211053,0.1948285,77.44095,312.4341,5.791348,True
0,1.433336,0.002687559,-0.05738806,0.05538994,-1.522391,-2.165705,2.816045,0.6590002,1.234995,-0.00384438,-1.718594,0.0226637,0,0,0.05519363,-0.2232668,-0.08701549,-1.062615,-1.757115,-0.2759906,0.7150607,1.403266,-0.01916865,0.1211957,-0.1761065,0.04240333,-0.9503224,-0.3133366,0.09010326,0.8230999,1.505824,0.164143,0.4363219,1.210726,0.194726,77.45875,312.7641,6.334446,True
0,1.444447,0.008163475,-0.08399177,0.06604445,-1.523977,-2.164241,2.815683,0.6582437,1.234859,-0.0033544,-1.718311,0.02552122,0,0,0.05405944,-0.2339108,-0.08915542,-1.062849,-1.760707,-0.2748087,0.7140317,1.403185,-0.01876712,0.1171927,-0.1698921,0.05957583,-0.9491703,-0.3155163,0.09021378,0.8224058,1.505843,0.1643638,0.4351529,1.210289,0.194702,77.51665,313.2291,7.026231,True
0,1.455558,0.01992706,-0.113801,0.06599329,-1.525393,-2.162381,2.814972,0.6574967,1.234782,-0.0028871,-1.717597,0.0658911,0,0,0.04449027,-0.2370713,-0.08378186,-1.062892,-1.764052,-0.2733791,0.7130585,1.403139,-0.01845053,0.1077369,-0.1656633,0.06718318,-0.9486137,-0.3178306,0.09061725,0.8217328,1.505891,0.1645197,0.4339846,1.209761,0.1948112,77.61221,313.8878,7.862409,True
0,1.466669,0.02519548,-0.1500429,0.05430433,-1.52648,-2.15979,2.814291,0.6568189,1.234635,-0.00243336,-1.716663,0.08378771,0,60,0.04252979,-0.2051083,-0.08265722,-1.063448,-1.765633,-0.2729999,0.7116537,1.402929,-0.01800641,0.09397651,-0.154898,0.06749234,-0.9479085,-0.3194633,0.09094642,0.8210683,1.505988,0.1647393,0.4327763,1.209246,0.1950945,77.74092,314.6057,8.686824,True
0,1.47778,0.0240064,-0.1703193,0.03944829,-1.527234,-2.157337,2.813951,0.6560829,1.234552,-0.001989156,-1.715699,0.08605779,0,60,0.03426693,-0.1656619,-0.07402073,-1.063821,-1.766295,-0.2727719,0.7107401,1.402874,-0.01759574,0.09200346,-0.1378651,0.06985639,-0.9471532,-0.3207024,0.09072325,0.8203678,1.506029,0.1650412,0.4315287,1.208812,0.1955063,77.88417,315.1025,9.24711,True
0,1.488891,0.02175689,-0.2012439,0.02355786,-1.527929,-2.154343,2.813687,0.6553748,1.234442,-0.001517504,-1.715054,0.05647867,0,60,0.01640598,-0.1336248,-0.06106335,-1.0638,-1.766791,-0.2721306,0.7095821,1.402797,-0.01710749,0.0888717,-0.1271629,0.0689609,-0.9464965,-0.3218702,0.09056506,0.8197329,1.506101,0.1652604,0.4302639,1.208509,0.1959483,78.01819,315.3404,9.508814,True
0,1.500003,0.02387806,-0.209768,0.02142472,-1.528923,-2.151929,2.813237,0.6546149,1.234389,-0.001029015,-1.714888,0.01377098,0,60,0.005902369,-0.121873,-0.04712906,-1.063576,-1.767837,-0.271326,0.7086303,1.402767,-0.01668733,0.08676735,-0.127173,0.07111742,-0.9457679,-0.3236911,0.09073763,0.8190398,1.506137,0.165509,0.4290309,1.208334,0.1962843,78.10821,315.3275,9.509035,True
0,1.511114,0.02488878,-0.2097775,0.01608489,-1.529656,-2.149824,2.812813,0.6537983,1.234246,-0.0006194711,-1.714924,-0.003267623,0,60,0.002891935,-0.1080364,-0.0300452,-1.063158,-1.768713,-0.2709609,0.7078433,1.402874,-0.01631498,0.086572,-0.1366504,0.06036737,-0.9454419,-0.3264925,0.09130169,0.8182924,1.506176,0.1657101,0.4278333,1.208286,0.1964374,78.13964,315.2072,9.430302,True
0,1.522225,0.02283882,-0.2118942,0.0235685,-1.53097,-2.1477,2.81253,0.6529868,1.234186,-0.0001507103,-1.714871,0.004943579,0,60,0.004073009,-0.102737,-0.01619534,-1.062603,-1.76965,-0.2705995,0.7068086,1.40287,-0.01588878,0.08956362,-0.1461306,0.04955999,-0.9454163,-0.3289265,0.09161514,0.8175955,1.506221,0.1659497,0.4266383,1.208363,0.1963812,78.10703,315.1122,9.442358,True
0,1.533336,0.02498147,-0.2289405,0.02251888,-1.532191,-2.144777,2.81211,0.6521158,1.234178,0.0003601015,-1.714889,-0.002457834,0,60,0.003009081,-0.1091357,-0.01086453,-1.062083,-1.7713,-0.2698224,0.7058489,1.402963,-0.01539972,0.09265558,-0.1492744,0.04202963,-0.9453124,-0.3313946,0.09176694,0.8168395,1.50619,0.1661647,0.4254151,1.208564,0.19617,78.01144,315.1897,9.699552,True
0,1.544447,0.02285625,-0.239599,0.02149998,-1.533386,-2.141935,2.811808,0.6512749,1.234118,0.0008217692,-1.715062,-0.01616282,0,60,0.01460037,-0.1230319,-0.01948148,-1.062079,-1.773474,-0.2692938,0.7048144,1.403023,-0.01491946,0.09153496,-0.1513576,0.03882138,-0.94515,-0.3336191,0.09207853,0.8161139,1.506202,0.1664151,0.4241846,1.208833,0.1958693,77.87335,315.2984,10.02549,True
0,1.555558,0.02389754,-0.2534579,0.01725143,-1.534386,-2.138792,2.811389,0.6504464,1.234078,0.001351535,-1.71487,0.01731516,0,60,0.0230157,-0.1337289,-0.02700823,-1.062083,-1.775876,-0.2686072,0.7035046,1.402936,-0.01445797,0.0957281,-0.1523783,0.0323834,-0.9448954,-0.3358161,0.09191501,0.815335,1.506238,0.166638,0.4229089,1.209151,0.1955684,77.72833,315.4527,10.41163,True
0,1.566669,0.01417692,-0.2566926,0.003515638,-1.534988,-2.13603,2.811387,0.6496294,1.233993,0.001710713,-1.714282,0.0526537,0,60,0.03039454,-0.1369473,-0.03665053,-1.06238,-1.777859,-0.2682091,0.7025385,1.402966,-0.01400802,0.08814171,-0.1521952,0.02182205,-0.9451916,-0.3379197,0.09243885,0.8146241,1.506254,0.1668753,0.4215334,1.209471,0.1953096,77.59273,315.4276,10.60207,True
0,1.577781,0.005602755,-0.2513886,-0.0006690659,-1.535709,-2.133455,2.811512,0.6487069,1.233966,0.002168536,-1.712899,0.1248978,0,60,0.03990626,-0.1348444,-0.05054817,-1.062868,-1.779707,-0.2681023,0.7013028,1.402871,-0.01350129,0.08596908,-0.1553558,0.01969577,-0.9449944,-0.3404051,0.09291769,0.813688,1.506289,0.1670903,0.4200896,1.209676,0.1950817,77.47183,315.3218,10.69856,True
0,1.588892,-0.004059635,-0.2226529,-0.003824167,-1.536183,-2.131951,2.81179,0.6476886,1.233898,0.002550274,-1.710817,0.1872855,0,60,0.05045944,-0.1412744,-0.06021421,-1.063367,-1.781927,-0.267837,0.7001829,1.402925,-0.01304719,0.08923763,-0.1490092,0.02187971,-0.9445684,-0.3421291,0.09286043,0.8127673,1.506364,0.1673642,0.4185722,1.20966,0.1948926,77.39153,315.1388,10.7094,True
0,1.600003,-0.0104927,-0.1661922,0.0003742725,-1.536311,-2.13201,2.812134,0.646667,1.233889,0.003020465,-1.707848,0.2690622,0,60,0.05573522,-0.1444895,-0.06557941,-1.063804,-1.784109,-0.267583,0.6990318,1.402927,-0.01259837,0.09037788,-0.1426521,0.02407459,-0.9443495,-0.3438376,0.09279625,0.81196,1.506381,0.1676734,0.4170107,1.209299,0.1947319,77.38351,314.9883,10.73383,True
0,1.611114,-0.013713,-0.1203785,0.004566194,-1.536475,-2.132266,2.812355,0.6456215,1.233943,0.003434956,-1.70389,0.3577623,0,60,0.05356155,-0.1508736,-0.06664012,-1.063994,-1.7865,-0.2668666,0.6979511,1.402922,-0.01209447,0.09059,-0.1332176,0.03591745,-0.9435745,-0.3455566,0.09286655,0.8111269,1.506307,0.1678885,0.4153168,1.208568,0.1946694,77.45947,315.0488,10.97675,True
0,1.622225,-0.01475725,-0.05430498,0.01614404,-1.536472,-2.134118,2.812616,0.644536,1.233968,0.003947139,-1.698787,0.4609606,0,60,0.04720763,-0.1540495,-0.05808203,-1.063846,-1.788584,-0.266163,0.6968021,1.402946,-0.01163289,0.08645147,-0.1257944,0.04138615,-0.9430435,-0.3470765,0.09293447,0.8103092,1.506332,0.1682344,0.4135083,1.207418,0.1947822,77.63369,315.4118,11.54142,True
0,1.633336,-0.02330745,0.02879864,0.02563118,-1.536075,-2.137158,2.813273,0.6434157,1.233934,0.004456639,-1.692647,0.5546058,0,60,0.04308281,-0.1508572,-0.04100443,-1.063274,-1.790225,-0.2658551,0.695857,1.403086,-0.01109856,0.08870429,-0.1194974,0.04677796,-0.9422999,-0.3488185,0.09276269,0.809418,1.506238,0.1685648,0.4116449,1.205846,0.1951998,77.94411,316.0961,12.42117,True
0,1.644447,-0.02126568,0.1023108,0.02757311,-1.535287,-2.140607,2.81353,0.6423018,1.233932,0.00494945,-1.685632,0.6324783,0,60,0.03043843,-0.143358,-0.02493282,-1.062711,-1.791614,-0.2650921,0.6947293,1.403061,-0.01062387,0.09088708,-0.1109789,0.04579019,-0.9419228,-0.3499836,0.09235257,0.8085897,1.506237,0.1689228,0.4097668,1.203904,0.1959968,78.38787,317.0156,13.466,True
0,1.655559,-0.02455923,0.1587656,0.02640971,-1.534333,-2.144072,2.814037,0.6411452,1.233933,0.005501568,-1.677979,0.6895525,0,60,0.02094097,-0.1401314,-0.01315048,-1.062112,-1.793183,-0.2642159,0.6934061,1.403029,-0.01015413,0.08761758,-0.1119633,0.04049955,-0.9416857,-0.3518112,0.09257494,0.8075898,1.506219,0.1692503,0.407979,1.201624,0.1972313,78.90848,318.1722,14.67102,True
0,1.66667,-0.02460735,0.1811334,0.02529459,-1.533761,-2.146538,2.814458,0.6399319,1.233996,0.006011724,-1.669321,0.7819734,0,60,0.0200007,-0.1305555,-0.001413502,-1.061506,-1.794367,-0.2638769,0.6923201,1.403072,-0.009597808,0.08541408,-0.1140337,0.03624138,-0.9415351,-0.3536779,0.09284419,0.8067167,1.5063,0.1696087,0.4063947,1.19902,0.1989215,79.5048,319.36,15.77923,True
0,1.677781,-0.02040024,0.1875218,0.02097483,-1.533109,-2.148765,2.814633,0.6387932,1.23401,0.006490827,-1.660184,0.8223954,0,60,0.02324757,-0.1220515,-0.0003556423,-1.061188,-1.795554,-0.263667,0.6911778,1.403071,-0.00909707,0.08426756,-0.1160908,0.03090291,-0.9415244,-0.3554043,0.09295177,0.8058472,1.506314,0.1699742,0.4049874,1.196183,0.2010459,80.18317,320.4301,16.61189,True
0,1.688892,-0.02362102,0.1768618,0.01676875,-1.532593,-2.150347,2.815011,0.6376748,1.234088,0.006990939,-1.650623,0.8620849,0,60,0.02110931,-0.113506,-0.008855583,-1.061391,-1.796816,-0.2632596,0.6899004,1.403077,-0.008568794,0.08426377,-0.111825,0.02883314,-0.9412826,-0.3571785,0.09318134,0.8048987,1.506272,0.170272,0.4036737,1.193209,0.2034933,80.92758,321.3741,17.16538,True
0,1.700003,-0.02791738,0.1566001,0.01046773,-1.532161,-2.151319,2.815499,0.6365499,1.234086,0.007445753,-1.640532,0.9092302,0,60,0.02320213,-0.1103079,-0.01738647,-1.061571,-1.79818,-0.2629472,0.6887212,1.403071,-0.008060187,0.07799156,-0.1065291,0.03536716,-0.9408075,-0.3584724,0.09328574,0.8039594,1.506281,0.170694,0.4023304,1.190194,0.2060498,81.70846,322.3201,17.62597,True
0,1.711114,-0.03535984,0.1438006,0.009507582,-1.531867,-2.152384,2.816103,0.6354766,1.234054,0.007832855,-1.630345,0.9167961,0,60,0.02426728,-0.1103157,-0.01739655,-1.061461,-1.799649,-0.2625432,0.687794,1.403213,-0.007632405,0.07913458,-0.1034094,0.03966327,-0.9402125,-0.3601446,0.09334672,0.8029838,1.506249,0.1708869,0.4009138,1.187181,0.2084784,82.4813,323.3979,18.24138,True
0,1.722225,-0.04595148,0.125682,0.01285513,-1.531875,-2.153157,2.817027,0.6344061,1.234019,0.008299291,-1.620192,0.914647,0,60,0.02635902,-0.1177837,-0.01742151,-1.061246,-1.801419,-0.2620263,0.686579,1.403212,-0.007088155,0.08034118,-0.1003392,0.04927527,-0.9394088,-0.3615023,0.0932157,0.8020551,1.506281,0.1712648,0.3993831,1.18421,0.2105901,83.21687,324.6963,19.17122,True
0,1.733337,-0.04908995,0.1171724,0.01716284,-1.531755,-2.154341,2.817703,0.6333554,1.234035,0.008848578,-1.610001,0.9179083,0,60,0.02415858,-0.1316292,-0.01636236,-1.060847,-1.803696,-0.2610279,0.6848795,1.403087,-0.006525844,0.07505885,-0.09927993,0.05254387,-0.9389097,-0.363005,0.09348814,0.8011351,1.506442,0.171618,0.3977332,1.181274,0.2122438,83.87945,326.315,20.554,True
0,1.744448,-0.05116557,0.1001363,0.02041532,-1.531796,-2.155036,2.818395,0.6322513,1.234076,0.00941661,-1.599908,0.90887,0,60,0.02311688,-0.1401625,-0.005715817,-1.060068,-1.805659,-0.2602896,0.6836245,1.403098,-0.005979836,0.07390077,-0.1045457,0.0482317,-0.9386529,-0.3647025,0.09370013,0.8002203,1.506472,0.1719733,0.3959851,1.178358,0.2134061,84.4597,328.6461,22.81984,True
0,1.755559,-0.05009223,0.08841634,0.01936441,-1.531765,-2.155622,2.818914,0.6312165,1.234092,0.009909958,-1.589477,0.9407223,0,60,0.02003316,-0.1508408,0.01984803,-1.058527,-1.807636,-0.259492,0.6823111,1.403219,-0.005388349,0.07478561,-0.1151195,0.04063277,-0.9386806,-0.3668511,0.09419254,0.799335,1.506514,0.1722394,0.3941254,1.175457,0.2141745,84.96667,331.966,26.25842,True
0,1.76667,-0.05433999,0.0585747,0.01628132,-1.531928,-2.155365,2.819665,0.6302176,1.234083,0.01040956,-1.579111,0.9333393,0,60,0.02334174,-0.1604826,0.04431101,-1.056771,-1.809572,-0.2590244,0.6811514,1.403296,-0.004914701,0.07478454,-0.1151208,0.0395846,-0.9381651,-0.368751,0.09433875,0.7983341,1.50658,0.1724868,0.3921558,1.172587,0.214741,85.431,336.3272,30.86363,True
0,1.777781,-0.05863635,0.03831305,0.009980232,-1.531916,-2.155103,2.820442,0.6291995,1.234069,0.01089194,-1.56867,0.9404752,0,60,0.02767015,-0.1658543,0.05918952,-1.055094,-1.811477,-0.258541,0.6799121,1.403332,-0.004389197,0.07260367,-0.1182743,0.03744166,-0.93796,-0.3705195,0.09464502,0.7974238,1.506619,0.1728248,0.3901087,1.169751,0.2152548,85.86976,341.6126,36.4071,True
0,1.788892,-0.06071819,0.01274377,0.01112388,-1.532268,-2.154511,2.821182,0.6281819,1.234059,0.01131696,-1.558446,0.9200678,0,60,0.03400132,-0.1690643,0.05168095,-1.054442,-1.813463,-0.2581911,0.6788113,1.403298,-0.003830433,0.07476237,-0.1150961,0.03745893,-0.9375877,-0.3720461,0.09459974,0.7965596,1.506655,0.1731014,0.3880851,1.166918,0.2157785,86.28358,347.8591,42.86331,True
0,1.800003,-0.06496581,-0.003244426,0.01013931,-1.532538,-2.153991,2.822038,0.6271894,1.234061,0.0117746,-1.548228,0.9207209,0,60,0.0392029,-0.1669279,0.03034472,-1.054335,-1.815559,-0.2577567,0.6776185,1.403293,-0.003318846,0.07267769,-0.1108323,0.03860196,-0.9372196,-0.3734524,0.09468603,0.7956662,1.5067,0.1734693,0.3861275,1.164058,0.2163266,86.66135,355.236,50.38826,True
0,1.811115,-0.06173888,-0.005363676,0.01224158,-1.532761,-2.154045,2.822488,0.6262028,1.234059,0.01225734,-1.538084,0.9138834,0,60,0.03484115,-0.1626097,0.01120205,-1.054472,-1.817432,-0.2570358,0.676523,1.403355,-0.002826571,0.07381005,-0.1055478,0.04079766,-0.9366087,-0.3748876,0.09469402,0.7947676,1.506655,0.1737845,0.3842443,1.16116,0.2169054,86.98799,4.327176,59.57589,True
0,1.822226,-0.06067592,0.01062221,0.01432456,-1.532759,-2.154747,2.823155,0.6252236,1.234071,0.01273936,-1.528048,0.9036736,0,60,0.02517206,-0.1508069,-0.01108956,-1.055048,-1.81908,-0.2561671,0.6753933,1.40335,-0.002340078,0.07283966,-0.09704664,0.04304359,-0.9361554,-0.3759792,0.09451239,0.7938747,1.506667,0.1741584,0.3824222,1.158229,0.2175056,87.21667,15.68921,71.00717,True
0,1.833337,-0.04897399,0.02981947,0.01522103,-1.532559,-2.155791,2.823292,0.6242359,1.234082,0.01326993,-1.517708,0.9319164,0,60,0.02315691,-0.133757,-0.00678863,-1.054695,-1.820046,-0.2558653,0.6743162,1.403371,-0.001881123,0.07076333,-0.09387152,0.04525954,-0.9354066,-0.3774503,0.09463277,0.792917,1.506638,0.1745393,0.3806633,1.155273,0.2181342,87.31088,28.75079,84.15129,True
0,1.844448,-0.04258771,0.04048444,0.01619568,-1.532505,-2.156661,2.823572,0.6232512,1.234094,0.01377633,-1.507667,0.9033461,0,60,0.01793847,-0.1273561,0.004973173,-1.053949,-1.821241,-0.25528,0.6732125,1.403378,-0.00138694,0.06984355,-0.09078348,0.05489932,-0.9345091,-0.3786848,0.09455846,0.7920098,1.50667,0.1750018,0.3789816,1.152315,0.2188388,87.24836,42.15326,97.65171,True
0,1.855559,-0.03313456,0.03620657,0.002255263,-1.531961,-2.15673,2.823566,0.6223187,1.234024,0.01430219,-1.497354,0.9293174,0,60,0.01287714,-0.1135258,0.03485554,-1.05231,-1.821676,-0.2550922,0.672338,1.403466,-0.0008507967,0.06134446,-0.08538514,0.05400646,-0.9339727,-0.3797947,0.09491613,0.7911222,1.506733,0.1753804,0.3774281,1.149368,0.219665,87.0553,54.42321,110.003,True
0,1.86667,-0.03005435,0.02553557,-0.009470081,-1.53151,-2.156533,2.823965,0.6212072,1.234054,0.01470295,-1.48724,0.9090537,0,60,0.0108995,-0.1050192,0.05192659,-1.050934,-1.822267,-0.254848,0.6713054,1.403482,-0.0003586709,0.05824818,-0.08116516,0.05942322,-0.9332201,-0.3808214,0.09496886,0.7902424,1.506735,0.1757775,0.3759786,1.14647,0.220666,86.77099,64.92188,120.5238,True
0,1.877781,-0.03445654,0.002053568,-0.02641618,-1.53093,-2.155531,2.824457,0.6202433,1.234056,0.01507837,-1.477027,0.9196508,0,60,0.00893971,-0.0997211,0.07432811,-1.048999,-1.822899,-0.2545822,0.6704376,1.403485,0.0002166927,0.05408882,-0.07801967,0.06590781,-0.9323364,-0.3819205,0.09519017,0.7893381,1.506852,0.1760764,0.374629,1.143623,0.2218002,86.44328,73.63472,129.1684,True
0,1.888893,-0.03351734,-0.008631589,-0.04025208,-1.530225,-2.154793,2.824747,0.6193349,1.233914,0.01556468,-1.467274,0.8769197,0,60,0.002489299,-0.103937,0.06797448,-1.048183,-1.824201,-0.2538123,0.6695158,1.403555,0.0007358193,0.05191502,-0.08548459,0.06692263,-0.9315141,-0.3837646,0.09577393,0.7883954,1.506839,0.1763571,0.3732993,1.140828,0.22297,86.10821,81.25281,136.6208,True
0,1.900004,-0.02832315,-0.02357189,-0.0551867,-1.529368,-2.153695,2.824882,0.6183887,1.233879,0.01592037,-1.457633,0.8684053,0,60,-0.01166625,-0.1080564,0.02331477,-1.049003,-1.826074,-0.2522751,0.6685071,1.403471,0.001238197,0.04879373,-0.08768205,0.07439189,-0.9305085,-0.385249,0.09620643,0.7875218,1.506894,0.1767451,0.3719104,1.138081,0.2240224,85.72978,87.72046,142.8721,True
0,1.911115,-0.02724246,-0.02783009,-0.05412605,-1.528945,-2.153142,2.82514,0.6173904,1.233916,0.01632982,-1.44775,0.8904086,0,60,-0.01084524,-0.1015975,-0.02035712,-1.050313,-1.827497,-0.25149,0.66731,1.403291,0.001735955,0.04239284,-0.09084192,0.07549423,-0.9297585,-0.3867283,0.09679765,0.7866685,1.506979,0.1771507,0.3708847,1.135871,0.2245897,85.39436,91.68771,146.6533,True
0,1.922226,-0.02074028,-0.03525562,-0.04458827,-1.528996,-2.152463,2.825106,0.6164494,1.233899,0.01671398,-1.437679,0.9065917,0,60,-0.0056554,-0.09519169,-0.04701315,-1.051458,-1.828833,-0.2509321,0.6662881,1.403233,0.002197146,0.04562106,-0.08660518,0.07550678,-0.9289878,-0.3878561,0.09685517,0.7858121,1.506991,0.1775316,0.3704581,1.135129,0.2246185,85.29681,92.4711,147.1845,True
0,1.933337,-0.01431455,-0.04270144,-0.04250922,-1.528849,-2.151589,2.824996,0.615509,1.233793,0.01706389,-1.427764,0.892235,0,60,-0.002609856,-0.0973069,-0.06833877,-1.052428,-1.830526,-0.250151,0.6653094,1.403223,0.00275144,0.04551687,-0.08758853,0.06805943,-0.928313,-0.389396,0.0973705,0.7848039,1.506975,0.1778464,0.3698719,1.134737,0.2245901,85.61993,91.69965,146.3111,True
0,1.944448,-0.01114394,-0.0544203,-0.04677689,-1.528517,-2.150453,2.824937,0.6146426,1.233827,0.01742667,-1.417665,0.9095745,0,60,-0.005931631,-0.1089917,-0.07792684,-1.053144,-1.832617,-0.2488708,0.6641524,1.403093,0.003166109,0.04555571,-0.08010802,0.06601926,-0.927725,-0.3902887,0.09729327,0.7840431,1.506966,0.1781392,0.3691867,1.134432,0.2245187,85.7895,90.8083,145.3658,True
0,1.955559,-0.01115823,-0.0576193,-0.0489044,-1.528103,-2.149556,2.824985,0.6138096,1.233883,0.01774523,-1.407521,0.9124894,0,0,-0.002747878,-0.1154012,-0.0747643,-1.053511,-1.834442,-0.2480418,0.6632178,1.403141,0.00355497,0.046735,-0.06950853,0.06933197,-0.9268584,-0.3910242,0.09726743,0.7832487,1.507065,0.178448,0.3683979,1.134128,0.2244725,85.98653,89.7068,144.2659,True
0,1.966671,-0.01864258,-0.05231224,-0.05096647,-1.527624,-2.148954,2.825372,0.6130126,1.233872,0.01802343,-1.397578,0.8945796,0,0,-0.002695911,-0.1250153,-0.05879911,-1.053172,-1.836384,-0.24707,0.6622863,1.403109,0.003908128,0.04566049,-0.06840521,0.06617912,-0.9260892,-0.3922273,0.09723201,0.7824817,1.507088,0.1786918,0.3675694,1.133819,0.2244639,86.25681,89.07282,143.6477,True
0,1.977782,-0.01865845,-0.04911882,-0.05203898,-1.527171,-2.148337,2.825545,0.6121702,1.233897,0.01836801,-1.387748,0.8844731,0,0,-0.005693197,-0.1207809,-0.03107509,-1.052305,-1.837593,-0.2463147,0.6614408,1.403126,0.004291773,0.04141602,-0.06624293,0.06625708,-0.9254048,-0.3931253,0.09745252,0.7817523,1.507163,0.1790057,0.36669,1.133528,0.224489,86.56624,88.2508,142.8289,True
0,1.988893,-0.004750751,-0.03629467,-0.04475519,-1.526907,-2.148305,2.825079,0.6113322,1.233909,0.01866245,-1.378249,0.8548108,0,0,-0.004389256,-0.1133826,0.000889264,-1.051002,-1.838474,-0.2458042,0.6606333,1.403193,0.004696429,0.03503413,-0.06727763,0.0673915,-0.9246399,-0.3943171,0.09793056,0.7809975,1.507278,0.1792492,0.3658018,1.133246,0.2245276,86.90079,86.6386,141.2222,True
0,2.000004,0.008039411,-0.01922353,-0.04173095,-1.526481,-2.148513,2.824572,0.6105406,1.233948,0.01898482,-1.368698,0.860672,0,0,-0.005260499,-0.09955837,0.02009217,-1.050016,-1.838967,-0.2454787,0.6598854,1.403241,0.005060166,0.03088267,-0.05554768,0.06864858,-0.9238831,-0.3948046,0.09790659,0.7804048,1.50731,0.1794904,0.3649441,1.132956,0.2245683,87.25733,84.19736,138.8141,True
0,2.011115,0.01337663,-0.00323014,-0.0386268,-1.526036,-2.148838,2.824245,0.6098003,1.234045,0.01938114,-1.358842,0.8874874,0,0,-0.0009008925,-0.09107123,0.02860284,-1.049301,-1.839664,-0.2452678,0.6589806,1.403212,0.005429536,0.02875169,-0.04587328,0.06240061,-0.9234181,-0.3952419,0.09783575,0.7798135,1.50735,0.179834,0.3640685,1.13267,0.2246462,87.57578,81.62924,136.3044,True
0,2.022226,0.01454174,0.02556609,-0.02485522,-1.525834,-2.150158,2.824086,0.6090636,1.234101,0.01970434,-1.349401,0.8479033,0,0,0.001307271,-0.08790142,0.03818162,-1.04835,-1.84042,-0.2449823,0.6583223,1.403255,0.005737454,0.02441184,-0.032873,0.04769838,-0.9233169,-0.3951044,0.09755106,0.7792113,1.507444,0.1802114,0.3631453,1.132407,0.2248174,87.90688,78.68633,133.4068,True
0,2.033337,0.01353971,0.06287384,-0.01321254,-1.525473,-2.151938,2.824091,0.6083906,1.234234,0.02008447,-1.340649,0.7862863,0,0,0.001314349,-0.08470297,0.03605286,-1.047892,-1.841365,-0.244578,0.657814,1.403386,0.006029755,0.01803951,-0.02104843,0.04153819,-0.9228961,-0.3953371,0.0975894,0.7785933,1.507474,0.1805042,0.3622397,1.132175,0.2251304,88.17802,74.78513,129.5159,True
0,2.044448,0.01460291,0.08845046,-0.009022625,-1.524915,-2.153536,2.824083,0.607728,1.234269,0.02037194,-1.332492,0.7333289,0,0,-0.003032029,-0.08146138,0.02010488,-1.048006,-1.84241,-0.2438523,0.6570451,1.403365,0.006315708,0.01277912,-0.01678055,0.04378301,-0.922356,-0.3956151,0.09768448,0.7779956,1.507492,0.1807933,0.3615122,1.131959,0.2255596,88.35896,71.5168,126.1978,True
0,2.055559,0.02200434,0.1246816,-0.009182407,-1.523995,-2.155993,2.823703,0.6071303,1.234365,0.02065885,-1.324999,0.6737605,0,0,-0.008341296,-0.07290488,0.01589084,-1.047856,-1.843011,-0.2432931,0.6565607,1.403383,0.006551743,0.00676284,0.005423734,0.061175,-0.9210319,-0.3948313,0.09738967,0.7773926,1.507583,0.1810676,0.3614386,1.131745,0.2260762,88.88478,68.92328,123.5959,True
0,2.06667,0.03048491,0.1449365,-0.01037847,-1.523191,-2.158077,2.823161,0.6065693,1.234368,0.02081472,-1.318053,0.6246669,0,0,-0.0177897,-0.05369622,0.02131064,-1.047353,-1.843005,-0.2428987,0.6564865,1.403469,0.00680688,0.001642451,0.0159953,0.07096222,-0.9197813,-0.3944456,0.0971657,0.7768707,1.507648,0.1813008,0.3608705,1.13158,0.2270966,88.62841,48.58765,103.1517,True
0,2.077781,0.02936909,0.1491863,-0.0146381,-1.522332,-2.159714,2.822927,0.6060944,1.234423,0.02101481,-1.311501,0.5894486,0,0,-0.02724919,-0.03554514,0.02672597,-1.04693,-1.842718,-0.2424347,0.6561527,1.403475,0.007037014,-0.003707595,0.02142607,0.06576625,-0.9191751,-0.3940039,0.09711936,0.7764235,1.507671,0.1815929,0.3603899,1.131381,0.22806,88.87639,47.73377,102.2696,True
0,2.088892,0.02827843,0.1449114,-0.01781973,-1.521529,-2.160853,2.822712,0.6055889,1.234435,0.02126735,-1.305623,0.5272216,0,0,-0.03251453,-0.02486572,0.02783893,-1.046646,-1.842598,-0.2419663,0.6556337,1.403455,0.007297784,-0.005908556,0.01937727,0.06044495,-0.9186596,-0.3939333,0.09705731,0.7759318,1.507732,0.181902,0.360351,1.131151,0.2286592,89.17386,67.96925,122.448,True
0,2.100003,0.02609044,0.1246481,-0.02627341,-1.520743,-2.16135,2.822542,0.6052449,1.234462,0.02136797,-1.301046,0.409777,0,0,-0.04310384,-0.0152264,0.03005221,-1.046275,-1.842276,-0.2412779,0.6553805,1.403451,0.007486612,-0.01345043,0.02703236,0.04891006,-0.9184768,-0.3932059,0.09701975,0.7755582,1.507783,0.1821959,0.3603654,1.131019,0.2292953,89.30227,55.05236,109.1057,True
0,2.111114,0.02075059,0.09799576,-0.03148944,-1.520105,-2.161317,2.822494,0.6048775,1.23455,0.02149743,-1.297586,0.3103886,0,0,-0.05588103,-0.01303255,0.03013308,-1.045981,-1.842386,-0.2401015,0.6550539,1.403533,0.007673264,-0.01654316,0.0290918,0.05641931,-0.9177152,-0.3928625,0.09715079,0.7752979,1.507825,0.1823917,0.3603466,1.131038,0.2303802,88.81667,3.726066,57.55874,True
0,2.122225,0.01216595,0.04468661,-0.04512773,-1.519603,-2.159656,2.822601,0.6046605,1.234592,0.0215134,-1.29518,0.2151158,0,0,-0.06543302,0.003008049,0.02276198,-1.046132,-1.841727,-0.2393396,0.6548476,1.403545,0.007825404,-0.01538061,0.03650027,0.05969137,-0.9168693,-0.3921499,0.09679233,0.7750068,1.507817,0.1825738,0.3598402,1.130949,0.2313964,88.79715,12.64728,66.27803,True
0,2.133336,0.00470271,-0.04270691,-0.0587014,-1.519557,-2.156235,2.822528,0.6045334,1.23461,0.02144474,-1.293758,0.126573,0,0,-0.05902145,0.02003663,0.01209026,-1.046624,-1.840912,-0.2393399,0.6545608,1.403537,0.007956207,-0.01442807,0.02908365,0.05533247,-0.916333,-0.3922033,0.09700458,0.774636,1.507838,0.1827907,0.3592322,1.13088,0.2321507,89.07932,3.798435,57.18834,True
0,2.144447,0.0004011802,-0.08960779,-0.06920367,-1.519235,-2.153701,2.822526,0.6042891,1.234652,0.02143025,-1.293199,0.04918745,0,0,-0.04303859,0.02955022,0.003472016,-1.047108,-1.840377,-0.2398243,0.6545098,1.403647,0.008070081,-0.01661453,0.02808392,0.05108471,-0.9159091,-0.3919668,0.0970653,0.7743618,1.507851,0.1830409,0.3591291,1.130811,0.2321282,89.54329,27.36107,80.66727,True
0,2.155558,-0.00926131,-0.1493151,-0.0849469,-1.518994,-2.14974,2.822767,0.604224,1.234704,0.02134925,-1.293071,0.01129892,0,0,-0.03876866,0.02205943,0.0108902,-1.0468,-1.840267,-0.2395964,0.654341,1.403705,0.00821045,-0.01778698,0.03463906,0.03838911,-0.9159532,-0.3911751,0.09682348,0.7741351,1.507858,0.1832757,0.3586557,1.130841,0.2319476,89.34898,10.62287,63.85624,True
0,2.166669,-0.01671295,-0.2015372,-0.09220433,-1.519043,-2.145902,2.822916,0.6041906,1.234741,0.02128541,-1.293305,-0.02168296,0,0,-0.04195804,0.01461216,0.01728856,-1.046385,-1.840257,-0.2390507,0.6544821,1.403877,0.008345485,-0.01470829,0.03686606,0.02772461,-0.9159271,-0.3907152,0.0966541,0.7739608,1.507916,0.1834511,0.3584058,1.130756,0.2306394,88.13786,349.6156,42.77711,True
0,2.17778,-0.01673866,-0.2356436,-0.09958342,-1.518932,-2.141948,2.822916,0.6041725,1.234789,0.02122638,-1.293971,-0.06059566,0,0,-0.04299186,0.01674318,0.02049449,-1.046118,-1.839886,-0.2387199,0.6543424,1.403942,0.008471578,-0.01155125,0.04010013,0.02239732,-0.9158238,-0.390102,0.09626928,0.7738252,1.507891,0.1835923,0.3573843,1.131077,0.2303908,87.12349,10.01049,64.01985,True
0,2.188891,-0.0114096,-0.2462883,-0.1006825,-1.518747,-2.138874,2.822706,0.6041558,1.234911,0.02115193,-1.294626,-0.05819074,0,0,-0.0355702,0.008176006,0.02256596,-1.045758,-1.840033,-0.2384333,0.6543665,1.404091,0.008548915,-0.01041311,0.04753621,0.02353509,-0.9155069,-0.3891378,0.09571401,0.7737286,1.507904,0.183799,0.3565606,1.131207,0.2301013,86.72828,14.00785,68.36389,True
0,2.200002,0.0003564861,-0.2494569,-0.0965358,-1.518755,-2.135823,2.822151,0.6041639,1.234996,0.0210979,-1.295155,-0.04725822,0,0,-0.03133595,-0.003572574,0.02784697,-1.045158,-1.840406,-0.2380506,0.6543131,1.404151,0.008639604,-0.01257857,0.04865944,0.01930705,-0.9154685,-0.3885816,0.09545302,0.7736406,1.507992,0.1839338,0.3558881,1.131291,0.2298261,86.55054,14.93534,69.37024,True
0,2.211113,0.00353195,-0.239867,-0.09765479,-1.518437,-2.133358,2.821807,0.6041915,1.235126,0.02106324,-1.29548,-0.02917416,0,0,-0.02704169,0.0049344,0.0257027,-1.045044,-1.839886,-0.2381923,0.6546474,1.40426,0.008663088,-0.01583723,0.05411342,0.01088972,-0.9155271,-0.3876184,0.09512971,0.7736039,1.507981,0.1841354,0.3552223,1.131312,0.2295572,86.39614,15.78805,70.31714,True
0,2.222224,0.008849129,-0.2121541,-0.09457727,-1.517972,-2.131777,2.821415,0.6042197,1.235236,0.02102268,-1.295573,-0.008479005,0,0,-0.01735951,0.03792566,0.01398045,-1.045536,-1.838241,-0.2391186,0.6546986,1.404248,0.008737236,-0.01803681,0.06063688,0.001405346,-0.9157317,-0.3865008,0.09473157,0.773587,1.507974,0.1843448,0.3546417,1.131515,0.2294361,86.53881,14.1667,68.43388,True
0,2.233335,0.01416282,-0.1546047,-0.08730868,-1.517192,-2.131695,2.821134,0.6042686,1.235303,0.02100945,-1.295837,-0.02502575,0,0,-0.02359758,0.06885358,0.0130037,-1.045841,-1.836264,-0.2396693,0.654856,1.404306,0.008775055,-0.01916836,0.06393155,-0.005998793,-0.9159597,-0.3854518,0.09435473,0.7736177,1.507989,0.1845374,0.3537933,1.131495,0.2293477,86.70979,9.430996,63.13938,True
0,2.244446,0.01633739,-0.1172916,-0.07782791,-1.51672,-2.131369,2.820855,0.6043448,1.235395,0.02095467,-1.296056,-0.01961298,0,0,-0.0287681,0.08163965,0.02690704,-1.04538,-1.834719,-0.2399482,0.6549151,1.404325,0.008856624,-0.02024256,0.06608444,-0.008088878,-0.9160081,-0.3846786,0.09412224,0.7735574,1.508095,0.1847088,0.3532242,1.131548,0.2292322,86.36245,13.00685,66.90671,True
0,2.255557,0.01422993,-0.05974457,-0.06728436,-1.515967,-2.132471,2.820808,0.6043868,1.235518,0.02096471,-1.296279,-0.02057278,0,0,-0.0275363,0.09012607,0.04608835,-1.044593,-1.832975,-0.2405553,0.6550798,1.404394,0.00889048,-0.02017124,0.07030611,-0.004841739,-0.9158574,-0.3835254,0.09365831,0.7736082,1.508127,0.1848763,0.3527014,1.131598,0.2290284,86.16631,13.6469,67.62739,True
0,2.266668,0.006798226,-0.01179373,-0.05772552,-1.515269,-2.133574,2.821065,0.6044872,1.23561,0.02092966,-1.296487,-0.01897735,0,0,-0.01890751,0.09005011,0.06307335,-1.043687,-1.831699,-0.2412608,0.6551411,1.404499,0.008917272,-0.01689444,0.06695838,0.004662874,-0.9154808,-0.3829735,0.09354033,0.7737205,1.50817,0.1849221,0.3526105,1.131639,0.2288514,85.99239,15.30402,69.30419,True
0,2.277779,0.004666239,0.02550054,-0.0524622,-1.514409,-2.13484,2.821146,0.6045659,1.235731,0.0209122,-1.296756,-0.02455392,0,0,-0.01786183,0.08364952,0.06518718,-1.043091,-1.830672,-0.2416161,0.6552618,1.40459,0.008965015,-0.01266752,0.06695253,0.002478718,-0.915508,-0.3820555,0.09310012,0.7738302,1.508129,0.1849751,0.3527811,1.131679,0.2288594,85.84692,16.46336,70.39413,True
0,2.28889,-0.002779055,0.04573781,-0.04816951,-1.513705,-2.135636,2.82147,0.6046009,1.235838,0.02086073,-1.297153,-0.03576814,0,0,-0.01275072,0.052743,0.05657846,-1.042781,-1.831146,-0.2414081,0.6555357,1.404724,0.008932143,-0.0127566,0.06488986,-0.003919953,-0.9154685,-0.3813856,0.09277467,0.7737839,1.508069,0.1850906,0.3528444,1.131722,0.2292633,85.82548,14.50196,68.40017,True
0,2.300001,-0.002762463,0.06385758,-0.04394984,-1.512955,-2.136796,2.821562,0.6047459,1.235956,0.02079543,-1.297291,-0.01132938,0,0,-0.01510793,0.02294091,0.04482571,-1.042519,-1.831964,-0.2407812,0.656028,1.404912,0.008875072,-0.01174035,0.06600195,-0.008180164,-0.9156321,-0.3803422,0.09233712,0.7739007,1.508108,0.1851965,0.3531491,1.131714,0.2294081,86.40871,13.07753,66.91393,True
0,2.311112,-0.001677845,0.07239104,-0.04078421,-1.512295,-2.13765,2.821587,0.6048398,1.236078,0.02071154,-1.297501,-0.0192944,0,0,-0.01522317,0.01123626,0.0362854,-1.042334,-1.832255,-0.2404523,0.656208,1.404991,0.008860499,-0.009635736,0.06172615,-0.008254725,-0.9156038,-0.3796578,0.09185456,0.7740631,1.50808,0.1853237,0.3532501,1.131687,0.2295075,86.88303,9.743361,63.57089,True
0,2.322223,0.002606779,0.07133703,-0.03869549,-1.511709,-2.138268,2.821426,0.6050501,1.236173,0.02061933,-1.297439,0.006614106,0,0,-0.01416724,0.01443632,0.03202067,-1.042225,-1.831732,-0.2406179,0.6566951,1.405098,0.008813679,-0.01066201,0.06384192,-0.007150842,-0.9155671,-0.378811,0.09134004,0.7742977,1.507972,0.1853521,0.3533449,1.13168,0.2295736,86.9314,8.615282,62.44707,True
0,2.333334,0.005846731,0.05537007,-0.03655854,-1.511385,-2.138262,2.821279,0.605273,1.236184,0.02055803,-1.297288,0.01351438,0,0,-0.01735748,0.01551818,0.03204274,-1.041938,-1.831419,-0.2404795,0.6570084,1.40515,0.008745819,-0.01287822,0.0628708,-0.0135285,-0.9158552,-0.3779607,0.0910311,0.7745221,1.507956,0.1854202,0.353335,1.131695,0.2297585,86.62653,7.808737,61.65589,True
0,2.344445,0.009052809,0.0372615,-0.03867409,-1.511066,-2.138002,2.820986,0.6055634,1.236212,0.02039939,-1.297026,0.02355413,0,0,-0.01728276,0.02509821,0.03524948,-1.041633,-1.830689,-0.2407362,0.6574075,1.405173,0.008671224,-0.0149986,0.06715335,-0.01451363,-0.9159458,-0.3769701,0.09079649,0.7746682,1.508081,0.1854633,0.3533948,1.131722,0.2297989,86.73902,6.723398,60.53877,True
0,2.355556,0.01867886,0.01170887,-0.03871525,-1.510904,-2.137209,2.820418,0.6059034,1.236249,0.02028504,-1.296848,0.0154759,0,0,-0.02147008,0.04323516,0.03210895,-1.041645,-1.829441,-0.2410017,0.6578257,1.405187,0.008570969,-0.02137994,0.07363126,-0.01755315,-0.916153,-0.3756383,0.09045,0.7749383,1.508076,0.1855368,0.3534336,1.131706,0.2298585,86.78691,5.672024,59.50323,True
0,2.366668,0.0240788,-0.01596851,-0.03551105,-1.510948,-2.136188,2.819949,0.6062489,1.236328,0.02017051,-1.296639,0.01878721,0,0,-0.01928519,0.05814053,0.02892645,-1.041656,-1.828154,-0.2414685,0.6581972,1.405199,0.0085015,-0.02025328,0.07892142,-0.01644325,-0.9163074,-0.3745504,0.08981937,0.7753575,1.508065,0.1854559,0.3535095,1.131703,0.2298354,86.80611,4.474286,58.28819,True
0,2.377779,0.03364324,-0.07350434,-0.04613176,-1.510998,-2.133339,2.81908,0.6067235,1.236388,0.01999676,-1.296337,0.02687801,0,0,-0.02131728,0.07839361,0.02790621,-1.041789,-1.826301,-0.2421069,0.6587021,1.405214,0.008379996,-0.02568283,0.07906534,-0.02489911,-0.916774,-0.3733938,0.08958182,0.775676,1.50805,0.1854907,0.3535592,1.131727,0.2297641,86.79533,3.442218,57.2275,True
0,2.38889,0.03999496,-0.1076099,-0.05464051,-1.510898,-2.130939,2.818357,0.6071091,1.236479,0.01987234,-1.296223,0.009049309,0,0,-0.0169732,0.0975541,0.02577845,-1.041996,-1.82427,-0.2430606,0.6590409,1.405164,0.008286625,-0.03213973,0.07703108,-0.0291052,-0.9171512,-0.3724484,0.08954214,0.7759507,1.507999,0.1855356,0.3535666,1.131769,0.2296729,86.74562,3.315993,57.08052,True
0,2.400001,0.04525179,-0.1491777,-0.06738388,-1.510743,-2.127674,2.817481,0.6075907,1.236545,0.01969618,-1.296012,0.01895562,0,0,-0.01903677,0.1156817,0.02155909,-1.042368,-1.822083,-0.2438739,0.6595788,1.405182,0.008166164,-0.03110823,0.07811865,-0.03230337,-0.9175735,-0.3714127,0.08923613,0.7763669,1.507886,0.1856073,0.3535332,1.13182,0.2295601,86.66152,3.985088,57.73101,True
0,2.411112,0.04950417,-0.1811445,-0.07267733,-1.510808,-2.124616,2.816677,0.6080384,1.236611,0.01951396,-1.295986,0.0009488286,0,0,-0.02436401,0.1199745,0.01840341,-1.042612,-1.820507,-0.2441543,0.6598794,1.405116,0.008075595,-0.02894378,0.08772855,-0.03540851,-0.9179586,-0.3697125,0.08844491,0.7767236,1.507872,0.1856728,0.3534932,1.131902,0.2293147,86.59447,5.67605,59.36643,True
0,2.422223,0.04733928,-0.1950044,-0.07795142,-1.510607,-2.121933,2.816075,0.6085241,1.236667,0.01933202,-1.295978,0.0002109851,0,0,-0.02650468,0.1199883,0.01735621,-1.04273,-1.81897,-0.2445296,0.6600945,1.405048,0.008009464,-0.03735192,0.0973409,-0.03199147,-0.9180502,-0.3678832,0.08802946,0.7771053,1.507875,0.1857735,0.353354,1.131994,0.2290673,86.41483,7.435314,61.06887,True
0,2.433334,0.04842927,-0.2013914,-0.07688391,-1.510592,-2.119417,2.815284,0.6089618,1.23678,0.0191499,-1.296069,-0.009174899,0,0,-0.02440055,0.1135839,0.01839795,-1.042738,-1.817738,-0.2449448,0.6606195,1.405087,0.00792557,-0.03822927,0.111115,-0.0254143,-0.9179069,-0.3658382,0.08716074,0.7775176,1.507796,0.1859179,0.353186,1.132088,0.2288017,86.16029,9.3157,62.8778,True
0,2.444445,0.0441316,-0.1992759,-0.0800404,-1.510303,-2.117111,2.814826,0.6094155,1.23687,0.01890376,-1.296313,-0.02270414,0,0,-0.02228812,0.1135763,0.01625775,-1.042877,-1.816301,-0.2454319,0.6608701,1.405035,0.007852286,-0.03498213,0.1131811,-0.02223995,-0.9180481,-0.3642287,0.08648615,0.77792,1.507901,0.1859773,0.3530357,1.132177,0.2285376,85.85703,10.94971,64.46121,True
0,2.455556,0.03555453,-0.185448,-0.08317904,-1.509863,-2.115258,2.814618,0.6098781,1.236934,0.01872513,-1.296399,-0.007607407,0,0,-0.02655514,0.1071999,0.0205362,-1.042769,-1.815113,-0.2456023,0.6613939,1.405065,0.007775873,-0.03496433,0.1120898,-0.0201226,-0.9180955,-0.3627148,0.0859514,0.7783253,1.507906,0.1860253,0.3529244,1.132263,0.2283003,85.59763,11.91905,65.39928,True
0,2.466667,0.03013005,-0.158829,-0.08850521,-1.509114,-2.114127,2.8144,0.6103368,1.237014,0.01844856,-1.296682,-0.02668922,0,0,-0.02757366,0.1071952,0.02799596,-1.042577,-1.813588,-0.246005,0.6619992,1.405127,0.007676184,-0.03517374,0.08868849,-0.02254447,-0.9185349,-0.3622694,0.08613435,0.7788038,1.507909,0.1859591,0.3528135,1.132342,0.2280731,85.4922,12.21327,65.59858,True
0,2.477778,0.02369231,-0.1428641,-0.09060589,-1.508442,-2.112765,2.81427,0.6108167,1.237088,0.01826873,-1.297056,-0.03363519,0,0,-0.03184024,0.106152,0.02802153,-1.042556,-1.812204,-0.2462012,0.6625109,1.40513,0.007601976,-0.03321991,0.07060348,-0.02598578,-0.9189205,-0.3620123,0.08628109,0.7792628,1.507911,0.185951,0.3526539,1.132404,0.2278238,85.54478,11.85465,64.93461,True
