loc,t,aDotUA,bDotUA,gDotUA,aUA,bUA,gUA,xUA,yUA,zUA,qE,qDotE,emgA,emgB,aDotSH,bDotSH,gDotSH,aSH,bSH,gSH,xSH,ySH,zSH,aDotUB,bDotUB,gDotUB,aUB,bUB,gUB,xUB,yUB,zUB,xHand,yHand,zHand,aHand,bHand,gHand,enable
3,0,-0.001476011,0.02116031,-0.01618633,-1.499906,-1.971653,2.964191,0.7317603,1.244787,-0.01794019,-1.113659,0.9032073,0,60,-0.01629677,0.02508488,0.02558936,-0.9881718,-1.597748,-0.1826476,0.7719536,1.417562,-0.01115379,-0.004748903,0.004487034,-0.008718416,-0.9022784,-0.1073647,0.0274034,0.8368469,1.50888,0.1967532,0.4667947,1.009185,0.1173651,58.93958,109.3575,178.4081,True
3,0.01111111,0.0006289305,0.02648648,-0.0172872,-1.499629,-1.971978,2.964196,0.7317133,1.244804,-0.01795623,-1.103575,0.9078731,0,60,-0.02258566,0.0336264,0.03416897,-0.9876754,-1.596894,-0.182716,0.7717788,1.417473,-0.01112098,-0.007957205,0.003445791,-0.008698316,-0.9023045,-0.1073109,0.02765853,0.8367115,1.508808,0.196805,0.4676653,1.006437,0.1174675,58.31183,109.8174,178.7004,True
3,0.02222222,0.0006289305,0.02648648,-0.0172872,-1.499629,-1.971978,2.964196,0.7317133,1.244804,-0.01795623,-1.093541,0.9025942,0,60,-0.02258566,0.0336264,0.03416897,-0.9876754,-1.596894,-0.182716,0.7717788,1.417473,-0.01112098,-0.007957205,0.003445791,-0.008698316,-0.9023045,-0.1073109,0.02765853,0.8367115,1.508808,0.196805,0.4685935,1.003767,0.1177136,57.72292,110.1448,178.7852,True
3,0.03333334,-0.0003633741,-0.0001461595,-0.01508722,-1.499494,-1.971219,2.964172,0.7316997,1.244778,-0.01800764,-1.083633,0.891864,0,60,-0.02165052,0.03792404,0.01073392,-0.9882208,-1.595773,-0.1829064,0.7718008,1.417392,-0.01100695,-0.0119078,0.02024316,0.01076563,-0.9014395,-0.1061651,0.02725799,0.8364964,1.50885,0.1969101,0.4695109,1.001165,0.1179626,57.16471,110.3658,178.7352,True
3,0.04444445,-0.002561366,-0.01615204,-0.02461541,-1.499038,-1.970414,2.964203,0.7316942,1.244799,-0.01803556,-1.073656,0.8979175,0,60,-0.02927084,0.03480589,-0.01159324,-0.9890687,-1.595608,-0.182439,0.7717314,1.41736,-0.01095328,-0.006446481,0.02754127,0.01934012,-0.9009149,-0.1054979,0.02672322,0.836369,1.508871,0.1969735,0.4703645,0.9986112,0.1180823,56.62877,110.4908,178.6371,True
3,0.05555556,-0.01018425,-0.03752076,-0.0447281,-1.498055,-1.9691,2.964458,0.7317362,1.244869,-0.01806685,-1.063844,0.8824384,0,60,-0.02620364,0.02096377,-0.02016097,-0.9895289,-1.595815,-0.1821309,0.7715616,1.417323,-0.01097244,-0.001049172,0.0316985,0.02359731,-0.9006896,-0.1050453,0.02626063,0.8363845,1.508991,0.197011,0.4711218,0.996085,0.1179822,56.10439,110.6011,178.5965,True
3,0.06666667,-0.01788051,-0.05038001,-0.07019042,-1.496624,-1.967864,2.964798,0.7317348,1.244925,-0.01816985,-1.053912,0.8944604,0,60,-0.01667042,-0.001473744,-0.0106744,-0.9892312,-1.596691,-0.1818087,0.771452,1.417348,-0.01092821,0.003097115,0.02107988,0.01914149,-0.9006172,-0.105189,0.02617568,0.8363116,1.509007,0.1969961,0.4717885,0.9935659,0.1175723,55.58966,110.6701,178.5978,True
3,0.07777778,-0.0190644,-0.0578635,-0.08294426,-1.495437,-1.966841,2.964986,0.7316892,1.245007,-0.01824889,-1.044179,0.8759832,0,60,-0.008093614,-0.0228685,0.01480366,-0.9879502,-1.597603,-0.1814856,0.7717071,1.417495,-0.01086071,0.006172478,0.01155693,0.0136396,-0.9007487,-0.1052746,0.02611442,0.8363307,1.509008,0.1970942,0.4723864,0.9910457,0.1168025,55.05986,110.7115,178.6659,True
3,0.08888889,-0.01815298,-0.06002558,-0.0978623,-1.494066,-1.965896,2.96512,0.7315922,1.245063,-0.01829058,-1.034421,0.8788761,0,60,-0.00268025,-0.03038364,0.03393515,-0.9868812,-1.597941,-0.1814212,0.7715914,1.417512,-0.01080781,0.004903676,-0.004275472,0.00383518,-0.901064,-0.1060423,0.02657568,0.8362856,1.509049,0.1970615,0.4729386,0.9885196,0.1156429,54.51842,110.758,178.8159,True
3,0.1,-0.004196156,-0.05890787,-0.08735666,-1.493603,-1.965197,2.964645,0.7314727,1.245091,-0.01833323,-1.024411,0.9017316,0,60,-0.001532573,-0.02401037,0.04139587,-0.9861819,-1.59785,-0.1814984,0.7715189,1.417534,-0.01077494,0.0069597,-0.01060492,-0.0005421748,-0.9012712,-0.1061689,0.02635491,0.8363189,1.508868,0.1970754,0.4731253,0.9866084,0.1145728,54.34445,110.2414,178.339,True
3,0.1111111,0.01100755,-0.05028573,-0.05770444,-1.493994,-1.964995,2.964066,0.731308,1.24515,-0.01831368,-1.014393,0.9018365,0,60,-0.00258394,-0.01547506,0.03822049,-0.9859629,-1.597619,-0.1813717,0.7711294,1.417422,-0.01077747,0.01018707,-0.01067214,0.002621207,-0.9011413,-0.1063552,0.02625371,0.8362582,1.508894,0.1970505,0.4732633,0.9861292,0.113694,54.69973,108.9477,176.9791,True
3,0.1222222,0.02939241,-0.0384645,-0.0291587,-1.494604,-1.965076,2.963125,0.7311263,1.245174,-0.01822951,-1.003964,0.9392403,0,60,0.009072291,-0.01125308,0.0253674,-0.9861025,-1.597643,-0.18185,0.7710357,1.417424,-0.01078883,0.009246892,-0.004381036,0.01017938,-0.9007418,-0.1061029,0.02591735,0.8361807,1.508816,0.1973656,0.4734062,0.9859013,0.1131606,54.97668,108.3509,176.2589,True
3,0.1333333,0.0434497,-0.02133514,-0.005909915,-1.495106,-1.96547,2.962302,0.7309718,1.245172,-0.01806828,-0.9935279,0.9377935,0,60,0.02279529,-0.01023223,0.005043582,-0.9865771,-1.59799,-0.1823996,0.7708006,1.41739,-0.01076356,0.00937338,0.004027863,0.01775622,-0.9003109,-0.1057937,0.02569151,0.8360965,1.508897,0.1974772,0.4735664,0.9857312,0.1129071,55.21385,108.1335,175.9579,True
3,0.1444445,0.06269173,3.378327E-05,0.004493639,-1.49535,-1.966201,2.961057,0.7307439,1.245204,-0.01790443,-0.9829685,0.9496385,0,60,0.02914064,-0.007053243,-0.004580469,-0.9869441,-1.598049,-0.1828878,0.7706864,1.417406,-0.01076508,0.01045639,0.005070612,0.01882595,-0.9000525,-0.1057079,0.02548192,0.8360577,1.508921,0.1974994,0.4737399,0.9855757,0.1128524,55.42403,108.1688,175.982,True
3,0.1555556,0.07438559,0.02243261,0.006450983,-1.495258,-1.967111,2.959983,0.7305522,1.245181,-0.01776716,-0.9727707,0.9160317,0,60,0.03240133,-0.008152405,0.006049231,-0.9864525,-1.598068,-0.1833107,0.7707238,1.417497,-0.0107078,0.004015521,0.003037587,0.0145958,-0.9001026,-0.1059057,0.02567128,0.836107,1.508768,0.197456,0.4739891,0.9854224,0.1128794,55.55709,108.4446,176.2696,True
3,0.1666667,0.0807189,0.0565373,0.007371183,-1.495082,-1.96885,2.959007,0.7303057,1.245195,-0.01757872,-0.9624696,0.9263806,0,60,0.0324824,-0.00604024,0.01670555,-0.9858958,-1.597928,-0.1837682,0.7706223,1.417507,-0.01067662,0.00381984,-0.008510563,0.002711463,-0.9004957,-0.106538,0.02602468,0.8360742,1.508734,0.1974277,0.4742133,0.9852601,0.1129636,55.74375,108.5756,176.4435,True
3,0.1777778,0.0786045,0.07571976,0.01267843,-1.49518,-1.970278,2.958395,0.730099,1.245198,-0.01753733,-0.9524407,0.9001746,0,60,0.02823167,-0.006021232,0.01779983,-0.9856306,-1.597966,-0.1839645,0.7706051,1.417555,-0.01068065,0.01112225,-0.01799811,-0.007092638,-0.9010007,-0.1069965,0.02582654,0.8361102,1.508769,0.1973175,0.4743646,0.985102,0.1130186,55.91766,108.7967,176.6676,True
3,0.1888889,0.07329776,0.1044892,0.02012424,-1.495271,-1.97252,2.957939,0.7298448,1.245166,-0.01739481,-0.9425305,0.8907227,0,60,0.02926906,-0.01135319,0.01778382,-0.9853808,-1.598284,-0.1841602,0.7704873,1.417528,-0.01066935,0.01001756,-0.02223636,-0.008208146,-0.9011391,-0.1074731,0.02604412,0.8360558,1.508763,0.1972846,0.4745164,0.9849316,0.1130087,56.06657,108.8878,176.7491,True
3,0.2,0.06589071,0.1353904,0.03077978,-1.495453,-1.975061,2.957644,0.7296991,1.245132,-0.01728976,-0.9330193,0.8546786,0,60,0.02806023,-0.02838138,0.008174102,-0.9854479,-1.599544,-0.1838838,0.7704306,1.417482,-0.01065335,0.007959289,-0.02341385,0.0003205846,-0.9008244,-0.1078683,0.0263605,0.8360852,1.508831,0.1973011,0.4747143,0.9847589,0.1129659,56.20428,108.9431,176.7935,True
3,0.2111111,0.0628283,0.1577949,0.04780405,-1.496038,-1.977677,2.957217,0.7295403,1.245052,-0.01718199,-0.9235272,0.8539811,0,60,0.02891035,-0.03686528,-0.01847788,-0.9864024,-1.600629,-0.1837083,0.7705142,1.41747,-0.01066008,0.007009457,-0.01604267,0.006826443,-0.9005724,-0.1078084,0.02623427,0.8359848,1.508844,0.1973099,0.474941,0.9845851,0.1129144,56.40965,108.9934,176.8476,True
3,0.2222222,0.06394346,0.1599379,0.0531099,-1.496388,-1.979556,2.956621,0.729358,1.244972,-0.01712736,-0.9139745,0.8592997,0,60,0.03084672,-0.0368218,-0.04831588,-0.9877936,-1.601363,-0.1837307,0.770417,1.417336,-0.01063544,0.002837442,-0.01289644,0.0132984,-0.9003119,-0.107582,0.02614798,0.835989,1.508774,0.1972212,0.4752195,0.9844032,0.1129199,56.65556,109.0602,176.9589,True
3,0.2333333,0.05862564,0.154599,0.05317651,-1.496635,-1.981116,2.956259,0.7291999,1.244943,-0.01695162,-0.9041277,0.8862962,0,60,0.03397297,-0.03255921,-0.06324017,-0.9887635,-1.601975,-0.1839773,0.770294,1.417252,-0.0105511,-0.001345182,-0.003292417,0.0145405,-0.9001687,-0.1071612,0.02600097,0.8359698,1.508857,0.1974648,0.4755452,0.984215,0.1130039,56.97334,109.2167,177.195,True
3,0.2444444,0.04461949,0.1396149,0.03524601,-1.49628,-1.982173,2.956285,0.7291071,1.244942,-0.01688686,-0.8941739,0.8954083,0,60,0.02863123,-0.03146059,-0.06639919,-0.9895337,-1.602531,-0.1838183,0.7702498,1.417204,-0.01052493,-0.002369765,0.007412286,0.01150835,-0.9001111,-0.1065828,0.02571415,0.8359244,1.508852,0.1974964,0.4757574,0.9840236,0.1131536,57.40022,109.3601,177.4794,True
3,0.2555556,0.04027101,0.1236002,0.02360449,-1.495946,-1.983031,2.955984,0.7290268,1.244924,-0.01689175,-0.8843452,0.8834773,0,60,0.02444018,-0.02826152,-0.0589085,-0.9898453,-1.60299,-0.183764,0.7702572,1.417192,-0.01045263,-0.0003068261,0.008571234,0.004049439,-0.9002821,-0.1064388,0.02554824,0.8359914,1.508864,0.1975671,0.4759904,0.9838207,0.1132187,57.67186,109.7359,177.8837,True
3,0.2666667,0.04015434,0.09906129,0.007682468,-1.495452,-1.983226,2.955553,0.7289896,1.244971,-0.01686382,-0.8746876,0.8687539,0,0,0.01607459,-0.0197243,-0.04179365,-0.9897489,-1.602915,-0.1837126,0.7702789,1.417206,-0.01040941,-0.002449478,0.00860689,0.002998779,-0.9003658,-0.1062175,0.025524,0.8360513,1.508822,0.1976396,0.4762862,0.9836054,0.1132192,57.88013,109.7442,177.8992,True
3,0.2777778,0.04116344,0.0734697,-0.002926422,-1.495055,-1.983119,2.95497,0.7289636,1.244986,-0.01678857,-0.8647518,0.8955235,0,0,0.009929948,-0.005890001,-0.0151019,-0.9892083,-1.602371,-0.1839336,0.77004,1.417024,-0.01038203,-0.000316089,0.008588185,0.002982394,-0.9002603,-0.1062027,0.02540789,0.8360252,1.508827,0.1976922,0.4766349,0.983389,0.1130612,58.09823,109.7711,177.8443,True
3,0.2888889,0.04425246,0.02762388,-0.02202837,-1.494375,-1.981626,2.95424,0.7289689,1.245044,-0.01681143,-0.8546686,0.9068326,0,0,0.004768446,0.006895338,-0.0001313604,-0.9887965,-1.601648,-0.1842037,0.7700841,1.417021,-0.01032132,-0.00464652,0.009792197,-0.004416103,-0.900557,-0.1059741,0.02547101,0.8360206,1.508785,0.197791,0.4769231,0.9831777,0.112773,58.36013,109.7842,177.7556,True
3,0.3,0.04947334,-0.0299443,-0.0432605,-1.493609,-1.979252,2.953339,0.7290246,1.245058,-0.01687333,-0.8446007,0.9056636,0,0,-0.005640745,0.02821981,0.01914987,-0.9881766,-1.600346,-0.1846183,0.7702963,1.417109,-0.0102593,-0.007762555,0.02261377,-0.005264387,-0.9006209,-0.1050339,0.02503132,0.8360779,1.508828,0.1977659,0.4770505,0.9829593,0.1124743,58.69076,109.3688,177.3124,True
3,0.3111111,0.05262534,-0.06192277,-0.05387375,-1.493023,-1.977536,2.952495,0.7290471,1.245073,-0.01688331,-0.8347055,0.889798,0,0,-0.005552514,0.03993185,0.02343144,-0.9879646,-1.599372,-0.1851118,0.7702301,1.417067,-0.01017612,-0.011997,0.02798334,-0.006210221,-0.9006923,-0.1044143,0.02488671,0.8360354,1.508982,0.1979468,0.477095,0.9827161,0.1121913,58.98323,108.704,176.6064,True
3,0.3222222,0.0579514,-0.1056089,-0.06235038,-1.492556,-1.974775,2.951471,0.7290659,1.245124,-0.01688847,-0.8249919,0.8733718,0,0,-0.005514896,0.04845594,0.02238065,-0.9879023,-1.598418,-0.1855896,0.7702944,1.417055,-0.01006967,-0.01511169,0.02896241,0.001292893,-0.9004291,-0.1039574,0.02488458,0.8360051,1.509011,0.1980385,0.4770932,0.9824625,0.1118267,59.20668,107.9509,175.724,True
3,0.3333333,0.06330105,-0.138632,-0.06659085,-1.492206,-1.972178,2.950414,0.7290287,1.245171,-0.01681966,-0.8157049,0.8347284,0,0,-0.002373604,0.04739581,0.01490399,-0.9880466,-1.597744,-0.1860362,0.7705572,1.417139,-0.01006651,-0.009810779,0.02680188,0.0001381491,-0.9005538,-0.1038701,0.02475648,0.8360442,1.508996,0.1980397,0.477093,0.9822004,0.111361,59.35582,106.8892,174.5031,True
3,0.3444445,0.06862164,-0.1578065,-0.070863,-1.491761,-1.969654,2.949288,0.7289939,1.245203,-0.01677594,-0.8068393,0.796869,0,0,0.003957866,0.04524479,0.007401479,-0.9882698,-1.597269,-0.1865438,0.7705998,1.417117,-0.009993553,-0.00351544,0.02044515,-0.005342892,-0.900795,-0.1038506,0.02457352,0.8360507,1.508997,0.1980684,0.4768194,0.9819492,0.1111128,59.72086,105.3157,172.798,True
3,0.3555556,0.08360477,-0.1694866,-0.06672971,-1.491613,-1.967394,2.947657,0.7289431,1.245197,-0.01675242,-0.7984492,0.7535927,0,0,0.01345111,0.0452201,-0.007575002,-0.9889084,-1.596807,-0.1873129,0.7707691,1.417172,-0.009925365,0.001693756,0.00768347,-0.008790039,-0.9012435,-0.1040974,0.02453091,0.8362211,1.508953,0.1980525,0.4768475,0.9817123,0.1106045,59.68036,105.1175,172.298,True
3,0.3666667,0.09861328,-0.1726328,-0.05835576,-1.491647,-1.965329,2.945893,0.7288244,1.245233,-0.0166578,-0.7906414,0.7013214,0,0,0.03459143,0.03768509,-0.02690256,-0.9898778,-1.596849,-0.1883939,0.7708001,1.41714,-0.009888768,0.009007738,-0.003990804,-0.01542311,-0.9016478,-0.1046636,0.02453171,0.836297,1.508944,0.1980327,0.4766593,0.981515,0.1102492,59.7926,104.0732,171.2027,True
3,0.3777778,0.1082715,-0.1736646,-0.05206233,-1.491656,-1.963354,2.944205,0.7287583,1.245293,-0.01654068,-0.7831462,0.673336,0,0,0.05148681,0.03124329,-0.0451372,-0.9909739,-1.596789,-0.1895944,0.770889,1.417098,-0.009886861,0.01206439,-0.01025396,-0.02620502,-0.9024052,-0.1051006,0.02445261,0.8364027,1.508908,0.1980395,0.4766327,0.9813324,0.1097822,59.71442,103.779,170.6963,True
3,0.3888889,0.1359952,-0.1544191,-0.04600357,-1.491578,-1.96229,2.941642,0.7285447,1.245327,-0.01639748,-0.7764238,0.602063,0,0,0.07481227,0.02474868,-0.05702211,-0.9919849,-1.596951,-0.1910608,0.7714088,1.417148,-0.009943724,0.01190204,-0.01539294,-0.0390679,-0.9033448,-0.1054026,0.02452212,0.8365138,1.508898,0.198023,0.4764384,0.9811758,0.1094904,59.70394,102.9078,169.7748,True
3,0.4,0.1668424,-0.1319827,-0.04637552,-1.491193,-1.961541,2.9387,0.7283218,1.245361,-0.01627961,-0.7706783,0.5141388,0,0,0.08649874,0.02256743,-0.0603001,-0.9928014,-1.59682,-0.1924576,0.7715549,1.417161,-0.009983271,0.007608045,-0.01746971,-0.041182,-0.9038204,-0.1057938,0.02479083,0.8365598,1.508858,0.1980356,0.4763561,0.9810898,0.1090666,59.53035,103.3256,169.9747,True
3,0.4111111,0.2157661,-0.1041936,-0.04908187,-1.490622,-1.961084,2.934716,0.7279408,1.245398,-0.01605964,-0.7654346,0.470445,0,0,0.1024885,0.02675033,-0.06252675,-0.993569,-1.596412,-0.1943274,0.7722898,1.417264,-0.01004881,-0.002984624,-0.004583599,-0.04302554,-0.9043642,-0.1052336,0.02490056,0.8366911,1.508882,0.198103,0.4761576,0.981034,0.1089132,59.3804,102.7521,169.4139,True
3,0.4222222,0.2647889,-0.06572285,-0.04009347,-1.49036,-1.961589,2.93021,0.727463,1.245464,-0.01586103,-0.7612513,0.371521,0,0,0.1142412,0.04268122,-0.07003351,-0.9947647,-1.595477,-0.1964981,0.7724934,1.417202,-0.0100899,-0.005053438,0.006097488,-0.04391685,-0.9048718,-0.1046851,0.02468963,0.836774,1.508874,0.1981219,0.475534,0.9810852,0.1087667,59.42293,103.535,170.0957,True
3,0.4333333,0.3192215,-0.01869674,-0.02159646,-1.490417,-1.962838,2.925142,0.7269654,1.245583,-0.01559415,-0.7577679,0.3091743,0,0,0.1197521,0.08740656,-0.07638405,-0.9962704,-1.592909,-0.1992588,0.7729771,1.417271,-0.01013362,-0.02201257,0.01469719,-0.04149468,-0.9052484,-0.1042067,0.02511308,0.8368894,1.508861,0.1981631,0.4749474,0.9810694,0.1089877,59.11032,102.5851,169.2545,True
3,0.4444444,0.3469436,0.01227265,-0.01343413,-1.490284,-1.964004,2.920462,0.7264569,1.245699,-0.01537654,-0.755313,0.2140103,0,0,0.1135853,0.1289841,-0.07520625,-0.9975914,-1.589878,-0.2019747,0.7732291,1.417277,-0.01019844,-0.02846312,0.01697721,-0.04885635,-0.9059967,-0.1038204,0.0254204,0.8370264,1.508848,0.1981409,0.4746738,0.9811054,0.1090658,58.33855,102.8585,169.293,True
3,0.4555556,0.3661803,0.05282396,0.0001157969,-1.490217,-1.9659,2.916031,0.7259908,1.245909,-0.01506719,-0.7537981,0.1293968,0,0,0.1051029,0.150355,-0.08576727,-0.9993246,-1.5875,-0.20409,0.7739706,1.417615,-0.01022074,-0.02753767,0.01609913,-0.06272996,-0.9071872,-0.1037233,0.02554531,0.8372123,1.508806,0.198107,0.4740592,0.9812929,0.1093342,57.75764,103.0034,169.4744,True
3,0.4666667,0.3682766,0.08053128,0.002160393,-1.48992,-1.967733,2.911988,0.7254436,1.246154,-0.01480836,-0.7537177,-0.0009539695,0,0,0.1072276,0.1652799,-0.09853929,-1.001342,-1.585117,-0.2066456,0.7741826,1.417739,-0.01028895,-0.01700781,0.0183581,-0.07665244,-0.9085411,-0.103341,0.02511174,0.8373302,1.508798,0.1981024,0.4734323,0.981532,0.1097376,57.10358,103.6222,170.1257,True
3,0.4777778,0.3660566,0.09863269,-0.003187291,-1.489262,-1.969325,2.908136,0.7250686,1.246329,-0.01445779,-0.7545662,-0.08209266,60,0,0.1094207,0.1599159,-0.08364511,-1.001975,-1.5835,-0.2087258,0.7744946,1.417898,-0.01027858,-0.02228335,0.03015625,-0.07961945,-0.9093704,-0.1023549,0.02486487,0.8374168,1.508776,0.1981523,0.472766,0.9817989,0.1102742,56.49694,104.1969,170.8034,True
3,0.4888889,0.3659158,0.1241798,-0.01176809,-1.488308,-1.971481,2.904249,0.7245612,1.24653,-0.01420987,-0.7560847,-0.1420017,60,0,0.1094433,0.1268405,-0.05387351,-1.001541,-1.583141,-0.2101455,0.7746625,1.418038,-0.01034218,-0.02856303,0.04295219,-0.07830773,-0.9101438,-0.1014205,0.02464329,0.837561,1.508707,0.1982253,0.4719256,0.9820887,0.1109669,56.08419,105.017,171.7122,True
3,0.5,0.3701499,0.1380409,-0.01183733,-1.487805,-1.973423,2.900143,0.7241163,1.246488,-0.01412058,-0.7578312,-0.1612474,60,0,0.1063626,0.09909423,-0.01341461,-1.000243,-1.582626,-0.2113855,0.7745876,1.418073,-0.01029551,-0.02531751,0.04716101,-0.07614826,-0.9108964,-0.1005502,0.02427951,0.8376627,1.508693,0.1982058,0.4713208,0.9823443,0.1116168,55.49523,105.7488,172.5133,True
3,0.5111111,0.3819585,0.1380903,-0.0023745,-1.487708,-1.974967,2.895774,0.7235811,1.246554,-0.01390377,-0.7593822,-0.1430105,60,0,0.1021165,0.08417559,0.000428509,-1.000084,-1.58199,-0.212744,0.774802,1.418036,-0.01032451,-0.02007307,0.03650263,-0.07847442,-0.911697,-0.1005231,0.02414369,0.8378024,1.508611,0.1982707,0.4707568,0.9825857,0.1121934,54.97615,106.2257,173.0861,True
3,0.5222223,0.3905845,0.1359992,0.007128835,-1.487743,-1.976446,2.891277,0.7230794,1.246624,-0.0136959,-0.76057,-0.1105711,60,0,0.09357765,0.08102433,0.000479117,-1.000237,-1.58106,-0.2139924,0.7749572,1.418013,-0.01032293,-0.01913637,0.02377491,-0.08292867,-0.9127601,-0.1007086,0.02443717,0.8379091,1.508581,0.1982804,0.4702471,0.9828034,0.1126456,54.42593,106.7842,173.6543,True
3,0.5333334,0.3959295,0.130767,0.013547,-1.488573,-1.978979,2.887774,0.722255,1.246741,-0.01357719,-0.7613855,-0.07736541,60,0,0.08914116,0.0821621,-0.02718591,-1.001608,-1.580196,-0.2152977,0.7747548,1.417769,-0.01027051,-0.01808517,0.02699699,-0.08608504,-0.9137364,-0.1003787,0.02446966,0.8380779,1.508469,0.198294,0.4694471,0.9830251,0.1131568,54.11995,107.5015,174.3289,True
3,0.5444446,0.3830798,0.1253975,0.006235741,-1.488088,-1.980113,2.884073,0.7217224,1.246785,-0.01337478,-0.7619475,-0.05493781,60,0,0.09006657,0.08752729,-0.05275042,-1.003273,-1.579241,-0.2168364,0.7749,1.4177,-0.01029527,-0.02443466,0.04418922,-0.09323327,-0.9149625,-0.09901579,0.02409841,0.8381871,1.508422,0.1982937,0.4688685,0.9832055,0.1136303,53.47036,107.9833,174.8215,True
3,0.5555557,0.3744399,0.114724,-0.006421521,-1.487469,-1.98127,2.880413,0.7213194,1.246787,-0.01317835,-0.7629722,-0.09758102,60,0,0.1057995,0.08644076,-0.08908065,-1.00566,-1.578745,-0.2187989,0.7750928,1.417631,-0.0103955,-0.0244201,0.04741891,-0.09531507,-0.9160257,-0.09809341,0.02362117,0.8383493,1.508367,0.198351,0.4682203,0.98341,0.1141408,52.87381,108.2578,175.2007,True
3,0.5666668,0.3711127,0.09230666,-0.0233805,-1.486596,-1.98134,2.876438,0.7208583,1.246862,-0.01301843,-0.7639496,-0.08952503,60,0,0.1077022,0.07368875,-0.1136176,-1.007777,-1.578826,-0.2200317,0.7752481,1.417511,-0.01047447,-0.02129453,0.02921333,-0.09028055,-0.9168571,-0.09844894,0.02395646,0.838472,1.508352,0.198291,0.4676082,0.9836063,0.1146923,52.2796,108.6526,175.6756,True
3,0.577778,0.3774044,0.07208568,-0.03509499,-1.486049,-1.981829,2.872311,0.7203939,1.247165,-0.0129115,-0.7650889,-0.1059501,60,0,0.1117733,0.06731192,-0.1370916,-1.01,-1.578818,-0.2213249,0.77548,1.417466,-0.01057905,-0.02666108,0.01854366,-0.08718469,-0.9176987,-0.09884096,0.02466114,0.8386091,1.50827,0.1982558,0.4670113,0.9837933,0.1151912,51.76028,109.0256,176.0875,True
3,0.5888891,0.396487,0.03586793,-0.0511895,-1.485185,-1.980674,2.86715,0.7199581,1.24728,-0.01275897,-0.7665387,-0.1338841,60,0,0.1095856,0.06307119,-0.1424112,-1.011857,-1.578645,-0.2225577,0.7756937,1.4174,-0.01066333,-0.02767061,0.01739359,-0.08079855,-0.9183597,-0.09862484,0.024871,0.8387396,1.508232,0.1982122,0.4663529,0.9840131,0.115483,51.64189,109.2676,176.3813,True
3,0.6000003,0.4220141,-0.002445867,-0.06308672,-1.484422,-1.979303,2.861414,0.7197824,1.247457,-0.01255655,-0.7685238,-0.1831362,60,0,0.1117857,0.0598382,-0.1275122,-1.012722,-1.578225,-0.2239199,0.7758536,1.417314,-0.01073575,-0.03305116,0.02182119,-0.09028562,-0.9198505,-0.09809594,0.02494476,0.8391641,1.508184,0.1980572,0.4659026,0.9841506,0.1156089,50.91905,109.2427,176.2839,True
3,0.6111114,0.4465245,-0.02902681,-0.06752922,-1.484039,-1.978192,2.855581,0.7194059,1.2476,-0.01234975,-0.7708429,-0.2129575,60,0,0.1174214,0.07892704,-0.09448602,-1.012882,-1.576436,-0.2262478,0.7761166,1.417278,-0.01077387,-0.03848929,0.01879035,-0.09986676,-0.9213094,-0.09806305,0.02548406,0.8393508,1.508142,0.1980526,0.4651815,0.9843524,0.1158197,50.23329,108.9956,176.0088,True
3,0.6222225,0.4636766,-0.04921732,-0.06126855,-1.483881,-1.976904,2.84973,0.7189188,1.247703,-0.01215857,-0.7739535,-0.2869325,60,0,0.1190316,0.116114,-0.0411661,-1.012213,-1.573297,-0.2293141,0.7765238,1.417204,-0.01079032,-0.0439112,0.02220102,-0.1125569,-0.923057,-0.09763788,0.02579538,0.8397286,1.508056,0.1980829,0.4643284,0.9845756,0.1159986,49.38112,108.9723,175.9102,True
3,0.6333337,0.4668537,-0.06412242,-0.06551635,-1.483506,-1.975752,2.844457,0.7184916,1.247838,-0.01198167,-0.7784058,-0.4085194,60,0,0.1191469,0.124614,-0.03050786,-1.012815,-1.57157,-0.2315531,0.7769365,1.417203,-0.01086187,-0.04817647,0.02329859,-0.1135652,-0.9243145,-0.09742522,0.02635304,0.8399613,1.507939,0.1979956,0.4633667,0.984831,0.1162484,48.46501,108.8516,175.757,True
3,0.6444448,0.485983,-0.1120549,-0.07945356,-1.483063,-1.972591,2.838135,0.7179103,1.24793,-0.01181173,-0.7840911,-0.5192022,60,0,0.1034461,0.147026,-0.005863573,-1.012586,-1.568504,-0.2337994,0.7773364,1.417053,-0.01089323,-0.05342741,0.03290494,-0.11231,-0.9255209,-0.0965529,0.02657728,0.8401209,1.507859,0.1979925,0.4620617,0.9851106,0.1167243,47.57661,108.9805,175.8145,True
3,0.655556,0.5081539,-0.1291105,-0.1020231,-1.481811,-1.970179,2.831662,0.7173822,1.248044,-0.0117946,-0.791263,-0.6530434,60,0,0.09386379,0.1566744,-0.01324067,-1.013443,-1.56645,-0.2356562,0.7779167,1.41701,-0.0110091,-0.05864239,0.03923684,-0.1047201,-0.9265494,-0.09551507,0.02680658,0.8403783,1.50774,0.1978568,0.4609619,0.985395,0.1171376,46.41487,109.2552,176.0518,True
3,0.6666671,0.5282738,-0.1354906,-0.1150018,-1.480747,-1.968045,2.824991,0.7167935,1.248184,-0.01165658,-0.7986751,-0.6715039,60,0,0.1002287,0.1609149,-0.02073226,-1.014348,-1.564386,-0.2380469,0.7782362,1.416873,-0.01107523,-0.05423762,0.04330076,-0.09298484,-0.9271742,-0.09472264,0.02678607,0.8405577,1.507656,0.1978106,0.4595527,0.9857496,0.1176856,45.7066,109.2232,176.0657,True
3,0.6777782,0.5473793,-0.1333345,-0.1216022,-1.479689,-1.966304,2.818193,0.7161939,1.248307,-0.0114463,-0.8068355,-0.7424187,60,0,0.1246195,0.1768194,-0.05069136,-1.016428,-1.561988,-0.241562,0.7785773,1.416608,-0.01113731,-0.04243109,0.03341535,-0.07833236,-0.9276493,-0.09482118,0.02680578,0.8408902,1.507499,0.1978903,0.4578383,0.9859934,0.1181658,44.87515,109.1128,175.907,True
3,0.6888894,0.5559078,-0.1311845,-0.1206306,-1.478896,-1.964576,2.811621,0.715538,1.248524,-0.01130763,-0.815616,-0.7978498,60,0,0.163835,0.1947986,-0.09565378,-1.01938,-1.559572,-0.2458843,0.778861,1.41661,-0.0110662,-0.03497193,0.02905945,-0.07527189,-0.9283689,-0.09459974,0.02679779,0.841125,1.507373,0.1979148,0.4558739,0.9862231,0.118604,44.04041,109.114,175.7135,True
3,0.7000005,0.5516724,-0.1183981,-0.1163571,-1.478142,-1.963398,2.805507,0.7149153,1.248841,-0.01116049,-0.8250047,-0.8524072,60,0,0.1849206,0.1872838,-0.1235018,-1.022028,-1.558068,-0.2494229,0.7791235,1.416538,-0.01111886,-0.0328598,0.0451955,-0.08783453,-0.9296318,-0.09342289,0.026389,0.8412133,1.50739,0.1980433,0.4537463,0.9864603,0.1191426,43.19814,109.1559,175.5891,True
3,0.7111117,0.5430934,-0.0928486,-0.1173903,-1.476978,-1.962808,2.799639,0.7143559,1.249125,-0.01110384,-0.8351561,-0.921352,60,0,0.2157094,0.1604881,-0.1184273,-1.02333,-1.557345,-0.253163,0.779196,1.416466,-0.01120993,-0.05115884,0.08541457,-0.1339649,-0.9327194,-0.0902468,0.02560976,0.8416293,1.507269,0.1980038,0.451576,0.9866977,0.1198169,42.33348,109.1074,175.4972,True
3,0.7222228,0.5408185,-0.06517349,-0.1259487,-1.475403,-1.962429,2.793639,0.71367,1.249502,-0.01095489,-0.8458546,-0.9698195,60,0,0.2221112,0.120982,-0.08551301,-1.023245,-1.557307,-0.2559082,0.7794447,1.416557,-0.01127094,-0.06396894,0.1049018,-0.1495406,-0.9348446,-0.08794557,0.02537566,0.8418276,1.50721,0.1980446,0.4474443,0.9871263,0.1213308,43.79805,108.6137,175.3878,True
3,0.7333339,0.5428753,-0.04813024,-0.1302652,-1.473981,-1.961915,2.787389,0.713141,1.249773,-0.01083657,-0.8567815,-0.9889198,60,0,0.205294,0.09007058,-0.02474091,-1.021718,-1.556808,-0.2576475,0.7796488,1.416665,-0.0112668,-0.07544018,0.1207736,-0.1364105,-0.9357192,-0.08568441,0.02503904,0.84196,1.507266,0.1980707,0.4384336,0.9875792,0.1248756,49.43824,108.9052,176.9559,True
3,0.7444451,0.5575562,-0.005520189,-0.1443665,-1.471565,-1.962472,2.780702,0.7124624,1.250225,-0.01072156,-0.8675801,-0.976942,60,0,0.1705839,0.09333751,0.04047713,-1.019552,-1.554766,-0.259549,0.7800229,1.416754,-0.01123792,-0.07631655,0.1065198,-0.1078396,-0.9359882,-0.08474285,0.0253746,0.8420295,1.507281,0.1980647,0.4305997,0.9911744,0.1265294,51.13404,111.4085,179.9994,True
3,0.7555562,0.5606583,0.009382544,-0.1508226,-1.469678,-1.962237,2.774254,0.711899,1.250595,-0.01057759,-0.8781853,-0.9601533,60,0,0.1389113,0.1179663,0.06522992,-1.018814,-1.551782,-0.2616044,0.7804995,1.416845,-0.0112412,-0.07419139,0.08284044,-0.09222503,-0.9365965,-0.08464351,0.02609871,0.8421881,1.507362,0.1981118,0.4247246,0.9970434,0.1274763,52.86845,111.6099,180.5341,True
3,0.7666674,0.5541205,0.01573234,-0.1635535,-1.467441,-1.961801,2.768223,0.7112157,1.250913,-0.01048985,-0.8882952,-0.9158234,60,0,0.09897904,0.1639036,0.1124459,-1.016902,-1.547046,-0.2638239,0.7808778,1.416874,-0.01122433,-0.05427379,0.0444527,-0.09936554,-0.9379259,-0.08563328,0.02662469,0.8423483,1.507258,0.1980216,0.4207677,1.004546,0.1279072,54.64142,111.7002,180.9177,True
3,0.7777785,0.5380924,0.02314469,-0.1676629,-1.465473,-1.961414,2.76257,0.7106709,1.251108,-0.01046455,-0.8986475,-0.9392825,60,0,0.07694197,0.1873936,0.1435236,-1.015233,-1.543266,-0.2661499,0.7809997,1.416698,-0.01122898,-0.0399503,0.01080018,-0.1362235,-0.9409092,-0.08650254,0.02716531,0.8426688,1.50715,0.198033,0.4178476,1.012839,0.1281827,56.52653,112.1035,181.5668,True
3,0.7888896,0.5199858,0.02737101,-0.1664193,-1.463627,-1.961143,2.757338,0.7100029,1.251323,-0.01041359,-0.9093172,-0.9663779,60,0,0.08230144,0.1980267,0.1403093,-1.014605,-1.540024,-0.2690179,0.7812252,1.416587,-0.01120394,-0.02440558,-0.01018817,-0.165443,-0.9436293,-0.08716033,0.02746092,0.8428289,1.507079,0.1979939,0.4152032,1.021122,0.1285824,58.51049,112.6178,182.2536,True
3,0.8000008,0.4902598,0.01560888,-0.158629,-1.462301,-1.960345,2.752778,0.709357,1.251482,-0.01036114,-0.9201403,-0.9792116,60,0,0.09055215,0.1916531,0.1040232,-1.015166,-1.537837,-0.2714592,0.7813365,1.416482,-0.01124984,-0.01603292,-0.02293452,-0.1721014,-0.9458174,-0.08795103,0.02781405,0.8429941,1.507003,0.1979233,0.4124711,1.028774,0.1292089,60.42494,113.231,182.9197,True
3,0.8111119,0.4627405,-0.008923193,-0.146569,-1.46146,-1.958972,2.748216,0.7087004,1.251683,-0.01035193,-0.9309053,-0.9737454,60,0,0.1208367,0.1756489,0.02388907,-1.018068,-1.537068,-0.274251,0.7811391,1.416246,-0.01139748,-0.005172938,-0.02224226,-0.1508818,-0.9466089,-0.08806035,0.0277054,0.8431921,1.506701,0.1977626,0.4097491,1.035435,0.1300205,62.08445,113.8435,183.5002,True
3,0.8222231,0.4363022,-0.04303969,-0.1344958,-1.461069,-1.957049,2.744025,0.708055,1.251876,-0.01036552,-0.9418285,-0.9875351,60,0,0.165934,0.1190582,-0.0393592,-1.020456,-1.538542,-0.2768787,0.7809107,1.416155,-0.01155663,0.0048673,-0.02404512,-0.1041262,-0.9462126,-0.0884525,0.02753602,0.8433132,1.506622,0.1976976,0.4071929,1.040967,0.130945,63.35579,114.3535,183.9177,True
3,0.8333342,0.4225764,-0.06116897,-0.1268561,-1.460428,-1.955338,2.739384,0.7074754,1.252148,-0.01048529,-0.9524044,-0.9542753,60,0,0.204775,0.05286307,-0.07382238,-1.021733,-1.540869,-0.27907,0.7809317,1.416222,-0.01172525,0.006026447,-0.02741858,-0.09246138,-0.9469104,-0.08898646,0.02776372,0.843549,1.506457,0.1976179,0.4049758,1.045429,0.1318644,64.23131,114.6607,184.0791,True
3,0.8444453,0.3993047,-0.08675948,-0.115901,-1.460326,-1.953254,2.735501,0.7068362,1.252446,-0.01049128,-0.9629229,-0.9504873,60,0,0.2448106,-0.008036435,-0.09336656,-1.022797,-1.54377,-0.2815949,0.7806766,1.416274,-0.01184666,0.01247519,-0.001728279,-0.1038751,-0.9483905,-0.08795395,0.02679753,0.8437179,1.506321,0.1976318,0.4030936,1.049023,0.1326727,64.75769,114.7454,183.9832,True
3,0.8555565,0.3940853,-0.08568138,-0.1062697,-1.459729,-1.952099,2.730951,0.706341,1.252675,-0.01045305,-0.9726924,-0.8814273,60,0,0.2585462,-0.03794748,-0.08605309,-1.023038,-1.545308,-0.2839289,0.780442,1.416267,-0.01192507,0.00496804,0.02526599,-0.1257937,-0.9506846,-0.08644687,0.02627768,0.8440018,1.506265,0.1976974,0.4014636,1.052035,0.1332813,65.04899,114.6878,183.7491,True
3,0.8666676,0.3941562,-0.06648149,-0.09566166,-1.459121,-1.951704,2.726539,0.7057042,1.253023,-0.01041594,-0.9827815,-0.9131816,60,0,0.2490602,-0.06672613,-0.04768918,-1.021798,-1.547061,-0.2854986,0.7803526,1.416401,-0.01203567,-0.007935181,0.05134337,-0.1551246,-0.9534159,-0.08448093,0.0256806,0.8441275,1.506164,0.1976967,0.3999391,1.054793,0.1336578,65.21796,114.5681,183.5087,True
3,0.8777788,0.396231,-0.02599795,-0.09364972,-1.457778,-1.952203,2.722024,0.7051284,1.253372,-0.01032597,-0.9921905,-0.8479348,60,0,0.2217542,-0.06348856,0.01002922,-1.019568,-1.546929,-0.2869442,0.7805991,1.416692,-0.01204005,-0.01859564,0.05895575,-0.1613032,-0.9553409,-0.08350474,0.02562467,0.8441657,1.506242,0.1975203,0.3984088,1.057593,0.1338273,65.41751,114.3596,183.3077,True
3,0.8888899,0.3951481,-0.001491485,-0.09049952,-1.456646,-1.9526,2.717779,0.7045095,1.253723,-0.01028073,-1.001482,-0.8415329,60,0,0.1637443,-0.02493156,0.06906728,-1.017379,-1.54488,-0.2878126,0.7810245,1.416927,-0.01213402,-0.01960588,0.05457956,-0.1528325,-0.9567188,-0.08290886,0.02552986,0.8442519,1.506193,0.1974558,0.3968308,1.060665,0.1339078,65.71985,114.1945,183.2721,True
3,0.900001,0.393934,0.0347107,-0.09803035,-1.45473,-1.953457,2.713503,0.7039311,1.254132,-0.0101451,-1.010713,-0.8346699,60,0,0.1089522,0.03387127,0.1142808,-1.015302,-1.541446,-0.289088,0.7811115,1.416903,-0.01215002,-0.04167967,0.01878497,-0.09772324,-0.955736,-0.08425296,0.02767158,0.8441547,1.506321,0.1973377,0.3951852,1.064165,0.1340596,66.16061,114.1291,183.3835,True
3,0.9111122,0.3949094,0.05386621,-0.1034227,-1.452948,-1.953781,2.709037,0.7034013,1.254403,-0.01011702,-1.020291,-0.8669875,60,0,0.08052451,0.07660123,0.1315877,-1.0141,-1.538426,-0.2908052,0.7811224,1.416859,-0.01223126,-0.01920731,-0.00301406,-0.07374834,-0.9557585,-0.08502674,0.02749181,0.8442078,1.506124,0.1971863,0.3935565,1.068169,0.1344096,66.7804,114.2749,183.6625,True
3,0.9222233,0.3906152,0.04852089,-0.1076271,-1.451601,-1.953565,2.704873,0.7028031,1.254621,-0.01011714,-1.02998,-0.8756686,60,0,0.05419555,0.1331984,0.132924,-1.013594,-1.534081,-0.2927674,0.7812519,1.416799,-0.01228806,-0.01104511,-0.0219061,-0.09754045,-0.9575433,-0.08595832,0.02786892,0.844229,1.506006,0.197064,0.3920045,1.072659,0.1350062,67.57839,114.6007,184.017,True
3,0.9333345,0.3821142,0.0314673,-0.1085663,-1.450575,-1.9529,2.700916,0.7022173,1.254874,-0.01008543,-1.039597,-0.8699464,60,0,0.05092344,0.1673716,0.09572279,-1.014586,-1.53096,-0.2948537,0.7810984,1.416602,-0.01227638,-0.01239857,-0.03221758,-0.1200545,-0.9597116,-0.08646552,0.02835228,0.8443334,1.505977,0.1969991,0.3905785,1.077546,0.1358455,68.52471,115.2146,184.5422,True
3,0.9444456,0.3396396,-0.02294533,-0.1058674,-1.450428,-1.950588,2.698264,0.7016847,1.254946,-0.01013914,-1.049574,-0.9028044,60,0,0.06226321,0.1674098,0.03812111,-1.016538,-1.529317,-0.2967803,0.7809925,1.416463,-0.01236346,-0.0126366,-0.03617167,-0.1414183,-0.9620185,-0.08703996,0.02883884,0.844314,1.50583,0.1968757,0.3892671,1.08268,0.1368365,69.59306,116.0202,185.1314,True
3,0.9555568,0.3300914,-0.03894017,-0.1057276,-1.449803,-1.949294,2.694642,0.7012148,1.255116,-0.0101757,-1.059803,-0.9243207,60,0,0.07681139,0.1514223,-0.004614346,-1.018137,-1.528705,-0.298437,0.7809708,1.416564,-0.01244873,-0.01368217,-0.03616593,-0.1403486,-0.963529,-0.08717152,0.02897573,0.8444358,1.505754,0.1966928,0.3880263,1.087889,0.1378485,70.70863,116.862,185.7046,True
3,0.9666679,0.2887751,-0.1114485,-0.09767199,-1.450688,-1.945511,2.69244,0.7007506,1.255148,-0.01023737,-1.07103,-1.015003,60,0,0.09749426,0.1141385,-0.06979945,-1.021014,-1.529744,-0.2996647,0.7806075,1.416456,-0.01257297,-0.00496687,-0.04511151,-0.114992,-0.9639594,-0.08812866,0.02927373,0.8443487,1.50571,0.1965606,0.3868656,1.093014,0.1387329,71.82114,117.7007,186.2773,True
3,0.977779,0.2740806,-0.1593888,-0.08675473,-1.451497,-1.942364,2.689281,0.7003489,1.255232,-0.01027727,-1.08111,-0.905753,60,0,0.1192555,0.06084235,-0.1201081,-1.023465,-1.531994,-0.3004634,0.7801132,1.416399,-0.01274592,0.01237027,-0.04782418,-0.08323426,-0.9638103,-0.08905757,0.02916907,0.8441951,1.505672,0.1964189,0.3858352,1.097881,0.1392975,72.89905,118.4604,186.8244,True
3,0.9888902,0.2646531,-0.1828199,-0.07594875,-1.452296,-1.939616,2.686384,0.6998868,1.255371,-0.01027948,-1.092092,-0.9943343,60,0,0.1274536,0.02034657,-0.1372771,-1.025138,-1.534045,-0.3010664,0.7797165,1.416413,-0.01287907,0.0145321,-0.04788423,-0.08005998,-0.9645975,-0.08967143,0.02928758,0.844148,1.505604,0.1962956,0.3848535,1.102396,0.1395112,73.84865,119.1008,187.3666,True
3,1.000001,0.2509515,-0.2009369,-0.06617819,-1.453082,-1.936987,2.683536,0.6994984,1.255453,-0.01024091,-1.102074,-0.8959506,60,0,0.127223,-0.04786374,-0.1171531,-1.024726,-1.537319,-0.3006174,0.7794673,1.416527,-0.01298192,0.02719031,-0.05424621,-0.08774388,-0.9660841,-0.09049714,0.02917599,0.8442544,1.505569,0.1962641,0.3838772,1.106501,0.1392894,74.6934,119.3558,187.6243,True
3,1.011112,0.245744,-0.212649,-0.05756952,-1.453958,-1.934403,2.680567,0.6990604,1.255623,-0.01028621,-1.111844,-0.8832043,60,0,0.1134761,-0.0968913,-0.06281745,-1.022813,-1.539849,-0.3000607,0.7792363,1.416722,-0.01300552,0.03125634,-0.05507524,-0.1059162,-0.968034,-0.09109915,0.02916747,0.8442535,1.50557,0.1959898,0.3828238,1.110232,0.138701,75.38186,119.2582,187.7032,True
3,1.022224,0.2501289,-0.2275331,-0.04905784,-1.455071,-1.931584,2.677271,0.6986287,1.255823,-0.01030558,-1.121547,-0.87522,60,0,0.08390469,-0.1256047,-0.0008838587,-1.020139,-1.541782,-0.2990163,0.7789538,1.416868,-0.01315242,0.0301035,-0.05709125,-0.1133921,-0.9695637,-0.09188665,0.02933419,0.8441452,1.505502,0.1958338,0.3817017,1.11367,0.1378978,75.95517,118.9405,187.6997,True
3,1.033335,0.2704526,-0.2594534,-0.04813005,-1.456401,-1.927696,2.672966,0.6981208,1.256064,-0.01036659,-1.131129,-0.8642936,60,0,0.0607112,-0.1340816,0.04293808,-1.017815,-1.542973,-0.2982999,0.7793217,1.417029,-0.01334372,0.03548554,-0.06257689,-0.1050069,-0.9705283,-0.09296456,0.02928119,0.8442051,1.505339,0.1958318,0.3805951,1.116924,0.1370335,76.46365,118.4963,187.6059,True
3,1.044446,0.3332483,-0.3083625,-0.06358442,-1.457613,-1.922649,2.666636,0.6975305,1.256407,-0.01038635,-1.140576,-0.8527022,60,0,0.04735396,-0.1032024,0.09314929,-1.015085,-1.542211,-0.298686,0.7792466,1.417175,-0.01343668,0.01769768,-0.04464087,-0.08433033,-0.9708112,-0.09287308,0.02960876,0.8439975,1.505305,0.1957642,0.3795104,1.120136,0.1362352,76.9269,117.9732,187.3783,True
3,1.055557,0.3555286,-0.3179357,-0.07444209,-1.458352,-1.918639,2.661485,0.6969886,1.256686,-0.0104202,-1.149472,-0.8032906,60,0,0.04652667,-0.06698796,0.1006762,-1.014101,-1.541194,-0.2998096,0.7796686,1.417391,-0.01352751,0.00936795,-0.0276553,-0.07654107,-0.9713523,-0.09262301,0.02961435,0.8437215,1.505201,0.195577,0.3783964,1.123465,0.1355802,77.38341,117.453,187.061,True
3,1.066668,0.4222795,-0.3743651,-0.1208152,-1.458602,-1.911753,2.653631,0.696213,1.257128,-0.01044998,-1.157423,-0.7191508,60,0,0.03300602,-0.002996929,0.09981009,-1.013658,-1.538397,-0.3011955,0.77966,1.417446,-0.0135954,-0.004273564,-0.00635265,-0.06970772,-0.9718695,-0.09178105,0.02966522,0.8434708,1.505173,0.1955242,0.3770707,1.127095,0.1350622,77.84798,117.0362,186.7311,True
3,1.077779,0.451925,-0.4073804,-0.1455607,-1.458977,-1.905665,2.64696,0.6955397,1.257459,-0.01052359,-1.166815,-0.8557552,60,0,0.01195337,0.06424847,0.08407856,-1.014248,-1.535199,-0.3024075,0.7797837,1.417548,-0.01375327,-0.01274968,-0.006387718,-0.06325683,-0.9727718,-0.09188438,0.03034566,0.8433695,1.505405,0.1952133,0.3754403,1.13122,0.1345934,78.38748,116.8175,186.5605,True
3,1.08889,0.4922118,-0.4531685,-0.1735727,-1.459592,-1.898347,2.639248,0.6946521,1.257888,-0.01060933,-1.175247,-0.7605214,60,0,0.0131278,0.1058185,0.06709184,-1.01483,-1.532476,-0.3040808,0.7798383,1.417598,-0.01392996,-0.00847055,-0.002139837,-0.0643032,-0.9735186,-0.09170542,0.030188,0.8431149,1.505367,0.195126,0.3737163,1.135894,0.1340623,79.0771,117.0427,186.8271,True
3,1.100002,0.531558,-0.49787,-0.1898548,-1.460788,-1.89096,2.631233,0.6937289,1.258314,-0.0107137,-1.185036,-0.8936425,60,0,0.02488583,0.1324116,0.05214527,-1.015429,-1.529917,-0.3061043,0.7796152,1.417661,-0.01409468,-0.01991916,0.02442696,-0.05422011,-0.9737912,-0.09033256,0.03001569,0.8427758,1.505158,0.1952118,0.3717055,1.14122,0.1333247,79.90204,117.7616,187.5607,True
3,1.111113,0.5582657,-0.5212498,-0.1879481,-1.462259,-1.884263,2.623372,0.6927876,1.258764,-0.01084769,-1.194802,-0.8832395,60,0,0.06212604,0.1588955,0.02318328,-1.016873,-1.527293,-0.309565,0.7796311,1.417795,-0.01429516,-0.02408568,0.0371822,-0.05080046,-0.9742551,-0.08947316,0.03028201,0.8424652,1.505101,0.1950356,0.3696835,1.147111,0.1322123,80.92342,118.7272,188.6345,True
3,1.122224,0.5806091,-0.5275983,-0.1924292,-1.463275,-1.877853,2.615433,0.691781,1.259252,-0.01091778,-1.204813,-0.9092411,60,0,0.086575,0.1555822,0.01769447,-1.017313,-1.525437,-0.3123451,0.77912,1.417715,-0.01444355,-0.03910425,0.03420777,-0.05921901,-0.9751889,-0.08903707,0.03097603,0.8422058,1.505045,0.1948574,0.36757,1.153502,0.1306858,82.07576,119.8368,189.9743,True
3,1.133335,0.5944299,-0.5115911,-0.1926147,-1.463976,-1.872311,2.607733,0.6908748,1.25965,-0.01101902,-1.215192,-0.9424868,60,0,0.08969013,0.1395868,0.01871597,-1.017237,-1.524256,-0.3139268,0.7785015,1.417698,-0.01455358,-0.04127493,0.03214169,-0.06242929,-0.9760725,-0.08864145,0.0311723,0.8421218,1.504909,0.1946668,0.3654496,1.160259,0.1287661,83.33459,120.9842,191.5165,True
3,1.144446,0.6262937,-0.4454719,-0.1888348,-1.463802,-1.868836,2.599381,0.689657,1.260231,-0.01107451,-1.225736,-0.9559943,60,0,0.08007003,0.09590895,0.04853285,-1.015659,-1.52415,-0.3145633,0.7781768,1.417802,-0.01475564,-0.04035939,0.01621851,-0.06692926,-0.9769583,-0.08905238,0.03181785,0.8417807,1.504849,0.1944748,0.3634565,1.16721,0.126586,84.65679,122.524,193.5962,True
3,1.155557,0.6517938,-0.4049234,-0.1881399,-1.463582,-1.865019,2.59076,0.6885986,1.260754,-0.01106426,-1.236532,-0.9791325,60,0,0.0736954,0.06926821,0.07302927,-1.014106,-1.523626,-0.3153428,0.7775586,1.417821,-0.0148567,-0.04458303,0.005414415,-0.05532254,-0.9771841,-0.08960472,0.03285409,0.8413923,1.504969,0.1945343,0.3616628,1.174183,0.1243379,85.98761,125.6681,197.3364,True
3,1.166668,0.7007235,-0.3440887,-0.1834602,-1.463,-1.86236,2.581031,0.6872656,1.261469,-0.01101071,-1.246826,-0.93238,0,0,0.082284,0.04040401,0.1059478,-1.01173,-1.523383,-0.3166778,0.7772412,1.418004,-0.01504228,-0.04437719,-0.002418235,-0.02880152,-0.9765982,-0.08986584,0.03358139,0.8410749,1.504874,0.1943916,0.3601246,1.181025,0.1222371,87.25776,132.2515,204.4998,True
3,1.17778,0.7648445,-0.3066099,-0.1575713,-1.463495,-1.859952,2.570067,0.6859848,1.262271,-0.01087636,-1.256985,-0.9234691,0,0,0.1163557,0.0103593,0.1259167,-1.009502,-1.52358,-0.3191546,0.7770257,1.418189,-0.0151456,-0.03685882,-0.01117562,-0.01621761,-0.9763777,-0.09040207,0.03411163,0.8407699,1.505063,0.1946149,0.3586789,1.187711,0.1205792,88.33894,148.0975,220.8429,True
3,1.188891,0.8247257,-0.2851257,-0.132684,-1.464353,-1.857158,2.558708,0.6846254,1.263151,-0.0106883,-1.26649,-0.8627278,0,0,0.1440577,0.003817137,0.1299881,-1.008009,-1.523098,-0.3220321,0.7769418,1.418417,-0.01524031,-0.0389992,-0.007920125,-0.01934609,-0.976692,-0.09035386,0.03459899,0.84057,1.505041,0.194526,0.357311,1.194235,0.1194976,88.93578,189.6903,262.7578,True
3,1.200002,0.8673872,-0.230671,-0.1172734,-1.464225,-1.85596,2.547584,0.6831186,1.264103,-0.01035067,-1.275367,-0.8092389,0,0,0.1782491,0.03668085,0.1191669,-1.007538,-1.521108,-0.3261472,0.776793,1.418619,-0.01529866,-0.02863467,0.01391513,-0.06281532,-0.9788912,-0.08956704,0.03417635,0.8406489,1.504791,0.1946906,0.3558533,1.200739,0.119086,88.67146,236.6515,309.8605,True
3,1.211113,0.8887247,-0.1869179,-0.1058723,-1.463963,-1.854875,2.536954,0.6816945,1.265013,-0.01008347,-1.28441,-0.8266451,0,0,0.2050426,0.06636898,0.1201028,-1.006881,-1.518617,-0.3305571,0.7767196,1.418743,-0.01545578,-0.02780164,0.01743096,-0.08727908,-0.9806761,-0.08955865,0.0346376,0.8405306,1.504724,0.1944495,0.3543382,1.207377,0.1193117,88.00659,258.2891,331.4713,True
3,1.222224,0.8929029,-0.110191,-0.09863627,-1.462543,-1.855515,2.526885,0.6801028,1.26592,-0.00965175,-1.293731,-0.8509638,0,0,0.2138007,0.1099991,0.121186,-1.006453,-1.515013,-0.3351908,0.7766106,1.418832,-0.01551679,-0.02600716,0.02113201,-0.1234693,-0.9833019,-0.08898487,0.03452229,0.8404828,1.504605,0.1943886,0.3528588,1.214254,0.1200331,87.16607,267.837,340.8645,True
3,1.233335,0.8789111,-0.01752506,-0.09444137,-1.460328,-1.857182,2.517789,0.6786165,1.266697,-0.009394825,-1.303486,-0.8891183,0,0,0.1851312,0.1165251,0.1309717,-1.00525,-1.51274,-0.3373543,0.7764871,1.418892,-0.01561779,-0.02811895,0.01798607,-0.1235005,-0.9846383,-0.08831348,0.03400803,0.8404483,1.504225,0.1938973,0.3516154,1.221356,0.1211262,86.15488,272.0901,344.8876,True
3,1.244446,0.8810371,0.05815538,-0.07973067,-1.458215,-1.859343,2.50806,0.6770315,1.267429,-0.009126186,-1.313249,-0.8884115,0,0,0.1583657,0.09109779,0.1311036,-1.003907,-1.511926,-0.3387011,0.7762344,1.418864,-0.01574403,-0.02578315,0.01229395,-0.09909983,-0.9849254,-0.08838246,0.03428953,0.8403155,1.504152,0.1937343,0.3507888,1.228577,0.1224281,84.98,274.1914,346.6967,True
3,1.255558,0.9046895,0.1030164,-0.05025935,-1.456967,-1.861521,2.49743,0.6754851,1.268221,-0.00883162,-1.322943,-0.8819542,0,0,0.1418805,0.05183835,0.08533107,-1.004125,-1.513082,-0.3391549,0.7760363,1.418889,-0.01585948,-0.008515507,-0.004166032,-0.0696873,-0.9848684,-0.08806048,0.03308631,0.840507,1.504039,0.1934197,0.350398,1.235758,0.1238873,83.65962,275.2433,347.451,True
3,1.266669,0.9250361,0.1307962,-0.03455693,-1.455731,-1.863325,2.486596,0.6739473,1.269004,-0.008573115,-1.331381,-0.7652302,0,0,0.1564203,0.03265704,0.04365454,-1.004878,-1.513732,-0.3410295,0.7756906,1.418884,-0.01597154,-0.009538025,-0.01820562,-0.05602854,-0.9850665,-0.08887195,0.03367114,0.840417,1.503967,0.1932658,0.3504426,1.242678,0.1254524,82.27585,275.7655,347.6289,True
3,1.27778,0.9422249,0.1692255,-0.01353677,-1.454189,-1.866073,2.475755,0.6724823,1.269964,-0.00834322,-1.338419,-0.6421766,0,0,0.2027786,0.01227616,-0.01847779,-1.00696,-1.515249,-0.3441358,0.7753131,1.418854,-0.01612306,-0.02533823,-0.02144398,-0.03994695,-0.985083,-0.08786833,0.03332999,0.8404003,1.503961,0.1931382,0.3505832,1.249306,0.1271264,80.96821,276.3472,347.8347,True
3,1.288891,0.9315806,0.1883964,-0.009206146,-1.452536,-1.868154,2.466102,0.6711166,1.270846,-0.008036464,-1.344694,-0.5759875,0,0,0.2397552,0.006828591,-0.06026738,-1.00857,-1.51593,-0.347509,0.7750351,1.418883,-0.01614553,-0.01902001,-0.009455804,-0.05797051,-0.9866708,-0.0865285,0.03222132,0.8404654,1.503884,0.1932499,0.3505548,1.255672,0.1288787,79.81869,277.0112,348.1125,True
3,1.300002,0.8962793,0.2117354,-0.01848203,-1.450136,-1.870348,2.457662,0.6697519,1.271708,-0.007773131,-1.350302,-0.5147644,0,0,0.2642743,0.01416285,-0.06361205,-1.009499,-1.515833,-0.3513306,0.7747154,1.41891,-0.01630053,-0.009780169,-0.007930261,-0.09426447,-0.9889106,-0.08649428,0.03198483,0.840521,1.503714,0.1931035,0.3503025,1.26177,0.1306212,78.82542,277.4975,348.2254,True
3,1.311113,0.8417996,0.2222628,-0.02966163,-1.447742,-1.872059,2.450562,0.6684496,1.272529,-0.007345051,-1.355868,-0.512367,0,0,0.2569309,0.01204646,-0.04331795,-1.009114,-1.515417,-0.3538601,0.7741277,1.418791,-0.01635432,-0.01098714,-0.01297794,-0.1103271,-0.9908866,-0.08614993,0.03126711,0.8404434,1.503958,0.1934089,0.3499416,1.267565,0.1322998,77.95407,277.8781,348.2845,True
3,1.322224,0.8022127,0.2306685,-0.04418422,-1.445158,-1.873615,2.443425,0.6671829,1.27327,-0.007141382,-1.360997,-0.4689885,0,0,0.2252544,0.00254,0.006935435,-1.007492,-1.5151,-0.3554218,0.7740111,1.41884,-0.01655692,-0.003696889,-0.02676644,-0.118056,-0.9924978,-0.08701506,0.03155287,0.8404284,1.503873,0.1932743,0.3496497,1.272924,0.1338334,77.10653,278.0317,348.1532,True
3,1.333336,0.7595358,0.2049847,-0.05540457,-1.443529,-1.873947,2.436571,0.6660261,1.274024,-0.006925881,-1.365497,-0.4106581,0,0,0.1914005,-0.004810415,0.04869304,-1.005499,-1.51462,-0.3565736,0.7737029,1.418863,-0.01668784,0.001676962,-0.03544287,-0.1075836,-0.9932669,-0.08725888,0.03144368,0.8402755,1.50376,0.1926577,0.3494752,1.277717,0.1351784,76.26921,277.9996,347.8737,True
3,1.344447,0.7350365,0.1623009,-0.06357385,-1.442587,-1.873498,2.429349,0.664855,1.274639,-0.006880969,-1.368269,-0.2516865,0,0,0.1479048,-0.02916435,0.0958112,-1.00246,-1.514844,-0.3564649,0.7733517,1.418907,-0.01681939,0.009414092,-0.03590903,-0.07889839,-0.9930928,-0.08773638,0.0313217,0.8401221,1.503778,0.1925278,0.34934,1.281856,0.1363284,75.49401,277.8914,347.5523,True
3,1.355558,0.7169491,0.0994001,-0.07390247,-1.442304,-1.872001,2.421719,0.6638007,1.275289,-0.00701052,-1.369816,-0.1441986,0,0,0.140432,-0.04619099,0.10755,-1.000716,-1.515458,-0.3574569,0.7731032,1.419017,-0.01686141,0.009749766,-0.03314448,-0.047961,-0.9924579,-0.08775675,0.03105379,0.8399611,1.503687,0.1923027,0.3490548,1.285361,0.1372788,74.86495,277.7296,347.1747,True
3,1.366669,0.7021165,0.03650656,-0.07892175,-1.442629,-1.870129,2.414153,0.662725,1.275925,-0.006974936,-1.369985,-0.018961,0,0,0.1584188,-0.04732496,0.0893157,-1.000324,-1.515999,-0.3596418,0.7727532,1.419094,-0.01693916,0.007760685,-0.03549248,-0.03199376,-0.9922363,-0.08834437,0.03135899,0.8398051,1.503647,0.1921895,0.3484374,1.28833,0.137977,74.42297,277.5939,346.8376,True
3,1.37778,0.6744962,-0.005096771,-0.07961631,-1.442757,-1.868431,2.407308,0.6617777,1.276527,-0.006943077,-1.369135,0.07118245,0,0,0.1732034,-0.05056948,0.07216766,-0.9998945,-1.516628,-0.3617334,0.7723401,1.419179,-0.01707873,0.003302157,-0.03522141,-0.04899473,-0.9935024,-0.08882068,0.03221253,0.8395292,1.503578,0.1917854,0.3473846,1.290887,0.1383335,74.16135,277.4889,346.5653,True
3,1.388891,0.6627965,-0.01364421,-0.0794749,-1.442408,-1.867488,2.400208,0.6606996,1.27718,-0.006880611,-1.367918,0.1028621,0,0,0.1699351,-0.06653142,0.07322806,-0.9985884,-1.517622,-0.362992,0.7720072,1.419176,-0.01719123,0.009685285,-0.03199872,-0.0532691,-0.9942364,-0.08896635,0.03178003,0.8393091,1.503604,0.1917353,0.3459003,1.293195,0.1382562,74.06554,277.4857,346.5051,True
3,1.400002,0.6041991,-0.05641268,-0.08835867,-1.442789,-1.865011,2.395242,0.6598516,1.277728,-0.006722242,-1.366966,0.07885434,0,0,0.1474866,-0.08666205,0.07760252,-0.9970151,-1.519102,-0.3630362,0.771647,1.419256,-0.01727971,0.02032641,-0.04392618,-0.0429088,-0.9946257,-0.08975852,0.03209855,0.8396477,1.503454,0.1917124,0.3441187,1.295378,0.1377506,74.05583,277.7187,346.8832,True
3,1.411114,0.5681171,-0.08193045,-0.08468467,-1.443264,-1.864378,2.389317,0.6590061,1.278367,-0.006577224,-1.36562,0.1168024,0,0,0.1422017,-0.08130983,0.07977419,-0.9958934,-1.519454,-0.3642019,0.7712646,1.419332,-0.01732695,0.02464299,-0.04834669,-0.03342799,-0.9947333,-0.0904018,0.03218004,0.8396554,1.503538,0.1916924,0.3423025,1.297474,0.1369233,74.06033,278.1118,347.5968,True
3,1.422225,0.5542489,-0.1075421,-0.09193818,-1.443742,-1.862015,2.383359,0.6582086,1.278953,-0.006491214,-1.3658,-0.02528208,0,0,0.147667,-0.08030735,0.09998104,-0.9939242,-1.519634,-0.3659082,0.7709601,1.419413,-0.01742509,0.02362266,-0.04948204,-0.02810717,-0.994868,-0.09110074,0.03234329,0.8396345,1.503497,0.1915596,0.340587,1.299576,0.1359849,74.01235,278.5446,348.4204,True
3,1.433336,0.5521109,-0.1235271,-0.09613955,-1.444093,-1.859924,2.376915,0.6573689,1.279516,-0.006430596,-1.364901,0.08178785,0,0,0.1509947,-0.08567476,0.1233943,-0.9914523,-1.519666,-0.367794,0.7709303,1.419443,-0.01747367,0.02027623,-0.0535281,-0.04091486,-0.9957064,-0.09177572,0.03256327,0.8395714,1.503519,0.1915573,0.3392031,1.301613,0.1350191,73.89651,278.9877,349.2279,True
3,1.444447,0.5436264,-0.1352682,-0.09495653,-1.444724,-1.85777,2.370872,0.6566293,1.279994,-0.006383151,-1.363958,0.07802755,0,0,0.1532608,-0.08037803,0.1393698,-0.9892935,-1.519452,-0.3696444,0.7703881,1.419375,-0.01754209,0.02105841,-0.06281662,-0.06237033,-0.9972335,-0.09296989,0.03309084,0.8396432,1.503381,0.1914566,0.3380713,1.303733,0.1342272,73.74332,279.5074,350.0518,True
3,1.455558,0.5394142,-0.126724,-0.08854945,-1.444815,-1.856524,2.364897,0.6558917,1.280649,-0.006317049,-1.362747,0.1042043,0,0,0.1586315,-0.06654982,0.135097,-0.9879294,-1.519177,-0.3717262,0.7701547,1.419416,-0.01764569,0.01960331,-0.06974824,-0.09761549,-0.9996005,-0.0939763,0.03338592,0.8395783,1.503334,0.1914021,0.3370838,1.306022,0.1336544,73.51037,279.6838,350.3921,True
3,1.466669,0.5386086,-0.1330768,-0.06402797,-1.446082,-1.855278,2.358906,0.6551151,1.281222,-0.006159842,-1.362002,0.05988497,0,0,0.1501572,-0.04304918,0.1245412,-0.987106,-1.518384,-0.3734846,0.7703438,1.419582,-0.01774597,0.009024709,-0.06547227,-0.0931928,-1.00049,-0.0944783,0.03387328,0.839474,1.503256,0.1912821,0.3361815,1.308515,0.1332706,73.201,279.7336,350.4975,True
3,1.47778,0.5366593,-0.1287727,-0.04591216,-1.447007,-1.85445,2.352926,0.6543667,1.281753,-0.005960166,-1.361415,0.04778179,0,0,0.1246181,-0.01625433,0.1077104,-0.9867688,-1.517343,-0.3746034,0.7701342,1.419597,-0.01785451,0.01571658,-0.05842909,-0.06758513,-1.00041,-0.09497924,0.0337529,0.8393373,1.503303,0.1911795,0.335421,1.311131,0.133009,72.84895,279.8239,350.6064,True
3,1.488891,0.5367647,-0.1234208,-0.03421052,-1.447815,-1.853553,2.34695,0.6535745,1.28233,-0.005731165,-1.360959,0.03532068,0,0,0.116075,-0.003405452,0.0950076,-0.9862309,-1.516679,-0.3759449,0.7697103,1.419644,-0.01794225,0.01283328,-0.05564245,-0.03768233,-0.9998024,-0.0955931,0.03403839,0.8392081,1.50338,0.1910844,0.3347831,1.313855,0.1328833,72.48621,280.0073,350.82,True
3,1.500003,0.5378395,-0.1234045,-0.03315823,-1.448452,-1.852408,2.340852,0.6527376,1.28285,-0.005506009,-1.360624,0.02439857,0,0,0.09996404,0.0009794366,0.07168417,-0.9863092,-1.516502,-0.3765755,0.7694178,1.419696,-0.01809311,0.00991972,-0.06357643,-0.003671764,-0.9986721,-0.09689086,0.03474546,0.8389359,1.503382,0.190937,0.334244,1.31665,0.132897,72.09171,280.3463,351.1918,True
3,1.511114,0.5337168,-0.142547,-0.02453928,-1.450095,-1.850858,2.334849,0.6519346,1.283338,-0.005392581,-1.360435,0.0111498,0,0,0.1115495,-0.002242381,0.05455514,-0.986208,-1.516601,-0.3781369,0.7687228,1.419648,-0.01824665,0.0162471,-0.07750018,-0.001808574,-0.9988441,-0.09854255,0.03510046,0.8389469,1.503298,0.1906931,0.3337948,1.319455,0.1330598,71.67378,280.6258,351.4901,True
3,1.522225,0.5295982,-0.1606705,-0.01381257,-1.451931,-1.84931,2.328933,0.651129,1.283916,-0.00524351,-1.360297,0.006729974,0,0,0.134817,-0.007654369,0.03308601,-0.9864684,-1.517073,-0.380178,0.768388,1.419765,-0.01840889,0.0233335,-0.08560748,-0.03395925,-1.000302,-0.09996135,0.03535533,0.8389984,1.503221,0.1905545,0.3333654,1.322258,0.1333544,71.24786,280.7515,351.5794,True
3,1.533336,0.5298628,-0.1872523,0.005429253,-1.454672,-1.847834,2.322792,0.6504021,1.284543,-0.005133718,-1.360353,-0.01114818,0,0,0.1783509,-0.02384668,0.02318605,-0.9861632,-1.518015,-0.3832893,0.7683487,1.419942,-0.01854607,0.02415405,-0.07987057,-0.06265139,-1.002037,-0.1006555,0.03542484,0.8390148,1.503148,0.1904567,0.3329075,1.32503,0.1336965,70.82944,280.7802,351.4961,True
3,1.544447,0.529925,-0.2000236,0.0086523,-1.456666,-1.846163,2.316679,0.6496718,1.285167,-0.00497818,-1.360518,-0.0203443,0,0,0.2050002,-0.03146358,0.03151979,-0.985263,-1.518453,-0.3861898,0.7682259,1.420219,-0.01868597,0.01862244,-0.0644197,-0.09541413,-1.004317,-0.1003006,0.03498941,0.8390372,1.502673,0.190404,0.3323954,1.327756,0.1339419,70.45589,280.9102,351.4812,True
3,1.555558,0.5266639,-0.1968503,0.003349081,-1.458097,-1.844609,2.310783,0.648876,1.285795,-0.004788995,-1.360524,-0.005657899,0,0,0.1965027,-0.04956004,0.04965501,-0.983744,-1.519208,-0.3876772,0.767936,1.420408,-0.01880479,0.02287694,-0.06228667,-0.09755567,-1.005528,-0.1009702,0.03495266,0.8389724,1.502602,0.1903157,0.3318007,1.330464,0.1340017,70.14841,281.1874,351.6758,True
3,1.566669,0.5319198,-0.1702109,0.002167031,-1.458807,-1.843969,2.304575,0.6480958,1.286527,-0.00454554,-1.360586,-0.01168541,0,0,0.1763579,-0.07294796,0.0817082,-0.9813408,-1.520085,-0.3885475,0.7676752,1.420549,-0.01887679,0.02961844,-0.04772492,-0.07397866,-1.005592,-0.1004847,0.03381842,0.8386972,1.502357,0.1903146,0.331145,1.33319,0.133837,69.88322,281.6078,352.1128,True
3,1.577781,0.5618455,-0.1424117,0.01671001,-1.459697,-1.844087,2.297243,0.6473386,1.287209,-0.004361272,-1.360806,-0.02572338,0,0,0.1636971,-0.08038029,0.1062814,-0.9790131,-1.52044,-0.3897379,0.7674298,1.420716,-0.01898751,0.03099323,-0.04388915,-0.04516893,-1.00514,-0.1008983,0.03364052,0.8385513,1.502334,0.1902661,0.3304602,1.335941,0.1334734,69.58993,281.9393,352.5616,True
3,1.588892,0.5843109,-0.1412569,0.02607951,-1.461344,-1.843671,2.290068,0.6465375,1.287905,-0.004130214,-1.360719,0.003126779,0,0,0.1362173,-0.0792253,0.1384251,-0.9762989,-1.520126,-0.3904809,0.7674093,1.420943,-0.01905936,0.02262795,-0.03761389,-0.033277,-1.005158,-0.1011984,0.03387088,0.8384418,1.502235,0.1901624,0.3297704,1.338715,0.1329902,69.26419,282.2338,353.0456,True
3,1.600003,0.603389,-0.1529624,0.01418824,-1.46277,-1.842083,2.28249,0.645731,1.288656,-0.003990263,-1.359857,0.07217337,0,0,0.1257395,-0.0578805,0.1481188,-0.9744597,-1.519092,-0.392069,0.7672396,1.421115,-0.0191493,0.01952766,-0.0366219,-0.02579704,-1.005527,-0.1014265,0.0336802,0.8385867,1.502607,0.1899533,0.3291037,1.341547,0.1325452,68.94997,282.6193,353.6614,True
3,1.611114,0.6106533,-0.1806811,-0.01031792,-1.464311,-1.839558,2.275236,0.6449022,1.28949,-0.003822595,-1.359426,0.02923233,0,0,0.1322218,-0.0270028,0.1374753,-0.9737875,-1.5177,-0.3946299,0.7669127,1.421178,-0.019169,0.02151489,-0.03750212,-0.03968329,-1.006562,-0.10198,0.03367434,0.838585,1.502395,0.1897612,0.3284759,1.344508,0.1322923,68.643,283.1007,354.3331,True
3,1.622225,0.5956268,-0.1945949,-0.02397992,-1.465844,-1.837259,2.268903,0.644129,1.290263,-0.003710866,-1.359118,0.02105155,0,0,0.1653983,0.03572193,0.1107312,-0.9745433,-1.514553,-0.3994422,0.7667735,1.421348,-0.01923552,0.0179323,-0.02611302,-0.08851215,-1.009555,-0.1016776,0.03312679,0.8385173,1.502441,0.1898036,0.3278983,1.347633,0.132262,68.31188,283.4501,354.7528,True
3,1.633336,0.5762163,-0.1968235,-0.04721473,-1.466666,-1.834803,2.262964,0.6434705,1.291134,-0.003631741,-1.359319,-0.02641402,0,0,0.1760376,0.06020835,0.08939576,-0.9747617,-1.51288,-0.4026361,0.7661505,1.42134,-0.01927367,0.01353951,-0.01404788,-0.1096066,-1.011443,-0.1012118,0.03295076,0.8383038,1.502673,0.1891873,0.3273507,1.35095,0.1323369,67.94382,283.4786,354.7102,True
3,1.644447,0.569689,-0.1904731,-0.05888061,-1.467428,-1.832754,2.256635,0.6426764,1.29198,-0.003508985,-1.360222,-0.08833338,0,0,0.1760429,0.06660731,0.08514551,-0.9743984,-1.511417,-0.4054226,0.7659719,1.421476,-0.01929051,0.006201737,-0.008797061,-0.100935,-1.012272,-0.1010933,0.0330722,0.838143,1.502655,0.1891085,0.326861,1.354406,0.1323213,67.51664,283.3665,354.4685,True
3,1.655559,0.5715612,-0.1670676,-0.07813165,-1.467127,-1.831009,2.250139,0.6419184,1.292989,-0.003295451,-1.361233,-0.0956117,0,0,0.1706471,0.05598522,0.0830362,-0.973567,-1.510806,-0.4074146,0.7655795,1.421584,-0.01920635,0.003343493,-0.001698558,-0.07205713,-1.012241,-0.1002013,0.03252599,0.8379678,1.502595,0.1894276,0.3265392,1.357823,0.132066,67.03698,283.2978,354.3234,True
3,1.66667,0.6000632,-0.1606597,-0.1018757,-1.467156,-1.828516,2.24211,0.641108,1.293851,-0.003231704,-1.361639,-0.04040337,0,0,0.1621453,0.05815712,0.0852219,-0.9729524,-1.50951,-0.4096267,0.7650697,1.421569,-0.01923865,-0.002819039,0.001228458,-0.05064528,-1.012041,-0.100061,0.03270388,0.837743,1.5026,0.1894338,0.3263441,1.361145,0.1315457,66.53645,283.2475,354.3108,True
3,1.677781,0.6670189,-0.2500749,-0.1364572,-1.470043,-1.822743,2.231698,0.6402555,1.294827,-0.003287256,-1.361698,-0.01126944,0,0,0.1663836,0.06454122,0.07668251,-0.9727707,-1.508191,-0.4123918,0.7648144,1.421696,-0.01924312,-0.01527002,0.01486923,-0.02584792,-1.011867,-0.09815653,0.03224342,0.8374946,1.502288,0.189902,0.3261052,1.364436,0.1308541,66.03588,283.2895,354.5146,True
3,1.688892,0.6893365,-0.3171691,-0.1567726,-1.47308,-1.817444,2.222809,0.6395519,1.295774,-0.003376216,-1.360717,0.08345571,0,0,0.1705367,0.07627659,0.05217399,-0.9734834,-1.506973,-0.4150129,0.7644882,1.421836,-0.01933891,-0.01423911,0.01597862,-0.03010773,-1.012457,-0.09808915,0.03233024,0.8373728,1.501947,0.1897096,0.3257294,1.367749,0.1301327,65.57836,283.2817,354.7232,True
3,1.700003,0.6957241,-0.3843022,-0.1715995,-1.476902,-1.811389,2.214154,0.6387999,1.296738,-0.003438264,-1.358616,0.1809845,0,0,0.1980695,0.10391,0.005165931,-0.9758195,-1.505391,-0.4191067,0.7642646,1.42205,-0.0193913,-0.01546312,0.02266487,-0.0512978,-1.013649,-0.09788994,0.03234968,0.8370987,1.50284,0.1890921,0.3250611,1.371246,0.1293882,65.18758,283.1599,354.6947,True
3,1.711114,0.6765853,-0.42483,-0.1766424,-1.480264,-1.806201,2.206862,0.6382012,1.29773,-0.003503621,-1.35821,0.02150076,0,0,0.230087,0.1293318,-0.006715011,-0.977068,-1.503011,-0.4241707,0.7641008,1.422227,-0.01938102,-0.01461069,0.02619181,-0.07469308,-1.015272,-0.09744067,0.03235341,0.8368326,1.503004,0.1889377,0.3239804,1.37515,0.1283535,64.87252,283.052,354.5702,True
3,1.722225,0.6533033,-0.4397678,-0.1646602,-1.483617,-1.801853,2.199947,0.6374259,1.29891,-0.003315747,-1.358489,-0.03205089,0,0,0.2451309,0.136687,0.007047523,-0.9773492,-1.500802,-0.428685,0.7639661,1.422521,-0.01941738,-0.01579529,0.01777097,-0.08119746,-1.016422,-0.09749433,0.03259896,0.836629,1.503021,0.1888795,0.3228515,1.379228,0.1267911,64.53622,283.1033,354.7183,True
3,1.733337,0.6554115,-0.4099242,-0.1604886,-1.485528,-1.798468,2.192346,0.6366608,1.300073,-0.00310427,-1.359715,-0.1188688,0,0,0.2486908,0.1291078,0.06987102,-0.9751116,-1.498088,-0.4328188,0.7636361,1.422769,-0.01933506,-0.02523847,0.02414408,-0.07354897,-1.016781,-0.09647887,0.03222931,0.8362808,1.503426,0.1890498,0.3218817,1.38334,0.1246396,64.12034,283.3027,355.228,True
3,1.744448,0.68833,-0.3256859,-0.1525008,-1.485333,-1.796846,2.183459,0.6357527,1.301404,-0.002754122,-1.360931,-0.1141208,0,0,0.2533787,0.110847,0.1486413,-0.9717656,-1.4952,-0.437408,0.763658,1.423123,-0.01929125,-0.03039797,0.03037878,-0.06062509,-1.017047,-0.09589457,0.03244822,0.8360963,1.503326,0.1888907,0.321232,1.387338,0.1220497,63.61792,283.6736,356.149,True
3,1.755559,0.7310556,-0.2690779,-0.1296373,-1.485775,-1.795852,2.173782,0.6348331,1.302707,-0.002493113,-1.361257,-0.03379605,0,0,0.2557583,0.09263617,0.2007951,-0.9683541,-1.492719,-0.441734,0.7635064,1.423401,-0.01925704,-0.02829206,0.02502173,-0.05861141,-1.017888,-0.09550868,0.03260002,0.8362527,1.50344,0.1888352,0.3207767,1.391305,0.1193724,63.0411,284.1552,357.3507,True
3,1.76667,0.8046604,-0.1495294,-0.09550701,-1.48398,-1.797557,2.162262,0.6337738,1.30411,-0.002160221,-1.360449,0.06625108,0,0,0.2559583,0.07978316,0.2412538,-0.9647727,-1.490109,-0.4460638,0.7633383,1.423679,-0.01920062,-0.02947254,0.01874691,-0.06615003,-1.018891,-0.09547725,0.03295529,0.8361158,1.503484,0.188807,0.3204095,1.395314,0.117024,62.4436,284.5623,358.5154,True
3,1.777781,0.8463471,0.04883857,-0.03993869,-1.478688,-1.802888,2.15186,0.6326711,1.305513,-0.001932055,-1.359292,0.09399359,0,0,0.2731786,0.07537713,0.2720338,-0.9615008,-1.487288,-0.4512444,0.7629614,1.423938,-0.01903543,-0.02642332,0.01693572,-0.08646827,-1.02077,-0.09449735,0.03168496,0.8362819,1.502384,0.1900074,0.3200202,1.399516,0.1154319,61.8841,284.855,359.4294,True
3,1.788892,0.8411103,0.1297772,-0.01668786,-1.475985,-1.80476,2.142772,0.6316738,1.306839,-0.001946241,-1.357233,0.1760208,0,0,0.2796158,0.07746781,0.2783836,-0.9591503,-1.484494,-0.456053,0.7630086,1.424326,-0.01909986,-0.02132232,0.01502373,-0.1015151,-1.023144,-0.09370279,0.03227378,0.836264,1.502488,0.1892274,0.3196532,1.403956,0.1148129,61.38314,285.132,0.05258653,True
3,1.800003,0.8110418,0.2394372,-0.016625,-1.470517,-1.80816,2.13527,0.630579,1.308093,-0.001733869,-1.356511,0.04860908,0,0,0.2604122,0.06797484,0.2816896,-0.9564429,-1.482287,-0.4595956,0.7626944,1.424423,-0.01914263,-0.0171831,0.01087553,-0.1112052,-1.024716,-0.09367096,0.03229988,0.8361173,1.502385,0.1892149,0.3194692,1.408628,0.1153942,60.90638,285.363,0.4114963,True
3,1.811115,0.7895355,0.3086072,-0.02190578,-1.465622,-1.810395,2.127505,0.6296778,1.309257,-0.001472354,-1.357535,-0.1040774,0,0,0.2400481,0.05424622,0.273277,-0.9541105,-1.480665,-0.4625578,0.7625675,1.424455,-0.01918679,-0.01936895,0.0034058,-0.1112588,-1.025425,-0.09434861,0.03303252,0.8351053,1.502652,0.1888835,0.3198224,1.413252,0.1173248,60.40553,285.2644,0.06429346,True
3,1.822226,0.7895169,0.3224566,-0.02087303,-1.462021,-1.81239,2.1189,0.6286643,1.310489,-0.001288056,-1.359563,-0.1903613,0,0,0.1992037,0.01294996,0.2511031,-0.9516976,-1.480929,-0.4632657,0.7622194,1.424494,-0.01930228,-0.02770848,-0.00649628,-0.08681706,-1.025606,-0.09503091,0.03386449,0.834501,1.502335,0.1889103,0.3207716,1.417646,0.1202068,59.82885,284.7042,358.7606,True
3,1.833337,0.8098491,0.2916021,-0.01887951,-1.460385,-1.813147,2.109283,0.6277075,1.311552,-0.001102507,-1.361034,-0.136809,0,0,0.1764358,0.009972643,0.1937187,-0.9514835,-1.480719,-0.4646055,0.7618709,1.424576,-0.01939419,-0.02757121,-0.01537975,-0.06349095,-1.025338,-0.09586275,0.03507197,0.8340398,1.502805,0.1884816,0.322216,1.421661,0.1236383,59.15302,283.9086,357.0192,True
3,1.844448,0.8271018,0.2181411,-0.01464063,-1.460383,-1.812938,2.099585,0.6268148,1.312631,-0.0008881688,-1.361454,-0.04419879,0,0,0.201594,0.03021838,0.1158125,-0.9530367,-1.480102,-0.468022,0.7615902,1.424731,-0.01938075,-0.02521501,-0.01038488,-0.04213039,-1.025161,-0.09586807,0.03551538,0.8337585,1.502791,0.1884137,0.3238094,1.425427,0.1271922,58.48442,283.0913,355.1737,True
3,1.855559,0.8144959,0.1318231,-0.0153775,-1.461543,-1.811996,2.090886,0.6259394,1.313721,-0.0007127821,-1.361061,0.02685434,0,0,0.2280714,0.05038753,0.07625552,-0.9540109,-1.479022,-0.4720304,0.7612486,1.42484,-0.01941514,-0.02512771,-0.0029794,-0.03882295,-1.025441,-0.09566953,0.03559794,0.8334969,1.502694,0.1884519,0.3251401,1.429229,0.1304402,57.87659,282.4678,353.5525,True
3,1.86667,0.7687274,0.0699156,-0.0243383,-1.462179,-1.811033,2.083696,0.6251612,1.314707,-0.0005725026,-1.360745,0.01767213,0,0,0.2663743,0.06728054,0.05472942,-0.9544892,-1.477355,-0.4772787,0.7611558,1.424991,-0.01941019,-0.01782932,0.005790265,-0.05900066,-1.026684,-0.09518817,0.03558036,0.8335226,1.502717,0.1885097,0.3260196,1.433189,0.1329562,57.34234,282.0673,352.3296,True
3,1.877781,0.7292984,0.0410502,-0.0313189,-1.462349,-1.810258,2.076859,0.6243465,1.315669,-0.0003724396,-1.361268,-0.05748842,0,0,0.2665317,0.06510623,0.0802924,-0.9532875,-1.475649,-0.4812628,0.7608211,1.425159,-0.0194135,-0.01048479,0.02311527,-0.08235414,-1.029742,-0.09428243,0.03497024,0.8341595,1.503341,0.1884265,0.3264521,1.437292,0.1344153,56.86675,281.8852,351.6193,True
3,1.888893,0.668695,0.00683815,-0.02741286,-1.463068,-1.809696,2.071249,0.6236393,1.316561,-0.0001103878,-1.362667,-0.1336989,0,0,0.2452498,0.03750344,0.1049053,-0.9511512,-1.474606,-0.4838769,0.7607191,1.425387,-0.01950985,-0.007321067,0.03280266,-0.09076662,-1.030975,-0.09348255,0.03474999,0.8340353,1.503316,0.1883702,0.3266129,1.441328,0.1346571,56.39246,281.899,351.4684,True
3,1.900004,0.6348854,-0.01875347,-0.005694278,-1.464356,-1.809759,2.065359,0.622941,1.317446,0.0001707077,-1.363788,-0.1047554,0,0,0.19743,0.003586937,0.1499054,-0.9477295,-1.474026,-0.4847262,0.7604129,1.425625,-0.01949462,-0.009334914,0.03802178,-0.08216014,-1.031771,-0.09270836,0.03453827,0.833668,1.503081,0.1886134,0.3267089,1.445022,0.1337862,55.8838,282.0676,351.8593,True
3,1.911115,0.6265681,-0.03045321,0.01146586,-1.46528,-1.810072,2.058495,0.6222706,1.318373,0.0004835129,-1.36511,-0.1249734,0,0,0.1857981,-0.01556045,0.1787311,-0.9446392,-1.472828,-0.487163,0.7599406,1.425844,-0.01945442,-0.009212047,0.04318227,-0.07143332,-1.032166,-0.09211075,0.03458434,0.8335451,1.502943,0.188466,0.326765,1.448331,0.1321526,55.36283,282.3909,352.7051,True
3,1.922226,0.6288564,-0.03148021,0.02635919,-1.466049,-1.810636,2.051553,0.6216397,1.319273,0.0008151531,-1.36552,-0.03899119,0,0,0.2157796,-0.02108882,0.2062231,-0.9415238,-1.471419,-0.4914081,0.7596717,1.426086,-0.01932782,-0.006901585,0.04287123,-0.0512233,-1.03214,-0.09158558,0.03455558,0.8331447,1.502731,0.1884913,0.326786,1.451247,0.1301856,54.88597,282.8712,353.8492,True
3,1.933337,0.6224373,-0.009116258,0.02744398,-1.465543,-1.811281,2.044747,0.6209748,1.3203,0.00106433,-1.364719,0.06798019,0,0,0.2212594,-0.03073711,0.2349375,-0.9382769,-1.469729,-0.4953211,0.7595289,1.426359,-0.01911303,-0.003702939,0.0364043,-0.04709066,-1.032578,-0.09124056,0.03424026,0.8329852,1.502622,0.1886106,0.326681,1.45396,0.1283377,54.50653,283.4437,355.0878,True
3,1.944448,0.5914287,0.02916504,0.02448388,-1.464156,-1.812175,2.039334,0.6203852,1.321007,0.001257241,-1.363721,0.08209971,0,0,0.2096591,-0.02964018,0.2520608,-0.9351504,-1.468055,-0.4982633,0.7592597,1.426512,-0.01900473,-0.0006837659,0.02266083,-0.05584493,-1.033492,-0.09143564,0.03422482,0.8328584,1.502553,0.1886692,0.3264266,1.456672,0.1269933,54.23338,283.9503,356.1502,True
3,1.955559,0.5454345,0.07485588,0.01633541,-1.462021,-1.813165,2.034962,0.619776,1.321628,0.001487672,-1.3629,0.06695303,0,0,0.1906294,-0.02104272,0.2660486,-0.932206,-1.465988,-0.500919,0.7593083,1.426757,-0.01883706,0.002394598,0.02063956,-0.065543,-1.03532,-0.09133138,0.0341838,0.8333073,1.50282,0.1886654,0.326141,1.459426,0.1263764,54.02972,284.3013,356.842,True
3,1.966671,0.5112771,0.1024881,0.01555366,-1.460186,-1.814181,2.030471,0.6191847,1.322268,0.001754522,-1.363086,-0.02442109,0,0,0.1799837,-0.02098945,0.267184,-0.9294741,-1.464448,-0.5034293,0.7590239,1.426834,-0.01875782,0.008653864,0.01969345,-0.07737848,-1.03716,-0.09121713,0.03399658,0.8326933,1.502684,0.1886804,0.326009,1.462133,0.1265479,53.8266,284.4119,357.0313,True
3,1.977782,0.4515088,0.1193854,0.008681187,-1.458398,-1.814945,2.027633,0.6185915,1.322654,0.001837254,-1.363811,-0.06904743,0,0,0.159593,-0.02404372,0.2470714,-0.9276642,-1.463704,-0.5050113,0.7585626,1.426756,-0.01871583,0.009687118,0.01650652,-0.07850067,-1.038071,-0.09109449,0.03379871,0.8324966,1.502631,0.188726,0.3262649,1.464475,0.127418,53.54935,284.3173,356.7726,True
3,1.988893,0.4291217,0.1086753,0.004683008,-1.457765,-1.81525,2.023438,0.6179931,1.323223,0.001918256,-1.364044,-0.02280004,0,0,0.130684,-0.01531444,0.218523,-0.92642,-1.462443,-0.506187,0.7579358,1.426639,-0.01871192,0.01304759,0.01409136,-0.06045557,-1.038093,-0.09101313,0.03344797,0.8322446,1.502643,0.1888224,0.3268549,1.466409,0.1288509,53.23135,284.0915,356.1995,True
3,2.000004,0.3982687,0.08090571,0.002937507,-1.457775,-1.815209,2.020072,0.6174641,1.323572,0.001976222,-1.365034,-0.09448212,0,0,0.09625302,-0.01504922,0.1665488,-0.926298,-1.462572,-0.5059452,0.7575045,1.426604,-0.01869866,0.01955378,0.003116866,-0.04150129,-1.03792,-0.09139356,0.03321042,0.8319889,1.502647,0.1888716,0.3275949,1.468051,0.130643,52.91563,283.801,355.4188,True
3,2.011115,0.3567505,0.04031394,-0.002924781,-1.458506,-1.814619,2.017213,0.6167774,1.323904,0.002082705,-1.364642,0.03709909,0,0,0.07787485,-0.01167316,0.1230033,-0.9263715,-1.462404,-0.5063644,0.7571733,1.426581,-0.01872683,0.01954248,-0.009799181,-0.03317071,-1.038118,-0.09218919,0.03353852,0.8318262,1.502452,0.1889069,0.3283311,1.469399,0.1324995,52.62851,283.4619,354.4954,True
3,2.022226,0.3226856,0.01466576,-0.005707189,-1.459081,-1.814153,2.014728,0.6162465,1.324237,0.002183497,-1.364531,0.0038952,0,0,0.07423576,-0.009408291,0.05378516,-0.9279817,-1.463598,-0.5063058,0.7566478,1.426589,-0.01869825,0.02590571,-0.0248628,-0.02599493,-1.038184,-0.09319,0.03355716,0.8316231,1.502434,0.1889751,0.3287868,1.470758,0.1341332,52.42805,283.1857,353.6553,True
3,2.033337,0.2631114,-0.0259488,-0.006062146,-1.460465,-1.813347,2.013683,0.6157777,1.324463,0.002349615,-1.364623,-0.01048791,0,0,0.07520224,-0.0115196,0.03992843,-0.9277239,-1.463665,-0.5072664,0.7562516,1.426428,-0.01862499,0.03553407,-0.01963603,-0.02495372,-1.038585,-0.09347828,0.03306954,0.8307307,1.502134,0.1889893,0.3289474,1.472062,0.1352713,52.249,282.9895,353.0331,True
3,2.044448,0.2215514,-0.06441448,-0.01512897,-1.462047,-1.812045,2.012366,0.6153147,1.324639,0.002447128,-1.364661,-0.004794954,0,0,0.08052319,-0.0328799,0.05583699,-0.92615,-1.464173,-0.5080622,0.7557282,1.426492,-0.01860815,0.04709662,-0.01625321,-0.04312979,-1.039701,-0.09347549,0.03214036,0.830511,1.502069,0.1890056,0.3287817,1.473282,0.1357603,52.08684,282.8999,352.7307,True
3,2.055559,0.1970831,-0.09856334,-0.01906028,-1.463819,-1.810764,2.010768,0.6148355,1.32472,0.002554059,-1.365381,-0.06739133,0,0,0.07732529,-0.05418717,0.07181052,-0.9241158,-1.464529,-0.5086369,0.7549555,1.426479,-0.01843727,0.05019182,-0.02582061,-0.04649904,-1.040425,-0.09424195,0.03196353,0.830225,1.50209,0.1890747,0.32839,1.474298,0.1355917,51.97795,282.9381,352.7952,True
3,2.06667,0.1854682,-0.1252081,-0.01461534,-1.465795,-1.809883,2.008875,0.6143014,1.324982,0.00268802,-1.36548,-0.00643632,0,0,0.07303568,-0.06375816,0.07501836,-0.9227661,-1.465112,-0.5089466,0.7544188,1.426576,-0.01839811,0.05244291,-0.0281676,-0.03270432,-1.040323,-0.09469801,0.03153183,0.8299146,1.502078,0.1891383,0.3278612,1.474995,0.1348444,51.90151,283.0669,353.132,True
3,2.077781,0.1675079,-0.1678468,-0.009004347,-1.468892,-1.808543,2.007504,0.6138332,1.325105,0.002740026,-1.364962,0.04627869,0,0,0.07187947,-0.07972355,0.07287395,-0.9214724,-1.466117,-0.5091929,0.7538862,1.426738,-0.0185267,0.05383198,-0.0179126,-0.005934137,-1.039423,-0.094561,0.03096884,0.8295614,1.502109,0.1889742,0.3271669,1.475469,0.1336607,51.86129,283.2374,353.6262,True
3,2.088892,0.1526863,-0.198776,-0.007703014,-1.471915,-1.807219,2.005932,0.6134243,1.325183,0.002770424,-1.364052,0.08076775,0,0,0.06968978,-0.08929411,0.07181393,-0.9201152,-1.466909,-0.5093751,0.7535856,1.426994,-0.0184572,0.05419913,-0.001262479,0.02093779,-1.038346,-0.0939675,0.0301856,0.8292248,1.502222,0.1891252,0.3262747,1.475881,0.1322359,51.86915,283.4872,354.2781,True
3,2.100003,0.1313529,-0.2009599,-0.01067211,-1.473963,-1.806034,2.0051,0.6129973,1.32535,0.00282228,-1.363547,0.0427791,0,0,0.07285365,-0.09143569,0.06859361,-0.9189909,-1.467696,-0.5098087,0.7531109,1.427111,-0.01834592,0.04881875,0.003158152,0.01253127,-1.038454,-0.09371664,0.02968519,0.828975,1.502194,0.1892351,0.3252052,1.476385,0.130782,51.93055,283.8058,355.0116,True
3,2.111114,0.1206337,-0.1892837,-0.0159057,-1.475383,-1.805081,2.003788,0.6126077,1.325452,0.002844393,-1.362917,0.05671206,0,0,0.06973765,-0.08502943,0.07501566,-0.9178345,-1.467675,-0.5105522,0.7528298,1.427294,-0.01823044,0.0453404,-0.0007166527,-0.01306032,-1.039571,-0.09406285,0.02956348,0.828229,1.501925,0.1893776,0.3241247,1.47689,0.1293899,52.00711,284.1188,355.6787,True
3,2.122225,0.1151982,-0.1594768,-0.02017847,-1.475871,-1.804447,2.002664,0.6121719,1.32568,0.002913028,-1.362798,0.008528083,0,0,0.0676726,-0.06690145,0.07079864,-0.9171911,-1.467443,-0.511385,0.7524393,1.427387,-0.01812443,0.04278076,0.001017254,-0.05775938,-1.041787,-0.09391451,0.02911234,0.8279881,1.501877,0.1894687,0.3231491,1.477368,0.1281349,52.06992,284.381,356.247,True
3,2.133336,0.1117803,-0.1169089,-0.03407697,-1.475633,-1.803842,2.001261,0.6117418,1.325875,0.002889276,-1.362308,0.04500449,0,0,0.06687301,-0.03815731,0.08789849,-0.9161567,-1.465834,-0.5131691,0.752032,1.427428,-0.01805133,0.035301,0.007534914,-0.06398505,-1.042636,-0.09380359,0.02891421,0.8276583,1.501867,0.1896123,0.3223565,1.477791,0.1271096,52.09498,284.5506,356.6798,True
3,2.144447,0.1149133,-0.1083894,-0.03839032,-1.476222,-1.802937,1.999791,0.6112795,1.326107,0.002920598,-1.361942,0.0309437,0,0,0.05321084,-0.0264004,0.1071837,-0.914603,-1.46458,-0.5140705,0.7516456,1.42749,-0.01797676,0.02994457,0.01084361,-0.06921169,-1.043578,-0.09349919,0.02861513,0.8273447,1.501833,0.1897169,0.3217599,1.478203,0.1263955,52.08627,284.6514,356.9766,True
3,2.155558,0.1232311,-0.0849615,-0.05344421,-1.475832,-1.801933,1.998002,0.610775,1.326434,0.003120244,-1.361469,0.04200102,0,0,0.03195152,-0.006034434,0.09884384,-0.9140288,-1.463391,-0.5143664,0.7512853,1.427527,-0.01771998,0.01203057,0.02249509,-0.05714512,-1.04371,-0.09297854,0.02884949,0.8267522,1.501863,0.1898601,0.3213278,1.478673,0.1260558,52.04755,284.6633,357.0964,True
3,2.166669,0.1264147,-0.08388982,-0.05454254,-1.476443,-1.801004,1.996421,0.610265,1.326783,0.003198385,-1.36108,0.03311779,0,0,0.02551774,0.01427667,0.07654861,-0.9144112,-1.462383,-0.5150322,0.7508981,1.427572,-0.01760566,0.007954478,0.02118365,-0.03794379,-1.043409,-0.09268972,0.02865748,0.8263395,1.501928,0.1900893,0.3210296,1.479228,0.1260682,51.98553,284.5757,356.9878,True
3,2.17778,0.136975,-0.09241331,-0.06528563,-1.477198,-1.799467,1.994406,0.6097634,1.327066,0.003233045,-1.360629,0.03932409,0,0,0.02760363,0.03880865,0.04994072,-0.9154701,-1.461353,-0.5161704,0.7504725,1.427562,-0.01756576,0.004950142,0.02414996,-0.02099962,-1.045593,-0.09215336,0.02835654,0.8266981,1.502592,0.1899801,0.3207824,1.479935,0.1263213,51.89903,284.4544,356.759,True
3,2.188891,0.1358832,-0.1062941,-0.07268905,-1.478498,-1.797878,1.992511,0.6092844,1.32725,0.003195882,-1.360484,0.01047287,0,0,0.03399207,0.05158439,0.03927005,-0.915851,-1.460065,-0.5175909,0.7501512,1.427719,-0.01753202,0.01025419,0.016588,-0.01690394,-1.045753,-0.09234525,0.02834402,0.8264649,1.502543,0.1899401,0.320536,1.480811,0.1267192,51.79646,284.2862,356.4607,True
3,2.200002,0.1305083,-0.1297637,-0.08216807,-1.480012,-1.795837,1.991047,0.6087561,1.327538,0.003233701,-1.360223,0.02250667,0,0,0.03708856,0.0377265,0.03496501,-0.9156007,-1.459962,-0.5181521,0.7496409,1.427828,-0.01745933,0.01639053,-0.004590563,-0.03005741,-1.04656,-0.09356817,0.02840235,0.8257573,1.502534,0.1899148,0.320293,1.481789,0.1271001,51.688,284.1325,356.1271,True
3,2.211113,0.1272939,-0.1553603,-0.08953287,-1.481902,-1.793647,1.989483,0.6082275,1.327747,0.003255993,-1.360183,0.0009160329,0,0,0.04767984,0.024897,0.03487777,-0.915133,-1.459757,-0.5192549,0.7494025,1.427994,-0.01735345,0.02158073,-0.01624326,-0.03667309,-1.04725,-0.09409308,0.02816133,0.8255069,1.502459,0.1899488,0.3200516,1.482796,0.1272843,51.56374,283.9677,355.7878,True
3,2.222224,0.1252529,-0.171332,-0.08414853,-1.483834,-1.79194,1.988008,0.6076722,1.328042,0.003298581,-1.360572,-0.03716367,0,0,0.09645741,0.005502418,0.01534972,-0.915256,-1.460708,-0.5213926,0.7487903,1.428175,-0.01724684,0.0247484,-0.01729842,-0.03885034,-1.047766,-0.09435886,0.02790727,0.8252649,1.502468,0.1900116,0.3198007,1.483772,0.1271251,51.41738,283.8492,355.5634,True
3,2.233335,0.1242147,-0.1841033,-0.0841018,-1.485536,-1.790252,1.986528,0.6069665,1.32849,0.00361523,-1.360872,-0.02735227,0,0,0.1188041,-0.00101126,0.01733432,-0.9147862,-1.46069,-0.5233918,0.7477891,1.428178,-0.0169757,0.04506202,-0.01536582,-0.03369567,-1.047985,-0.09419627,0.02651896,0.8250778,1.502433,0.190163,0.3194773,1.484726,0.1265577,51.25138,283.7772,355.5128,True
3,2.244446,0.1232326,-0.1755453,-0.07453905,-1.486503,-1.789032,1.985026,0.6063626,1.328785,0.003831863,-1.361126,-0.0242116,0,0,0.1208807,-0.02234229,0.02580728,-0.913812,-1.461389,-0.5243847,0.7472324,1.428346,-0.01687929,0.05246564,-0.01428906,-0.03801369,-1.048546,-0.09433955,0.02604838,0.8248661,1.50236,0.1901723,0.3190485,1.485651,0.1255892,51.08555,283.7982,355.6874,True
3,2.255557,0.1296962,-0.1478051,-0.06188476,-1.48706,-1.78849,1.983297,0.6057515,1.329181,0.003935397,-1.361311,-0.01782076,0,0,0.107038,-0.0468124,0.04610024,-0.9119787,-1.462157,-0.524493,0.7470815,1.428769,-0.01673496,0.0492586,-0.004563473,-0.04753572,-1.050969,-0.09433409,0.02537273,0.8245819,1.50269,0.190178,0.3184675,1.486613,0.1243461,50.92989,283.944,356.1379,True
3,2.266668,0.1361767,-0.1221906,-0.04815876,-1.487525,-1.788189,1.981507,0.6051083,1.329638,0.004007161,-1.361394,-0.008561266,0,0,0.1092933,-0.05218559,0.06951848,-0.9102615,-1.461851,-0.5259485,0.7467237,1.429037,-0.0167132,0.0428874,-0.003495485,-0.0453265,-1.051373,-0.09448669,0.02531814,0.8243539,1.502639,0.190222,0.3177325,1.48763,0.1230455,50.78141,284.1305,356.7465,True
3,2.277779,0.1436256,-0.108321,-0.04613644,-1.488028,-1.78749,1.979591,0.6044815,1.330088,0.004076421,-1.361249,0.0119002,0,0,0.121197,-0.04056021,0.08863602,-0.908808,-1.460883,-0.5282686,0.7462108,1.429276,-0.01661381,0.04076639,-0.006723642,-0.04215678,-1.051737,-0.09467671,0.02502999,0.8241119,1.502681,0.1902966,0.3169872,1.488552,0.1218924,50.67642,284.3067,357.3238,True
3,2.28889,0.1552841,-0.07422225,-0.04633178,-1.487766,-1.787038,1.977241,0.603832,1.330442,0.003982186,-1.361079,0.01321817,0,0,0.1256369,-0.0278346,0.1067383,-0.9074088,-1.459709,-0.5304269,0.7465649,1.429819,-0.01664639,0.03980282,-0.009034496,-0.02939246,-1.05153,-0.09491493,0.0248393,0.8238654,1.502759,0.1903631,0.3162768,1.489428,0.1210549,50.63002,284.4732,357.7766,True
3,2.300001,0.1638161,-0.03796478,-0.03797971,-1.486984,-1.787223,1.975133,0.6031945,1.330947,0.004017234,-1.360918,0.01269955,0,0,0.1214984,-0.02571088,0.1238141,-0.9056346,-1.458702,-0.5322684,0.7461102,1.430048,-0.01656961,0.04101402,0.004727414,-0.02387518,-1.051582,-0.09431385,0.02406139,0.8236375,1.502795,0.1904378,0.3156285,1.490319,0.120608,50.61172,284.5768,358.0237,True
3,2.311112,0.1734194,0.006815288,-0.02859725,-1.485648,-1.787705,1.97277,0.602489,1.331237,0.00409019,-1.360531,0.03319556,0,0,0.1130735,-0.03528791,0.146227,-0.9032564,-1.457823,-0.5337715,0.7458541,1.43058,-0.01664063,0.04742922,0.007902443,-0.02495749,-1.051945,-0.09395339,0.02297163,0.8233647,1.502962,0.1906796,0.3150756,1.491242,0.1205121,50.58766,284.5601,358.0082,True
3,2.322223,0.1755782,0.03986573,-0.0191067,-1.48424,-1.78843,1.970821,0.6018746,1.331728,0.004179567,-1.360421,0.006643634,0,0,0.1099154,-0.03314689,0.150511,-0.9016366,-1.457013,-0.5353699,0.7454207,1.430768,-0.01651752,0.04733162,0.005897012,-0.03350963,-1.052625,-0.09392929,0.02243207,0.8231645,1.503005,0.1907446,0.3146441,1.492202,0.1206897,50.54327,284.4836,357.8396,True
3,2.333334,0.1861857,0.08038696,-0.01503829,-1.482184,-1.789331,1.96855,0.6011035,1.332309,0.004465282,-1.360252,0.01351964,0,0,0.1045307,-0.03098344,0.1420319,-0.9002241,-1.456557,-0.5363995,0.7444062,1.430628,-0.01652464,0.04189948,-0.003614727,-0.03679499,-1.053223,-0.09450693,0.02259293,0.82301,1.502968,0.190735,0.314351,1.493206,0.1211126,50.45841,284.4195,357.6697,True
3,2.344445,0.2031658,0.09529924,-0.02056538,-1.480978,-1.78947,1.965399,0.6005237,1.332753,0.004426092,-1.360455,-0.02157285,0,0,0.1055674,-0.02351537,0.1313854,-0.8992467,-1.455871,-0.5380794,0.7439127,1.430781,-0.01642504,0.03652683,-0.003507871,-0.04100911,-1.053871,-0.09435886,0.02235191,0.8227897,1.502988,0.1908248,0.3142136,1.4942,0.1217652,50.32923,284.3405,357.468,True
3,2.355556,0.2223932,0.08469234,-0.01754897,-1.48042,-1.789482,1.962319,0.5997858,1.333289,0.004473418,-1.36047,-0.002433943,0,0,0.1129457,-0.002199629,0.1026094,-0.8994789,-1.454998,-0.5401117,0.7434425,1.430887,-0.01634249,0.03652147,0.001880379,-0.04519192,-1.05449,-0.09410226,0.02181608,0.8226547,1.503005,0.1909228,0.3141763,1.495253,0.1226245,50.19338,284.2538,357.2369,True
3,2.366668,0.2373833,0.05489922,-0.01549756,-1.480729,-1.789315,1.959376,0.5990744,1.333956,0.004627883,-1.359979,0.04205364,0,0,0.1193196,0.01591148,0.08555603,-0.8995221,-1.453773,-0.5424164,0.7429919,1.431041,-0.01618785,0.03433071,0.009500512,-0.05571578,-1.055478,-0.09375792,0.02143978,0.8225601,1.502995,0.19098,0.3141688,1.49643,0.1236616,50.0522,284.1029,356.8874,True
3,2.377779,0.2394656,0.02078767,-0.02715991,-1.481257,-1.788375,1.956581,0.5984955,1.334465,0.004692376,-1.35975,0.01597511,0,0,0.1215722,0.03826964,0.08664425,-0.899318,-1.451859,-0.5450548,0.7425871,1.431196,-0.01615748,0.03109441,0.01281093,-0.06202846,-1.056368,-0.0934374,0.02103897,0.822427,1.503001,0.1910621,0.3141786,1.497737,0.1246837,49.92537,283.8955,356.367,True
3,2.38889,0.2330055,0.001545459,-0.03982132,-1.48178,-1.787382,1.953811,0.5979106,1.334792,0.004631549,-1.359836,-0.01112073,0,0,0.1195891,0.0478467,0.1026638,-0.8981777,-1.449719,-0.5474756,0.742682,1.431482,-0.0161598,0.03425081,0.01498765,-0.0673348,-1.056992,-0.0933683,0.02053777,0.8220575,1.503316,0.1909929,0.3141262,1.499247,0.1255018,49.7708,283.7453,355.9136,True
3,2.400001,0.2286714,-0.02086131,-0.05144447,-1.482343,-1.786093,1.951319,0.5973086,1.335314,0.004667252,-1.360165,-0.0325699,0,0,0.1239253,0.04887216,0.1132903,-0.8971156,-1.448011,-0.5500591,0.7422647,1.431699,-0.01606306,0.03742887,0.01391687,-0.06844693,-1.057783,-0.0932382,0.01994015,0.8219252,1.50334,0.1910392,0.3140252,1.500896,0.1259767,49.5956,283.6605,355.6271,True
3,2.411112,0.2404374,-0.03254043,-0.0483397,-1.482713,-1.785545,1.948352,0.5964534,1.335903,0.005048066,-1.36051,-0.03344741,0,0,0.1293524,0.0381464,0.1388013,-0.8951577,-1.44648,-0.5524451,0.7418756,1.431966,-0.01616651,0.04474078,0.007636977,-0.07926187,-1.058963,-0.09327669,0.01918275,0.8217254,1.50338,0.1911201,0.3139677,1.502469,0.1259996,49.38238,283.5636,355.4384,True
3,2.422223,0.2553897,-0.02504017,-0.04318349,-1.482628,-1.78525,1.944949,0.5957596,1.336468,0.005141109,-1.361007,-0.04739318,0,0,0.1421532,0.02527399,0.1525482,-0.8932317,-1.445152,-0.5551647,0.7413981,1.432231,-0.0160428,0.0468932,0.007575015,-0.07713887,-1.059556,-0.09344899,0.01869592,0.8214314,1.503504,0.1909812,0.3139416,1.503895,0.1255487,49.1314,283.5065,355.4069,True
3,2.433334,0.2800298,-0.01536609,-0.0274785,-1.482547,-1.785538,1.941066,0.5948701,1.337165,0.005199254,-1.36103,-0.003242349,0,0,0.1592217,0.01664315,0.1630781,-0.8913233,-1.44383,-0.5583389,0.7409818,1.432481,-0.01601258,0.04274219,0.005285278,-0.06434657,-1.05982,-0.09347842,0.01837022,0.8212631,1.503542,0.1910231,0.313811,1.505329,0.1247305,48.856,283.5514,355.6536,True
3,2.444445,0.2928097,-0.01107372,-0.02655558,-1.48241,-1.785263,1.93743,0.5940619,1.337862,0.005385727,-1.360717,0.02504653,0,0,0.1582331,0.01022818,0.1801197,-0.8890649,-1.442128,-0.5611091,0.740454,1.43273,-0.01592991,0.04385901,0.008422446,-0.06111279,-1.060397,-0.09331077,0.01778699,0.8209994,1.503738,0.1910435,0.3134956,1.506876,0.1237957,48.58385,283.7125,356.1553,True
3,2.455556,0.2906739,-0.007880107,-0.02654365,-1.482233,-1.784937,1.934257,0.5933802,1.338424,0.00551343,-1.36017,0.04567017,0,0,0.1528369,-0.008934487,0.184382,-0.8867485,-1.441586,-0.562968,0.7400343,1.43286,-0.01577181,0.04074719,0.01154525,-0.05464387,-1.060768,-0.09302408,0.01730842,0.8208447,1.503802,0.1910945,0.3130682,1.508501,0.1229577,48.3857,283.8858,356.6403,True
3,2.466667,0.2841961,0.0006196424,-0.03289008,-1.481666,-1.784493,1.931331,0.5926404,1.339074,0.005613863,-1.360044,0.006028975,0,0,0.1527582,-0.00678103,0.1716038,-0.8855495,-1.440559,-0.5652317,0.7395649,1.433045,-0.01572347,0.03975792,0.01137412,-0.04399619,-1.061093,-0.09324592,0.01741361,0.8209836,1.503802,0.1909258,0.3125608,1.510267,0.1223776,48.22797,284.0477,357.0249,True
3,2.477778,0.2810082,0.02299671,-0.02758335,-1.48064,-1.784725,1.928346,0.5919216,1.339752,0.005669445,-1.360393,-0.03511571,0,0,0.1632236,0.001742177,0.1363935,-0.8855596,-1.440093,-0.5676823,0.7390237,1.433148,-0.01560822,0.04616571,0.007008759,-0.03986098,-1.061387,-0.09333754,0.01666287,0.8209212,1.503852,0.1910083,0.3121207,1.512027,0.1221114,48.08684,284.1093,357.2112,True
3,2.488889,0.2809868,0.061373,-0.02128084,-1.478645,-1.78548,1.925387,0.5912111,1.340459,0.005833983,-1.360897,-0.04786716,0,0,0.1685109,0.00599039,0.1267803,-0.8847479,-1.439102,-0.5703708,0.7385607,1.433372,-0.01550496,0.04830047,0.01556144,-0.04274499,-1.058933,-0.09287415,0.01616086,0.8144612,1.501595,0.1918661,0.3118693,1.513627,0.1221284,47.93842,284.0791,357.1859,True
3,2.5,0.2735145,0.09972201,-0.01490271,-1.476362,-1.786361,1.922709,0.5904903,1.341114,0.005957872,-1.3612,-0.02929184,0,0,0.1578624,-0.00355899,0.1353623,-0.8828976,-1.438207,-0.5722457,0.7380199,1.43347,-0.01536578,0.04821736,0.01568663,-0.05126606,-1.05981,-0.09267361,0.01553475,0.8140886,1.501558,0.1919446,0.31177,1.515123,0.1223794,47.77339,283.9951,357.0191,True
3,2.511111,0.2670275,0.1529783,-0.01282859,-1.472999,-1.787504,1.920188,0.5897846,1.341787,0.006022781,-1.36138,-0.0190225,0,0,0.1472023,-0.008833673,0.139686,-0.8813007,-1.437249,-0.5739919,0.7375338,1.433712,-0.01523587,0.04813194,0.01790852,-0.05870234,-1.060861,-0.09260956,0.01537496,0.8137698,1.501637,0.1920974,0.3117866,1.516575,0.1228445,47.59943,283.9363,356.852,True
3,2.522222,0.2519823,0.199813,-0.01597679,-1.46922,-1.788579,1.91807,0.5891018,1.34232,0.006091565,-1.361665,-0.02882974,0,0,0.1440703,-0.00990057,0.1503578,-0.8795292,-1.435985,-0.5762849,0.7370679,1.433877,-0.01510617,0.04389501,0.01682507,-0.05548042,-1.06135,-0.09241808,0.01497123,0.8133643,1.501613,0.1921417,0.3118964,1.518005,0.123559,47.40789,283.868,356.6785,True
3,2.533333,0.2369702,0.2104165,-0.02331024,-1.466666,-1.788862,1.915957,0.5884922,1.342757,0.006030232,-1.361928,-0.02578742,0,0,0.1323994,-0.01198565,0.1589475,-0.8777662,-1.434794,-0.5781422,0.7365792,1.434059,-0.01503679,0.0439761,0.008107956,-0.041756,-1.06131,-0.09257747,0.01451796,0.8129325,1.501679,0.1922944,0.3120869,1.519369,0.1245191,47.20203,283.7448,356.3999,True
3,2.544444,0.2230836,0.1922621,-0.03058344,-1.465055,-1.788822,1.913936,0.5878978,1.343142,0.005998164,-1.362319,-0.03770759,0,0,0.1153439,-0.01722742,0.1622469,-0.8759701,-1.433841,-0.5793824,0.7360992,1.434196,-0.01488128,0.04081193,-0.008046631,-0.02811363,-1.061191,-0.09324753,0.01442075,0.8125529,1.501572,0.1924309,0.3123449,1.520608,0.1257,46.99168,283.551,355.9898,True
3,2.555555,0.2113512,0.1677229,-0.03679854,-1.463855,-1.788593,1.911908,0.5872653,1.343525,0.006031513,-1.362576,-0.02442865,0,0,0.1045695,-0.0192742,0.1452683,-0.8749129,-1.433395,-0.580482,0.7355986,1.434336,-0.01476887,0.04823855,-0.02204008,-0.02200188,-1.061306,-0.09412437,0.01398825,0.8122129,1.501476,0.1926689,0.3126473,1.521642,0.127019,46.78868,283.2861,355.4243,True
3,2.566666,0.1847512,0.1207824,-0.04281191,-1.463898,-1.7878,1.910739,0.5867147,1.343877,0.006042957,-1.362722,-0.01472889,0,0,0.1001243,-0.02026701,0.1175947,-0.8745096,-1.433325,-0.5815609,0.7350969,1.434481,-0.0146704,0.04708421,-0.02838575,-0.02528337,-1.061767,-0.09487937,0.0140788,0.8119462,1.50132,0.1926021,0.3128965,1.522517,0.1282693,46.62347,282.9994,354.7547,True
3,2.577777,0.1669078,0.05579191,-0.0307738,-1.465244,-1.787205,1.909244,0.5861263,1.34405,0.006207883,-1.362712,-0.0005407987,0,0,0.1010937,-0.01598077,0.09948519,-0.8740905,-1.432991,-0.5829335,0.7346039,1.434619,-0.01455721,0.05343106,-0.01866236,-0.03801643,-1.063098,-0.09477365,0.01300901,0.8117945,1.501227,0.1925403,0.3129863,1.523328,0.1292453,46.49007,282.7708,354.1826,True
3,2.588888,0.1574115,0.03980102,-0.02531844,-1.465138,-1.787038,1.907683,0.5855634,1.344252,0.006338179,-1.363186,-0.04516903,0,0,0.1062891,-0.02130945,0.08345865,-0.8735429,-1.433245,-0.5841697,0.7340782,1.434779,-0.01446387,0.05657865,-0.008941807,-0.04856142,-1.064014,-0.09451279,0.01227904,0.8113422,1.501139,0.1926968,0.3128572,1.524128,0.1298235,46.38444,282.6115,353.8044,True
3,2.599999,0.1500676,0.01742881,-0.01879994,-1.465669,-1.786863,1.906221,0.5850675,1.344487,0.006458044,-1.363185,0.001205385,0,0,0.1040595,-0.03513997,0.07918847,-0.8724729,-1.433661,-0.5850049,0.7335975,1.434931,-0.01433796,0.05029793,-0.0004557148,-0.04304814,-1.064329,-0.09419108,0.01179194,0.8110182,1.501127,0.1927905,0.3125275,1.524854,0.129909,46.3009,282.5507,353.6631,True
3,2.61111,0.1469479,-0.01026762,-0.01657369,-1.466462,-1.786456,1.904651,0.5844908,1.344889,0.006610632,-1.36291,0.02345911,0,0,0.09226098,-0.05852801,0.08561687,-0.8706358,-1.434373,-0.5851673,0.7330096,1.434993,-0.0142118,0.04626311,0.006735161,-0.02372826,-1.063988,-0.0940446,0.01155279,0.8106389,1.501206,0.1929788,0.3120135,1.525493,0.1295245,46.23201,282.6433,353.8552,True
3,2.622221,0.150215,-0.03369247,-0.01442324,-1.467542,-1.785993,1.902794,0.5840182,1.345133,0.006700486,-1.362645,0.02224661,0,0,0.08263581,-0.06914118,0.08885218,-0.8691551,-1.43488,-0.5854089,0.7323053,1.435027,-0.01419905,0.04312672,0.001290582,-0.01417709,-1.063651,-0.09427337,0.01124946,0.8100171,1.501213,0.1929722,0.3113781,1.526044,0.128856,46.20749,282.7891,354.2567,True
3,2.633332,0.1470439,-0.07100907,-0.02068984,-1.469568,-1.784921,1.90095,0.5836251,1.345278,0.006678671,-1.362301,0.0298908,0,0,0.0806088,-0.06382373,0.100593,-0.8675764,-1.434357,-0.5865857,0.7318661,1.435128,-0.01408291,0.03891187,-0.006315105,-0.002522974,-1.063238,-0.09477764,0.01145505,0.8096669,1.501376,0.192764,0.3106654,1.5266,0.1280852,46.22952,282.9595,354.7168,True
3,2.644443,0.1406219,-0.1094046,-0.0322652,-1.471606,-1.783259,1.899258,0.5831141,1.345211,0.006743401,-1.361784,0.04522952,0,0,0.08709862,-0.04894952,0.1048437,-0.8664008,-1.433354,-0.5883591,0.7314787,1.435181,-0.01399726,0.04301462,-0.01576924,-0.01335547,-1.063764,-0.09527898,0.01091204,0.8093929,1.501516,0.1929372,0.3099074,1.527269,0.1273393,46.26679,283.1156,355.1259,True
3,2.655554,0.1299264,-0.1254231,-0.03957642,-1.473266,-1.781952,1.898043,0.5826809,1.345339,0.006749511,-1.361416,0.03076084,0,0,0.08935245,-0.01699116,0.09849143,-0.8662001,-1.431709,-0.5905222,0.7311182,1.435246,-0.01392528,0.05116358,-0.03786693,-0.03613402,-1.064951,-0.09662575,0.01070591,0.8092234,1.50148,0.1929236,0.3092315,1.52797,0.126659,46.29806,283.2335,355.4106,True
3,2.666665,0.1256972,-0.1168984,-0.03528413,-1.474103,-1.781539,1.896649,0.5822077,1.345581,0.006898791,-1.361298,0.008742553,0,0,0.08193614,-0.002030049,0.09217373,-0.865783,-1.430561,-0.591977,0.7307367,1.435317,-0.01386908,0.05101682,-0.0451851,-0.04582456,-1.065733,-0.09747143,0.01059006,0.8089998,1.501509,0.1927937,0.3087041,1.52864,0.1259886,46.2677,283.2857,355.5507,True
3,2.677776,0.1055574,-0.07642266,-0.01705585,-1.473784,-1.782149,1.896206,0.581728,1.345814,0.006896824,-1.361517,-0.02133139,0,0,0.07966492,-0.006253617,0.07407048,-0.8654091,-1.430745,-0.5926167,0.7303286,1.435278,-0.01383188,0.04889911,-0.02797204,-0.05620603,-1.066718,-0.09720218,0.009985789,0.8088405,1.501461,0.1928115,0.308309,1.529237,0.1252774,46.15496,283.2863,355.633,True
3,2.688887,0.09604776,-0.04445159,-0.004241863,-1.473408,-1.782741,1.895293,0.5813303,1.34599,0.007078677,-1.3615,0.00163765,0,0,0.08275069,-0.00943744,0.05912893,-0.865179,-1.43087,-0.5936263,0.729918,1.435411,-0.01378033,0.04265494,-0.0152263,-0.05062968,-1.06704,-0.09689578,0.009464609,0.8085594,1.501611,0.1930287,0.3079925,1.529834,0.1245522,46.03588,283.3374,355.8118,True
3,2.699998,0.09187212,0.003518909,0.01380293,-1.472056,-1.784056,1.894553,0.5809674,1.346151,0.00711146,-1.362004,-0.04779041,0,0,0.08148256,-0.02324622,0.03887262,-0.8650352,-1.431897,-0.5938402,0.7295585,1.435447,-0.01373944,0.03337503,0.008053062,-0.03528103,-1.066912,-0.09585263,0.008903746,0.808286,1.501635,0.1931069,0.3077377,1.530465,0.1239587,45.91336,283.4623,356.1243,True
3,2.711109,0.08544417,0.04292816,0.01590816,-1.470502,-1.784753,1.893472,0.5805893,1.346267,0.007308125,-1.362047,-0.002390565,0,0,0.06640375,-0.04126412,0.02935284,-0.8643572,-1.433062,-0.5931693,0.7291665,1.435548,-0.01363906,0.0219222,0.01418827,-0.01269882,-1.066204,-0.09560682,0.00888617,0.8080564,1.501735,0.1930676,0.3076012,1.530993,0.1236637,45.78656,283.5933,356.4244,True
3,2.72222,0.08639253,0.06741753,0.009450635,-1.468933,-1.785158,1.892519,0.5802743,1.346416,0.00733158,-1.362035,-0.000377654,0,0,0.05783175,-0.04654292,0.02620341,-0.8637792,-1.43372,-0.5930458,0.7287982,1.435559,-0.01359779,0.01983025,0.00446004,-0.002166299,-1.065864,-0.09592373,0.008885903,0.8078396,1.501749,0.1930527,0.3075728,1.531412,0.1237819,45.68031,283.673,356.5896,True
3,2.733331,0.07451147,0.08227672,-0.003247299,-1.467516,-1.785047,1.892107,0.5799294,1.346714,0.007466674,-1.361792,0.02146173,0,0,0.04414649,-0.02837606,0.03697829,-0.8632775,-1.432604,-0.5937797,0.7286112,1.435557,-0.01364946,0.01869853,-0.002928022,-0.006497133,-1.065737,-0.09639178,0.008534633,0.807333,1.50099,0.1933569,0.3076411,1.531716,0.1243552,45.59722,283.6746,356.5426,True
3,2.744442,0.06275615,0.07798389,-0.007379048,-1.466758,-1.785064,1.891888,0.5796568,1.346903,0.00756678,-1.361667,0.009551435,0,0,0.03787562,-0.01236861,0.04343929,-0.8629782,-1.431516,-0.5946783,0.7283559,1.435618,-0.01365253,0.0174005,-0.02301836,-0.01636802,-1.066296,-0.09743427,0.008872854,0.8071847,1.500966,0.1933806,0.3077388,1.531977,0.1253277,45.5374,283.5461,356.2298,True
3,2.755553,0.0489476,0.05877653,-0.007192273,-1.466832,-1.785003,1.891793,0.5794499,1.347064,0.007505029,-1.361957,-0.02738436,0,0,0.03694937,0.002534559,0.05305847,-0.8625361,-1.430227,-0.5958772,0.7281632,1.435625,-0.01364642,0.01301884,-0.0238524,-0.03023297,-1.067736,-0.09775825,0.008704276,0.8073242,1.500931,0.1932219,0.3078149,1.532246,0.1265193,45.51402,283.3268,355.7,True
3,2.766664,0.03722445,0.03317242,-0.01234061,-1.467184,-1.784583,1.891757,0.5791636,1.347163,0.007387459,-1.36226,-0.0266985,0,0,0.03386392,0.01958296,0.05737059,-0.8622389,-1.42893,-0.5969172,0.7279158,1.435624,-0.01359874,0.01411053,-0.01852088,-0.03123241,-1.068106,-0.09776824,0.008480304,0.8069639,1.500931,0.1932424,0.3078243,1.532545,0.1277195,45.50476,283.088,355.1204,True
3,2.777775,0.02980328,0.01398267,-0.01221815,-1.467614,-1.784361,1.891711,0.5788176,1.34715,0.007376552,-1.362479,-0.01940182,0,0,0.0360631,0.0302212,0.05950503,-0.8620301,-1.427629,-0.5982189,0.7276654,1.435677,-0.01361912,0.01516443,-0.01097822,-0.0375249,-1.068738,-0.09760858,0.00818922,0.8068216,1.500894,0.1932434,0.307789,1.532787,0.1287211,45.51336,282.9117,354.6197,True
3,2.788886,0.01495129,0.007577383,-0.006719839,-1.46769,-1.784537,1.892157,0.5785439,1.347229,0.007454306,-1.362602,-0.01077383,0,0,0.04347081,0.02486048,0.05625686,-0.8615523,-1.427196,-0.5992355,0.7274008,1.435689,-0.01354203,0.01844778,-0.003565267,-0.03752317,-1.070263,-0.09771644,0.007406784,0.8069439,1.50104,0.1933295,0.3076949,1.532955,0.1293448,45.52702,282.7935,354.2375,True
3,2.799997,0.01507586,0.005473471,0.005002592,-1.467834,-1.784972,1.892018,0.5783069,1.347267,0.007468104,-1.362564,0.003791565,0,0,0.03906379,0.009986471,0.04560706,-0.8612083,-1.427553,-0.5992914,0.7271218,1.435748,-0.01356015,0.02179291,0.005874667,-0.02889381,-1.07028,-0.09724985,0.006826481,0.8068192,1.501037,0.1933259,0.3074979,1.533059,0.1294903,45.50265,282.7247,354.0422,True
3,2.811108,0.009909538,-0.01048645,0.01787746,-1.468606,-1.785402,1.892205,0.5781386,1.347271,0.00748384,-1.362731,-0.01519482,0,0,0.02182724,-0.01440528,0.03395912,-0.8606788,-1.428622,-0.598354,0.7269163,1.435771,-0.01354685,0.02188001,0.007888784,-0.02140896,-1.070291,-0.09719233,0.006564692,0.806622,1.501113,0.1934332,0.3071763,1.53309,0.1291991,45.45967,282.7647,354.1454,True
3,2.822219,0.01320862,-0.02647103,0.02321177,-1.469873,-1.785486,1.891721,0.5780144,1.347166,0.007247031,-1.362357,0.03551371,0,0,0.009990399,-0.02818266,0.02655738,-0.8601488,-1.42938,-0.5975822,0.7266533,1.43579,-0.01355869,0.01986167,0.007747137,-0.0106657,-1.068967,-0.09718207,0.006283995,0.8055487,1.500828,0.1933649,0.306752,1.533049,0.1286406,45.45861,282.901,354.4946,True
3,2.83333,0.01632952,-0.03606933,0.0146844,-1.470484,-1.785225,1.891507,0.5778127,1.347085,0.007240742,-1.362181,0.0145372,0,0,0.0173526,-0.02926368,0.01265503,-0.860258,-1.430029,-0.5976445,0.7264726,1.435737,-0.01351556,0.01232457,0.009860368,-0.008427769,-1.068964,-0.09755905,0.008273643,0.8050611,1.501706,0.1925291,0.3062682,1.53298,0.1279973,45.5132,283.0869,354.929,True
3,2.844441,0.01611132,-0.04144673,-0.007673591,-1.470818,-1.784186,1.891226,0.5776799,1.34707,0.007146537,-1.361604,0.05314939,0,0,0.02377135,-0.01436899,0.005177655,-0.8606383,-1.429797,-0.5982765,0.7263188,1.43571,-0.01354986,0.003743929,0.002503758,-0.0106112,-1.069615,-0.09763721,0.008344483,0.8054037,1.501261,0.1929536,0.3057967,1.532875,0.1273772,45.6044,283.26,355.2839,True
3,2.855552,0.01276199,-0.04254094,-0.02148679,-1.470935,-1.783397,1.891334,0.5775254,1.34706,0.007297188,-1.361337,0.02220096,0,0,0.01746261,-0.009024164,0.01375026,-0.8603252,-1.429373,-0.5985414,0.7261393,1.435685,-0.01353833,0.0005723378,0.001413399,-0.007399593,-1.069572,-0.0976472,0.008445417,0.805275,1.501291,0.1929246,0.3053709,1.532783,0.1267926,45.68619,283.3777,355.5075,True
3,2.866663,0.01267811,-0.03083444,-0.02683878,-1.470736,-1.783006,1.891222,0.5773234,1.346998,0.007231176,-1.361192,0.01308182,0,0,0.003695732,0.004896062,0.01492603,-0.8604615,-1.428653,-0.5986192,0.7259817,1.435628,-0.01360694,-0.0004969491,-0.0007232083,-0.00635501,-1.069606,-0.09767849,0.008481902,0.805181,1.501265,0.1927887,0.3049929,1.532742,0.1262839,45.72056,283.403,355.6398,True
3,2.877774,0.004159963,-0.006338034,-0.02148067,-1.470001,-1.783167,1.891482,0.5771599,1.347016,0.007187635,-1.361342,-0.01402032,0,0,-0.001563312,0.01663972,0.01604543,-0.8606064,-1.427853,-0.5989249,0.7258363,1.435636,-0.01362029,-0.003687256,0.006828425,-0.01047987,-1.069893,-0.09712016,0.008428106,0.805079,1.501034,0.1929717,0.3046714,1.532762,0.1258523,45.72678,283.3553,355.6925,True
3,2.888885,0.003117627,0.01069392,-0.01723986,-1.469681,-1.783313,1.891278,0.5769589,1.346864,0.00695613,-1.3613,0.004816164,0,0,-0.003634469,0.01983791,0.02138752,-0.860487,-1.427218,-0.5993793,0.7256839,1.435621,-0.01364446,-0.003807375,0.005925789,-0.02114486,-1.070452,-0.09694678,0.00849575,0.8046379,1.500787,0.1930997,0.3044254,1.532792,0.1255346,45.69715,283.3249,355.7586,True
3,2.899997,-6.297417E-05,0.01921701,-0.01403065,-1.469164,-1.783439,1.891407,0.576803,1.34692,0.006882429,-1.361459,-0.01507742,0,0,0.002769243,0.0262011,0.01816386,-0.8606485,-1.426582,-0.6000704,0.7255218,1.435658,-0.01364917,-0.007000852,0.01240071,-0.0252805,-1.070879,-0.09653933,0.008493087,0.8044856,1.500725,0.193115,0.30426,1.532792,0.1253595,45.66037,283.316,355.7982,True
3,2.911108,0.003205734,0.0160358,-0.009801642,-1.469145,-1.783377,1.890926,0.5766504,1.346892,0.007028282,-1.361282,0.0170781,0,0,0.006027028,0.03363483,0.02134991,-0.860723,-1.4257,-0.6008749,0.7253594,1.435714,-0.01362354,-0.007090669,0.01577884,-0.03802182,-1.0718,-0.09630723,0.008255,0.8042827,1.500761,0.1931778,0.3041787,1.53273,0.1253621,45.63166,283.3015,355.7764,True
3,2.922219,0.005316733,0.004312219,-0.01405796,-1.469397,-1.782969,1.89076,0.5765111,1.346908,0.006966293,-1.36135,-0.007332416,0,0,0.002850601,0.03044622,0.02669156,-0.860446,-1.425124,-0.6011934,0.725184,1.435738,-0.01359895,-0.003876071,0.02003348,-0.03905663,-1.072267,-0.09589218,0.007981228,0.8041162,1.50073,0.1932065,0.3041434,1.532631,0.1255001,45.61303,283.2654,355.6609,True
3,2.93333,0.00956054,-0.01699289,-0.01937702,-1.470147,-1.782333,1.890536,0.5762143,1.347294,0.007114947,-1.361039,0.02913847,0,0,0.003930641,0.03256569,0.02774873,-0.8604413,-1.424527,-0.6016179,0.7249432,1.435726,-0.01356432,-0.008028708,0.0285551,-0.03679183,-1.073045,-0.09513264,0.007400126,0.8041759,1.500389,0.1932978,0.3040939,1.532595,0.1257432,45.61045,283.2267,355.5518,True
3,2.944441,0.007371351,-0.03086545,-0.02784583,-1.470767,-1.781461,1.890441,0.5760443,1.347313,0.007044762,-1.361035,-0.001457039,0,0,0.005059168,0.03040965,0.03945716,-0.8598836,-1.423572,-0.6023104,0.7247465,1.43576,-0.01353943,-0.01116994,0.02527652,-0.02934483,-1.073043,-0.09489668,0.007473363,0.8037403,1.500343,0.1931691,0.3040108,1.532654,0.1260474,45.61121,283.1756,355.4286,True
3,2.955552,0.004118097,-0.06072481,-0.03946083,-1.472089,-1.780166,1.890362,0.5757842,1.347384,0.00702104,-1.36107,-0.00283911,0,0,0.002991045,0.0304067,0.04905435,-0.8594154,-1.422569,-0.6029317,0.7245512,1.435833,-0.01353937,-0.01105475,0.02510484,-0.01762839,-1.072823,-0.09462225,0.007448063,0.8035431,1.500303,0.1931491,0.3038585,1.532853,0.1263109,45.61852,283.1011,355.2507,True
3,2.966663,-0.0001670402,-0.07247809,-0.04471425,-1.473187,-1.779134,1.890317,0.5755644,1.347365,0.006926805,-1.36121,-0.01288447,0,0,0.001933541,0.02614279,0.05438186,-0.8588295,-1.421799,-0.6033386,0.7243373,1.435818,-0.01355904,-0.007881054,0.01757467,-0.01458385,-1.073068,-0.09476965,0.007515973,0.8032641,1.500574,0.1932043,0.3035918,1.533257,0.1264468,45.61462,283.0298,355.0961,True
3,2.977774,0.006296365,-0.09696202,-0.04259381,-1.474897,-1.778132,1.889946,0.5752482,1.347396,0.006890923,-1.361366,-0.01392402,0,0,0.005091246,0.02400107,0.0500925,-0.858634,-1.421403,-0.6037639,0.7240469,1.435853,-0.01357046,-0.0006186664,0.00167171,-0.02341196,-1.073607,-0.09537512,0.007540474,0.803118,1.500549,0.1931603,0.3033325,1.533579,0.1263443,45.58146,282.9442,354.9518,True
3,2.988885,0.0170677,-0.1075869,-0.03415445,-1.476471,-1.777551,1.889182,0.5749953,1.347276,0.006697476,-1.36148,-0.009956505,0,0,0.008229822,0.01759503,0.04686661,-0.8582516,-1.421171,-0.6040622,0.7237554,1.435886,-0.01358896,0.005643791,0.000569066,-0.02775831,-1.07418,-0.09629951,0.008883506,0.8029759,1.500801,0.1926178,0.3030423,1.533815,0.1259377,45.52799,282.8926,354.9039,True
3,2.999996,0.03102912,-0.1149941,-0.02469215,-1.477968,-1.777101,1.888308,0.5746717,1.347355,0.006669104,-1.361328,0.01407903,0,0,0.02087603,0.01649845,0.02654154,-0.8586835,-1.4213,-0.6046643,0.7233884,1.435934,-0.01358077,0.00147327,0.009072383,-0.02439636,-1.074345,-0.09587087,0.008823053,0.8028102,1.500807,0.1925658,0.3027085,1.533954,0.1252384,45.47735,282.9142,355.0199,True
3,3.011107,0.04502776,-0.1064167,-0.008863326,-1.479089,-1.777331,1.887321,0.5742834,1.347433,0.006650627,-1.360917,0.03663236,0,0,0.05263118,0.0110533,-0.0003086485,-0.8594425,-1.422072,-0.6057876,0.7231057,1.435947,-0.01357171,0.0003926028,0.01016274,-0.02653114,-1.075135,-0.09589005,0.008904812,0.8027372,1.500683,0.1927451,0.3022828,1.534092,0.1243142,45.44509,283.0145,355.2891,True
3,3.022218,0.04933228,-0.09041167,-0.001486342,-1.479585,-1.77743,1.886639,0.5739903,1.347539,0.006631583,-1.360564,0.03031727,0,0,0.05471065,0.007855568,-0.005654214,-0.8596503,-1.422304,-0.606324,0.7227972,1.436027,-0.0135594,0.002569307,0.0122319,-0.02332597,-1.075282,-0.09566408,0.008694156,0.8025546,1.500684,0.1927106,0.3018005,1.534246,0.1232646,45.44305,283.1786,355.6752,True
3,3.033329,0.04723004,-0.06056061,0.006991602,-1.479242,-1.777908,1.886256,0.5736415,1.347672,0.006890446,-1.360268,0.02548698,0,0,0.04093052,-0.005956503,0.01572184,-0.8585626,-1.422086,-0.6063879,0.722558,1.436102,-0.01366025,0.007993227,0.02067969,-0.01999303,-1.074441,-0.09495767,0.007978564,0.8016291,1.50032,0.1932179,0.3012603,1.534539,0.1222454,45.44954,283.3828,356.1501,True
3,3.04444,0.03749521,-0.01689936,0.00271844,-1.477774,-1.778058,1.886425,0.5731933,1.348012,0.007188231,-1.360353,-0.009376481,0,0,0.03892953,-0.01024641,0.03916464,-0.85741,-1.421435,-0.6071743,0.7222569,1.436179,-0.0136506,0.01347317,0.02904176,-0.01140219,-1.074297,-0.09425859,0.007151653,0.8013322,1.50031,0.1932496,0.3007533,1.534922,0.1214183,45.44845,283.5929,356.6167,True
3,3.055551,0.03631495,0.02890118,0.0004953025,-1.475962,-1.778575,1.88613,0.5728118,1.348182,0.007201761,-1.360692,-0.031104,0,0,0.04018642,0.001431733,0.0594175,-0.8564358,-1.419955,-0.6086018,0.721926,1.436206,-0.01360482,0.01447444,0.01945162,-0.01155168,-1.074441,-0.09433063,0.006969226,0.8010778,1.500308,0.1932381,0.3003817,1.535295,0.120912,45.42672,283.7408,356.9805,True
3,3.066662,0.04694502,0.04597469,0.002478115,-1.475048,-1.77899,1.885409,0.5724323,1.348341,0.007278591,-1.361375,-0.06206084,0,0,0.0391128,0.004639408,0.05516899,-0.8562105,-1.419447,-0.6093891,0.7215848,1.436226,-0.01358879,0.0165328,0.007724815,-0.01174474,-1.074599,-0.09461918,0.006739129,0.8008077,1.500267,0.1933644,0.3001601,1.53564,0.1208663,45.35414,283.8055,357.2076,True
3,3.077773,0.07259151,0.06522806,0.01389109,-1.473914,-1.779942,1.883787,0.571924,1.348465,0.007215589,-1.36155,-0.01391872,0,0,0.0380062,0.01425348,0.041344,-0.8564993,-1.419011,-0.61005,0.7211485,1.436124,-0.01355693,0.01540957,-0.008323211,-0.00664096,-1.07453,-0.09532346,0.006942861,0.8005242,1.500248,0.1933597,0.30005,1.535946,0.1213379,45.26555,283.7159,357.127,True
3,3.088884,0.05548283,0.1003393,0.01397599,-1.47199,-1.780564,1.883704,0.5713272,1.348435,0.007220089,-1.361332,0.0190906,0,0,0.04109125,0.01852589,0.02215913,-0.8569083,-1.41896,-0.6104916,0.7206535,1.436255,-0.01346129,0.01868145,-0.003041366,-0.004435392,-1.074064,-0.09499416,0.006216883,0.8000622,1.499819,0.1933633,0.3000382,1.53617,0.1222314,45.20893,283.5624,356.7672,True
3,3.099995,0.03946527,0.1141536,0.01304273,-1.470366,-1.781219,1.883848,0.5708885,1.34849,0.007182747,-1.360534,0.07128143,0,0,0.0345716,0.005791712,0.01259185,-0.8568321,-1.419476,-0.610323,0.7202024,1.436282,-0.01347852,0.01346054,0.00759956,-0.001031904,-1.073967,-0.09450307,0.00599158,0.7996798,1.499768,0.1934302,0.3000309,1.536427,0.1233653,45.18152,283.42,356.2879,True
3,3.111106,0.01285464,0.1204979,0.01755425,-1.469064,-1.781884,1.884815,0.5703952,1.348661,0.007142097,-1.361025,-0.04919736,0,0,0.01092578,-0.02069872,0.0009837961,-0.856438,-1.420972,-0.6087003,0.7197461,1.436273,-0.01342335,0.005221656,0.03308812,0.006850047,-1.074102,-0.0934952,0.005250688,0.7996242,1.499811,0.1936477,0.2999855,1.536738,0.1245668,45.12742,283.2819,355.7948,True
3,3.122217,0.00854785,0.116216,0.01228123,-1.467957,-1.782205,1.884907,0.5700121,1.348747,0.007140934,-1.361662,-0.0553606,0,0,-0.005215192,-0.03657513,-0.01172179,-0.8563197,-1.422408,-0.6071762,0.7192817,1.436296,-0.01332688,4.797429E-05,0.03827873,0.01869704,-1.07349,-0.09279652,0.005091432,0.7992311,1.499813,0.1937438,0.2999404,1.536874,0.1257064,45.03879,283.0944,355.3072,True
3,3.133328,0.005220883,0.09804099,-0.004687501,-1.467628,-1.781617,1.884772,0.5697422,1.348776,0.007028222,-1.362604,-0.08464564,0,0,-0.001981525,-0.03127343,-0.009604794,-0.8562537,-1.422662,-0.6070801,0.7187309,1.436236,-0.01323453,-0.01045575,0.0370438,0.03476193,-1.072572,-0.092533,0.00548478,0.7987988,1.499876,0.193842,0.2998558,1.536842,0.1266772,44.99525,282.9369,354.8904,True
3,3.144439,0.01898018,0.0703485,-0.01755012,-1.467469,-1.781019,1.884226,0.5692868,1.34887,0.007271588,-1.362644,-0.0001338923,0,0,-0.002876497,-0.0185113,0.005337331,-0.8559309,-1.422009,-0.6076053,0.7183211,1.436269,-0.01309407,-0.01572899,0.02192181,0.05163063,-1.071591,-0.09282927,0.006126069,0.7980068,1.500385,0.1935129,0.2996625,1.536711,0.1274042,44.99564,282.8324,354.5905,True
3,3.15555,0.02315261,0.02237748,-0.03559424,-1.468379,-1.779665,1.883683,0.5688653,1.348766,0.007278293,-1.362403,0.02092291,0,0,-0.01432397,-0.00358789,0.03526601,-0.8550819,-1.420539,-0.6080484,0.71789,1.436248,-0.01293567,-0.001082219,-0.00899096,0.04570679,-1.071269,-0.09413183,0.006272277,0.7976241,1.500403,0.1935084,0.2993324,1.536565,0.12784,45.05328,282.7377,354.3755,True
3,3.166661,0.01570234,-1.337565E-05,-0.03866639,-1.468753,-1.778987,1.883784,0.5683618,1.348701,0.00739783,-1.361883,0.04691755,0,0,-0.01849693,-0.004655778,0.05020521,-0.8541908,-1.419851,-0.6080804,0.7174339,1.436266,-0.01279253,0.006042973,-0.03221253,0.02717742,-1.071723,-0.09536886,0.00642967,0.7971318,1.500492,0.1935827,0.2988505,1.5365,0.12792,45.12416,282.6565,354.2648,True
3,3.177772,-0.000129276,-0.02985383,-0.02991377,-1.46998,-1.778522,1.884227,0.5679057,1.348513,0.007461578,-1.361508,0.03242753,0,0,-0.02382376,-0.01956891,0.06193247,-0.8528517,-1.419959,-0.6075571,0.7169518,1.436209,-0.01270264,0.01323459,-0.04692827,0.009842482,-1.072196,-0.09650657,0.006511163,0.796777,1.500546,0.1936006,0.2982012,1.536597,0.1276803,45.15263,282.6261,354.3195,True
3,3.188883,-0.008481657,-0.04798093,-0.01806672,-1.471448,-1.778247,1.884379,0.5675147,1.348181,0.007257462,-1.361627,-0.01166924,0,0,-0.01863693,-0.0408989,0.05760196,-0.8517615,-1.420946,-0.6068612,0.7163773,1.436181,-0.01267844,0.01645453,-0.04483262,0.01090457,-1.072055,-0.09692002,0.006450443,0.7964532,1.500494,0.1936399,0.2974692,1.53671,0.1271129,45.14822,282.631,354.4626,True
3,3.199994,-0.009283658,-0.07030288,0.003300243,-1.473072,-1.778543,1.884509,0.5669317,1.347971,0.007387787,-1.361936,-0.02699694,0,0,-0.008193783,-0.05476601,0.03620421,-0.8514041,-1.422367,-0.6061856,0.7157967,1.43612,-0.01261315,0.01219733,-0.04268068,0.01097588,-1.071915,-0.09745398,0.006886934,0.7961655,1.500422,0.1934985,0.2967261,1.536719,0.1263283,45.12244,282.723,354.7733,True
3,3.211105,0.005967028,-0.09257609,0.03091007,-1.475107,-1.779468,1.883848,0.5663927,1.347992,0.007862717,-1.361908,0.004097097,0,0,0.01584806,-0.06757507,-0.02469395,-0.8526525,-1.425481,-0.605165,0.7151825,1.436028,-0.0126043,0.007997482,-0.03843788,0.01427574,-1.071653,-0.09779047,0.007101852,0.7958295,1.500443,0.1934831,0.2960366,1.536517,0.1254354,45.11554,282.87,355.1382,True
3,3.222216,0.02754049,-0.1084394,0.05415615,-1.476782,-1.780187,1.882956,0.5658643,1.348041,0.008367568,-1.361763,0.01292469,0,0,0.03042261,-0.05902878,-0.08443305,-0.8548151,-1.428009,-0.6043392,0.7145982,1.435931,-0.01263678,0.002679919,-0.0383765,0.01726194,-1.075191,-0.0969143,0.007117032,0.7967548,1.502427,0.1920834,0.2953869,1.536173,0.1245229,45.1244,283.0576,355.5278,True
3,3.233327,0.03721455,-0.11373,0.0615262,-1.478414,-1.780613,1.88228,0.5654018,1.348008,0.00859943,-1.361067,0.06336053,0,0,0.03555291,-0.04620354,-0.1249265,-0.8570532,-1.430149,-0.6035178,0.7140779,1.435872,-0.01259094,0.007916818,-0.04366005,0.01180546,-1.075257,-0.09765985,0.007217699,0.7965736,1.502595,0.1919347,0.2946661,1.535955,0.1237704,45.13645,283.3474,356.081,True
3,3.244438,0.04361879,-0.1158772,0.06040756,-1.48025,-1.780741,1.881325,0.565001,1.347802,0.008558959,-1.360416,0.05646712,0,0,0.03034435,-0.03446999,-0.1163475,-0.8577057,-1.430757,-0.6032577,0.7137809,1.435808,-0.01258448,0.01203484,-0.05101438,0.003136119,-1.075489,-0.09849315,0.007452324,0.7964132,1.502745,0.1917458,0.2938626,1.536056,0.1233857,45.18895,283.6924,356.7097,True
3,3.255549,0.03607084,-0.1105746,0.05193579,-1.481087,-1.780534,1.881096,0.5645745,1.347729,0.008794457,-1.360207,0.01689992,0,0,0.02836942,-0.03236683,-0.09395943,-0.8577829,-1.431289,-0.6031647,0.7132876,1.435789,-0.01253507,0.01296953,-0.06476407,-0.004499653,-1.075304,-0.0999037,0.007377223,0.7948866,1.501427,0.1923023,0.29311,1.53637,0.1234576,45.25786,283.9094,357.0766,True
3,3.26666,0.03281191,-0.1041932,0.04661087,-1.481897,-1.780356,1.880759,0.5641665,1.347641,0.0090096,-1.360013,0.01704249,0,0,0.0233712,-0.03349266,-0.04279414,-0.8564806,-1.43083,-0.6036167,0.7128208,1.435823,-0.01236621,0.01291356,-0.06894723,-0.00882449,-1.075591,-0.1006672,0.007374027,0.7946665,1.501214,0.1927119,0.2925689,1.53667,0.1238688,45.3186,283.9559,357.0202,True
3,3.277771,0.04239986,-0.08818765,0.0496726,-1.482528,-1.780806,1.880017,0.5637009,1.347668,0.009159386,-1.360466,-0.04303287,0,0,0.03524072,-0.03359305,-0.01943406,-0.8557945,-1.430779,-0.6044313,0.7123632,1.435855,-0.01228181,0.01074301,-0.07317773,-0.009930531,-1.075748,-0.1017337,0.007825432,0.7944667,1.501263,0.1926651,0.2922806,1.536863,0.1243927,45.32719,283.9136,356.7343,True
3,3.288882,0.06275414,-0.06574588,0.06539024,-1.483015,-1.78188,1.878839,0.5631671,1.347785,0.009240597,-1.360835,-0.03215058,0,0,0.05226448,-0.04007683,-0.01742775,-0.8556481,-1.431726,-0.6049237,0.7118583,1.435941,-0.0122081,0.009704886,-0.06891008,-0.009857785,-1.075805,-0.1024332,0.008111456,0.7942426,1.501245,0.1926196,0.2921706,1.536984,0.1249043,45.25941,283.8288,356.4632,True
3,3.299993,0.0745513,-0.04012664,0.07799566,-1.483036,-1.783213,1.877741,0.5627136,1.347883,0.009410977,-1.360807,0.002640121,0,0,0.05964826,-0.04222938,-0.02706711,-0.8558505,-1.432782,-0.6051427,0.7114058,1.435971,-0.01212206,0.01618512,-0.05508326,-0.009739217,-1.076222,-0.1021762,0.007638745,0.7931788,1.50053,0.1933136,0.2921368,1.537114,0.1253324,45.15706,283.7812,356.288,True
3,3.311104,0.08416878,0.0003910623,0.08846855,-1.482351,-1.784938,1.876655,0.562171,1.347922,0.009540468,-1.360477,0.0286583,0,0,0.05853074,-0.03580742,-0.04090044,-0.8565882,-1.433704,-0.6052036,0.7109849,1.435954,-0.01205084,0.01417346,-0.0380262,-0.009469265,-1.076317,-0.10203,0.00745259,0.7928984,1.500509,0.1934098,0.2920661,1.537401,0.125671,45.05758,283.8287,356.2497,True
3,3.322215,0.07979146,0.02060625,0.08100962,-1.481659,-1.785839,1.876004,0.5617669,1.348043,0.009644717,-1.360333,0.01072732,0,0,0.05328545,-0.0187337,-0.04190262,-0.8572322,-1.433698,-0.6056314,0.710608,1.436012,-0.01199657,0.01004571,-0.02632645,-0.004997092,-1.07625,-0.1016995,0.007201454,0.7926726,1.500355,0.1936287,0.2919334,1.537878,0.1259583,44.97097,283.9538,356.3365,True
3,3.333326,0.06882884,0.03865303,0.05443908,-1.480343,-1.785758,1.875686,0.5612586,1.348245,0.01015899,-1.360313,0.000384301,0,0,0.03428532,-0.009080317,-0.02364886,-0.8569844,-1.433147,-0.6058369,0.7102718,1.43594,-0.01191312,0.008005211,-0.02106417,0.0004275862,-1.076095,-0.1017724,0.007216367,0.7924068,1.500327,0.1937352,0.2918158,1.538404,0.1262706,44.87775,284.0879,356.4795,True
3,3.344437,0.05038234,0.05025875,0.02370328,-1.479301,-1.785249,1.87571,0.5608904,1.348379,0.01017898,-1.360716,-0.0380303,0,0,0.02806609,-0.0005562566,-0.004421345,-0.8566745,-1.432489,-0.6064521,0.7099228,1.435942,-0.01187569,0.007993936,-0.02107985,0.0004284813,-1.076087,-0.1023627,0.00756391,0.792134,1.50043,0.1937251,0.2917584,1.538869,0.1266866,44.77333,284.1695,356.5502,True
3,3.355548,0.04377635,0.05446428,0.003518816,-1.478418,-1.78491,1.875395,0.5605185,1.348495,0.0102464,-1.361354,-0.05781657,0,0,0.03458573,0.001510442,0.01365047,-0.8561461,-1.431867,-0.6074393,0.7095513,1.436035,-0.01177964,0.004909323,-0.01584156,0.007994102,-1.075772,-0.1023558,0.007611847,0.7918966,1.500399,0.1938168,0.2917438,1.539255,0.1272121,44.6646,284.1405,356.4898,True
3,3.366659,0.04155933,0.0576232,-0.004988675,-1.477821,-1.784745,1.874886,0.5601516,1.348583,0.01019907,-1.362064,-0.06353414,0,0,0.04424436,-0.001761265,0.02743454,-0.855475,-1.43154,-0.6084681,0.7092092,1.436068,-0.01165727,0.005947607,-0.01472997,0.004805372,-1.075815,-0.1023819,0.007559916,0.791693,1.50035,0.1938755,0.2917035,1.539573,0.1278343,44.54772,283.9725,356.2602,True
3,3.37777,0.03623324,0.06827462,-0.002831876,-1.476709,-1.785135,1.874701,0.5597377,1.348579,0.01030853,-1.362275,-0.01762689,0,0,0.05173033,-0.01354142,0.0412151,-0.8544342,-1.431416,-0.6093808,0.7088406,1.436166,-0.01151735,0.009076789,-0.01250012,-0.003713881,-1.076095,-0.1025201,0.007382549,0.7914906,1.500396,0.1939034,0.2916257,1.539755,0.1284053,44.48328,283.7635,355.8767,True
3,3.388881,0.02664165,0.08637581,0.001482995,-1.475264,-1.785748,1.874949,0.5591362,1.348903,0.01045889,-1.362172,0.008989451,0,0,0.05170184,-0.02526743,0.04652045,-0.8535708,-1.431663,-0.6097203,0.7084677,1.436273,-0.01139435,0.01114557,-0.009182751,-0.0122062,-1.076501,-0.1023101,0.007069361,0.7913058,1.500354,0.1939653,0.2914528,1.539875,0.1288216,44.46227,283.6296,355.5736,True
3,3.399992,0.02236613,0.08743667,0.0004609767,-1.474219,-1.786112,1.874879,0.5587239,1.349115,0.01054978,-1.362202,-0.003675462,0,0,0.05171844,-0.02740529,0.05077794,-0.8527703,-1.43158,-0.610351,0.7081139,1.436371,-0.01127777,0.007875932,-0.006892234,-0.0216883,-1.07646,-0.1024068,0.007073089,0.7898238,1.500283,0.193923,0.2911761,1.53996,0.1290419,44.45679,283.588,355.4549,True
3,3.411103,0.0212657,0.06503757,-0.006929506,-1.474272,-1.785823,1.874702,0.5583491,1.34937,0.01041719,-1.362442,-0.02176883,0,0,0.04856255,-0.02206423,0.05294092,-0.8522451,-1.431036,-0.6110868,0.7078128,1.436383,-0.01130319,0.006828688,-0.005835441,-0.02059695,-1.076652,-0.1024256,0.0070398,0.789572,1.500262,0.1939844,0.2907991,1.540015,0.1291618,44.43423,283.6158,355.5376,True
3,3.422215,0.02334893,0.0373258,-0.01647798,-1.47451,-1.785215,1.874361,0.558002,1.349549,0.01044562,-1.362347,0.009968171,0,0,0.03580403,-0.01347099,0.04984199,-0.8519197,-1.430545,-0.611379,0.7075145,1.436517,-0.01118624,0.01213413,-0.006887272,-0.02068643,-1.077174,-0.1017289,0.006581204,0.7890759,1.501031,0.1934927,0.2902838,1.540137,0.129315,44.43595,283.6476,355.6612,True
3,3.433326,0.02767424,0.00324542,-0.01644469,-1.475369,-1.784764,1.873916,0.5576644,1.349639,0.01043063,-1.36214,0.01833384,0,0,0.03578725,0.004668016,0.03282806,-0.8524347,-1.429988,-0.6121331,0.7072339,1.436635,-0.01108751,0.01212983,-0.009033259,-0.01965249,-1.077366,-0.1019217,0.006540724,0.7888145,1.501068,0.193536,0.289711,1.540269,0.1295211,44.51158,283.6309,355.6519,True
3,3.444437,0.03309174,-0.0148345,-0.01007261,-1.475977,-1.784594,1.873494,0.5573263,1.349892,0.01061872,-1.361844,0.02659274,0,0,0.04216521,0.01424199,0.02321683,-0.8526946,-1.429489,-0.6131452,0.7069485,1.436725,-0.01098588,0.01643221,-0.009091171,-0.01650991,-1.077587,-0.1017257,0.005974535,0.788718,1.500744,0.1941015,0.289112,1.540443,0.1296626,44.62496,283.5732,355.5096,True
3,3.455548,0.03743187,-0.0233355,-0.003701329,-1.476534,-1.78466,1.872975,0.5570292,1.350092,0.01073751,-1.361512,0.02949042,0,0,0.05076562,0.02271129,0.02850237,-0.8526003,-1.428566,-0.6145998,0.7067025,1.436842,-0.0108521,0.01548345,0.001505042,-0.01208287,-1.077558,-0.1013156,0.005618471,0.7885501,1.500749,0.1942512,0.2885357,1.540639,0.1296472,44.7121,283.53,355.408,True
3,3.466659,0.04068242,-0.01800752,0.001583693,-1.476815,-1.784805,1.872257,0.5567219,1.350268,0.01077926,-1.361259,0.02202775,0,0,0.05628715,0.02796629,0.05404766,-0.8515958,-1.426906,-0.6165676,0.7065163,1.437023,-0.01075131,0.01871488,0.0121803,-0.01515414,-1.077819,-0.1007817,0.005155614,0.7883766,1.500732,0.1943234,0.2880068,1.540868,0.1294451,44.76056,283.5707,355.4702,True
3,3.47777,0.04281912,0.005448367,0.006836106,-1.475991,-1.785343,1.871801,0.5564215,1.350337,0.01098078,-1.361016,0.02149792,0,0,0.04461208,0.01628105,0.07008281,-0.8504112,-1.426101,-0.6172382,0.7062716,1.437151,-0.01058862,0.02725644,0.01317368,-0.01416112,-1.077979,-0.1005457,0.004425108,0.7882841,1.500615,0.1945566,0.287533,1.541186,0.1291452,44.78044,283.676,355.7029,True
