loc,t,aDotUA,bDotUA,gDotUA,aUA,bUA,gUA,xUA,yUA,zUA,qE,qDotE,emgA,emgB,aDotSH,bDotSH,gDotSH,aSH,bSH,gSH,xSH,ySH,zSH,aDotUB,bDotUB,gDotUB,aUB,bUB,gUB,xUB,yUB,zUB,xHand,yHand,zHand,aHand,bHand,gHand,enable
2,0,-0.1312949,0.6624585,0.4655731,-1.522841,-1.967055,3.038575,0.7289317,1.223345,-0.008784503,-1.263025,0.02871731,0,0,0.2525688,-0.5887117,-0.2572542,-1.02557,-1.834295,0.002431732,0.7445822,1.399617,0.006212115,0.2774229,-0.3594372,0.06112941,-0.7460963,-0.2760393,0.1569827,0.8195024,1.512388,0.192366,0.4733092,1.007877,0.1284013,62.96851,108.7841,175.4006,True
2,0.01111111,-0.1185416,0.6198427,0.4580629,-1.527005,-1.972736,3.039969,0.7281473,1.222927,-0.007838637,-1.262564,0.0430821,0,0,0.2382293,-0.5013676,-0.2218289,-1.026805,-1.837356,0.00178485,0.7440324,1.399527,0.006568283,0.2731778,-0.3497184,0.04951363,-0.7464926,-0.2812144,0.1578943,0.8193259,1.512358,0.1923254,0.4739095,1.006824,0.1312235,62.81706,108.6357,175.0246,True
2,0.02222222,-0.08877134,0.5356975,0.4366459,-1.530806,-1.976229,3.040071,0.7274709,1.222567,-0.007041425,-1.262302,0.02366137,0,0,0.2258216,-0.4459721,-0.1960773,-1.028047,-1.840791,0.001529187,0.7431471,1.399286,0.006965935,0.2604431,-0.3388894,0.04221905,-0.746712,-0.2861002,0.1590746,0.8190842,1.512233,0.1920737,0.4742811,1.006006,0.1333782,62.7261,108.3215,174.749,True
2,0.03333334,-0.0602214,0.4440525,0.3971335,-1.533579,-1.978302,3.039906,0.7267594,1.222279,-0.006159097,-1.262271,0.003313869,0,0,0.2167292,-0.3575447,-0.1787829,-1.029359,-1.8419,-0.0001110538,0.7430358,1.399335,0.007265806,0.2541278,-0.3270829,0.03808939,-0.7469432,-0.290776,0.1599164,0.8188961,1.512177,0.1920285,0.4744712,1.00537,0.1351611,62.68485,107.8391,174.4416,True
2,0.04444445,-0.03396821,0.3534397,0.3395313,-1.535319,-1.979627,3.039544,0.7261443,1.222069,-0.005487889,-1.261598,0.0626571,0,0,0.2181356,-0.2893822,-0.1722393,-1.031033,-1.843142,-0.001977131,0.7426732,1.399402,0.007598102,0.2404135,-0.310956,0.03511251,-0.7469911,-0.2950764,0.1607026,0.8186924,1.512295,0.1918861,0.4745874,1.004895,0.1368194,62.63335,107.3721,174.1289,True
2,0.05555556,-0.02460992,0.3022558,0.3054526,-1.537355,-1.981414,3.039547,0.7254362,1.221866,-0.004789889,-1.261091,0.04339972,0,0,0.2194611,-0.2468069,-0.1583016,-1.032283,-1.844585,-0.003703658,0.7420034,1.399294,0.007909209,0.2255588,-0.2936563,0.02042398,-0.7476654,-0.2986997,0.1614491,0.8185773,1.51217,0.1918449,0.4745241,1.00457,0.1384696,62.56915,107.0291,173.7956,True
2,0.06666667,-0.001516014,0.2414831,0.257413,-1.538543,-1.982321,3.038871,0.7246928,1.221784,-0.004195333,-1.260856,0.02002707,0,0,0.2121943,-0.2233796,-0.1401063,-1.033291,-1.846839,-0.004637895,0.7412891,1.399156,0.008220404,0.2139177,-0.2743165,0.008934982,-0.7483328,-0.3026067,0.1624784,0.8184342,1.512146,0.1921606,0.4742185,1.004406,0.140087,62.52948,106.8902,173.5241,True
2,0.07777778,0.02692386,0.2031028,0.2156734,-1.539469,-1.98344,3.037692,0.7239819,1.221667,-0.003633022,-1.261153,-0.02826019,0,0,0.2027357,-0.2063155,-0.1293693,-1.034334,-1.8488,-0.005547365,0.7406371,1.39904,0.008580774,0.2033125,-0.2581219,-0.00577496,-0.7490833,-0.3058417,0.1630395,0.8182361,1.512028,0.192189,0.4737596,1.004426,0.1415466,62.54855,106.8608,173.3045,True
2,0.08888889,0.04585801,0.1849715,0.1867587,-1.540306,-1.984991,3.036624,0.7232482,1.221452,-0.003155738,-1.261167,-0.0004041079,0,0,0.1815774,-0.1934856,-0.1089989,-1.034919,-1.850892,-0.005634983,0.7398562,1.398813,0.00887844,0.1947774,-0.251632,-0.01312097,-0.7498583,-0.310082,0.1644973,0.8180609,1.512061,0.1923619,0.4732018,1.004613,0.1428322,62.61547,106.7761,173.0949,True
2,0.1,0.08488829,0.1636444,0.1406239,-1.540081,-1.986082,3.034253,0.7224753,1.221362,-0.002723128,-1.260995,0.01395708,0,0,0.1614677,-0.1987914,-0.07695391,-1.034654,-1.853642,-0.005284511,0.7393341,1.398733,0.009184271,0.1852942,-0.2322872,-0.023556,-0.7506892,-0.3126462,0.1646768,0.8179564,1.512016,0.1924251,0.4725025,1.004941,0.1439405,62.70232,106.7253,172.9568,True
2,0.1111111,0.1428307,0.1273742,0.06450579,-1.538167,-1.986068,3.030797,0.72157,1.221289,-0.002470672,-1.261136,-0.01525117,0,0,0.1595424,-0.1956732,-0.03858635,-1.03383,-1.856205,-0.005787315,0.738827,1.398597,0.009473473,0.1672905,-0.2161521,-0.02759234,-0.7515494,-0.3158135,0.1657706,0.8178577,1.512022,0.1921332,0.4716809,1.005379,0.1448903,62.838,106.6778,172.8779,True
2,0.1222222,0.1755804,0.09753314,0.02910169,-1.537385,-1.986107,3.027792,0.7206688,1.221254,-0.002109498,-1.260606,0.04755872,0,0,0.1724792,-0.1744515,-0.02688326,-1.033711,-1.857607,-0.007427822,0.7383604,1.398533,0.009751737,0.1544993,-0.2138697,-0.03175471,-0.7523057,-0.3189371,0.1668462,0.8178098,1.511948,0.1921369,0.4707735,1.00588,0.1457309,63.00311,106.6597,172.8481,True
2,0.1333333,0.2146143,0.06341897,-0.01807458,-1.535665,-1.985459,3.024152,0.7196691,1.22133,-0.001834631,-1.259706,0.07717586,0,0,0.1898025,-0.1255465,-0.01620627,-1.033632,-1.857153,-0.0105059,0.738179,1.398515,0.009983003,0.1363827,-0.1953983,-0.05920727,-0.7543143,-0.321032,0.1675304,0.8177445,1.512002,0.1922492,0.4696133,1.006423,0.1464947,63.13278,106.8466,172.9323,True
2,0.1444445,0.2451648,0.03995054,-0.05986416,-1.533743,-1.984963,3.020451,0.7187533,1.221387,-0.001620412,-1.259652,-0.00143514,0,0,0.2157073,-0.05963144,-0.007665604,-1.033518,-1.85528,-0.01467588,0.7379444,1.398357,0.01001814,0.1203544,-0.1833107,-0.08776765,-0.7563042,-0.3230096,0.1680585,0.8179126,1.511483,0.1922869,0.4680458,1.007041,0.1470792,63.24451,107.157,173.0741,True
2,0.1555556,0.2631649,0.02396642,-0.07598987,-1.532361,-1.984539,3.016804,0.7178795,1.221407,-0.001246899,-1.259586,0.00358326,0,0,0.2362471,-0.006479442,0.004075214,-1.033014,-1.853205,-0.01907063,0.7376058,1.398356,0.01017287,0.1054976,-0.1605941,-0.1109781,-0.7588608,-0.3232794,0.1675946,0.818223,1.511614,0.1922931,0.4662048,1.007815,0.1474117,63.36473,107.2602,173.1365,True
2,0.1666667,0.3077866,0.004835216,-0.09235352,-1.530812,-1.983694,3.011879,0.7167411,1.221508,-0.0009320676,-1.259774,-0.02187273,0,0,0.2483221,0.04880869,0.02651011,-1.032103,-1.850721,-0.02341318,0.7372205,1.398327,0.0104233,0.09072611,-0.1369309,-0.1234776,-0.7606281,-0.3240243,0.1674787,0.8183143,1.511351,0.1924673,0.4641512,1.008794,0.1474748,63.52388,107.3634,173.2955,True
2,0.1777778,0.3599017,0.004900459,-0.1024332,-1.529285,-1.983538,3.005999,0.715555,1.221558,-0.0004912019,-1.260254,-0.04742667,0,0,0.234768,0.08182895,0.05647776,-1.030561,-1.848368,-0.02682629,0.7370417,1.398333,0.0106363,0.08014579,-0.1207657,-0.1350055,-0.7626622,-0.3247389,0.1674494,0.8183134,1.511256,0.1925579,0.4620411,1.010005,0.1472886,63.76917,107.4142,173.524,True
2,0.1888889,0.4215738,-0.0003543342,-0.1168499,-1.527543,-1.983037,2.999201,0.7142942,1.221559,-3.507733E-05,-1.260028,0.01779014,0,0,0.217859,0.08718075,0.07894589,-1.028965,-1.847227,-0.0292961,0.7364261,1.398296,0.01093182,0.07485911,-0.1111059,-0.1402221,-0.7645482,-0.3260624,0.1678433,0.8179741,1.511364,0.1927033,0.459885,1.011413,0.1470044,64.06881,107.3405,173.7311,True
2,0.2,0.4885421,-0.02690975,-0.1376648,-1.525498,-1.981575,2.99146,0.7129829,1.22154,0.0004480481,-1.259422,0.04831304,0,0,0.1903069,0.08510458,0.111034,-1.026608,-1.8461,-0.03104154,0.7362649,1.398277,0.01115516,0.06315334,-0.09915736,-0.1560394,-0.7669254,-0.3264719,0.1678423,0.8178568,1.51127,0.1928057,0.4574635,1.01298,0.1468143,64.37109,107.2501,173.9269,True
2,0.2111111,0.5693465,-0.0918124,-0.1670556,-1.523227,-1.978147,2.982534,0.7116077,1.221521,0.0008815527,-1.258696,0.05814083,0,0,0.1648464,0.07129109,0.1473503,-1.02386,-1.845631,-0.03226206,0.73576,1.398071,0.01144505,0.04838289,-0.08521847,-0.1537108,-0.7686645,-0.3272591,0.1681917,0.8176885,1.511288,0.1931814,0.4547468,1.014705,0.1468755,64.7001,107.1919,174.1335,True
2,0.2222222,0.6278647,-0.1535342,-0.1866564,-1.521121,-1.973972,2.973364,0.7102373,1.221491,0.001300752,-1.257951,0.05903091,0,0,0.1638057,0.07555462,0.1484302,-1.022197,-1.844409,-0.0346962,0.7355692,1.398013,0.01163417,0.02611354,-0.07442693,-0.1481743,-0.7702533,-0.3277964,0.1692726,0.8175869,1.511304,0.1932897,0.451749,1.016607,0.1472468,65.06823,107.2326,174.3264,True
2,0.2333333,0.7387383,-0.2545739,-0.1970764,-1.519681,-1.967493,2.961323,0.708739,1.221547,0.001638383,-1.257123,0.06563241,0,0,0.1893089,0.1128325,0.1004479,-1.022816,-1.841494,-0.03919161,0.7353272,1.397803,0.01164624,0.01023373,-0.06580144,-0.1437502,-0.7717249,-0.3281225,0.1698993,0.8173432,1.511224,0.1933709,0.4484599,1.018721,0.1478512,65.46939,107.3916,174.4743,True
2,0.2444444,0.8498184,-0.343846,-0.1830122,-1.519362,-1.960556,2.94795,0.7071736,1.221569,0.002036184,-1.256878,0.01096537,0,0,0.2136268,0.1437625,0.03327953,-1.024865,-1.838549,-0.04392671,0.7351396,1.397713,0.01162115,-0.002536982,-0.05712907,-0.1521206,-0.7736813,-0.3287771,0.1710013,0.8172162,1.511124,0.1934005,0.4448409,1.021108,0.148473,65.91106,107.5913,174.5515,True
2,0.2555556,0.947293,-0.4330854,-0.1432621,-1.520531,-1.953027,2.934027,0.7054853,1.221694,0.002747118,-1.255438,0.1221119,0,0,0.2614957,0.233247,-0.06476209,-1.029264,-1.832179,-0.05174841,0.7350891,1.39766,0.01160944,-0.01519322,-0.02159825,-0.1837258,-0.776607,-0.3264998,0.1699299,0.8171637,1.511015,0.1935055,0.4408992,1.023827,0.1488883,66.38625,107.6885,174.546,True
2,0.2666667,1.002005,-0.4925939,-0.1138131,-1.521875,-1.945676,2.920788,0.7038114,1.221722,0.003384709,-1.25405,0.1091682,0,0,0.3064477,0.3226177,-0.1041977,-1.031841,-1.824764,-0.06033578,0.73476,1.397562,0.01152262,-0.02585003,-0.01182529,-0.1974447,-0.7793618,-0.3260636,0.1703645,0.8170834,1.510797,0.1934461,0.4363667,1.026979,0.1489671,66.86888,107.4725,174.3711,True
2,0.2777778,1.089845,-0.6021133,-0.08245441,-1.524293,-1.935568,2.905245,0.7018557,1.221865,0.004309833,-1.253466,0.03641183,0,0,0.3068809,0.3928745,-0.08060671,-1.032443,-1.81695,-0.06785202,0.7346852,1.397547,0.01145074,-0.03535804,0.002166755,-0.2047346,-0.7817789,-0.3247681,0.1701661,0.8168614,1.510688,0.1935177,0.4312477,1.030685,0.1486851,67.41945,106.7765,174.0242,True
2,0.2888889,1.201935,-0.7457178,-0.08639437,-1.526356,-1.922732,2.887726,0.6997368,1.221932,0.005100489,-1.254297,-0.09091354,0,0,0.2816084,0.4088723,-0.03463553,-1.031303,-1.811264,-0.07287873,0.7345135,1.397339,0.01148754,-0.04276019,0.006447881,-0.2004149,-0.784008,-0.3242344,0.1705358,0.8168337,1.510502,0.1935097,0.4257743,1.035025,0.1481483,68.11601,105.6825,173.5674,True
2,0.3,1.351137,-0.9117143,-0.1098198,-1.528308,-1.907559,2.867526,0.6974831,1.222097,0.005897075,-1.254217,-0.003097623,0,0,0.2401522,0.3866022,0.004932605,-1.030047,-1.807072,-0.07625722,0.7343779,1.397333,0.01153067,-0.05214675,0.01702663,-0.1810995,-0.7852309,-0.3230962,0.170629,0.8164709,1.510477,0.1935856,0.4202122,1.039965,0.1474807,68.99017,104.4703,173.0627,True
2,0.3111111,1.458729,-1.007447,-0.1287464,-1.530253,-1.893349,2.847113,0.69526,1.22227,0.006689399,-1.253496,0.04777724,0,0,0.221721,0.3601445,-0.03551356,-1.03205,-1.803774,-0.0797212,0.7341461,1.39736,0.01170787,-0.05709407,0.03375197,-0.1383167,-0.7851377,-0.3221622,0.1708863,0.816138,1.510602,0.1937732,0.4142053,1.045466,0.1468043,69.94916,103.1565,172.3554,True
2,0.3222222,1.594164,-1.116955,-0.1340372,-1.533512,-1.877473,2.824225,0.6926148,1.222472,0.007435471,-1.251976,0.1182757,0,0,0.2353935,0.3622974,-0.07392627,-1.034567,-1.799238,-0.08509891,0.7338362,1.397322,0.01179618,-0.06325321,0.05286657,-0.1253346,-0.7858781,-0.3205137,0.1707286,0.8156116,1.510596,0.1938139,0.4074984,1.051514,0.1459707,70.97445,101.9369,171.563,True
2,0.3333333,1.662589,-1.175403,-0.1196476,-1.537447,-1.863166,2.80321,0.6899347,1.222821,0.008376062,-1.251507,0.01746551,0,0,0.3193902,0.3747982,-0.119044,-1.0379,-1.794112,-0.09416299,0.7329588,1.397156,0.0119603,-0.06327122,0.07339643,-0.1603195,-0.788456,-0.3177307,0.1694492,0.8153777,1.510309,0.1938069,0.4000644,1.058163,0.1447183,72.05651,100.6077,170.6771,True
2,0.3444445,1.696878,-1.161555,-0.09234345,-1.541427,-1.850836,2.78298,0.686986,1.223257,0.009330004,-1.250544,0.06740995,0,0,0.3491107,0.364033,-0.1319942,-1.039917,-1.790195,-0.1009192,0.7325194,1.397051,0.01199234,-0.05190374,0.06085289,-0.2020366,-0.7919495,-0.3165146,0.1688702,0.8149822,1.510205,0.1938756,0.3922514,1.065436,0.142907,73.22675,98.89159,169.5997,True
2,0.3555556,1.729051,-1.101766,-0.05973643,-1.54556,-1.841459,2.762586,0.6840026,1.223648,0.01040107,-1.251898,-0.1506018,0,0,0.3753607,0.3470072,-0.1950126,-1.044412,-1.786909,-0.1076189,0.7315845,1.396862,0.01202491,-0.04462975,0.04487151,-0.2096596,-0.794308,-0.3159474,0.1687635,0.8146544,1.510091,0.1938123,0.384102,1.073362,0.140561,74.46632,96.39891,167.9898,True
2,0.3666667,1.768564,-1.047429,-0.03359866,-1.549665,-1.831439,2.741983,0.6807911,1.223956,0.01129097,-1.254333,-0.2382187,0,0,0.3848134,0.3448926,-0.2206349,-1.048003,-1.782918,-0.1139758,0.7307236,1.396682,0.01189864,-0.04341419,0.0424543,-0.1777184,-0.7950489,-0.3155183,0.1690758,0.8140738,1.510127,0.1939957,0.3762082,1.081846,0.1378391,75.819,93.11095,165.8471,True
2,0.3777778,1.7953,-1.028176,-0.02003545,-1.554165,-1.821572,2.721092,0.6777077,1.22443,0.01217887,-1.256532,-0.2156156,0,0,0.419758,0.3202766,-0.2410997,-1.051663,-1.780187,-0.1210678,0.7295647,1.396616,0.01179749,-0.04004987,0.02923481,-0.1277704,-0.7947773,-0.3157012,0.1695667,0.813489,1.510037,0.193903,0.3688744,1.090704,0.1351124,77.27914,89.07446,163.0739,True
2,0.3888889,1.813443,-1.026044,-0.01274735,-1.558923,-1.810803,2.7007,0.6742482,1.225013,0.01293615,-1.258365,-0.1844194,0,0,0.4526767,0.2892162,-0.2328089,-1.054125,-1.777992,-0.1281348,0.728363,1.396431,0.01166999,-0.03565665,0.02146997,-0.09376934,-0.7947145,-0.3156172,0.1696583,0.8130233,1.509657,0.1936458,0.3621458,1.099718,0.1328441,78.78734,84.27861,159.4245,True
2,0.4,1.804836,-1.028206,-0.02225047,-1.56341,-1.800188,2.680784,0.6707489,1.225604,0.01365763,-1.25975,-0.1440418,0,0,0.5209074,0.2664655,-0.2012305,-1.055587,-1.775702,-0.1374543,0.7269371,1.396404,0.01162103,-0.03243525,0.009543046,-0.07151354,-0.7948796,-0.3159393,0.1701009,0.8124385,1.50952,0.1934327,0.3557776,1.108694,0.131233,80.23109,78.87841,154.7833,True
2,0.4111111,1.759931,-0.9782028,-0.03043032,-1.567092,-1.791632,2.66274,0.6669433,1.226443,0.01442733,-1.26123,-0.1538287,0,0,0.5604098,0.2448976,-0.162053,-1.056309,-1.77332,-0.1460416,0.7256207,1.396279,0.01169738,-0.009256527,0.001145184,-0.1089926,-0.7971715,-0.3151759,0.1685802,0.8117309,1.509407,0.1929903,0.3495955,1.117519,0.1302266,81.48637,72.79192,149.075,True
2,0.4222222,1.727948,-0.8972605,-0.01859808,4.712449,-1.785181,2.644397,0.6632521,1.227129,0.01528624,-1.26268,-0.1491143,0,0,0.564697,0.238473,-0.1493032,-1.057979,-1.770503,-0.1536519,0.7243891,1.396227,0.01179063,-0.0007733554,-0.003100045,-0.1165269,-0.7985553,-0.314551,0.1673528,0.8110359,1.509392,0.1928702,0.3433468,1.126133,0.1295731,82.56465,65.93412,142.3102,True
2,0.4333333,1.66085,-0.7395825,0.01270109,4.709594,-1.78353,2.628456,0.6593437,1.227793,0.01607645,-1.264888,-0.2180418,0,0,0.5560975,0.221467,-0.1492992,-1.05993,-1.768652,-0.1605175,0.7225111,1.396238,0.01186454,0.01379544,-0.03077931,-0.134939,-0.800812,-0.3158394,0.1676545,0.8100865,1.509301,0.1925256,0.3370806,1.134456,0.1289749,83.47049,57.93279,134.3501,True
2,0.4444444,1.580046,-0.5968878,0.05578953,4.706605,-1.782716,2.613513,0.6553843,1.228437,0.01680243,-1.266115,-0.1233646,0,0,0.5486026,0.1745393,-0.1099325,-1.059695,-1.768261,-0.1662018,0.7163563,1.394666,0.0118804,0.02030753,-0.04172175,-0.1020357,-0.8008008,-0.3163074,0.1671403,0.8091404,1.509368,0.192423,0.3309678,1.142401,0.1283148,84.16068,48.26782,124.873,True
2,0.4555556,1.510758,-0.4776037,0.07437363,4.704352,-1.7824,2.599251,0.6513467,1.229348,0.01738176,-1.268187,-0.2053391,0,0,0.5518939,0.08588031,-0.007874466,-1.055979,-1.769992,-0.1715883,0.7139554,1.394606,0.0119355,0.02687474,-0.06685217,-0.03195932,-0.7989579,-0.3189861,0.1685057,0.8081598,1.509343,0.1920895,0.3252361,1.149882,0.1277001,84.56052,36.5553,113.561,True
2,0.4666667,1.483932,-0.4137425,0.06492355,4.702532,-1.780347,2.583483,0.647387,1.230016,0.0179657,-1.269976,-0.1719656,0,0,0.5549576,0.006946981,0.03561807,-1.053653,-1.772422,-0.1768853,0.7123799,1.394666,0.01195467,0.03640908,-0.1098461,0.01345275,-0.7974309,-0.3216932,0.1687991,0.8071835,1.508976,0.1916262,0.3200804,1.156778,0.1274675,84.6623,24.05402,101.5367,True
2,0.4777778,1.457946,-0.3190164,0.03621775,4.702734,-1.779808,2.567899,0.6436636,1.230886,0.01834485,-1.271075,-0.1102311,0,0,0.5669454,-0.1870299,0.05217724,-1.051015,-1.782199,-0.178798,0.7097208,1.394664,0.0120773,0.05656272,-0.1282346,0.02597013,-0.7972642,-0.3245403,0.1694998,0.8061352,1.508922,0.1913042,0.3153519,1.163072,0.1278518,84.5531,13.29575,91.05006,True
2,0.4888889,1.417172,-0.2168186,0.02356395,4.703407,-1.780558,2.553342,0.6396887,1.23176,0.01867154,-1.270157,0.07338496,0,0,0.5697387,-0.2530355,0.03070756,-1.050784,-1.787624,-0.182544,0.7073817,1.394664,0.01207229,0.06613787,-0.1282834,0.02271868,-0.7974149,-0.3263495,0.1696311,0.8049321,1.509129,0.190985,0.3107221,1.16887,0.1288464,84.42174,5.236124,82.91003,True
2,0.5,1.36919,-0.1380421,0.0334346,4.703272,-1.781913,2.539653,0.6359546,1.232617,0.01911122,-1.268915,0.09521637,0,0,0.5621597,-0.2603881,0.00730342,-1.050763,-1.790788,-0.1873315,0.7059712,1.395132,0.01205626,0.08338083,-0.1006734,0.01539348,-0.7974724,-0.3265181,0.1681877,0.8037577,1.50901,0.1907364,0.3059252,1.174329,0.1301829,84.36069,359.0619,76.37108,True
2,0.5111111,1.227623,0.01840021,0.07597813,4.704167,-1.787545,2.530624,0.6322722,1.233605,0.01936293,-1.268268,0.04301356,0,0,0.5656011,-0.215676,0.01697238,-1.050077,-1.79146,-0.1932936,0.7036872,1.395424,0.01193872,0.08571087,-0.07395241,0.007083022,-0.7975129,-0.3255258,0.1663139,0.8025913,1.508781,0.1902777,0.301078,1.17958,0.131594,84.35194,354.0159,70.89172,True
2,0.5222223,1.149834,0.07794209,0.08509675,4.70471,-1.790463,2.520399,0.6285636,1.234571,0.01970378,-1.268011,0.01065628,0,0,0.5648391,-0.1506878,0.01818566,-1.049859,-1.790594,-0.1999845,0.7015858,1.395804,0.01179397,0.09337802,-0.0592261,0.02207711,-0.7967922,-0.3259199,0.1653125,0.8013725,1.508738,0.189949,0.2963122,1.184722,0.132944,84.24796,349.2175,65.76527,True
2,0.5333334,1.039934,0.1395215,0.07852632,4.706172,-1.79366,2.512501,0.624881,1.235498,0.01995641,-1.270533,-0.2424026,0,0,0.5862222,-0.05629125,0.167434,-1.043759,-1.78613,-0.2091908,0.699219,1.396164,0.01155242,0.08080637,-0.06693824,0.0689676,-0.7944199,-0.3276298,0.1657863,0.7999225,1.508488,0.1897455,0.292026,1.18972,0.134229,83.96889,344.6069,61.01982,True
2,0.5444446,0.9511759,0.1723265,0.04838555,4.708241,-1.795731,2.504803,0.6213729,1.236351,0.02005821,-1.271139,-0.05275457,0,0,0.5908458,-0.05860695,0.2462425,-1.038373,-1.785745,-0.2158908,0.6970272,1.396463,0.01149476,0.07316247,-0.09147753,0.07944807,-0.7937503,-0.3306485,0.1678175,0.7986012,1.508606,0.1891868,0.288568,1.194407,0.1356572,83.60806,339.7993,56.15522,True
2,0.5555557,0.8912558,0.1945417,0.024391,4.710264,-1.79771,2.496678,0.618005,1.23712,0.02005985,-1.272236,-0.1102775,0,0,0.5664226,-0.09484169,0.2974085,-1.033263,-1.787419,-0.2203342,0.69472,1.396596,0.01145428,0.07805134,-0.1243104,0.05143596,-0.7948348,-0.3338089,0.1689813,0.7974198,1.508572,0.1887806,0.285426,1.198871,0.1372741,83.28793,334.7502,50.8904,True
2,0.5666668,0.8348823,0.2157768,0.03766458,4.71133,-1.800649,2.48906,0.6148374,1.237814,0.02001223,-1.27252,-0.02816226,0,0,0.5248518,-0.1277367,0.324176,-1.028396,-1.789199,-0.2237873,0.6925774,1.39694,0.01135603,0.08421955,-0.1230004,0.01411929,-0.7961701,-0.3354191,0.1693366,0.796082,1.508336,0.1885925,0.282436,1.203006,0.1389577,83.01908,329.4374,45.17509,True
2,0.577778,0.8157625,0.2221503,0.04528851,4.712277,-1.803231,2.480605,0.6114781,1.238573,0.02010658,-1.271617,0.07651363,0,0,0.4801649,-0.1072818,0.3169782,-1.025173,-1.788932,-0.2278164,0.6904697,1.397186,0.01126826,0.08632334,-0.1240665,0.01198036,-0.7960998,-0.3373779,0.1697781,0.794625,1.508105,0.1882562,0.2794169,1.20674,0.140493,82.79513,324.6272,39.86226,True
2,0.5888891,0.7008439,0.2358524,0.06336063,-1.57005,-1.80656,2.476818,0.6087649,1.239245,0.0201329,-1.270578,0.08569404,0,0,0.4375805,-0.07721254,0.295947,-1.022639,-1.788027,-0.2317493,0.688344,1.397506,0.01119259,0.09488042,-0.1188111,0.01091596,-0.7961339,-0.339153,0.16976,0.7931566,1.508099,0.1882568,0.2762799,1.210054,0.1417183,82.57173,321.3259,36.15038,True
2,0.6000003,0.625193,0.2463764,0.06403832,-1.568721,-1.809415,2.472441,0.6059992,1.239859,0.02017221,-1.268727,0.1615413,0,60,0.4194318,-0.08137085,0.2917635,-1.0194,-1.788303,-0.2357313,0.6863616,1.397748,0.01111126,0.09162441,-0.118681,0.0002909973,-0.7964903,-0.3405931,0.1699264,0.7917755,1.507709,0.1879933,0.2730494,1.212978,0.1426422,82.3386,319.8547,34.48721,True
2,0.6111114,0.5259767,0.2685595,0.05318826,-1.566512,-1.812571,2.469969,0.6034982,1.240336,0.02025378,-1.269994,-0.1274134,0,60,0.3883573,-0.1099712,0.281199,-1.016175,-1.790059,-0.2381217,0.6843662,1.397877,0.01095283,0.08306574,-0.1239496,0.002424696,-0.7966681,-0.3427556,0.1708226,0.7903376,1.507527,0.1876515,0.2697621,1.215598,0.1433703,82.14035,319.2761,33.89511,True
2,0.6222225,0.4672702,0.2620386,0.03989524,-1.564819,-1.814671,2.466648,0.6009424,1.240682,0.0202547,-1.270246,-0.01752679,0,60,0.3605771,-0.1194144,0.2727918,-1.013052,-1.791184,-0.240701,0.6824057,1.398036,0.01081046,0.07138073,-0.126036,0.007811433,-0.7965105,-0.3452181,0.1718101,0.7890451,1.507142,0.1876517,0.267076,1.217677,0.143981,81.9606,318.7286,33.38638,True
2,0.6333337,0.372432,0.2192369,0.02914371,-1.564205,-1.815448,2.465505,0.5988708,1.240803,0.02011725,-1.270967,-0.06987653,0,60,0.3167597,-0.1095493,0.236809,-1.011457,-1.791745,-0.2423224,0.6805141,1.398139,0.01057693,0.06621151,-0.1078813,0.007988566,-0.7965243,-0.3460848,0.1718538,0.7875779,1.506935,0.1873908,0.2647986,1.219306,0.1445957,81.82094,317.832,32.49026,True
2,0.6444448,0.3022729,0.1701313,0.03629277,-1.56452,-1.816184,2.464334,0.5969291,1.240858,0.020087,-1.270398,0.05376964,0,60,0.2794214,-0.07199477,0.192329,-1.011014,-1.790855,-0.2446076,0.6786456,1.398087,0.0103704,0.05591433,-0.08547635,0.01890201,-0.7956066,-0.345918,0.1699813,0.7858458,1.507484,0.1882447,0.2628294,1.220494,0.1452876,81.72588,316.5717,31.14742,True
2,0.655556,0.2332045,0.1082322,0.04344872,-1.565457,-1.816065,2.463754,0.5950725,1.240791,0.02009624,-1.270767,-0.03847704,0,60,0.2282488,-0.03971879,0.1542971,-1.01062,-1.789929,-0.2460673,0.6769392,1.398038,0.01014411,0.04548805,-0.06738083,0.03189136,-0.7948071,-0.3462895,0.1700937,0.7842491,1.50736,0.1881682,0.2608698,1.221348,0.1460176,81.67928,315.4324,29.79313,True
2,0.6666671,0.1960468,0.05171237,0.04605193,-1.566798,-1.815545,2.462632,0.5931747,1.24072,0.02007326,-1.27055,0.02279157,0,60,0.16318,-0.01165034,0.1120672,-1.010844,-1.789269,-0.246055,0.6752493,1.397961,0.009925485,0.0391823,-0.0653113,0.0415494,-0.7940001,-0.3483123,0.1710716,0.7826266,1.506798,0.187195,0.2590706,1.221763,0.1465984,81.66028,314.8203,28.92408,True
2,0.6777782,0.157827,-0.05166727,0.04345163,-1.569734,-1.81312,2.462399,0.5910923,1.240741,0.02002853,-1.270163,0.03445794,0,60,0.1035232,0.01850737,0.08472602,-1.010964,-1.787915,-0.2460801,0.6734025,1.397825,0.009663463,0.02641052,-0.07277173,0.05540732,-0.7931032,-0.350119,0.17249,0.7809322,1.506626,0.1870138,0.2573106,1.221799,0.1469627,81.65976,315.0086,28.96001,True
2,0.6888894,0.1483895,-0.1869916,0.03316502,4.709443,-1.808123,2.461004,0.5893719,1.240405,0.0200958,-1.268569,0.1449707,0,60,0.07798189,0.04422887,0.06679259,-1.011105,-1.786359,-0.2469808,0.6716838,1.397582,0.009437114,-0.006581336,-0.07579368,0.0662272,-0.7920731,-0.3521756,0.175138,0.7791936,1.506169,0.1862623,0.255448,1.221527,0.1470885,81.6889,315.6255,29.52917,True
2,0.7000005,0.1537931,-0.2839236,0.02481697,4.705387,-1.803493,2.459404,0.5876455,1.240516,0.02015144,-1.266861,0.1519113,0,60,0.06511734,0.06033762,0.03493343,-1.011919,-1.785184,-0.2480727,0.669899,1.397334,0.009231865,-0.01499859,-0.06835698,0.06957722,-0.790871,-0.3546318,0.1769234,0.7773702,1.506001,0.1859884,0.2532592,1.221078,0.1469684,81.76026,316.656,30.55708,True
2,0.7111117,0.1626593,-0.4649827,0.02726893,4.698125,-1.795559,2.457601,0.5859721,1.24016,0.02019551,-1.263529,0.3030792,0,60,0.05427942,0.08714867,-0.02780617,-1.014741,-1.783835,-0.2490335,0.6681097,1.397071,0.008976847,-0.0222325,-0.04920624,0.08042651,-0.7895964,-0.3548434,0.1775751,0.7755473,1.505818,0.1857893,0.2506732,1.220494,0.1464794,81.83668,318.0414,31.95382,True
2,0.7222228,0.1524262,-0.5714797,0.05102605,4.691107,-1.788951,2.456255,0.5843256,1.239552,0.02059558,-1.25938,0.3714849,0,60,0.04345915,0.1064837,-0.07990237,-1.01746,-1.782605,-0.2498548,0.6663091,1.396829,0.008848369,-0.02104507,-0.0418593,0.09326705,-0.7881631,-0.3553874,0.1782744,0.7736781,1.506215,0.1850327,0.2477884,1.219762,0.1454469,81.92747,320.0157,34.0494,True
2,0.7333339,0.1377638,-0.6236667,0.06831941,4.684831,-1.783362,2.455382,0.582773,1.239193,0.02074748,-1.254497,0.4381722,0,60,0.02735252,0.107683,-0.1075185,-1.019689,-1.781781,-0.2500977,0.6644194,1.396596,0.00866589,-0.01685,-0.05366549,0.09953967,-0.7870653,-0.3570611,0.179525,0.7718203,1.506093,0.184735,0.2446435,1.218975,0.143838,82.00596,322.8185,37.13446,True
2,0.7444451,0.1134079,-0.6609795,0.07608348,4.678586,-1.777496,2.455038,0.5810089,1.238796,0.02099597,-1.249373,0.4590502,0,60,0.008131823,0.07789648,-0.08831298,-1.019962,-1.782008,-0.2494213,0.6624553,1.39636,0.008544922,-0.008296363,-0.06010766,0.09945397,-0.7859084,-0.3581963,0.1789314,0.7696986,1.50673,0.1847627,0.2413566,1.218091,0.1415794,81.88461,325.8931,40.68875,True
2,0.7555562,0.1154799,-0.6556603,0.07072651,4.673569,-1.772338,2.453874,0.5790603,1.238522,0.02126041,-1.243993,0.4837374,0,60,0.004865625,0.04164873,-0.06920136,-1.019896,-1.782849,-0.2489645,0.6604548,1.396131,0.008378446,-0.005119517,-0.05686934,0.09094051,-0.7852874,-0.3591082,0.1795133,0.767791,1.506665,0.1844428,0.2381703,1.216969,0.1388854,81.61784,328.8746,44.44766,True
2,0.7666674,0.1356829,-0.6364437,0.06836739,4.669171,-1.768027,2.451634,0.5772145,1.238119,0.02137482,-1.238163,0.5249358,0,60,0.01541617,-0.01706788,-0.03529067,-1.018641,-1.785115,-0.2482527,0.6583567,1.39581,0.008117378,-0.008270748,-0.05152632,0.09206642,-0.7843116,-0.3598737,0.1803722,0.7658579,1.506531,0.1839096,0.2351632,1.215574,0.136094,81.36861,331.755,48.20518,True
2,0.7777785,0.1815302,-0.6118367,0.07748446,4.664439,-1.7642,2.448225,0.5749719,1.237898,0.02159917,-1.230917,0.6541752,0,60,0.0302179,-0.05871121,-0.02053697,-1.01791,-1.787272,-0.2480343,0.656285,1.395565,0.007918358,-0.01570125,-0.05797656,0.1069687,-0.7827632,-0.3615013,0.1819637,0.7638857,1.50641,0.1834974,0.2321374,1.213955,0.1335001,81.16367,334.4571,51.73313,True
2,0.7888896,0.2200338,-0.5904124,0.09732395,4.659334,-1.76086,2.444525,0.5727732,1.237585,0.02159795,-1.222325,0.7726495,0,60,0.05774114,-0.08652046,-0.03031689,-1.01805,-1.789828,-0.2482838,0.6541188,1.395305,0.007728249,-0.02221437,-0.06637751,0.09944927,-0.782483,-0.3630136,0.1836393,0.7626407,1.506286,0.1829951,0.2289259,1.212189,0.1313339,81.05269,337.214,55.17679,True
2,0.8000008,0.2703599,-0.5497573,0.1329986,4.65417,-1.75907,2.439796,0.5705144,1.237462,0.02174717,-1.212731,0.860908,0,60,0.07469649,-0.0726732,-0.06339723,-1.019943,-1.790592,-0.2493901,0.6521361,1.394971,0.007408023,-0.02768232,-0.06612037,0.07391332,-0.7826972,-0.3639799,0.1848351,0.7607195,1.50608,0.18256,0.2254936,1.210355,0.1297304,81.00121,340.3765,58.84541,True
2,0.8111119,0.3045255,-0.4388296,0.1622711,4.651347,-1.759889,2.435169,0.5679507,1.237495,0.02193424,-1.202948,0.8751945,0,60,0.07580327,-0.04067661,-0.08463463,-1.021642,-1.790393,-0.2503664,0.6500502,1.394641,0.007274568,-0.0192812,-0.0670837,0.05361291,-0.7829731,-0.3648392,0.1854277,0.758791,1.505823,0.1822698,0.2217078,1.20862,0.1287486,80.95291,344.0645,62.85696,True
2,0.8222231,0.3108043,-0.3663683,0.1641866,4.6488,-1.759819,2.431494,0.5654292,1.237437,0.02211303,-1.192595,0.9281763,0,60,0.07496554,-0.002344452,-0.07282761,-1.022315,-1.789084,-0.2517513,0.6479959,1.394404,0.007009178,-0.01822659,-0.06491867,0.04829819,-0.7827622,-0.3658386,0.1863049,0.7568004,1.505675,0.181875,0.2178202,1.207012,0.1283344,80.87135,348.0447,66.99934,True
2,0.8333342,0.31472,-0.2598654,0.1479419,4.648387,-1.760999,2.427823,0.56268,1.237546,0.02225465,-1.182573,0.8953235,0,60,0.07092157,0.01145341,-0.04081845,-1.021829,-1.788189,-0.2528514,0.645874,1.394129,0.006765515,-0.02240067,-0.0606799,0.05687664,-0.7818679,-0.3665371,0.1871425,0.754884,1.505472,0.1814997,0.2139562,1.205644,0.128509,80.74868,351.9849,71.06683,True
2,0.8444453,0.3537502,-0.1650282,0.1250111,4.64879,-1.762453,2.422536,0.5597475,1.237726,0.02239093,-1.17341,0.8195822,0,60,0.07864714,0.01663376,0.01136242,-1.019845,-1.787248,-0.2543598,0.6434557,1.393592,0.006459802,-0.0266369,-0.07685582,0.08659831,-0.7800745,-0.3688965,0.1892757,0.7527599,1.505359,0.1811017,0.2102548,1.204557,0.1293554,80.70974,355.0273,74.13126,True
2,0.8555565,0.4238811,-0.07754061,0.1220606,4.648908,-1.76466,2.415432,0.5568302,1.237932,0.02252328,-1.164208,0.8259494,0,60,0.1009895,0.00588306,0.01444126,-1.019397,-1.787357,-0.2562294,0.6412578,1.393146,0.006248981,-0.02135921,-0.09624954,0.1077179,-0.7785,-0.37182,0.1914142,0.7507226,1.505204,0.1806853,0.2068173,1.203682,0.130748,80.79039,357.0461,75.92679,True
2,0.8666676,0.4814107,-0.02947159,0.1320863,4.648465,-1.766853,2.408057,0.5538585,1.238112,0.0225935,-1.153701,0.9441757,0,60,0.1220412,-0.01864593,-0.01554731,-1.020377,-1.788851,-0.2574933,0.6390154,1.392793,0.006018877,-0.008577369,-0.09312361,0.10341,-0.7777773,-0.3732467,0.1922126,0.7487743,1.504853,0.1803115,0.203445,1.203008,0.1325139,80.98981,358.5575,77.03749,True
2,0.8777788,0.5518795,0.02825229,0.16115,4.647697,-1.770276,2.39942,0.5506494,1.238338,0.02266705,-1.142229,1.026641,0,60,0.1336269,-0.02076256,-0.04223269,-1.021562,-1.789425,-0.2591117,0.6367955,1.392533,0.005739242,-0.02370402,-0.09267416,0.06407759,-0.7785341,-0.3745319,0.193892,0.7467926,1.504571,0.1798875,0.1998579,1.202596,0.1344585,81.20551,0.2715597,78.28125,True
2,0.8888899,0.5720394,0.06237865,0.1587529,4.647739,-1.772737,2.392247,0.5474763,1.238625,0.02260622,-1.131171,0.9849699,0,60,0.1497796,0.01323945,-0.0379788,-1.022301,-1.788134,-0.2619672,0.634481,1.392216,0.005420178,-0.01958442,-0.08602257,0.02788791,-0.7795648,-0.3752928,0.1945149,0.7447684,1.504298,0.179478,0.1960139,1.202502,0.1364221,81.33453,2.343879,79.91558,True
2,0.900001,0.5609686,0.08038189,0.1162052,4.648735,-1.773687,2.386401,0.544342,1.239001,0.02253622,-1.119958,1.001637,0,60,0.1542968,0.03445182,-0.004929706,-1.021486,-1.786624,-0.2645898,0.6322851,1.392002,0.005217373,-0.01542437,-0.08377922,0.00869693,-0.7803605,-0.3764805,0.1955809,0.7427297,1.503857,0.1789265,0.1919932,1.202736,0.1382814,81.36703,4.311012,81.52476,True
2,0.9111122,0.5688319,0.07491633,0.04263075,4.650528,-1.772905,2.379872,0.5410476,1.239306,0.02247503,-1.110312,0.8558631,0,60,0.1567727,0.04282409,0.05899549,-1.018972,-1.784877,-0.2673156,0.6299195,1.391669,0.005064577,-0.02594126,-0.09036799,0.04385635,-0.7789932,-0.3786544,0.1977618,0.7405553,1.503678,0.1784753,0.1878593,1.20332,0.1400161,81.36127,5.804084,82.74127,True
2,0.9222233,0.5929697,0.06849188,0.0008840226,4.651789,-1.772528,2.372524,0.53776,1.239759,0.02236274,-1.101904,0.7504705,0,60,0.1696147,0.0181859,0.09509912,-1.016741,-1.785034,-0.2693891,0.6275268,1.391337,0.004864991,-0.02258767,-0.1024895,0.09061751,-0.7767354,-0.3813805,0.1997733,0.7383201,1.503495,0.1782278,0.1838706,1.204109,0.141517,81.47831,6.435256,83.05795,True
2,0.9333345,0.6556873,0.06111982,-0.01565576,4.652561,-1.772389,2.363249,0.5342705,1.240134,0.02228317,-1.09278,0.8184463,0,60,0.2003584,-0.009638995,0.08956452,-1.015774,-1.785938,-0.2721168,0.6250679,1.391003,0.004721314,-0.02041393,-0.1090472,0.108663,-0.7752382,-0.3838804,0.2017097,0.7361784,1.503245,0.1778276,0.180026,1.204958,0.142581,81.7291,6.193204,82.45125,True
2,0.9444456,0.7092904,0.06870142,0.02106517,4.652418,-1.773497,2.353444,0.5307674,1.240657,0.02222678,-1.082913,0.8814814,0,60,0.2182935,-0.02458686,0.06707239,-1.015626,-1.78683,-0.2746441,0.6226444,1.390697,0.004506975,-0.006730117,-0.1186558,0.09572756,-0.7750869,-0.3864783,0.2033363,0.7339289,1.502863,0.1775365,0.1760107,1.205813,0.1430044,81.98576,5.69276,81.65917,True
2,0.9555568,0.7384955,0.09230138,0.07401371,4.651874,-1.776507,2.344268,0.5272357,1.241181,0.02226216,-1.07178,0.9952594,0,60,0.2340278,-0.03308204,0.02330288,-1.016629,-1.78783,-0.2772268,0.6202292,1.39045,0.004333526,0.003808118,-0.1164155,0.07118595,-0.7753431,-0.3881685,0.2041521,0.7318377,1.502505,0.1771393,0.1716561,1.206682,0.142766,82.07619,5.749745,81.68804,True
2,0.9666679,0.7333227,0.1116174,0.09322956,4.652229,-1.779889,2.335899,0.5237725,1.241842,0.0224534,-1.060863,0.9705357,0,60,0.2405032,-0.0224797,0.03181645,-1.01607,-1.787542,-0.2801392,0.6177459,1.390246,0.004176795,0.01540624,-0.115262,0.04982077,-0.775773,-0.3895101,0.2047891,0.7297411,1.502226,0.1766708,0.1668608,1.207656,0.1420545,81.98257,6.52599,82.7534,True
2,0.977779,0.7171161,0.1189938,0.06992317,4.653431,-1.780879,2.328461,0.5203214,1.242434,0.02243635,-1.051031,0.8729692,0,60,0.2470552,-0.02898654,0.07118795,-1.013784,-1.787419,-0.2831548,0.6152499,1.389918,0.004020095,0.01959902,-0.1259855,0.05397168,-0.775399,-0.3921988,0.206351,0.727567,1.501892,0.1762435,0.1619023,1.208793,0.1412253,81.72709,7.633027,84.40217,True
2,0.9888902,0.7229208,0.1295408,0.008056834,4.656159,-1.780757,2.320236,0.5168943,1.243035,0.02234545,-1.042013,0.8027568,0,60,0.2526124,-0.05580091,0.1446113,-1.009269,-1.787776,-0.2859471,0.6128287,1.389518,0.003853828,0.01427715,-0.1367126,0.06883763,-0.7743503,-0.3952825,0.2083916,0.725389,1.501374,0.1760587,0.1571802,1.210073,0.1407414,81.43416,8.295934,85.68768,True
2,1.000001,0.7481163,0.1390955,-0.03054764,4.658634,-1.780828,2.311016,0.5134342,1.243624,0.02222085,-1.033538,0.7556263,0,60,0.2623003,-0.07082938,0.1796874,-1.006024,-1.788117,-0.2889516,0.6103547,1.389169,0.003792554,0.00586446,-0.1357694,0.0912667,-0.7729463,-0.3980607,0.2109101,0.723434,1.501179,0.1757404,0.1528744,1.211456,0.1409306,81.34002,8.364992,86.11778,True
2,1.011112,0.7957696,0.1551144,-0.05871302,4.661387,-1.781214,2.300416,0.5099511,1.244156,0.02201173,-1.024178,0.8378268,0,60,0.2718709,-0.06552736,0.1711307,-1.004297,-1.788167,-0.2922566,0.6079171,1.38875,0.003676265,0.008046679,-0.135866,0.1008423,-0.7718506,-0.4006385,0.2125954,0.7212884,1.500773,0.1753784,0.1488396,1.212877,0.1416902,81.5456,7.993957,85.58816,True
2,1.022224,0.8267157,0.1775709,-0.0483683,4.66329,-1.78309,2.290183,0.506382,1.244654,0.02190828,-1.013916,0.9155478,0,60,0.2771237,-0.05164713,0.1434438,-1.003633,-1.788124,-0.2955057,0.6054852,1.388316,0.003497571,0.01552364,-0.1294859,0.09446201,-0.7712919,-0.4026014,0.2135924,0.7191699,1.500366,0.174998,0.1447681,1.214325,0.1426929,81.90987,7.741688,84.84832,True
2,1.033335,0.8173606,0.2149063,-0.01534273,4.665393,-1.786133,2.281294,0.5028098,1.245168,0.02181131,-1.002786,0.9924586,0,60,0.2685034,-0.05476965,0.1264319,-1.002592,-1.788679,-0.2978748,0.6030266,1.387777,0.003370255,0.02172769,-0.1444163,0.08897573,-0.7710842,-0.4057884,0.215886,0.7170286,1.499885,0.1742016,0.1404539,1.215822,0.1436514,82.21954,7.950698,84.56189,True
2,1.044446,0.8152234,0.2383629,-0.01004843,4.668045,-1.788453,2.272276,0.4993355,1.245715,0.0216684,-0.9924259,0.9192401,0,60,0.2567389,-0.06643867,0.1275199,-1.000921,-1.789508,-0.2999193,0.6006083,1.387318,0.003156126,0.02466566,-0.1635245,0.07495679,-0.7712674,-0.4097762,0.2186386,0.7148132,1.499633,0.1734598,0.1358844,1.217405,0.1444228,82.4148,8.508869,84.8222,True
2,1.055557,0.8276921,0.2393809,-0.04425563,4.671165,-1.789024,2.262631,0.4958868,1.246324,0.0214802,-0.9833397,0.8066891,0,60,0.2471474,-0.07173301,0.1318147,-0.9990529,-1.790068,-0.3020248,0.598217,1.386784,0.003016025,0.01285767,-0.1719202,0.07175566,-0.7710762,-0.4130773,0.2212373,0.7126436,1.499242,0.172944,0.1313005,1.219041,0.1450742,82.47056,8.801733,85.0778,True
2,1.066668,0.8464296,0.218005,-0.09658674,4.674282,-1.787972,2.25261,0.4923599,1.246991,0.02121341,-0.9740245,0.8324058,0,60,0.2430082,-0.02907305,0.1170114,-0.9986087,-1.788612,-0.305411,0.5957334,1.386298,0.002832443,0.004198641,-0.1802731,0.06108759,-0.7710464,-0.4161394,0.2237966,0.7104745,1.499001,0.1726665,0.1269729,1.220627,0.1457693,82.52782,8.641523,84.9757,True
2,1.077779,0.8526664,0.192403,-0.118962,4.676579,-1.787196,2.243002,0.4889727,1.247603,0.02099362,-0.9639716,0.8970646,0,60,0.2516243,0.01461153,0.0957588,-0.9988159,-1.786608,-0.3095714,0.5933123,1.385854,0.002616882,0.002016388,-0.1769442,0.04623517,-0.7711343,-0.4189805,0.2258568,0.7074914,1.498501,0.1722615,0.1228419,1.222153,0.1465484,82.70841,8.569084,84.82067,True
2,1.08889,0.8463878,0.1593708,-0.1134973,4.67767,-1.786816,2.233902,0.4856434,1.24815,0.02081597,-0.9536881,0.915758,0,60,0.2591706,0.06684928,0.06494866,-0.9998913,-1.783703,-0.3143417,0.590941,1.385464,0.002419859,0.01172563,-0.1609994,0.04092479,-0.7719785,-0.4203154,0.2261032,0.7061729,1.498714,0.1717498,0.1186196,1.223702,0.1472402,83.00961,8.977961,84.93029,True
2,1.100002,0.8167083,0.145491,-0.1004164,4.678983,-1.787071,2.225876,0.4823408,1.248735,0.02064696,-0.9438243,0.8767244,0,60,0.2538492,0.09035722,0.04372088,-1.000643,-1.781804,-0.3179873,0.5885847,1.385066,0.002266675,0.01614013,-0.1526363,0.05588447,-0.7711785,-0.4226395,0.2274257,0.7040002,1.498381,0.171349,0.1141422,1.225341,0.1475649,83.3055,9.63231,85.23729,True
2,1.111113,0.7444504,0.1251561,-0.08479054,4.679789,-1.787324,2.22011,0.4790635,1.249231,0.02055851,-0.934321,0.8461164,0,60,0.2571582,0.09136103,0.06608107,-0.999642,-1.779978,-0.3219613,0.5859897,1.384737,0.002177954,0.02382076,-0.1519695,0.09632473,-0.769146,-0.4258155,0.2292494,0.7018161,1.497805,0.1709545,0.1096049,1.22702,0.1473918,83.44587,9.915566,85.39233,True
2,1.122224,0.6697446,0.111123,-0.1021912,4.681533,-1.786364,2.215168,0.4758883,1.249702,0.02039289,-0.925506,0.7847362,0,60,0.2657361,0.01978101,0.1447134,-0.9949234,-1.780816,-0.3247461,0.5833306,1.384362,0.002177924,0.0416994,-0.1840505,0.1012772,-0.7685936,-0.4289633,0.2304324,0.6994321,1.498273,0.1695637,0.1051995,1.228658,0.1468108,83.43628,9.5929,85.23167,True
2,1.133335,0.6373796,0.1067021,-0.1476977,4.684299,-1.784484,2.20909,0.4727654,1.250069,0.02018526,-0.9178233,0.683794,0,60,0.2667408,-0.03570525,0.1840031,-0.9910256,-1.782105,-0.3270247,0.580698,1.383978,0.00218004,0.05633569,-0.2118118,0.09351247,-0.7685733,-0.4337849,0.2327877,0.6972907,1.497922,0.1690318,0.1010663,1.23013,0.1460477,83.40109,8.545843,84.52726,True
2,1.144446,0.6423347,0.105575,-0.1882193,4.687327,-1.782517,2.20176,0.4694991,1.250432,0.01994276,-0.9097949,0.7211139,0,60,0.266554,-0.09861284,0.2041038,-0.9874069,-1.784723,-0.3285656,0.5778563,1.383673,0.002141386,0.06479702,-0.2159266,0.07195555,-0.7710789,-0.435589,0.231711,0.6956351,1.495597,0.1693423,0.09725484,1.23124,0.1453075,83.41692,6.88229,83.18379,True
2,1.155557,0.6476763,0.1077183,-0.1861459,4.689499,-1.781677,2.194226,0.4661496,1.250823,0.01971591,-0.899921,0.8880243,0,60,0.2716788,-0.1295108,0.1922856,-0.9850308,-1.786956,-0.3304823,0.5749047,1.38336,0.002064198,0.06588741,-0.2019467,0.05501972,-0.7714645,-0.4380851,0.2327259,0.6934433,1.49505,0.1689469,0.09356591,1.231848,0.1446386,83.581,5.695023,82.13679,True
2,1.166668,0.6255292,0.1322588,-0.1561629,4.691809,-1.782617,2.18801,0.4629085,1.251066,0.01940987,-0.8887064,1.004043,0,60,0.2714795,-0.1272883,0.1486107,-0.9844726,-1.788334,-0.3327439,0.5721977,1.383067,0.002120882,0.0766152,-0.1892214,0.04974198,-0.7713857,-0.4406116,0.2333851,0.6905334,1.494558,0.1688039,0.08962999,1.231982,0.1439741,83.84345,6.271423,82.71362,True
2,1.17778,0.5651121,0.1854963,-0.1109792,4.694746,-1.78508,2.183705,0.4596047,1.251304,0.01926884,-0.877363,1.012153,0,60,0.266063,-0.1293759,0.1326407,-0.9831278,-1.789845,-0.3346384,0.5693064,1.3827,0.00205633,0.07893407,-0.1830533,0.07429388,-0.7699848,-0.4437916,0.2347257,0.6878867,1.494301,0.1684276,0.08520903,1.231794,0.1432542,84.04395,9.245622,85.71215,True
2,1.188891,0.4768797,0.2503687,-0.07622595,4.698633,-1.788082,2.181266,0.456476,1.251413,0.01921406,-0.8670938,0.9151819,0,60,0.2595656,-0.153851,0.1336834,-0.980872,-1.79212,-0.3360414,0.5665126,1.382384,0.002057374,0.07904702,-0.1877011,0.1147159,-0.7683619,-0.4486971,0.2382869,0.6853287,1.49422,0.1677636,0.08052724,1.231389,0.1425429,84.0713,13.56693,90.21732,True
2,1.200002,0.385087,0.279978,-0.08929907,4.702662,-1.789073,2.179845,0.4535174,1.251491,0.01900333,-0.8580188,0.8113226,0,60,0.2413604,-0.2039048,0.1613548,-0.9770046,-1.795707,-0.3360337,0.5638523,1.381973,0.00205937,0.0896318,-0.2006382,0.1220137,-0.7673675,-0.4530045,0.2400233,0.6829343,1.493794,0.1672984,0.07608175,1.230738,0.1420488,84.02151,17.38493,94.36726,True
2,1.211113,0.3368456,0.2862293,-0.1197732,4.706985,-1.789136,2.177668,0.4504619,1.251578,0.01877654,-0.8497678,0.7408463,0,60,0.2350761,-0.2156672,0.1954477,-0.9729401,-1.797559,-0.3373786,0.5609994,1.381519,0.002123326,0.09898636,-0.2251744,0.1153718,-0.7671885,-0.4581845,0.2421234,0.6806595,1.493202,0.1675272,0.07215616,1.22977,0.1420595,84.03655,20.19114,97.51299,True
2,1.222224,0.3023495,0.2988624,-0.1610408,4.711948,-1.788523,2.175221,0.4475555,1.25139,0.01854441,-0.8412947,0.7636483,0,60,0.2394165,-0.2146624,0.2114108,-0.9694955,-1.79904,-0.3393549,0.5580974,1.38096,0.002126575,0.1178815,-0.2475747,0.09910196,-0.7675582,-0.4633882,0.2438723,0.6783791,1.492657,0.1671129,0.06883772,1.228367,0.1427191,84.22389,22.86835,100.2599,True
2,1.233335,0.2948352,0.3041616,-0.1663124,-1.567173,-1.788866,2.172135,0.4445667,1.251325,0.01829541,-0.8312988,0.9022554,0,60,0.2382831,-0.2274362,0.2092575,-0.9663892,-1.801496,-0.3405565,0.5553102,1.380539,0.002121389,0.1158212,-0.2433486,0.105542,-0.7667928,-0.4673752,0.2455504,0.6760476,1.492153,0.1666996,0.06579655,1.226505,0.1438277,84.53521,27.11773,104.1459,True
2,1.244446,0.290884,0.2903807,-0.135348,-1.564685,-1.790232,2.168949,0.4417536,1.251151,0.01811662,-0.8204352,0.9760364,0,60,0.2134356,-0.2720006,0.1783903,-0.96397,-1.806419,-0.3393536,0.5528295,1.3801,0.002067715,0.09672922,-0.2228731,0.09407356,-0.7669265,-0.4704658,0.2476625,0.6740153,1.491841,0.1659552,0.06257421,1.224267,0.1450254,84.82502,33.66328,110.0996,True
2,1.255558,0.2563979,0.2648844,-0.06786153,-1.56383,-1.792679,2.167178,0.4391048,1.250735,0.0179044,-0.8089799,1.029426,0,60,0.1769506,-0.3101476,0.1593062,-0.9613266,-1.811565,-0.3371908,0.5503311,1.379542,0.001935273,0.06288038,-0.1992028,0.1008503,-0.7659906,-0.4730148,0.2498764,0.6717527,1.491264,0.1655616,0.05905737,1.221703,0.1459608,84.94716,41.93711,117.8424,True
2,1.266669,0.2353903,0.2478673,-0.03886316,-1.562204,-1.79442,2.165253,0.4365342,1.250587,0.01784062,-0.7975134,1.028196,0,60,0.1397,-0.3035909,0.1605682,-0.9585015,-1.814391,-0.3359282,0.5478218,1.379052,0.001747608,0.04480404,-0.2034431,0.1159143,-0.7637941,-0.4778298,0.253615,0.6691301,1.490075,0.1656933,0.05528525,1.218962,0.1465027,84.71339,50.1151,125.7802,True
2,1.27778,0.1974871,0.2116554,0.002041951,-1.562039,-1.796169,2.164342,0.4341397,1.250272,0.01775783,-0.7871639,0.9267275,0,60,0.1133996,-0.2737323,0.2012427,-0.9544002,-1.815223,-0.3358363,0.5455203,1.378606,0.001514375,0.03730171,-0.1957547,0.0957772,-0.7638766,-0.4807183,0.2555202,0.6668799,1.489483,0.1653982,0.05161676,1.216127,0.146736,84.22219,55.84462,131.5926,True
2,1.288891,0.1467107,0.1498287,0.0282106,-1.562917,-1.796986,2.164382,0.4319212,1.24992,0.01773095,-0.7767967,0.9338338,0,60,0.0672683,-0.2172924,0.3027994,-0.9475655,-1.81302,-0.3362531,0.5432882,1.378354,0.001280665,0.03621411,-0.1870625,0.076689,-0.7640486,-0.4833778,0.256917,0.6646867,1.488808,0.1646941,0.04835157,1.213218,0.1468731,83.67467,59.5315,135.5265,True
2,1.300002,0.1149933,0.1093181,0.04563123,-1.563657,-1.797759,2.164126,0.429558,1.249625,0.01773062,-0.7670346,0.8758394,0,0,0.04487976,-0.1408224,0.450081,-0.9385752,-1.808173,-0.3387458,0.5409653,1.378095,0.000950247,0.02667523,-0.1622283,0.04712779,-0.7645392,-0.4845917,0.2578086,0.6624761,1.4881,0.1644125,0.04542277,1.210343,0.1470857,83.17019,62.97067,139.1653,True
2,1.311113,0.06734132,0.05493261,0.06535468,-1.565398,-1.798097,2.165066,0.4273934,1.249118,0.01776505,-0.757705,0.8396699,0,0,0.08827311,-0.05490637,0.5310253,-0.9311588,-1.801755,-0.3449105,0.5387888,1.377887,0.0008172095,0.01439585,-0.1164822,0.06781504,-0.7631064,-0.4847716,0.2581983,0.6602652,1.487461,0.1640945,0.04284513,1.20751,0.1474225,82.71886,65.47103,141.7236,True
2,1.322224,0.03462915,0.008003868,0.08596798,-1.567458,-1.797987,2.165308,0.4251213,1.248721,0.01760632,-0.7477336,0.8999524,0,0,0.140319,-0.04653777,0.4913766,-0.9274017,-1.800468,-0.3489828,0.5365372,1.377471,0.0006951988,0.000887908,-0.0931407,0.09365014,-0.7613679,-0.4858209,0.2594044,0.6580169,1.486883,0.1637601,0.04047767,1.204684,0.1478566,82.30829,67.35378,143.55,True
2,1.333336,0.02736512,-0.01434788,0.1020623,-1.569131,-1.798868,2.165249,0.4229438,1.248103,0.0175685,-0.7383263,0.8455218,0,0,0.1526153,-0.08587019,0.4273118,-0.9242586,-1.80203,-0.3501628,0.5342188,1.377022,0.0006081164,0.00212159,-0.08697633,0.1192635,-0.7594675,-0.4879918,0.2612401,0.6557989,1.486231,0.1632188,0.03809638,1.201833,0.1483576,81.92313,69.05029,145.1505,True
2,1.344447,0.05175021,-0.01644971,0.08906227,-1.569495,-1.799302,2.163803,0.4207613,1.247342,0.01756191,-0.7282403,0.9117534,0,0,0.1291724,-0.1866956,0.3004234,-0.9235395,-1.809489,-0.3460874,0.5318387,1.376319,0.0004428923,0.00116241,-0.09471101,0.1469624,-0.7568528,-0.4924881,0.2641832,0.6535628,1.485119,0.1631603,0.03573931,1.198841,0.1488475,81.52606,70.4474,146.42,True
2,1.355558,0.09527452,-0.01959497,0.07162254,-1.569848,-1.799326,2.161337,0.4185863,1.246677,0.01743072,-0.7179036,0.9301831,0,0,0.09391159,-0.2618022,0.1289088,-0.9257297,-1.817816,-0.3409397,0.5294976,1.375401,0.0001940727,0.001012355,-0.1128286,0.147879,-0.7557321,-0.4958034,0.2665931,0.6514723,1.484438,0.1627823,0.03328758,1.195694,0.1492488,81.03906,71.80402,147.6619,True
2,1.366669,0.1218386,-0.0365932,0.06076483,4.712475,-1.799304,2.159239,0.4164305,1.246024,0.01749343,-0.7070251,0.9797226,0,0,0.06442852,-0.2528,-0.02966694,-0.9300339,-1.822905,-0.337773,0.5272388,1.374521,-0.0001709461,-0.003524408,-0.1242491,0.1158701,-0.7557412,-0.4985866,0.2688813,0.6492536,1.484061,0.1620759,0.03080491,1.192386,0.1495871,80.50613,73.18471,149.0378,True
2,1.37778,0.1442576,-0.0695764,0.0584974,4.710598,-1.798706,2.156806,0.414475,1.2454,0.0172894,-0.6962574,0.9657798,0,0,0.04297363,-0.1747026,-0.1348525,-0.934565,-1.823974,-0.3370675,0.525368,1.373557,-0.0005268753,-0.008837819,-0.1091147,0.09471679,-0.7556049,-0.4997238,0.2699833,0.647233,1.483366,0.1616758,0.02821622,1.189026,0.1498849,79.90677,74.9896,150.8395,True
2,1.388891,0.1336106,-0.1111622,0.04908896,4.708343,-1.797454,2.155616,0.4125557,1.244887,0.01703081,-0.6868388,0.8418337,0,0,0.02614459,-0.0978637,-0.1622997,-0.9375675,-1.823299,-0.3372185,0.5234599,1.37277,-0.000849396,-0.02039629,-0.08766596,0.09281366,-0.7548341,-0.4997279,0.2707777,0.6463861,1.483521,0.1611269,0.02550932,1.185819,0.150093,79.2095,76.64783,152.4695,True
2,1.400002,0.1132566,-0.1368079,0.03121916,4.706503,-1.795945,2.155097,0.4106171,1.2443,0.01679426,-0.6783332,0.7630448,0,0,0.005418561,0.004454888,-0.1395969,-0.9390647,-1.819311,-0.3390771,0.521801,1.371974,-0.001220465,-0.02875271,-0.07921155,0.109974,-0.7532762,-0.5011995,0.2724571,0.6443791,1.48302,0.1606939,0.02283307,1.182942,0.1501791,78.50726,77.69604,153.5105,True
2,1.411114,0.09807552,-0.1614038,-0.00267937,4.70509,-1.79356,2.154646,0.4087024,1.243612,0.01656061,-0.6716886,0.5926321,0,0,-0.01099787,0.07148949,-0.07119642,-0.9385965,-1.815431,-0.3406838,0.5199296,1.371286,-0.001615465,-0.03100814,-0.09952427,0.1204712,-0.7520639,-0.5046176,0.2754582,0.6423779,1.4826,0.1601731,0.02034591,1.180541,0.1500677,77.88287,78.22333,154.001,True
2,1.422225,0.1072986,-0.1721293,-0.04428992,4.704278,-1.790734,2.15317,0.4067545,1.243029,0.01628217,-0.6663399,0.4805626,0,0,-0.0225176,0.0735825,-0.03278331,-0.9379941,-1.814351,-0.3407704,0.5180707,1.370717,-0.001893431,-0.03772767,-0.1281078,0.1053573,-0.7521251,-0.5083935,0.2788119,0.6405418,1.482032,0.1597101,0.01807352,1.178663,0.1496843,77.46696,78.38126,154.1337,True
2,1.433336,0.1466521,-0.1816607,-0.05423264,4.702961,-1.788575,2.150095,0.4047971,1.242437,0.01597875,-0.6615718,0.4290831,0,0,-0.01733184,0.04052702,-0.03075255,-0.938082,-1.815378,-0.3401445,0.5161862,1.369961,-0.002211928,-0.04303192,-0.1227022,0.1011813,-0.7513667,-0.5104516,0.2809728,0.6383994,1.4815,0.1592379,0.01592784,1.17724,0.1489979,77.30889,78.32934,154.1077,True
2,1.444447,0.1808993,-0.1847621,-0.03857563,4.701128,-1.787361,2.146847,0.4028275,1.241797,0.01570609,-0.6568596,0.4243174,0,0,0.01099401,-0.01492082,-0.06937876,-0.9396091,-1.818975,-0.3391805,0.5142553,1.369131,-0.002496451,-0.05030427,-0.09485389,0.0896921,-0.7513438,-0.5107224,0.2818117,0.6372957,1.481566,0.1586782,0.01374776,1.176166,0.1479788,77.29289,78.20669,154.0509,True
2,1.455558,0.2195152,-0.171835,-0.006997868,4.699325,-1.787477,2.143115,0.4009001,1.241375,0.01548395,-0.6521363,0.4224302,0,0,0.0256497,-0.01273737,-0.1248413,-0.9426664,-1.820444,-0.339071,0.5124929,1.368385,-0.002808005,-0.05441415,-0.07346836,0.08456843,-0.750581,-0.5111679,0.282923,0.6354394,1.481242,0.1581728,0.01136312,1.175427,0.1466276,77.24145,77.98646,153.9806,True
2,1.466669,0.2163496,-0.1377273,0.003607757,4.69889,-1.787577,2.140882,0.3989315,1.241027,0.01529032,-0.6487242,0.2998891,0,0,0.03415074,0.021396,-0.1610282,-0.9459181,-1.819868,-0.3399751,0.5106368,1.36761,-0.003091276,-0.03835712,-0.07159041,0.09834708,-0.7493496,-0.5128955,0.2843052,0.6337073,1.480754,0.157551,0.008774934,1.175085,0.1450627,77.11137,77.30672,153.6215,True
2,1.47778,0.1938458,-0.09729987,-0.003727436,4.699306,-1.787462,2.139325,0.3970897,1.240672,0.01499018,-0.6464115,0.2030992,0,0,0.04060683,0.02560265,-0.1514636,-0.9472709,-1.819975,-0.3405336,0.5089746,1.366879,-0.003388643,-0.03514916,-0.0824282,0.1174165,-0.7478631,-0.5154764,0.2864736,0.6320026,1.48039,0.1570902,0.006168989,1.175199,0.143528,76.97665,76.16486,152.9651,True
2,1.488891,0.1872847,-0.04725962,-0.0112298,4.70044,-1.787748,2.137497,0.395242,1.240462,0.01473561,-0.6463018,0.002311647,0,0,0.04379767,-0.001100585,-0.1281091,-0.9474962,-1.821435,-0.340328,0.5073345,1.366319,-0.003812581,-0.02995564,-0.1006177,0.1214997,-0.7469011,-0.5185884,0.2888741,0.630424,1.480002,0.1566366,0.003731122,1.175822,0.1423296,76.93704,75.00689,152.3115,True
2,1.500003,0.2020669,-0.008894522,-0.0178474,4.701583,-1.787875,2.134607,0.3933549,1.24007,0.01437679,-0.6473138,-0.09282492,0,0,0.04807975,-0.007539004,-0.1174921,-0.948226,-1.822298,-0.3404737,0.50577,1.365717,-0.004113078,-0.02900691,-0.09940162,0.09704266,-0.7465916,-0.5213553,0.2911386,0.6290107,1.47901,0.1563498,0.001590894,1.176876,0.1416251,77.16322,74.26749,151.8485,True
2,1.511114,0.2275807,0.05615728,-0.009697549,4.703947,-1.789572,2.131167,0.3915334,1.240025,0.01415548,-0.6483071,-0.08994331,0,0,0.06741221,0.02645925,-0.1175062,-0.9499,-1.821142,-0.3425214,0.5042953,1.365253,-0.004405022,-0.0196543,-0.08941433,0.03848011,-0.7481229,-0.5217072,0.2912859,0.6276224,1.478583,0.1559306,-0.0002301256,1.178207,0.1413768,77.58678,73.86966,151.4311,True
2,1.522225,0.2308342,0.105203,0.007213933,4.705817,-1.791521,2.128552,0.3897946,1.239912,0.0139932,-0.6486246,-0.02990974,0,0,0.07706197,0.03919619,-0.1175337,-0.951507,-1.82081,-0.343955,0.5026093,1.364655,-0.00450027,-0.005857991,-0.0711083,0.000203589,-0.7494087,-0.5214102,0.2906657,0.6262238,1.478212,0.1555229,-0.001919391,1.179687,0.1414922,78.06147,73.69059,151.0455,True
2,1.533336,0.2041523,0.1253882,0.006352555,4.70754,-1.79269,2.127155,0.3879838,1.239917,0.01376873,-0.6487588,-0.01645258,0,0,0.09331229,0.04540161,-0.06753016,-0.9509786,-1.819716,-0.3460823,0.5010681,1.364222,-0.004655302,-0.001276981,-0.03489353,-0.001656255,-0.7490076,-0.5198855,0.2891743,0.6250336,1.477569,0.1546914,-0.003656025,1.181226,0.1418428,78.47697,73.64056,150.7369,True
2,1.544447,0.1932438,0.1263819,-0.02123818,4.709263,-1.792506,2.125392,0.386095,1.239826,0.01346567,-0.6497011,-0.09032992,0,0,0.1179581,0.0292083,-0.02294214,-0.9497775,-1.819575,-0.3482405,0.4993453,1.363837,-0.00491026,-0.001330594,-0.06718218,0.03856248,-0.7478007,-0.5231313,0.2915615,0.6235647,1.477249,0.1541657,-0.005391292,1.182805,0.1424108,78.80726,73.78526,150.714,True
2,1.555558,0.2119247,0.1124527,-0.07784475,4.7114,-1.790488,2.122419,0.3842828,1.239794,0.01310059,-0.6514619,-0.1610863,0,0,0.130762,-0.008223906,0.01632814,-0.9479128,-1.820517,-0.349558,0.4977081,1.363422,-0.005102813,0.004892115,-0.1047466,0.06591965,-0.7469144,-0.5272481,0.2943217,0.6221523,1.476901,0.1536853,-0.007014922,1.18435,0.1431751,79.14935,73.85442,150.6051,True
2,1.566669,0.2832647,0.08914547,-0.08697093,4.712251,-1.789525,2.116953,0.3824313,1.23981,0.01276076,-0.6525996,-0.1009666,0,0,0.1316471,-0.03910073,0.006667055,-0.9477642,-1.822318,-0.350035,0.496166,1.363119,-0.005425245,0.009092558,-0.1111655,0.06477881,-0.7466204,-0.5296571,0.2958729,0.6208818,1.476522,0.1532344,-0.00860014,1.185761,0.1439957,79.53323,74.08083,150.5046,True
2,1.577781,0.3112717,0.09033605,-0.05314739,-1.570292,-1.790525,2.112731,0.3804929,1.239879,0.01253018,-0.6525389,0.004994276,0,0,0.1368924,-0.04122308,-0.008277863,-0.9482195,-1.823175,-0.3512158,0.4947796,1.362684,-0.005658746,0.02596561,-0.09500186,0.02534889,-0.7484868,-0.5294372,0.2961547,0.6194875,1.478321,0.1518012,-0.01035549,1.18697,0.1445936,79.88688,74.75138,150.7004,True
2,1.588892,0.3256214,0.1149911,0.006327461,-1.569564,-1.793335,2.10861,0.378675,1.240105,0.01239112,-0.6507844,0.1555453,0,0,0.1540153,-0.02318884,-0.009392308,-0.9485908,-1.822768,-0.3537746,0.4933028,1.362441,-0.005875409,0.03442567,-0.09066479,0.007227618,-0.7492164,-0.5304527,0.2962386,0.6182723,1.47811,0.1512464,-0.01244938,1.18804,0.1446408,80.05315,75.66309,151.1906,True
2,1.600003,0.3183257,0.1320617,0.02766836,-1.568331,-1.795151,2.105488,0.3768222,1.240318,0.01229775,-0.6503946,0.02396037,0,0,0.1659601,-0.004141167,0.01935004,-0.9476725,-1.821783,-0.3565664,0.4919312,1.362086,-0.006156236,0.03858398,-0.09696674,-0.005618158,-0.7497336,-0.5318043,0.2964348,0.6169181,1.476955,0.1509453,-0.01487778,1.189175,0.1440909,79.98861,75.73461,151.2276,True
2,1.611114,0.301194,0.1607838,0.02457019,-1.566012,-1.796764,2.102741,0.3751199,1.240534,0.01217139,-0.6505053,-0.01302648,0,0,0.1672367,-0.005313464,0.06408254,-0.9456054,-1.821,-0.3589073,0.490613,1.361788,-0.00641194,0.03427714,-0.1022563,-0.005638234,-0.7502381,-0.5336744,0.2975387,0.6157908,1.476755,0.1504114,-0.017281,1.190479,0.1432382,79.90502,74.86351,150.7777,True
2,1.622225,0.310551,0.1820747,0.004193917,-1.563175,-1.797476,2.09899,0.3735867,1.24076,0.01207766,-0.6514001,-0.08541981,0,0,0.1608799,-0.01597261,0.08006886,-0.9441103,-1.821067,-0.3605204,0.4893091,1.361444,-0.006607503,0.02678635,-0.1095473,-0.006717623,-0.750229,-0.5337896,0.2971566,0.6146593,1.475396,0.1510363,-0.01936992,1.192011,0.1425409,79.92972,73.69817,150.1993,True
2,1.633336,0.3392745,0.1970451,0.002831981,-1.560858,-1.798774,2.094206,0.3720622,1.240915,0.01195598,-0.6524249,-0.09391738,0,0,0.1554602,-0.01377176,0.05879373,-0.9441795,-1.821242,-0.3619476,0.4881625,1.361044,-0.006814659,0.02580148,-0.1009912,-0.009865186,-0.75107,-0.5346866,0.2972024,0.6142085,1.474999,0.1506889,-0.02113586,1.193737,0.1422575,80.17181,72.93777,149.7897,True
2,1.644447,0.3489848,0.2130699,0.01975136,-1.558855,-1.800834,2.090039,0.3705542,1.24101,0.01177835,-0.652492,-0.006668688,0,0,0.163806,-0.006258011,0.01402056,-0.9456406,-1.821688,-0.3639252,0.4869776,1.360672,-0.006935954,0.02474381,-0.09990762,-0.009833014,-0.7512096,-0.536072,0.2980069,0.6129782,1.474576,0.1506011,-0.02261499,1.195569,0.1424121,80.5635,72.86307,149.7236,True
2,1.655559,0.3312168,0.2536108,0.0656396,-1.556352,-1.805006,2.087013,0.3692033,1.241149,0.01178217,-0.6517815,0.05993191,0,0,0.1647503,-0.0008718222,-0.01580124,-0.9467857,-1.822052,-0.3656222,0.4859533,1.360361,-0.007134289,0.02048803,-0.09987159,-0.01086324,-0.7515345,-0.5378539,0.2990416,0.611779,1.474114,0.1504788,-0.02399176,1.197483,0.1428837,80.95226,73.25255,149.8898,True
2,1.66667,0.2847022,0.3058076,0.116021,-1.553449,-1.809945,2.085595,0.3680208,1.241269,0.01175284,-0.6517011,8.424743E-05,0,0,0.1380689,-0.01033755,-0.01569152,-0.9467346,-1.822608,-0.3658608,0.4849994,1.360185,-0.007273436,0.01732551,-0.0966574,-0.009754312,-0.7519062,-0.53919,0.2999225,0.610863,1.473865,0.1502179,-0.02538119,1.199482,0.1435721,81.28567,73.43382,149.8107,True
2,1.677781,0.2187523,0.3472164,0.1367615,-1.550405,-1.813755,2.085654,0.3670926,1.241133,0.01169941,-0.6525075,-0.07703394,0,0,0.09450082,-0.009114154,0.004767725,-0.9459644,-1.8223,-0.3657711,0.4840541,1.359853,-0.007478982,0.01426524,-0.09361248,0.008373529,-0.7520096,-0.5412425,0.3011756,0.6099498,1.473784,0.1497575,-0.02665154,1.201494,0.144459,81.63163,73.12859,149.3511,True
2,1.688892,0.1311748,0.3427305,0.1120106,-1.547429,-1.815889,2.087026,0.3663101,1.240807,0.01168469,-0.6541805,-0.1529764,0,0,0.07654042,-0.003767349,0.03042745,-0.9449774,-1.821739,-0.3663833,0.4830778,1.359675,-0.007723212,0.01642323,-0.09688798,0.01685944,-0.7518392,-0.5429265,0.3020429,0.6090713,1.473487,0.1496124,-0.0275258,1.203366,0.1456875,82.04298,72.58416,148.7766,True
2,1.700003,0.0456903,0.2977422,0.07453886,-1.545571,-1.816415,2.089039,0.3655386,1.240431,0.01175958,-0.6562679,-0.1873679,0,0,0.05735166,-0.03676821,0.06027202,-0.9429747,-1.822741,-0.3657641,0.4821222,1.359416,-0.007913828,0.01543647,-0.09591919,0.02965698,-0.7514439,-0.5447021,0.3031854,0.6082189,1.473342,0.1493817,-0.02785557,1.204888,0.1473541,82.5612,72.33703,148.3831,True
2,1.711114,-0.009795912,0.2453889,0.05385578,-1.544637,-1.816849,2.091013,0.3648565,1.239934,0.01161376,-0.6583574,-0.1855718,0,0,0.04435154,-0.07290767,0.04960182,-0.94209,-1.825022,-0.3645021,0.4813142,1.359104,-0.008015156,0.01646157,-0.1087924,0.03915561,-0.7509209,-0.5475267,0.304867,0.6072927,1.47332,0.1484977,-0.02772844,1.20581,0.1493222,83.16127,72.81341,148.4153,True
2,1.722225,-0.08007477,0.1354822,0.03449737,-1.546388,-1.815697,2.094048,0.3643045,1.23932,0.01143563,-0.6598317,-0.1282487,0,0,0.01322612,-0.08973388,0.01775225,-0.9424821,-1.827048,-0.3625084,0.4804585,1.35885,-0.008140981,0.01322917,-0.1054732,0.02748172,-0.7513369,-0.5489475,0.3058763,0.6065233,1.473138,0.148232,-0.02747797,1.205934,0.1512659,83.68931,74.19111,149.1151,True
2,1.733337,-0.1343068,0.006437592,0.01822656,-1.549816,-1.813377,2.097236,0.3638773,1.238573,0.01116565,-0.6602493,-0.03277961,0,0,-0.01893171,-0.09483421,-0.01832202,-0.9433007,-1.828976,-0.3601649,0.4797561,1.358489,-0.008257508,0.01114624,-0.08610579,0.006345432,-0.7520745,-0.5490288,0.3058622,0.6058242,1.472917,0.1480383,-0.02745701,1.20518,0.1528149,83.95071,76.08355,150.315,True
2,1.744448,-0.1886215,-0.1140969,-0.005522868,-1.553658,-1.810173,2.100901,0.3636506,1.237714,0.01095751,-0.6606195,-0.03110725,0,0,-0.03817645,-0.08831058,-0.03952112,-0.9440458,-1.830356,-0.3584245,0.4789853,1.358196,-0.008453608,0.00274018,-0.0732755,0.009694487,-0.7520048,-0.5495526,0.3066627,0.6050642,1.472697,0.1477992,-0.02774991,1.203567,0.1536883,83.87247,77.74428,151.4637,True
2,1.755559,-0.2323921,-0.1845466,-0.03053781,-1.556769,-1.806977,2.104844,0.3633385,1.236889,0.01062205,-0.6604128,0.02437656,0,0,-0.07219008,-0.06364028,-0.04675887,-0.9447942,-1.830561,-0.3563637,0.4783859,1.357763,-0.008638173,0.001743944,-0.07552828,0.02566164,-0.7514855,-0.5512156,0.3078921,0.6042602,1.472503,0.1475721,-0.02830547,1.201175,0.1536865,83.48946,78.27632,151.7358,True
2,1.76667,-0.2827193,-0.2752921,-0.07782143,-1.560616,-1.801843,2.109491,0.3632402,1.236014,0.01039696,-0.6599478,0.04602573,0,0,-0.1169068,-0.05597094,-0.04972028,-0.9452389,-1.831182,-0.353365,0.4777637,1.357371,-0.00877583,0.002927486,-0.07887958,0.0448496,-0.7499483,-0.553364,0.3087986,0.6037393,1.471095,0.1485244,-0.0290295,1.198149,0.1527234,82.89085,78.04871,151.5371,True
2,1.777781,-0.305266,-0.3201383,-0.1062822,-1.563776,-1.797477,2.113503,0.3629608,1.235146,0.01007733,-0.6592368,0.06888203,0,0,-0.1382551,-0.06012874,-0.05388906,-0.9456512,-1.832536,-0.3503245,0.477051,1.356932,-0.008943081,0.002984423,-0.07575282,0.04916535,-0.7493294,-0.5555334,0.3103049,0.6028464,1.471014,0.1480156,-0.02981813,1.194657,0.1508622,82.18837,77.71081,151.5204,True
2,1.788892,-0.3160414,-0.3660184,-0.1295229,-1.567361,-1.792727,2.117244,0.3627708,1.234073,0.009647995,-0.6586977,0.05289258,0,0,-0.1457569,-0.05152919,-0.07300784,-0.9469019,-1.833448,-0.3481044,0.4763217,1.356451,-0.009195805,-0.0002814811,-0.07777781,0.03957838,-0.7494742,-0.5568437,0.3113659,0.602103,1.470692,0.1478192,-0.03065969,1.190904,0.1482874,81.45371,77.45756,151.7961,True
2,1.800003,-0.3032052,-0.3734403,-0.1253648,-1.570342,-1.789594,2.120082,0.3624156,1.233191,0.009350151,-0.6574514,0.119005,0,0,-0.1394641,-0.05151268,-0.09434391,-0.9483639,-1.834886,-0.3461175,0.4756532,1.355864,-0.009410858,-0.0003943145,-0.08627042,0.02986496,-0.7508484,-0.5591878,0.3128279,0.6016939,1.471246,0.1473734,-0.03152164,1.187071,0.1451672,80.7196,76.92544,151.911,True
2,1.811115,-0.2635213,-0.3551831,-0.09274489,4.709958,-1.787961,2.121635,0.3620274,1.232375,0.009039342,-0.6559685,0.1369536,0,0,-0.1342742,-0.05681697,-0.1167552,-0.9500358,-1.836791,-0.3436663,0.4749751,1.355341,-0.009698421,-0.0121277,-0.08183108,0.02037712,-0.751225,-0.5601951,0.314086,0.6010067,1.470899,0.1471964,-0.03245464,1.183342,0.1417661,80.02219,76.23707,151.959,True
2,1.822226,-0.2388425,-0.3338375,-0.0674839,4.706914,-1.785539,2.123612,0.3618102,1.23142,0.008538187,-0.6540766,0.1740893,0,0,-0.1417163,-0.05037647,-0.1209595,-0.9512066,-1.837605,-0.341438,0.4743571,1.354855,-0.009975076,-0.01526398,-0.06785543,0.009849176,-0.7515217,-0.560142,0.3143377,0.6003599,1.470617,0.1465749,-0.03339525,1.179849,0.1383518,79.37296,75.2963,151.8059,True
2,1.833337,-0.2334844,-0.2496227,-0.04640458,4.706935,-1.785836,2.125976,0.3614507,1.230831,0.008257896,-0.6517671,0.2098439,0,0,-0.146894,-0.02586856,-0.113423,-0.9523277,-1.837343,-0.3397948,0.4738681,1.354352,-0.01019755,-0.0299511,-0.03354577,-0.001507755,-0.7516506,-0.5588147,0.3141899,0.599679,1.470284,0.1463572,-0.03434156,1.176768,0.1353141,78.73522,74.3306,151.6872,True
2,1.844448,-0.2337855,-0.1708332,-0.06255138,4.707927,-1.78497,2.128595,0.3610182,1.23036,0.00814864,-0.6504728,0.114529,0,0,-0.1349237,0.002791643,-0.08890992,-0.9527895,-1.836138,-0.3394236,0.4732966,1.353925,-0.01038194,-0.02674503,-0.03256053,-0.0003906041,-0.7510546,-0.5606135,0.3157471,0.5986009,1.470448,0.1455414,-0.03516151,1.17425,0.133005,78.19543,73.54402,151.5939,True
2,1.855559,-0.2212328,-0.1239662,-0.0776807,4.708748,-1.78387,2.13063,0.3606277,1.229738,0.007836998,-0.6500984,0.03478143,0,0,-0.1273682,0.000568673,-0.06657951,-0.9527768,-1.83648,-0.3380388,0.4726467,1.35343,-0.01061201,-0.03325994,-0.04634575,-0.001532831,-0.7514157,-0.5619552,0.3173119,0.5978153,1.470128,0.1452613,-0.03568171,1.17231,0.1315195,77.8864,73.07675,151.5045,True
2,1.86667,-0.1767143,-0.06530592,-0.08993351,4.710543,-1.783368,2.131032,0.3600791,1.229298,0.007568359,-0.6502609,-0.0125916,0,0,-0.1198625,-0.005892329,-0.05065071,-0.9526878,-1.83681,-0.3367498,0.4719729,1.352933,-0.01082802,-0.03658326,-0.05680917,-0.01223157,-0.7515723,-0.5618407,0.3175021,0.5969036,1.469896,0.1455891,-0.03593398,1.170917,0.1309613,77.83419,73.3477,151.9219,True
2,1.877781,-0.1182137,-0.02575927,-0.09161799,4.711999,-1.783162,2.130512,0.359489,1.228785,0.007185578,-0.6502193,0.006815491,0,0,-0.1091655,0.005775958,-0.05174523,-0.9535049,-1.836632,-0.3359072,0.4713132,1.352549,-0.01115638,-0.04074612,-0.04607199,-0.01211929,-0.7514727,-0.560956,0.3173202,0.5961678,1.469466,0.1456884,-0.03607136,1.169973,0.1311914,77.98796,74.17789,152.5367,True
2,1.888893,-0.1075567,-0.01294836,-0.08854757,-1.570452,-1.782597,2.131314,0.3589242,1.228248,0.006848246,-0.6492947,0.08542774,0,0,-0.09317445,0.01744023,-0.06031979,-0.9546431,-1.836311,-0.3356496,0.4706125,1.352066,-0.01138765,-0.03750829,-0.04184683,-0.01103729,-0.7516447,-0.5613409,0.3178943,0.5953965,1.469094,0.1455187,-0.03622564,1.169348,0.1318743,78.20848,75.15495,153.0141,True
2,1.900004,-0.05935986,0.02985519,-0.05178855,-1.569128,-1.784458,2.130293,0.3580196,1.227913,0.006586373,-0.6482464,0.09222733,0,0,-0.06973515,0.02373514,-0.06574882,-0.9557148,-1.836217,-0.335741,0.4699261,1.351562,-0.01167098,-0.04171817,-0.0354246,-0.009893563,-0.7517465,-0.5616166,0.3188632,0.5945101,1.468703,0.1454115,-0.03659986,1.168995,0.1327114,78.38295,76.29708,153.6078,True
2,1.911115,-0.05076299,0.04694116,-0.0401853,-1.568168,-1.785057,2.130539,0.3573294,1.227531,0.006270438,-0.6487439,-0.04922746,0,0,-0.06213316,0.03537326,-0.04658724,-0.9558996,-1.835365,-0.3357186,0.4692509,1.351135,-0.0119257,-0.04266123,-0.02804605,0.0008254088,-0.7513683,-0.5618138,0.3195154,0.5937192,1.468325,0.1452809,-0.03715443,1.168864,0.1334376,78.54659,77.1813,154.0137,True
2,1.922226,-0.05420732,0.06180714,-0.0636145,-1.566349,-1.784449,2.131396,0.3566453,1.226967,0.005847931,-0.6483369,0.04050079,0,0,-0.05771572,0.04062232,-0.02103237,-0.9555923,-1.834412,-0.3358789,0.468508,1.350763,-0.0121007,-0.02982944,-0.03135598,0.003928181,-0.7511883,-0.5621344,0.3187876,0.5933299,1.467568,0.1450078,-0.03778039,1.168853,0.1338798,78.71901,77.52988,154.0751,True
2,1.933337,-0.05863273,0.07028744,-0.07957169,-1.564675,-1.783799,2.132186,0.3559818,1.226541,0.005517393,-0.6491162,-0.07565279,0,0,-0.05984136,0.03102243,-0.01145457,-0.955441,-1.834345,-0.3351788,0.4678612,1.350315,-0.01226053,-0.02354522,-0.03772317,-0.005746566,-0.7517699,-0.5628363,0.3193439,0.5926015,1.467108,0.144898,-0.03852206,1.168956,0.1341265,78.84652,77.6702,154.1597,True
2,1.944448,-0.05550192,0.08840217,-0.0828255,-1.562824,-1.783942,2.132677,0.3552332,1.226122,0.00512895,-0.6504819,-0.1219895,0,0,-0.04185145,0.004307387,-0.0116031,-0.9553366,-1.835436,-0.3347037,0.467026,1.349915,-0.01238728,-0.02557252,-0.02052261,-0.01623842,-0.7517539,-0.5610164,0.3181572,0.5919213,1.466526,0.1441523,-0.03917289,1.169068,0.1341564,79.06539,77.90076,154.3211,True
2,1.955559,-0.04789734,0.1119053,-0.06269018,-1.561149,-1.785261,2.132854,0.3544643,1.225693,0.005016357,-0.6515977,-0.09824961,0,0,-0.02164762,-0.01178294,-0.004280263,-0.9549531,-1.836169,-0.3347359,0.4662719,1.349518,-0.01249474,-0.02018016,-0.009880504,-0.02044363,-0.7520341,-0.5604846,0.3178107,0.5911717,1.466094,0.1440195,-0.03975436,1.169048,0.1338426,79.36514,78.3426,154.6299,True
2,1.966671,-0.04345875,0.1417957,-0.03722597,-1.559183,-1.787019,2.133181,0.3537247,1.225297,0.004831046,-0.6522475,-0.05725426,0,0,-0.0153064,-0.026732,-8.005369E-05,-0.9545499,-1.836902,-0.3343053,0.4655282,1.349115,-0.01256979,-0.01272538,-0.01640079,-0.01095116,-0.7519062,-0.5608889,0.3180419,0.5903561,1.465968,0.1437882,-0.04036504,1.168829,0.1331438,79.58022,78.6575,154.9188,True
2,1.977782,-0.0571698,0.1514053,-0.02006452,-1.557613,-1.788519,2.134325,0.3529167,1.224951,0.004709542,-0.6525069,-0.02278974,0,0,-0.01637326,-0.024593,-0.002198175,-0.9545653,-1.837116,-0.3338813,0.4647052,1.348695,-0.01265192,7.927418E-06,-0.02181759,-0.0121272,-0.7520852,-0.5613376,0.3179705,0.5895753,1.465783,0.1438823,-0.04106946,1.168402,0.132195,79.66618,78.67323,155.149,True
2,1.988893,-0.08379184,0.1566844,-0.01769895,-1.555908,-1.789469,2.136206,0.3522253,1.224505,0.004519284,-0.6527845,-0.02543344,0,0,-0.02161139,-0.007528919,-4.184898E-06,-0.9546468,-1.836495,-0.3338182,0.4639134,1.348338,-0.01269332,0.005217645,-0.03139754,-0.01862592,-0.7526828,-0.5620861,0.3182946,0.5888264,1.465398,0.143789,-0.04181651,1.167794,0.1313066,79.64446,78.48811,155.384,True
2,2.000004,-0.1190426,0.1566043,-0.02801502,-1.554029,-1.789984,2.138645,0.3515384,1.223891,0.004248291,-0.6535296,-0.06725582,0,0,-0.02163951,-0.01712601,0.00423711,-0.9542719,-1.837,-0.3332014,0.463165,1.347971,-0.01281196,0.005301554,-0.02497266,-0.0185486,-0.7523792,-0.5615034,0.3174051,0.5882192,1.464562,0.1438285,-0.04251692,1.167041,0.1307437,79.58229,78.54559,155.8098,True
2,2.011115,-0.1211464,0.1630008,-0.02374765,-1.552247,-1.790964,2.140088,0.3508856,1.223365,0.004105657,-0.6545246,-0.08757256,0,0,-0.01967766,-0.05442717,0.005206604,-0.9536306,-1.839211,-0.3317159,0.4623225,1.347556,-0.01283145,0.006470858,-0.02621002,0.001676504,-0.7518072,-0.5622828,0.3178736,0.5874541,1.464157,0.1437599,-0.04312359,1.166155,0.1306141,79.54601,78.90899,156.3162,True
2,2.022226,-0.116852,0.1790099,-0.0163554,-1.55012,-1.792543,2.141227,0.3501854,1.222747,0.003998905,-0.6554732,-0.08225427,0,0,-0.01452651,-0.09493007,0.007222377,-0.9527549,-1.841737,-0.3302237,0.4615259,1.347066,-0.01294646,0.01077153,-0.03811756,0.02393691,-0.7508085,-0.5634419,0.3183002,0.5869215,1.462981,0.1436594,-0.04356357,1.16508,0.1308341,79.58856,79.69943,156.9781,True
2,2.033337,-0.116679,0.1897069,0.004928753,-1.54845,-1.794492,2.142617,0.3495667,1.222098,0.003896117,-0.6552671,0.02348371,0,0,-0.01357691,-0.1162301,0.00291213,-0.9521914,-1.844025,-0.3288043,0.4608035,1.346534,-0.01298541,0.01178887,-0.04883868,0.03130249,-0.7505422,-0.5650129,0.3192784,0.5861742,1.462536,0.1436021,-0.04390265,1.163754,0.1312363,79.63064,80.76492,157.7737,True
2,2.044448,-0.1229656,0.1875978,0.01565364,-1.546994,-1.796208,2.144211,0.3490012,1.221518,0.003847897,-0.6546295,0.05799161,0,0,-0.02648783,-0.1246548,-0.01409169,-0.9524039,-1.846213,-0.3267059,0.4600289,1.34601,-0.013044,0.006444577,-0.05739302,0.04085172,-0.750082,-0.566667,0.3205698,0.5854795,1.462122,0.1435778,-0.04426689,1.162227,0.1317378,79.5435,81.8602,158.6516,True
2,2.055559,-0.1452032,0.169465,0.02655177,-1.546321,-1.797433,2.14665,0.3484533,1.220832,0.003754675,-0.6541911,0.03971733,0,0,-0.0488842,-0.08931993,-0.05119751,-0.9542447,-1.84672,-0.3250441,0.4592874,1.345553,-0.01314998,0.006426828,-0.05613045,0.02702064,-0.7499579,-0.5656256,0.319068,0.5849228,1.461997,0.1430043,-0.0446762,1.160565,0.1323282,79.37485,82.92249,159.5813,True
2,2.06667,-0.1750546,0.1406313,0.0183592,-1.545675,-1.797621,2.149657,0.3480642,1.220189,0.003685743,-0.6539344,0.02451827,0,0,-0.06155846,-0.05515137,-0.06064799,-0.9553909,-1.846486,-0.3240716,0.4586639,1.345104,-0.01319513,0.007529203,-0.05186798,0.03023463,-0.7496639,-0.565558,0.3191599,0.5842352,1.461902,0.1425793,-0.0450321,1.158835,0.1330083,79.16576,83.81577,160.3706,True
2,2.077781,-0.2006624,0.1150054,0.007996552,-1.544957,-1.797768,2.152608,0.3477609,1.219569,0.003721565,-0.6542385,-0.02620572,0,0,-0.07760181,-0.0646588,-0.06378631,-0.9556881,-1.848024,-0.3218087,0.4580274,1.344705,-0.01319745,0.02233523,-0.06153113,0.02688727,-0.7495483,-0.5667077,0.3193932,0.5836272,1.461685,0.1427104,-0.0452998,1.157094,0.1337435,78.96845,84.62164,161.028,True
2,2.088892,-0.2166408,0.07980382,0.0007609501,-1.545038,-1.797438,2.155562,0.3475375,1.218857,0.003664792,-0.6547749,-0.04500905,0,0,-0.09048022,-0.08270835,-0.06589647,-0.9560034,-1.850141,-0.3191439,0.4574132,1.344281,-0.01319188,0.01938035,-0.04230554,0.03239444,-0.7485501,-0.5654241,0.3176187,0.5832658,1.461394,0.1427496,-0.04545311,1.155337,0.1344242,78.83419,85.32022,161.5018,True
2,2.100003,-0.2208339,0.03823932,-0.001242585,-1.545766,-1.796916,2.157974,0.347281,1.218185,0.003491402,-0.6549746,-0.01355123,0,0,-0.08413996,-0.09125336,-0.06914245,-0.9564322,-1.851932,-0.3174773,0.4568334,1.343866,-0.01321706,0.01005413,-0.0328422,0.06449857,-0.7463892,-0.5652975,0.317832,0.5814669,1.462139,0.1418207,-0.04549264,1.153537,0.1348973,78.7298,86.02652,161.9756,True
2,2.111114,-0.2186833,0.01373496,-0.004407492,-1.546166,-1.796459,2.160239,0.3470688,1.217477,0.003357798,-0.6549304,0.007149714,0,0,-0.08417012,-0.1125906,-0.05534056,-0.955964,-1.854191,-0.3152714,0.4563713,1.343415,-0.01325285,0.005864345,-0.03613876,0.08154186,-0.7451418,-0.5666835,0.3189247,0.580749,1.461963,0.1417984,-0.0454757,1.15168,0.1350835,78.61262,86.59642,162.4017,True
2,2.122225,-0.2229679,-0.01931692,-0.01495735,-1.546836,-1.795275,2.162668,0.3468797,1.216743,0.00315547,-0.6543754,0.05357074,0,0,-0.1065597,-0.1231486,-0.04993139,-0.955865,-1.856263,-0.3122213,0.4559186,1.34299,-0.01328066,-0.001359135,-0.02868645,0.1040257,-0.7427641,-0.5654829,0.3177244,0.5805702,1.46107,0.1423986,-0.04547265,1.149765,0.1349429,78.44969,86.81738,162.5623,True
2,2.133336,-0.2432979,-0.04601969,-0.02963102,-1.547467,-1.793857,2.166056,0.3467877,1.215934,0.002987832,-0.6537325,0.05957561,0,0,-0.1235018,-0.1060404,-0.04448577,-0.9560248,-1.85711,-0.3097746,0.4554718,1.342577,-0.01337954,0.002959639,-0.03622443,0.1080281,-0.744149,-0.5657027,0.316199,0.5813384,1.462238,0.1421439,-0.04557601,1.147833,0.1344883,78.22385,86.76028,162.5476,True
2,2.144447,-0.2497202,-0.05776072,-0.03594787,-1.547866,-1.792709,2.168929,0.3467355,1.215133,0.002908885,-0.6533378,0.03719287,0,0,-0.1351028,-0.08148302,-0.0433109,-0.956486,-1.857146,-0.3078686,0.4550254,1.342152,-0.01349491,0.007172316,-0.03834682,0.1026599,-0.7434033,-0.5668564,0.3168166,0.5808752,1.462091,0.1421868,-0.04576476,1.145914,0.1337813,77.99508,86.69241,162.6137,True
2,2.155558,-0.2560951,-0.05671246,-0.03482653,-1.548227,-1.792067,2.171806,0.3466675,1.214399,0.002955824,-0.6536766,-0.02895474,0,0,-0.1489573,-0.06220329,-0.0623761,-0.9578229,-1.857622,-0.3054672,0.4547052,1.341702,-0.01355016,-0.002393812,-0.02533055,0.08256761,-0.7433026,-0.5666802,0.3165798,0.5797224,1.461691,0.1425214,-0.04597587,1.144013,0.132851,77.81423,86.57458,162.6565,True
2,2.166669,-0.2527667,-0.04388697,-0.01783887,-1.548482,-1.792399,2.174482,0.3465979,1.213703,0.002895474,-0.6535653,0.01543796,0,0,-0.1437581,-0.06110626,-0.08903074,-0.9595082,-1.859196,-0.3031764,0.4543316,1.341127,-0.01344526,-0.008820377,-0.02199588,0.07197828,-0.742958,-0.5670151,0.3171915,0.5792768,1.461518,0.1426313,-0.0460937,1.142076,0.1317414,77.69258,86.35145,162.6486,True
2,2.17778,-0.2472183,-0.02891428,0.007645896,-1.548933,-1.793317,2.176783,0.3464782,1.212998,0.002807111,-0.6533746,0.01938401,0,0,-0.1426513,-0.0536596,-0.08795349,-0.9602193,-1.859972,-0.3012368,0.4539409,1.340708,-0.01344815,-0.009794213,-0.01241742,0.07419244,-0.7420451,-0.5671231,0.3174214,0.5787592,1.461392,0.1427203,-0.04596376,1.141118,0.1308079,77.72823,82.09935,158.3792,True
2,2.188891,-0.2483906,-0.02467757,-0.003005639,-1.548814,-1.792932,2.179562,0.346458,1.212306,0.002706319,-0.6530625,0.03093206,0,0,-0.1435433,-0.04199098,-0.06342105,-0.9600642,-1.859963,-0.2996384,0.4535673,1.340283,-0.01344615,-0.01183975,-0.01563508,0.08691579,-0.7410842,-0.5665141,0.3165769,0.5783415,1.460258,0.1428405,-0.04570616,1.140583,0.1304138,77.96653,79.41647,155.6574,True
2,2.200002,-0.2636874,-0.03118328,-0.04652428,-1.548095,-1.790994,2.182831,0.3464816,1.211409,0.00254333,-0.652565,0.04729646,0,0,-0.1488849,-0.05370116,-0.05703035,-0.9601873,-1.861304,-0.2971353,0.4532902,1.339748,-0.01348898,-0.01812799,-0.02325867,0.1145844,-0.7391551,-0.5681642,0.3181868,0.5777755,1.460297,0.1425494,-0.04537984,1.140233,0.1304794,78.39552,79.16074,155.4185,True
2,2.211113,-0.26603,-0.03869587,-0.07098982,-1.54773,-1.789238,2.185815,0.3465266,1.210679,0.002326518,-0.6525592,0.001342207,0,0,-0.1490008,-0.08140326,-0.0549606,-0.9601558,-1.863678,-0.2941203,0.4529088,1.33932,-0.01348576,-0.02548428,-0.02010619,0.1274369,-0.7374282,-0.5691997,0.3194984,0.5773273,1.460094,0.1427013,-0.04502941,1.139934,0.1307318,78.89001,80.42533,156.7145,True
2,2.222224,-0.2606051,-0.05144329,-0.06354073,-1.548324,-1.788628,2.188432,0.346669,1.209877,0.002253175,-0.652973,-0.03441331,0,0,-0.1459651,-0.1048331,-0.06567526,-0.9605969,-1.866466,-0.2909884,0.4526892,1.338957,-0.01345989,-0.02446283,-0.01903006,0.1242571,-0.7361718,-0.5702948,0.321034,0.5769546,1.459745,0.1419646,-0.04467931,1.139591,0.1308584,79.43568,81.67451,157.8684,True
2,2.233335,-0.2562497,-0.049282,-0.05293205,-1.548578,-1.788169,2.191125,0.3467371,1.209262,0.00212729,-0.6530902,-0.006088544,0,0,-0.1341952,-0.09423799,-0.06464604,-0.9610944,-1.867494,-0.2892819,0.4524529,1.338641,-0.01351181,-0.01817949,-0.02539571,0.1145808,-0.7354383,-0.5714349,0.321855,0.5766027,1.459557,0.1420117,-0.04442924,1.139153,0.1305581,79.91441,81.16307,157.1492,True
2,2.244446,-0.2455107,-0.03005521,-0.03922099,-1.548327,-1.788406,2.193568,0.3467553,1.208827,0.002061844,-0.6528665,0.02310374,0,0,-0.1319359,-0.07722437,-0.05396429,-0.9612185,-1.867791,-0.2876941,0.4522636,1.338401,-0.01346058,-0.01415957,-0.02615967,0.07407042,-0.7360525,-0.5714976,0.3218715,0.5763955,1.459239,0.1420338,-0.04414583,1.138676,0.1299086,80.17077,77.49336,153.2908,True
2,2.255557,-0.2370392,-0.01832418,-0.04145322,-1.547868,-1.788059,2.19605,0.3467591,1.20834,0.001996905,-0.6527397,0.01314418,0,0,-0.1264678,-0.06664194,-0.03373255,-0.9609036,-1.868265,-0.2860701,0.4520311,1.33808,-0.01348403,-0.01837011,-0.01843428,0.06247485,-0.7345152,-0.5689198,0.3196526,0.5756516,1.459749,0.1414016,-0.04392496,1.138226,0.1293567,80.41322,73.17043,148.8609,True
2,2.266668,-0.2126191,-0.002308317,-0.04703947,-1.547048,-1.787776,2.197597,0.3467748,1.20792,0.001840651,-0.6525037,0.02399916,0,0,-0.1157361,-0.05284887,-0.03055858,-0.9610618,-1.868505,-0.2849822,0.4518709,1.337798,-0.01351148,-0.03529182,-0.008768932,0.07010977,-0.7334623,-0.5690908,0.3207282,0.5753298,1.459656,0.1415135,-0.04365176,1.137861,0.1290163,80.60303,70.41354,146.099,True
2,2.277779,-0.1817653,0.01692965,-0.04735961,-1.54613,-1.787876,2.198659,0.3467524,1.207572,0.001708031,-0.6523887,0.01212366,0,0,-0.1125358,-0.03472292,-0.04651046,-0.9620637,-1.868775,-0.2836807,0.4517822,1.337584,-0.01353097,-0.03624182,-0.000328436,0.08190511,-0.7320657,-0.5693101,0.3216593,0.5749142,1.459578,0.1416193,-0.04337814,1.137576,0.1289003,80.89072,69.48135,145.1863,True
2,2.28889,-0.1690624,0.02759397,-0.05389157,-1.545125,-1.787617,2.200096,0.3468032,1.207203,0.001507044,-0.6517432,0.06127821,0,0,-0.1189087,-0.02829738,-0.04859557,-0.962615,-1.869123,-0.2819537,0.4516122,1.33731,-0.01356292,-0.036195,-0.0004039933,0.09148179,-0.7309456,-0.5698142,0.3225439,0.5746772,1.459225,0.1419434,-0.04312106,1.137311,0.1289111,81.23729,69.96329,145.5423,True
2,2.300001,-0.1660332,0.0201048,-0.07307286,-1.544378,-1.786527,2.201958,0.3467431,1.206805,0.00121066,-0.6510012,0.06688753,0,0,-0.1242167,-0.04216343,-0.03155688,-0.9620824,-1.870265,-0.2796764,0.4514124,1.337055,-0.01359186,-0.03294603,-0.007906791,0.104186,-0.7291943,-0.5692807,0.3218846,0.5748615,1.45876,0.1424647,-0.04294195,1.137096,0.1288843,81.5096,70.03099,145.4906,True
2,2.311112,-0.1543439,0.009463636,-0.07848547,-1.543948,-1.785521,2.203301,0.3467774,1.206461,0.0009709597,-0.6508814,0.01004101,0,0,-0.1124921,-0.04862671,-0.02417266,-0.9619077,-1.871225,-0.2782492,0.451282,1.336844,-0.01371261,-0.02564874,-0.02282914,0.09763099,-0.7285844,-0.5707757,0.3230396,0.5746567,1.458606,0.1426222,-0.04280188,1.13691,0.1288035,81.68322,69.63139,144.9838,True
2,2.322223,-0.1297962,-0.005398629,-0.07655073,-1.543939,-1.784567,2.203955,0.3467479,1.206136,0.000678122,-0.6512947,-0.03607922,0,0,-0.1039326,-0.04334472,-0.02206989,-0.9619759,-1.871634,-0.2771722,0.4511166,1.336588,-0.01380938,-0.01423052,-0.02997852,0.05494338,-0.7286068,-0.570285,0.3223991,0.5732498,1.459333,0.1410712,-0.04208693,1.136671,0.1282159,82.15257,63.13103,138.3408,True
2,2.333334,-0.1105735,-0.01494201,-0.07351272,-1.54389,-1.783738,2.204545,0.3467734,1.205925,0.0004653335,-0.6513922,-0.005843367,0,0,-0.09315033,-0.01570201,-0.02099905,-0.9624296,-1.870862,-0.2769027,0.451021,1.336438,-0.01391128,-0.01204104,-0.00422062,0.02847597,-0.7292838,-0.5686829,0.3210923,0.5745406,1.459655,0.1409397,-0.04239988,1.136645,0.1279199,81.88071,63.05532,138.1671,True
2,2.344445,-0.1041345,-0.006388545,-0.0671891,-1.543407,-1.783556,2.205472,0.3466771,1.205806,0.0003108084,-0.6510805,0.0290362,0,0,-0.07383321,0.006572843,-0.01466049,-0.9627711,-1.86977,-0.2774819,0.4509428,1.336311,-0.01408324,-0.01201683,-0.004277515,0.03698911,-0.728668,-0.5687753,0.3216928,0.5735071,1.458754,0.1416188,-0.04242343,1.13652,0.1277245,81.92999,63.30857,138.226,True
2,2.355556,-0.1009256,0.01919634,-0.05982343,-1.542254,-1.783713,2.206627,0.3466127,1.205575,9.328127E-05,-0.6509287,0.01285173,0,0,-0.06103127,-0.005243715,-0.0009112079,-0.962281,-1.870467,-0.276866,0.4507165,1.336117,-0.01422775,-0.01408001,-0.005427841,0.04977636,-0.727769,-0.5693728,0.3223725,0.5732784,1.458705,0.1416994,-0.04234639,1.136442,0.1275804,81.87423,62.13969,136.8649,True
2,2.366668,-0.09236098,0.07783967,-0.04297982,-1.540005,-1.785468,2.207421,0.346519,1.205444,-7.376075E-05,-0.651202,-0.02483279,0,0,-0.05790358,-0.03511694,0.01285621,-0.9613111,-1.871911,-0.2754915,0.450567,1.335977,-0.01426119,-0.01507527,-0.01185673,0.06673892,-0.7266978,-0.5683817,0.32163,0.573107,1.459998,0.1407591,-0.04232733,1.136398,0.1275007,81.89455,60.90523,135.5094,True
2,2.377779,-0.08282786,0.122605,-0.0399636,-1.537552,-1.786851,2.207999,0.3463647,1.205295,-0.0002484024,-0.6516931,-0.04320343,0,0,-0.05685586,-0.04899004,0.02134631,-0.9605452,-1.872851,-0.2743722,0.4504607,1.335864,-0.0142881,-0.009613961,-0.008773845,0.08057861,-0.7252586,-0.5680947,0.3209495,0.5732322,1.45913,0.142154,-0.04220447,1.136346,0.1273542,81.98242,60.92809,135.4338,True
2,2.38889,-0.07328293,0.1993492,-0.02849354,-1.533603,-1.789909,2.208605,0.3462853,1.205177,-0.0003551841,-0.6518667,-0.01371749,0,0,-0.04517671,-0.05756564,0.02126997,-0.9600675,-1.873892,-0.2736691,0.4503462,1.335681,-0.01431066,-0.008544639,-0.009864721,0.08269418,-0.7243282,-0.5688099,0.3215495,0.5731413,1.459092,0.1422869,-0.04219985,1.136247,0.1274225,82.18141,60.15933,134.6412,True
2,2.400001,-0.07436378,0.2132047,-0.02744857,-1.531241,-1.791257,2.209537,0.3461738,1.20502,-0.0003661513,-0.6518939,-0.002246359,0,0,-0.03562544,-0.05118325,0.006330667,-0.9603018,-1.874388,-0.2734246,0.4503706,1.335518,-0.01430699,-0.00552512,-0.02365326,0.07191229,-0.7241646,-0.5700552,0.3224364,0.5730751,1.45905,0.1424217,-0.04198089,1.136139,0.1274955,82.40891,61.38314,135.8447,True
2,2.411112,-0.06475329,0.2164259,-0.02434821,-1.529095,-1.792637,2.209967,0.3461008,1.204908,-0.0004541874,-0.6519583,-0.005720674,0,0,-0.02710173,-0.02773929,-0.01496615,-0.9612595,-1.874142,-0.2735104,0.4502521,1.335356,-0.01440468,-0.001494102,-0.04168576,0.05789436,-0.7243734,-0.5717261,0.3235512,0.5731065,1.458996,0.1425896,-0.04189829,1.136053,0.1276353,82.76768,62.53431,137.053,True
2,2.422223,-0.04651496,0.1973008,-0.01488565,-1.528107,-1.793601,2.209869,0.3459678,1.204807,-0.000595361,-0.6523259,-0.03311549,0,0,-0.01323774,-0.005386827,-0.03309915,-0.9623972,-1.873643,-0.2741154,0.4501977,1.335248,-0.01448783,-0.0006390791,-0.04574234,0.03441387,-0.7249593,-0.5718645,0.3241999,0.5737057,1.457397,0.1422554,-0.04173309,1.135987,0.1278626,83.10693,64.03938,138.6372,True
2,2.433334,-0.04214362,0.1813475,-0.006370053,-1.527099,-1.794652,2.210229,0.3458793,1.204692,-0.0006556809,-0.6523125,0.003088503,0,0,-0.0110882,-6.892718E-05,-0.03416355,-0.9628115,-1.873589,-0.2740813,0.4501195,1.335119,-0.01452202,0.001535034,-0.03720377,0.03020745,-0.7247979,-0.5720664,0.324266,0.5737481,1.457225,0.1424361,-0.0415468,1.135879,0.1280674,83.45464,65.3378,139.9525,True
2,2.444445,-0.03441104,0.1526482,0.01706473,-1.527177,-1.795958,2.210404,0.3458395,1.204618,-0.0005990863,-0.6519631,0.03152382,0,0,-0.001538036,-0.02037851,-0.02146693,-0.9622944,-1.874469,-0.2737514,0.4499769,1.335088,-0.01441529,0.0057838,-0.03935861,0.03442325,-0.7243063,-0.5720984,0.3243847,0.5739551,1.457059,0.1419511,-0.04143719,1.135835,0.1279822,83.4688,62.82565,137.4825,True
2,2.455556,-0.03546265,0.1441236,0.01709648,-1.526178,-1.79696,2.21095,0.345757,1.204552,-0.0005029738,-0.6520622,-0.01050294,0,0,-0.002620997,-0.03210963,-0.01403144,-0.962003,-1.875363,-0.2731503,0.4498765,1.334978,-0.01443243,0.01119142,-0.03412592,0.04082437,-0.7237406,-0.5727155,0.3245395,0.5740156,1.456896,0.1421545,-0.04124982,1.135759,0.1278182,83.58571,60.42627,134.9693,True
2,2.466667,-0.03540862,0.1366754,0.02137289,-1.525398,-1.798046,2.211389,0.3458192,1.204369,-0.000449568,-0.6521011,-0.002537817,0,0,-0.005891813,-0.06942423,0.006148469,-0.9606698,-1.877507,-0.2716925,0.4498241,1.334847,-0.01433286,0.01451994,-0.02571417,0.05152454,-0.7228533,-0.5731552,0.3245935,0.5741012,1.456764,0.1424194,-0.04116919,1.13573,0.127861,83.73807,60.89748,135.4361,True
2,2.477778,-0.03540371,0.1174943,0.01821932,-1.5249,-1.798567,2.211866,0.3458226,1.204268,-0.0004318953,-0.6524164,-0.02893368,0,0,-0.006012119,-0.09178989,0.003974974,-0.9601671,-1.879381,-0.2704363,0.4498179,1.33465,-0.01433185,0.01673742,-0.01947516,0.06118897,-0.7216602,-0.5752565,0.3262825,0.5737035,1.456951,0.1412992,-0.04121206,1.135727,0.1279749,83.68882,60.52559,135.2147,True
2,2.488889,-0.03222266,0.08978733,0.01079025,-1.524769,-1.79853,2.212142,0.3459547,1.204086,-0.0004226267,-0.6526188,-0.01703836,0,0,-0.004954714,-0.08431886,-0.004536148,-0.9603093,-1.880305,-0.2698765,0.4498022,1.33449,-0.01431352,0.01785624,-0.02170649,0.07288348,-0.7206226,-0.5762536,0.3268023,0.5737827,1.456828,0.1414436,-0.04125999,1.135734,0.1280988,83.67002,59.93962,134.8315,True
2,2.5,-0.03223761,0.05887381,0.002346255,-1.524966,-1.798321,2.21243,0.3460205,1.203853,-0.0004963279,-0.6527988,-0.01596324,0,0,-0.004908495,-0.06085702,-0.01620424,-0.9609468,-1.880262,-0.2698131,0.4498596,1.334277,-0.01451591,0.01029203,-0.02797882,0.06757762,-0.7198455,-0.5770842,0.3279688,0.5724118,1.456275,0.1412192,-0.04123311,1.135688,0.1281944,83.74393,59.90825,134.8948,True
2,2.511111,-0.02898025,0.03757861,0.004491108,-1.525254,-1.798245,2.212639,0.3461437,1.20367,-0.0005230904,-0.6528111,-0.0003465279,0,0,-0.01124613,-0.03630215,-0.02783791,-0.9616936,-1.880046,-0.2696083,0.4500122,1.334078,-0.01456827,0.008135598,-0.02469895,0.05909373,-0.7195494,-0.5775053,0.3282706,0.572473,1.456109,0.1413387,-0.04115603,1.135622,0.1283072,83.93612,61.60191,136.5274,True
2,2.522222,-0.0170827,0.007793128,0.01722872,-1.526362,-1.798228,2.212384,0.3462634,1.203434,-0.0005135238,-0.6528159,-0.000382619,0,0,-0.02393119,-0.008529803,-0.0341068,-0.96246,-1.879271,-0.2694248,0.4501362,1.333866,-0.01466855,0.007119741,-0.01723649,0.06128587,-0.7188117,-0.5774631,0.3285664,0.5725331,1.456036,0.1412488,-0.04100592,1.135556,0.1282492,84.00195,60.32737,135.1747,True
2,2.533333,-0.01484959,-0.009231891,0.02470086,-1.52724,-1.798244,2.212471,0.3464599,1.203249,-0.0005193353,-0.6527637,0.005030191,0,0,-0.02815352,-0.00532914,-0.02875483,-0.9626288,-1.879353,-0.2688986,0.4502597,1.333752,-0.01474595,0.01027555,-0.01719224,0.05384303,-0.7180074,-0.5779704,0.3286836,0.5725131,1.45604,0.1410374,-0.04089661,1.135466,0.1281409,84.19066,59.28406,134.0698,True
2,2.544444,-0.01476564,-0.0252063,0.0311273,-1.528294,-1.798251,2.212729,0.3467724,1.203164,-0.0005375147,-0.6524148,0.03194874,0,0,-0.04097567,-0.006315321,-0.03614822,-0.9631605,-1.879675,-0.2678879,0.4504845,1.333765,-0.01480621,-0.005641874,-0.002076465,0.04447033,-0.71774,-0.5773807,0.3288482,0.5725756,1.455958,0.1413275,-0.04082014,1.135431,0.1281041,84.27118,58.50248,133.2668,True
2,2.555555,-0.03092205,-0.03593247,0.009988616,-1.528426,-1.797324,2.213589,0.3470602,1.203052,-0.000530988,-0.6523961,0.000196952,0,0,-0.04299973,-0.004215559,-0.01589068,-0.9626923,-1.879394,-0.2674804,0.4506924,1.333641,-0.01474917,-0.008632667,0.01066071,0.05523797,-0.7166119,-0.5768164,0.3280586,0.5727625,1.45676,0.1415298,-0.04077626,1.135412,0.1281314,84.32874,58.07784,132.8831,True
2,2.566666,-0.04934774,-0.04563073,-0.02604237,-1.528212,-1.795597,2.214706,0.3474181,1.202974,-0.0006556213,-0.6525592,-0.01437913,0,0,-0.04602074,0.005327512,0.01077816,-0.961823,-1.878626,-0.2673097,0.4509039,1.333622,-0.01475349,-0.006504629,0.01279923,0.05204566,-0.7161016,-0.5767314,0.3280029,0.5728624,1.456759,0.1417347,-0.04072604,1.135407,0.1281988,84.417,57.98917,132.8539,True
2,2.577777,-0.05496706,-0.05635003,-0.05899969,-1.527772,-1.793701,2.215496,0.3476527,1.202891,-0.0006843209,-0.6531184,-0.05031573,0,0,-0.05248904,-0.01702248,0.01608847,-0.9612983,-1.879526,-0.265992,0.451081,1.333578,-0.01466402,-0.007694703,0.005438439,0.04346771,-0.7159957,-0.5767145,0.3283129,0.5730515,1.456854,0.1417246,-0.04060053,1.135383,0.1283714,84.50728,58.04865,132.9153,True
2,2.588888,-0.04216102,-0.06804344,-0.05909391,-1.528293,-1.792475,2.215481,0.3479316,1.202823,-0.0008128285,-0.6537064,-0.05115263,0,0,-0.05254818,-0.02767059,0.0139345,-0.9610326,-1.880289,-0.2649691,0.4513009,1.333522,-0.01466569,-0.004542012,0.002189595,0.04340214,-0.7159759,-0.5774467,0.3290676,0.573072,1.458034,0.1406771,-0.04045763,1.135335,0.1283641,84.65273,57.42171,132.2333,True
2,2.599999,-0.02505404,-0.07971655,-0.0549613,-1.529089,-1.791527,2.215072,0.3482115,1.202788,-0.0009253323,-0.6538327,-0.009058328,0,0,-0.05461054,-0.003137894,0.005467769,-0.961612,-1.87941,-0.2648109,0.4516125,1.333499,-0.01484388,0.004912784,-0.005251469,0.03156631,-0.7160963,-0.5778871,0.3290479,0.5732484,1.458185,0.1408029,-0.04027094,1.135289,0.1281135,84.68338,54.40236,129.2344,True
2,2.61111,-0.01546434,-0.08183573,-0.0550381,-1.529608,-1.790466,2.214938,0.3484447,1.202805,-0.001153201,-0.6532547,0.05339168,0,0,-0.0556051,0.01284273,0.005505137,-0.9617537,-1.878643,-0.2645504,0.4518766,1.33353,-0.01489228,0.00281615,0.004454989,0.01883684,-0.716647,-0.5769072,0.3277872,0.573422,1.457633,0.1411982,-0.04018681,1.135258,0.1278259,84.63094,51.69889,126.3215,True
2,2.622221,-0.01125328,-0.07650983,-0.05934952,-1.529657,-1.789408,2.214873,0.3487375,1.202938,-0.001321405,-0.6524968,0.06726626,0,0,-0.05347469,0.01390993,0.003362468,-0.9618794,-1.878374,-0.2642729,0.4522016,1.333586,-0.01498204,0.000731241,0.01517449,0.01254196,-0.7165645,-0.5760608,0.3272167,0.5736761,1.457787,0.1414103,-0.04013212,1.135258,0.1275792,84.58822,50.55408,125.067,True
2,2.633332,-0.007043025,-0.05200237,-0.05944276,-1.529049,-1.788974,2.214853,0.3490503,1.203072,-0.001558512,-0.6521677,0.02797122,0,0,-0.04177601,0.001049973,0.01179512,-0.9613734,-1.878898,-0.2638626,0.4525073,1.33376,-0.01500675,0.0008010641,0.01723793,0.02108057,-0.7159584,-0.5759562,0.327139,0.5739501,1.457947,0.1416527,-0.04013946,1.135296,0.1274817,84.52425,49.58453,124.024,True
