loc,t,aDotUA,bDotUA,gDotUA,aUA,bUA,gUA,xUA,yUA,zUA,qE,qDotE,emgA,emgB,aDotSH,bDotSH,gDotSH,aSH,bSH,gSH,xSH,ySH,zSH,aDotUB,bDotUB,gDotUB,aUB,bUB,gUB,xUB,yUB,zUB,xHand,yHand,zHand,aHand,bHand,gHand,enable
1,0,0.01291863,-0.1619445,0.1149281,-1.445774,-4.470638,-2.986874,0.7149892,1.116581,0.4146795,-1.333577,-0.002645593,1.2,0.4,-0.2576457,0.2267737,0.03814242,-0.685732,-4.379767,-0.06333769,0.7666247,1.298792,0.3401263,-0.1974949,0.2794342,0.009350234,-0.9548972,0.1217057,0.01093467,0.8630924,1.358679,0.181241,0.4739938,0.9809883,0.2752622,299.5777,253.0576,350.0591,True
1,0.01111111,0.03406498,-0.09794285,0.1209811,-1.447437,-4.471226,-2.987859,0.7144729,1.116354,0.414587,-1.333682,-0.009697259,1.1,0.5,-0.2416633,0.2501965,0.03163688,-0.6860282,-4.374114,-0.0657641,0.7659749,1.298909,0.3400364,-0.1997182,0.2869037,-0.0001991615,-0.9551108,0.1258096,0.01086117,0.8631656,1.358789,0.1815245,0.4738896,0.9807351,0.2743906,299.6509,253.0649,349.9056,True
1,0.02222222,0.03832737,-0.1011358,0.1199321,-1.448502,-4.469645,-2.98849,0.7138681,1.116283,0.4143875,-1.333838,-0.01426166,1.1,0.5,-0.227942,0.2651275,0.01767949,-0.6865613,-4.368694,-0.06792472,0.7653924,1.298857,0.3400345,-0.2060566,0.2794355,0.006221151,-0.9548264,0.1293844,0.0113219,0.8631457,1.358716,0.1819038,0.4737602,0.9805106,0.2736189,299.7267,253.1744,349.648,True
1,0.03333334,0.04695749,-0.1426777,0.1169445,-1.449148,-4.466509,-2.989715,0.7132486,1.116251,0.4142439,-1.334265,-0.03895899,1.1,0.5,-0.2143897,0.2630612,-0.005926065,-0.6875813,-4.364149,-0.06945284,0.7648875,1.298623,0.3401027,-0.201733,0.2762229,0.01363558,-0.9543853,0.1329695,0.01130831,0.8631544,1.358749,0.1822567,0.4735166,0.9802998,0.2729937,299.7699,253.2748,349.4005,True
1,0.04444445,0.05236667,-0.1778663,0.1086037,-1.449581,-4.463185,-2.990795,0.7126967,1.116178,0.4140332,-1.33357,0.06370734,1.1,0.5,-0.2145244,0.2513649,-0.01342438,-0.6880063,-4.36059,-0.06968294,0.7643834,1.298654,0.3401146,-0.1867457,0.2698184,0.02201702,-0.953858,0.1363834,0.01084626,0.8632762,1.35875,0.1826,0.4731492,0.9800755,0.2725809,299.7769,253.4161,349.1708,True
1,0.05555556,0.06096867,-0.2098836,0.09384286,-1.449481,-4.459696,-2.992246,0.71214,1.116155,0.4138365,-1.333793,-0.02095078,1.1,0.5,-0.2221412,0.2183869,-0.01877768,-0.6883292,-4.358467,-0.06858705,0.7639347,1.298537,0.3401327,-0.1728674,0.2580982,0.02507059,-0.9534825,0.1394106,0.01052961,0.8633215,1.358762,0.1829321,0.472766,0.979839,0.2722873,299.8106,253.4936,349.1451,True
1,0.06666667,0.06523283,-0.2163326,0.08109099,-1.44957,-4.457039,-2.993333,0.7116895,1.11611,0.4136341,-1.333577,0.01991739,0.8,0.5,-0.2389724,0.1927677,0.004768348,-0.6874913,-4.356368,-0.06699288,0.7633939,1.298659,0.3401294,-0.1739172,0.2527667,0.02719452,-0.953115,0.1426625,0.01072482,0.8634297,1.358806,0.1832869,0.4725217,0.9795956,0.2719613,299.84,253.4721,349.2641,True
1,0.07777778,0.0641234,-0.199343,0.07141085,-1.44976,-4.455314,-2.994272,0.7112256,1.116058,0.4134238,-1.333813,-0.02183572,0.8,0.5,-0.2429032,0.1926717,0.03038782,-0.6864282,-4.352956,-0.06702804,0.7628309,1.298752,0.3398063,-0.1750836,0.2581234,0.01443039,-0.9533696,0.1463924,0.01053626,0.8634815,1.358783,0.1836197,0.4724497,0.9793195,0.2714715,299.8741,253.3975,349.3808,True
1,0.08888889,0.05982409,-0.1865777,0.07028411,-1.45032,-4.45352,-2.994926,0.7107352,1.115902,0.4132321,-1.333497,0.0290676,0.8,0.5,-0.2364199,0.2118138,0.03358237,-0.686189,-4.348121,-0.06835616,0.76229,1.298664,0.3397646,-0.1741102,0.2709327,0.00380255,-0.9536194,0.1506735,0.00998499,0.8634402,1.358735,0.1839802,0.4725344,0.978987,0.2707709,299.9226,253.2402,349.4475,True
1,0.1,0.04382037,-0.178135,0.06278826,-1.450475,-4.45179,-2.995042,0.710314,1.115815,0.4131544,-1.333355,0.01266052,0.8,0.5,-0.2290687,0.2395495,0.01761828,-0.6869293,-4.342537,-0.07051411,0.7618192,1.298572,0.3395817,-0.17207,0.2677657,-0.00793883,-0.9540902,0.1542005,0.009707754,0.8635066,1.358747,0.1842141,0.4726902,0.9785913,0.2699008,300.0084,253.0845,349.3881,True
1,0.1111111,0.03103118,-0.17927,0.05747323,-1.450651,-4.449524,-2.995159,0.7098074,1.115698,0.4130766,-1.333012,0.03124086,0.9,0.6,-0.202444,0.2512026,0.01520157,-0.6871765,-4.33757,-0.07282387,0.761324,1.298546,0.3398752,-0.1635433,0.2454051,-0.009124135,-0.9541691,0.1566036,0.009802829,0.8634405,1.358688,0.184448,0.4727924,0.9781457,0.2689504,300.1149,252.9537,349.2437,True
1,0.1222222,0.02252104,-0.1846402,0.05324262,-1.450756,-4.447237,-2.995379,0.7093772,1.115653,0.4129515,-1.332451,0.05101364,0.9,0.6,-0.1812401,0.2383787,0.009565688,-0.6873528,-4.334209,-0.07413335,0.760986,1.298496,0.3398831,-0.145409,0.2347459,-0.006104289,-0.9541441,0.1592918,0.009310411,0.8635716,1.358758,0.1847003,0.4728133,0.9776835,0.2680057,300.2198,252.8373,349.0884,True
1,0.1333333,0.01399258,-0.1857752,0.04472575,-1.450601,-4.445101,-2.995463,0.709048,1.115714,0.4129205,-1.332381,0.006097757,0.9,0.6,-0.1825012,0.1936662,0.003003563,-0.6876708,-4.33312,-0.07302361,0.760684,1.298541,0.3398147,-0.1336413,0.2283464,0.0001794947,-0.9538532,0.1621817,0.008778844,0.8636065,1.358772,0.1850624,0.4727812,0.9772708,0.2671497,300.3276,252.6763,349,True
1,0.1444445,0.009695562,-0.1762308,0.039352,-1.450624,-4.443399,-2.995521,0.7087352,1.115657,0.4128134,-1.332549,-0.01536288,0.9,0.6,-0.1837282,0.1574506,-0.001382538,-0.6877294,-4.332583,-0.07129496,0.7605392,1.298592,0.3397992,-0.1260922,0.2123446,0.01072971,-0.9533946,0.1643386,0.008675247,0.8637837,1.358824,0.1852906,0.4726969,0.976957,0.266402,300.4154,252.5219,348.9689,True
1,0.1555556,0.009648049,-0.1570808,0.0349851,-1.450611,-4.442274,-2.995814,0.7083917,1.115717,0.4126148,-1.332513,0.003516555,0.9,0.6,-0.180549,0.1147995,0.005861627,-0.6874514,-4.332835,-0.06938706,0.7603083,1.298711,0.3396955,-0.1218223,0.1995637,0.01066364,-0.9533009,0.1665277,0.008572183,0.8638401,1.358812,0.1855271,0.4726376,0.9767883,0.2657707,300.4754,252.3847,348.9756,True
1,0.1666667,0.006423159,-0.1485965,0.02961703,-1.45058,-4.440855,-2.995872,0.7080411,1.115682,0.412514,-1.33259,-0.007051171,0.9,0.3,-0.1613828,0.09342079,0.009802409,-0.6872132,-4.332269,-0.06871994,0.7599983,1.298673,0.339721,-0.1229205,0.1921157,0.006396131,-0.9533456,0.1688511,0.008646219,0.863915,1.358751,0.1857691,0.4726242,0.9767777,0.2652611,300.493,252.2495,349.0021,True
1,0.1777778,-0.009581307,-0.1380039,0.0263681,-1.450566,-4.439649,-2.995411,0.7077036,1.11577,0.412401,-1.332945,-0.03242812,0.9,0.3,-0.125238,0.08694315,0.005082515,-0.6872718,-4.33108,-0.06949705,0.7598555,1.298571,0.3398569,-0.1208861,0.1772313,-0.005371465,-0.9537696,0.1707283,0.008932509,0.8639377,1.358788,0.1858389,0.4725599,0.9768783,0.26484,300.4639,252.1791,349.005,True
1,0.1888889,-0.02021256,-0.1476088,0.02854387,-1.450572,-4.437596,-2.995073,0.7072939,1.115797,0.4121923,-1.33274,0.01910632,0.9,0.3,-0.1156636,0.08158819,0.004946823,-0.6872415,-4.329879,-0.06944858,0.7595306,1.298588,0.3398767,-0.1155728,0.1623315,-0.007580596,-0.9539043,0.1724854,0.009041166,0.8640146,1.358798,0.186024,0.4723998,0.977045,0.264485,300.405,252.1338,349.0145,True
1,0.2,-0.0276165,-0.1689499,0.02546068,-1.45036,-4.434987,-2.994814,0.706831,1.115929,0.4120874,-1.332259,0.0437926,0.9,0.3,-0.1263107,0.08375201,0.004014511,-0.687405,-4.328407,-0.06896389,0.7592099,1.298769,0.3397174,-0.1145587,0.1421049,-0.01402581,-0.9542421,0.1735801,0.009728794,0.864061,1.358786,0.1860685,0.4721695,0.9772296,0.2641779,300.3328,252.0875,349.0339,True
1,0.2111111,-0.04142197,-0.1871312,0.01917219,-1.450028,-4.432286,-2.994231,0.7063231,1.115967,0.4120424,-1.332305,-0.004523316,0.9,0.5,-0.1473362,0.09330085,0.0256358,-0.6862391,-4.326334,-0.06810103,0.7590595,1.298747,0.3395734,-0.09752563,0.118674,-0.01529017,-0.9544545,0.1742492,0.01001455,0.8640964,1.358768,0.1861129,0.4718829,0.9774308,0.2638814,300.2914,252.0523,349.0727,True
1,0.2222222,-0.04886822,-0.1925205,0.01068002,-1.449503,-4.42999,-2.993711,0.7058741,1.116033,0.4119036,-1.332411,-0.009604993,0.9,0.5,-0.1596676,0.08464457,0.06624252,-0.6841298,-4.325142,-0.06661338,0.758878,1.298728,0.3395982,-0.09005582,0.1069562,-0.01431344,-0.9545653,0.1752143,0.01019511,0.8641425,1.358736,0.1862152,0.4715835,0.9776459,0.2635109,300.2551,251.9877,349.1609,True
1,0.2333333,-0.07019883,-0.1862339,0.00107051,-1.448973,-4.428161,-2.992359,0.7054474,1.116124,0.4118733,-1.332171,0.02214393,0.9,0.5,-0.1562832,0.07498454,0.08319767,-0.6828452,-4.324118,-0.06592096,0.7585999,1.298925,0.3395765,-0.08055877,0.1027196,-0.02399276,-0.9551976,0.1764929,0.01020843,0.8642,1.35876,0.1863656,0.4713357,0.9778762,0.2630151,300.2151,251.8383,349.266,True
1,0.2444444,-0.08727589,-0.1735173,-0.002179228,-1.448699,-4.426534,-2.991084,0.7049788,1.116155,0.4117541,-1.332343,-0.01587577,0.9,0.5,-0.1467433,0.07496502,0.079886,-0.6821336,-4.322874,-0.06547328,0.7583826,1.298884,0.339498,-0.07626132,0.09525513,-0.01978874,-0.9553095,0.1775225,0.01036476,0.8642169,1.358702,0.1864581,0.4711218,0.9781032,0.2623803,300.1643,251.6401,349.338,True
1,0.2555556,-0.09262853,-0.1618216,-0.003305634,-1.448379,-4.425058,-2.990128,0.7044772,1.116244,0.4115779,-1.331697,0.05927226,0.9,0.5,-0.1416194,0.07929662,0.06279437,-0.6820942,-4.320871,-0.06550018,0.7581404,1.298894,0.3396616,-0.07310846,0.09313146,-0.02408066,-0.9557036,0.1786436,0.01055384,0.8642241,1.358775,0.1866498,0.4709428,0.9783282,0.2616491,300.1158,251.4131,349.3742,True
1,0.2666667,-0.1064814,-0.1575884,-0.001197475,-1.44813,-4.423362,-2.988808,0.703962,1.116266,0.4114654,-1.331859,-0.01516989,1.2,0.4,-0.128095,0.09002675,0.03390664,-0.6827828,-4.318733,-0.06613082,0.7578632,1.2989,0.339694,-0.06888376,0.0984709,-0.02836556,-0.9561579,0.1802613,0.01024997,0.864234,1.358712,0.186789,0.4707355,0.9785724,0.2608899,300.0946,251.1941,349.3643,True
1,0.2777778,-0.1182308,-0.1459221,-0.00551525,-1.447735,-4.422173,-2.987253,0.7033988,1.116401,0.4113119,-1.332352,-0.0448555,1.2,0.4,-0.1250133,0.06127009,0.03056151,-0.6824734,-4.319053,-0.06470443,0.7576174,1.29895,0.3395176,-0.06360387,0.09634862,-0.03267349,-0.9566287,0.1814277,0.01029392,0.8642288,1.358749,0.1868701,0.4704325,0.9788613,0.2601402,300.07,251.0231,349.343,True
1,0.2888889,-0.1246257,-0.145963,-0.01190237,-1.447186,-4.42066,-2.985861,0.7027446,1.116543,0.4112923,-1.332119,0.0217661,1.2,0.4,-0.1281974,0.02288009,0.04110476,-0.6814369,-4.320725,-0.06171183,0.7574438,1.298979,0.3394644,-0.05934104,0.09954093,-0.03057508,-0.9569265,0.182911,0.01017115,0.8643036,1.358669,0.1870179,0.4700488,0.9792066,0.259434,300.0132,250.8644,349.3524,True
1,0.3,-0.1363649,-0.1385688,-0.01832861,-1.446566,-4.419423,-2.984091,0.7020816,1.116708,0.411078,-1.332018,0.009038321,1.2,0.4,-0.146257,-0.01226402,0.05290094,-0.6803465,-4.322649,-0.05800791,0.7571797,1.299101,0.339442,-0.05724627,0.1016823,-0.03484862,-0.9574362,0.1844208,0.009881926,0.8643457,1.358667,0.1871037,0.4695946,0.9796022,0.2587862,299.9392,250.716,349.3732,True
1,0.3111111,-0.1566187,-0.1333459,-0.02793702,-1.445742,-4.418186,-2.981893,0.701326,1.116944,0.4109237,-1.332244,-0.02062534,1.2,0.3,-0.1632588,-0.01436871,0.05735973,-0.6796222,-4.322785,-0.05549096,0.7569764,1.2992,0.3393192,-0.05402192,0.1112644,-0.02952903,-0.9576493,0.1864025,0.009417737,0.8644114,1.358716,0.1871731,0.4690431,0.9800634,0.2582133,299.8746,250.5513,349.4128,True
1,0.3222222,-0.1736978,-0.120639,-0.03438916,-1.445016,-4.417383,-2.979532,0.7006099,1.117102,0.4106953,-1.332034,0.01949879,1.2,0.3,-0.1673151,0.01649526,0.06712212,-0.6786374,-4.32081,-0.0550771,0.7566459,1.299292,0.339232,-0.05064455,0.1186698,-0.007165436,-0.9568914,0.188306,0.008725847,0.8643559,1.358752,0.1872292,0.4683967,0.9805943,0.2577336,299.7921,250.3775,349.4837,True
1,0.3333333,-0.1960956,-0.1132929,-0.04401686,-1.443933,-4.416415,-2.976744,0.6998574,1.117355,0.410419,-1.331704,0.03011308,1.2,0.3,-0.167157,0.03457564,0.07678491,-0.6774927,-4.318911,-0.05457989,0.7563043,1.299315,0.3391495,-0.05918739,0.1101487,-0.009241866,-0.9570314,0.1894096,0.009141566,0.8643107,1.358774,0.1872292,0.4676248,0.9811912,0.2573155,299.7057,250.2284,349.5896,True
1,0.3444445,-0.2046331,-0.1122865,-0.0504111,-1.442965,-4.415241,-2.974219,0.6989691,1.117675,0.4101965,-1.331708,-0.0006094982,1.2,0.3,-0.176412,0.04621527,0.101452,-0.6755156,-4.3174,-0.05346669,0.7559038,1.2995,0.3390207,-0.06456637,0.1112306,-0.01559325,-0.9574698,0.1910319,0.009119995,0.8642056,1.358789,0.1873107,0.4667229,0.9818725,0.2569338,299.6111,250.0741,349.7252,True
1,0.3555556,-0.2280323,-0.1283966,-0.06417237,-1.441448,-4.413466,-2.971153,0.6979285,1.118072,0.4100244,-1.331434,0.02530275,1.2,0.3,-0.191094,0.03445111,0.1228904,-0.6734388,-4.317374,-0.0509255,0.7555238,1.29957,0.3387306,-0.05933107,0.115522,-0.02522073,-0.9581164,0.1928854,0.008670188,0.8641275,1.358772,0.1873651,0.465724,0.9826503,0.2565696,299.482,249.9432,349.869,True
1,0.3666667,-0.2524875,-0.1466242,-0.07471976,-1.439973,-4.411401,-2.967893,0.696731,1.118416,0.4098749,-1.331812,-0.03468813,1.4,0.6,-0.2190162,-0.01018795,0.1155955,-0.6722953,-4.319954,-0.04539491,0.7550175,1.29971,0.3385038,-0.05615791,0.1283118,-0.02734778,-0.9585057,0.1951539,0.007893077,0.8640792,1.358784,0.1873834,0.4646503,0.9835398,0.2561855,299.3511,249.7812,350.0476,True
1,0.3777778,-0.2790704,-0.1680684,-0.08844966,-1.438097,-4.409058,-2.96421,0.6954597,1.118857,0.4095416,-1.331412,0.03704205,1.4,0.6,-0.2554899,-0.04199134,0.1020664,-0.6715224,-4.322409,-0.03947497,0.7545403,1.299799,0.3382494,-0.05718328,0.1261717,-0.02201624,-0.9585116,0.1968496,0.007656056,0.864038,1.358809,0.1873405,0.4635093,0.9845456,0.2557496,299.2029,249.5703,350.2406,True
1,0.3888889,-0.3025211,-0.1660449,-0.09804139,-1.436393,-4.407615,-2.96021,0.6943008,1.119325,0.409286,-1.331314,0.008753671,1.4,0.6,-0.2756112,-0.03984269,0.1119118,-0.6698862,-4.322765,-0.03537929,0.7540361,1.300041,0.3380153,-0.05714534,0.1187048,-0.01777251,-0.9585702,0.1981675,0.007542072,0.8639702,1.358849,0.1873264,0.4622667,0.9856545,0.2552247,299.0374,249.2657,350.4777,True
1,0.4,-0.3334379,-0.1587376,-0.1119179,-1.434379,-4.406425,-2.955517,0.6928052,1.119868,0.4089544,-1.331061,0.02323618,1.4,0.6,-0.2870634,-0.01217805,0.1270732,-0.6680263,-4.321346,-0.03296674,0.7534341,1.300247,0.3377321,-0.06030804,0.1144293,-0.01350136,-0.9586762,0.1994878,0.007615842,0.8638623,1.358846,0.1873231,0.4608886,0.9868553,0.254581,298.8441,248.9355,350.7244,True
1,0.4111111,-0.3633103,-0.1450333,-0.1258332,-1.432254,-4.405673,-2.950549,0.6912115,1.120449,0.4085362,-1.331063,-0.0002210214,1.8,0.5,-0.295188,0.03462826,0.1486789,-0.6656017,-4.318077,-0.03209402,0.7528532,1.300478,0.3373582,-0.06136437,0.1240109,-0.01133927,-0.9587167,0.201597,0.007185475,0.8637486,1.358902,0.1873069,0.4594153,0.9881632,0.2538018,298.6462,248.5715,350.997,True
1,0.4222222,-0.393089,-0.1686452,-0.1438096,-1.429654,-4.403355,-2.945534,0.6895396,1.121098,0.4081531,-1.33066,0.03705742,1.8,0.5,-0.2981698,0.05801871,0.1605349,-0.6634158,-4.315826,-0.03055924,0.7522874,1.300758,0.3370333,-0.068844,0.1336015,-0.01339455,-0.9590469,0.2038012,0.006970558,0.8636206,1.358928,0.1872973,0.4578681,0.9896036,0.2529405,298.4402,248.2003,351.2228,True
1,0.4333333,-0.4323878,-0.2178442,-0.1627216,-1.426518,-4.399883,-2.940027,0.6876609,1.121783,0.4077213,-1.330674,-0.001409292,1.8,0.5,-0.3117818,0.0825052,0.1746418,-0.6611809,-4.312861,-0.02897812,0.7515914,1.301054,0.3367567,-0.07311907,0.1367977,-0.01441625,-0.9592099,0.2057268,0.006865629,0.863492,1.358992,0.1872501,0.4560602,0.9911772,0.2520095,298.2395,247.793,351.456,True
1,0.4444444,-0.4589285,-0.2542306,-0.1806304,-1.423226,-4.396344,-2.934604,0.6858677,1.122458,0.407268,-1.330702,-0.00228109,1.8,0.5,-0.3362258,0.08147621,0.180267,-0.6589566,-4.311495,-0.02543186,0.7508664,1.30132,0.3363547,-0.06665432,0.1357122,-0.005944677,-0.9589191,0.2074668,0.006333263,0.8632915,1.359059,0.187191,0.4540108,0.9929233,0.2510683,298.0005,247.3505,351.7578,True
1,0.4555556,-0.5099751,-0.2917947,-0.2091896,-1.419019,-4.392599,-2.927837,0.68387,1.123149,0.4066844,-1.330338,0.03343316,1.8,0.5,-0.3458812,0.07619604,0.1761065,-0.6571355,-4.310362,-0.02217295,0.7502445,1.301467,0.3360047,-0.07087526,0.135699,-0.0005880285,-0.9588051,0.2092861,0.006270146,0.8631525,1.35912,0.1871226,0.451868,0.9948524,0.2501132,297.6977,246.8143,352.2114,True
1,0.4666667,-0.5568744,-0.2877857,-0.2347624,-1.415007,-4.390367,-2.920389,0.6819385,1.123911,0.406054,-1.33067,-0.03036922,2.7,0.6,-0.3972561,0.03589028,0.1659217,-0.6555834,-4.312142,-0.01459998,0.7494479,1.301739,0.3356168,-0.06762975,0.1420774,0.005792134,-0.9585191,0.2114686,0.005653092,0.8629409,1.359175,0.1870723,0.4496957,0.9969398,0.2490627,297.3493,246.1801,352.7803,True
1,0.4777778,-0.5942767,-0.2463599,-0.241362,-1.411867,-4.389803,-2.912652,0.6799781,1.124597,0.4054327,-1.329658,0.09312263,2.7,0.6,-0.4165019,0.02423802,0.1629136,-0.6538731,-4.312352,-0.009118663,0.7486503,1.301988,0.335248,-0.07830735,0.1463428,0.003760503,-0.958518,0.213707,0.005676262,0.8627309,1.359218,0.1870928,0.4475676,0.9991447,0.2478751,296.95,245.4689,353.3965,True
1,0.4888889,-0.6253335,-0.1814066,-0.2331651,-1.409553,-4.390494,-2.904635,0.6778173,1.1253,0.4047241,-1.329463,0.01726838,2.7,0.6,-0.4207748,0.03490907,0.1598155,-0.652173,-4.311105,-0.005256813,0.7477713,1.3022,0.3348475,-0.09849563,0.1750813,0.01144894,-0.9581132,0.2173729,0.005385444,0.8624299,1.359288,0.1870701,0.4453452,1.001425,0.2464891,296.5815,244.6429,354.0535,True
1,0.5,-0.6520805,-0.1334347,-0.2142259,-1.407787,-4.390918,-2.896501,0.6754661,1.126045,0.4040399,-1.329839,-0.03414376,2.7,0.6,-0.4120185,0.0774585,0.1694812,-0.6498182,-4.307156,-0.004118579,0.7468884,1.302334,0.334425,-0.1101644,0.1931719,0.01903991,-0.9576653,0.2207874,0.005077316,0.8620882,1.359327,0.1870646,0.4429719,1.003838,0.2449854,296.2422,243.8405,354.5992,True
1,0.5111111,-0.6723718,-0.1110545,-0.2026189,-1.405784,-4.390814,-2.88848,0.6732147,1.126837,0.4033632,-1.330197,-0.03206389,2.7,0.6,-0.4161864,0.1211658,0.1675867,-0.647954,-4.30232,-0.003153183,0.745943,1.302465,0.3337877,-0.1143676,0.2006096,0.0276176,-0.9569947,0.2238248,0.004836034,0.8617649,1.359449,0.1869886,0.440343,1.006428,0.2434978,295.8757,243.202,354.9599,True
1,0.5222223,-0.7064963,-0.09833664,-0.1973409,-1.403664,-4.390545,-2.879521,0.6708016,1.127594,0.4025578,-1.330425,-0.02037128,3,0.4,-0.4300623,0.132932,0.1635432,-0.6462656,-4.299448,-0.000107858,0.7448955,1.302713,0.3332305,-0.1207368,0.1995342,0.03086288,-0.9565297,0.2264907,0.004881574,0.8613505,1.359535,0.1869156,0.4373541,1.009219,0.2421286,295.4649,242.7251,355.2357,True
1,0.5333334,-0.7491133,-0.09523763,-0.1952128,-1.401346,-4.390153,-2.869909,0.6684244,1.128279,0.4016769,-1.330791,-0.03312216,3,0.4,-0.4492478,0.1340531,0.1627178,-0.6444376,-4.297065,0.003676494,0.7439641,1.302772,0.3326092,-0.1260516,0.2037927,0.03304879,-0.9560738,0.2295179,0.00476333,0.8610048,1.359619,0.1868954,0.4341139,1.012221,0.2409393,294.9932,242.3076,355.5862,True
1,0.5444446,-0.7725884,-0.0825161,-0.1952698,-1.399069,-4.390224,-2.860422,0.666065,1.128978,0.4008029,-1.330169,0.05734575,3,0.4,-0.4704563,0.1394133,0.169394,-0.6422831,-4.294176,0.007356983,0.7428977,1.303006,0.3320365,-0.1335126,0.2208306,0.03314716,-0.955694,0.2331084,0.004364122,0.8606582,1.359695,0.1868746,0.4308283,1.015406,0.2399243,294.4499,241.8443,356.1083,True
1,0.5555557,-0.8067805,-0.041057,-0.195475,-1.39717,-4.391772,-2.84995,0.6635944,1.129704,0.399883,-1.329767,0.0364484,3,0.4,-0.4726796,0.1533106,0.1588373,-0.6406873,-4.290484,0.009794574,0.7417538,1.30319,0.3315094,-0.1473466,0.2325356,0.03647899,-0.9552205,0.2367639,0.004437093,0.8602653,1.359804,0.1868262,0.427479,1.018708,0.2389574,293.8735,241.3479,356.7393,True
1,0.5666668,-0.832464,0.005865186,-0.1722716,-1.396573,-4.393685,-2.83958,0.661185,1.130439,0.3988769,-1.330302,-0.04889497,2.7,0.5,-0.4717141,0.1703912,0.1471759,-0.6394159,-4.286597,0.01184521,0.7406363,1.303382,0.3309445,-0.1643308,0.255945,0.04519469,-0.9544349,0.2411893,0.004267715,0.8598965,1.359894,0.1868286,0.4241263,1.022099,0.2379382,293.288,240.8038,357.4225,True
1,0.577778,-0.8474864,0.05070074,-0.1469375,-1.396246,-4.395842,-2.829245,0.6586837,1.131065,0.397764,-1.329999,0.02843826,2.7,0.5,-0.4794186,0.1843365,0.124955,-0.6386308,-4.282691,0.01447934,0.7394087,1.303489,0.3303609,-0.1728642,0.2665932,0.04529557,-0.9538266,0.245241,0.004199272,0.8594762,1.359949,0.186723,0.4207798,1.025555,0.236824,292.7066,240.2254,358.0634,True
1,0.5888891,-0.8624747,0.08380432,-0.1247361,-1.396129,-4.397977,-2.818894,0.6561865,1.131724,0.3966475,-1.330474,-0.04343216,2.7,0.5,-0.4883465,0.1855659,0.09205201,-0.6385115,-4.279075,0.01736168,0.7382104,1.30363,0.32971,-0.1760806,0.2740505,0.04321088,-0.9533951,0.2491977,0.003955859,0.8590462,1.360001,0.1866865,0.4173199,1.02909,0.2356223,292.1635,239.7488,358.5429,True
1,0.6000003,-0.8700173,0.1211934,-0.09935117,-1.396695,-4.400341,-2.808665,0.6536062,1.132416,0.3954887,-1.330924,-0.0405677,2.7,0.5,-0.488425,0.1791945,0.08670959,-0.6375565,-4.276172,0.0203572,0.7370842,1.303832,0.3290899,-0.1824908,0.2729908,0.04112866,-0.9530388,0.2528554,0.004080762,0.8585634,1.36008,0.1866126,0.413782,1.032742,0.2343636,291.5988,239.4482,358.8804,True
1,0.6111114,-0.8689676,0.1308532,-0.0855528,-1.396753,-4.402183,-2.798715,0.6510758,1.133179,0.3944178,-1.331214,-0.02594328,2.7,0.5,-0.4916359,0.1813422,0.08569123,-0.636552,-4.27255,0.02316657,0.7358471,1.304041,0.3284686,-0.1931581,0.282582,0.04017363,-0.9525967,0.2572483,0.004076767,0.8580719,1.360184,0.186655,0.4101872,1.036485,0.2330408,290.9763,239.1581,359.2437,True
1,0.6222225,-0.882893,0.1596389,-0.07398026,-1.397194,-4.404877,-2.787738,0.6486101,1.133838,0.3931916,-1.331621,-0.03689915,4.1,0.7,-0.4895315,0.1898724,0.08143719,-0.6357232,-4.26858,0.02536821,0.7345462,1.304195,0.3277762,-0.1983754,0.2921416,0.05408713,-0.9515267,0.2617533,0.003858654,0.8575406,1.3603,0.1866298,0.4066058,1.040292,0.2316639,290.3358,238.8534,359.6136,True
1,0.6333337,-0.890432,0.19379,-0.05923939,-1.398123,-4.408136,-2.776992,0.6460813,1.134373,0.3919139,-1.332024,-0.03640697,4.1,0.7,-0.5065443,0.1963146,0.08273712,-0.6346701,-4.264449,0.02828836,0.733202,1.304332,0.327008,-0.2068214,0.3059702,0.06377856,-0.9504577,0.2665928,0.003579555,0.8570209,1.360361,0.1866484,0.4030697,1.04414,0.2302481,289.6974,238.5601,359.9476,True
1,0.6444448,-0.8926198,0.21621,-0.04976687,-1.399016,-4.411246,-2.766413,0.643555,1.134913,0.3906944,-1.331341,0.06281385,4.1,0.7,-0.5235201,0.2208645,0.08304501,-0.6336278,-4.259,0.03030011,0.7317812,1.304387,0.3262844,-0.2057006,0.3176743,0.07125217,-0.9494521,0.2714383,0.003005377,0.8564562,1.360496,0.1866212,0.399653,1.047987,0.2288288,289.058,238.1545,0.3720001,True
1,0.655556,-0.9001412,0.2439662,-0.03499284,-1.400473,-4.414673,-2.755569,0.6410278,1.135426,0.3893335,-1.331757,-0.03846161,4.1,0.7,-0.5321285,0.2337171,0.07362115,-0.6329519,-4.253772,0.03236913,0.7304022,1.304457,0.325624,-0.2035898,0.3230079,0.06911356,-0.9487826,0.2760538,0.002497512,0.8558873,1.360572,0.1866446,0.3962393,1.051818,0.2273999,288.4283,237.7946,0.7545494,True
1,0.6666671,-0.8864789,0.320878,-0.001300991,-1.403883,-4.420204,-2.745131,0.6384742,1.135997,0.3878639,-1.332108,-0.03164413,8.6,1.9,-0.5313851,0.2359482,0.04698402,-0.6332843,-4.249226,0.03459712,0.7289228,1.304473,0.3248653,-0.2026228,0.3283619,0.05739925,-0.948504,0.2807767,0.001982191,0.8553171,1.360664,0.1866131,0.3927686,1.055626,0.2259897,287.7832,237.4892,1.089167,True
1,0.6777782,-0.8737759,0.3497196,0.007071257,-1.40582,-4.424341,-2.734957,0.6361049,1.136342,0.3865514,-1.332051,0.005540853,8.6,1.9,-0.5216213,0.2539957,0.05759649,-0.6320139,-4.243369,0.03545786,0.7273794,1.304369,0.3240652,-0.2037112,0.3390357,0.05425138,-0.9478382,0.2861045,0.001123854,0.8545659,1.360828,0.1865718,0.3892706,1.059392,0.2246365,287.144,237.2149,1.417209,True
1,0.6888894,-0.883445,0.3849491,0.02712667,-1.408895,-4.429155,-2.723938,0.6335504,1.136793,0.3851528,-1.33288,-0.07579412,8.6,1.9,-0.5048089,0.2753528,0.0340391,-0.6322781,-4.236897,0.03542271,0.7258427,1.304363,0.3232446,-0.2036791,0.3454243,0.05745935,-0.9471138,0.2911424,0.0003848268,0.8538634,1.360905,0.1864407,0.3856848,1.063137,0.2233324,286.5529,237.195,1.524304,True
1,0.7000005,-0.8824244,0.4052849,0.0451372,-1.411956,-4.433401,-2.713449,0.6309028,1.137169,0.3837316,-1.333034,-0.01336361,8.6,1.9,-0.4962649,0.2945231,0.03081462,-0.6319335,-4.23022,0.03527357,0.7243097,1.304336,0.3224652,-0.2078473,0.3485883,0.07029288,-0.9457726,0.2960908,8.868326E-05,0.8530047,1.360997,0.1863446,0.3820207,1.066895,0.22215,285.9406,237.4187,1.431201,True
1,0.7111117,-0.8845501,0.4075558,0.0706898,-1.415346,-4.43708,-2.702911,0.6283705,1.137578,0.3824759,-1.332318,0.06556868,8.6,1.9,-0.4889029,0.2998567,0.02222024,-0.6318035,-4.22434,0.03582165,0.7227514,1.304187,0.3215692,-0.1981094,0.3464201,0.08938617,-0.9440645,0.3008257,-0.0007123956,0.8522112,1.361106,0.186269,0.3784491,1.070603,0.2211321,285.2857,237.4425,1.578135,True
1,0.7222228,-0.8813366,0.4044112,0.08029476,-1.418312,-4.440509,-2.692739,0.625737,1.138071,0.3810742,-1.332711,-0.03645476,4.7,1.6,-0.4869365,0.300964,0.008359088,-0.6319281,-4.218799,0.03668105,0.7212567,1.304211,0.3207827,-0.1927879,0.3389722,0.08826249,-0.9431201,0.3052679,-0.001340635,0.851383,1.361201,0.1861684,0.3747981,1.074287,0.2202011,284.6719,237.6634,1.557055,True
1,0.7333339,-0.8728415,0.4151851,0.09943736,-1.422256,-4.444264,-2.682689,0.6233082,1.138288,0.3799589,-1.332664,0.004707806,4.7,1.6,-0.4927956,0.2670385,-0.02685956,-0.6332624,-4.215465,0.03975274,0.7196387,1.304233,0.3200457,-0.1917918,0.3379412,0.07973941,-0.9424288,0.3101448,-0.00207114,0.8506045,1.361218,0.1861835,0.3711282,1.07796,0.219317,284.0616,237.9769,1.470904,True
1,0.7444451,-0.8558598,0.4408664,0.1142154,-1.426332,-4.448652,-2.673093,0.6209989,1.138638,0.3785121,-1.332998,-0.03061987,4.7,1.6,-0.5050231,0.2363206,-0.06199976,-0.6350739,-4.212729,0.0434793,0.7180378,1.304154,0.3192382,-0.199371,0.3379727,0.06488696,-0.9421907,0.3147501,-0.002315885,0.8498256,1.361255,0.1860991,0.3675613,1.081633,0.2184437,283.4705,238.3603,1.322013,True
1,0.7555562,-0.8314322,0.468662,0.1268654,-1.430722,-4.452958,-2.663964,0.6185936,1.139128,0.3774385,-1.3332,-0.01818942,4.7,1.6,-0.5030142,0.2278302,-0.06950776,-0.6358627,-4.208653,0.04579412,0.7164603,1.304131,0.3184481,-0.201628,0.3412021,0.05000034,-0.9421188,0.31955,-0.002812298,0.8490644,1.361282,0.186053,0.3641154,1.085309,0.2175207,282.8625,238.6252,1.252011,True
1,0.7666674,-0.804839,0.4847616,0.1374121,-1.434943,-4.45744,-2.6552,0.6161596,1.139349,0.3757679,-1.333716,-0.04708471,4.5,1.9,-0.475567,0.2129092,-0.08694608,-0.6371245,-4.205276,0.04737524,0.7147158,1.304162,0.3176043,-0.203927,0.3465797,0.02979094,-0.9424698,0.3246238,-0.003461044,0.8482054,1.361407,0.1859224,0.3608856,1.088953,0.2165981,282.2129,239.0732,0.9416642,True
1,0.7777785,-0.784598,0.484844,0.1437908,-1.438966,-4.461311,-2.646535,0.6136323,1.139838,0.3742476,-1.334123,-0.03690653,4.5,1.9,-0.470244,0.2075704,-0.08596066,-0.6378585,-4.201405,0.04936915,0.7129213,1.304226,0.3167834,-0.2049986,0.3391214,0.02978932,-0.9420192,0.3289642,-0.003605121,0.8472728,1.36141,0.1857564,0.3577898,1.092558,0.2156706,281.5978,239.637,0.4919189,True
1,0.7888896,-0.7547556,0.4807075,0.1533914,-1.443243,-4.464965,-2.638649,0.6111826,1.140181,0.3727417,-1.3344,-0.02512315,4.5,1.9,-0.4615044,0.2032081,-0.06690039,-0.6377818,-4.197817,0.0514022,0.7111126,1.304395,0.3158951,-0.2156075,0.3348391,0.0362569,-0.9414285,0.3333701,-0.003352387,0.8462827,1.361494,0.1855283,0.3547103,1.096116,0.2147681,280.9908,240.2448,359.9884,True
1,0.8000008,-0.7270665,0.4850692,0.1597522,-1.447635,-4.468884,-2.630937,0.608813,1.140546,0.3713109,-1.334264,0.0124532,4.5,1.9,-0.4580455,0.2063166,-0.04668392,-0.6374766,-4.193693,0.05300995,0.7093918,1.304481,0.3149617,-0.2187907,0.3369672,0.03842395,-0.9408756,0.3381894,-0.003614709,0.8453058,1.361571,0.1853468,0.3515121,1.099578,0.2138191,280.3638,240.9536,359.4788,True
1,0.8111119,-0.6951199,0.4915563,0.1618735,-1.452342,-4.472892,-2.623767,0.6064018,1.140996,0.3700695,-1.334803,-0.04952066,4.5,1.9,-0.4456654,0.251922,-0.002962258,-0.6358292,-4.186557,0.05183177,0.7075269,1.304551,0.313864,-0.2240748,0.3507995,0.04596658,-0.940041,0.3436942,-0.00407943,0.8442968,1.361654,0.1851602,0.3482578,1.102922,0.2128091,279.802,241.7231,358.9002,True
1,0.8222231,-0.6642432,0.4969724,0.1661035,-1.456933,-4.476785,-2.616799,0.6040824,1.141276,0.3687239,-1.334849,-0.003874071,3.2,2.2,-0.4452573,0.2912425,0.02063153,-0.634757,-4.179228,0.05073162,0.7056979,1.304621,0.3128059,-0.2239646,0.3465062,0.05874635,-0.9389805,0.348231,-0.004308462,0.8432609,1.361809,0.184859,0.3450989,1.106108,0.2117742,279.2614,242.6172,358.1529,True
1,0.8333342,-0.6439971,0.4948936,0.166107,-1.461262,-4.480588,-2.609859,0.6016523,1.141665,0.3673537,-1.335145,-0.02728539,3.2,2.2,-0.460892,0.3018385,0.04643722,-0.6332874,-4.17318,0.05148263,0.7038966,1.304694,0.3118505,-0.2111854,0.3422601,0.05756382,-0.9384463,0.3528614,-0.00512552,0.8422366,1.361884,0.1846287,0.3420729,1.10912,0.2107741,278.7831,243.644,357.1985,True
1,0.8444453,-0.6247795,0.4778814,0.1629917,-1.465129,-4.483788,-2.603249,0.5992123,1.142086,0.3659983,-1.335093,0.00478288,3.2,2.2,-0.4606234,0.2910845,0.07089148,-0.6316203,-4.168559,0.05289331,0.7019695,1.304793,0.3107779,-0.2036957,0.3401398,0.06070657,-0.9375909,0.3577538,-0.006041115,0.8412235,1.362035,0.1843643,0.3391371,1.111974,0.2098816,278.3456,244.8274,356.0593,True
1,0.8555565,-0.5701923,0.3756827,0.1485837,-1.466489,-4.48377,-2.598568,0.5967828,1.142592,0.3647165,-1.334831,0.02378566,3.2,2.2,-0.4444608,0.2856668,0.08664855,-0.6301423,-4.163362,0.0530515,0.7001081,1.305048,0.3097718,-0.2122202,0.3369564,0.05971054,-0.9369272,0.3624765,-0.006178001,0.8400174,1.362091,0.1841085,0.3362286,1.114668,0.2091071,277.9226,246.1922,354.802,True
1,0.8666676,-0.5413622,0.3480045,0.1380625,-1.469103,-4.485729,-2.593245,0.5943425,1.143045,0.3633873,-1.334816,0.000938089,3.2,2.2,-0.4091318,0.2833776,0.101121,-0.6283505,-4.158295,0.05225974,0.6981121,1.305282,0.3087242,-0.2292801,0.332693,0.05771011,-0.9363738,0.366897,-0.005628325,0.8388207,1.362221,0.1837766,0.3332419,1.117242,0.208407,277.5547,247.6561,353.5052,True
1,0.8777788,-0.53282,0.3394752,0.1327733,-1.472101,-4.488159,-2.587286,0.5919491,1.143338,0.3617854,-1.336132,-0.1205097,1.7,3,-0.3964762,0.2855305,0.09033245,-0.627478,-4.152499,0.05173004,0.6960455,1.305452,0.3077996,-0.2452073,0.3326877,0.06530635,-0.9352883,0.3718633,-0.005222459,0.8374519,1.362417,0.1834099,0.330285,1.119709,0.2077279,277.2141,248.9536,352.4497,True
1,0.8888899,-0.48583,0.2883214,0.1063839,-1.473095,-4.489261,-2.583287,0.5895184,1.143822,0.3605461,-1.335517,0.05707362,1.7,3,-0.4105898,0.2942001,0.06711616,-0.6272149,-4.146177,0.05175774,0.6939042,1.305761,0.3067226,-0.2515123,0.3347906,0.07601649,-0.9340846,0.3766278,-0.005017129,0.8361856,1.362567,0.1831124,0.3275664,1.121986,0.2069267,276.8515,249.6193,352.0178,True
1,0.900001,-0.4580775,0.2659835,0.09903166,-1.474989,-4.490677,-2.578971,0.5871059,1.144318,0.3592398,-1.334536,0.08889864,1.7,3,-0.415878,0.3133878,0.06619281,-0.6262471,-4.139259,0.05100992,0.6916754,1.305906,0.3056436,-0.2694793,0.3400829,0.09429124,-0.9323429,0.3819044,-0.004474643,0.8347775,1.362719,0.1828136,0.3248888,1.124086,0.2059371,276.528,250.714,351.0501,True
1,0.9111122,-0.418562,0.2329959,0.08854944,-1.476458,-4.491412,-2.575869,0.5846796,1.144747,0.3579986,-1.335986,-0.1335561,1.7,3,-0.4153353,0.3526755,0.1015293,-0.6234162,-4.130145,0.04827166,0.689485,1.30617,0.304496,-0.284341,0.3443208,0.1018826,-0.9309644,0.386863,-0.003698598,0.8334141,1.362841,0.182497,0.3221852,1.126056,0.204767,276.2654,251.8657,349.972,True
1,0.9222233,-0.3812541,0.2224138,0.0843336,-1.478402,-4.492818,-2.572648,0.5823666,1.145158,0.3568032,-1.335565,0.0394795,0.9,3,-0.3856905,0.4045547,0.1610379,-0.6193405,-4.119654,0.04300233,0.6873547,1.306266,0.3032689,-0.297074,0.3602872,0.1094819,-0.9295385,0.3926862,-0.003397927,0.8320409,1.363022,0.1821523,0.3195964,1.127872,0.2034877,276.0267,252.0568,349.7578,True
1,0.9333345,-0.3535546,0.2214082,0.08219793,-1.480435,-4.494416,-2.56951,0.5800602,1.145508,0.3556144,-1.336289,-0.06687455,0.9,3,-0.3681485,0.4470052,0.1919074,-0.6157798,-4.108519,0.03748745,0.6852946,1.306402,0.302022,-0.3024443,0.3635008,0.1042094,-0.9285628,0.3979572,-0.003017894,0.8306696,1.36315,0.1817594,0.3170698,1.129556,0.2021522,275.834,252.4727,349.274,True
1,0.9444456,-0.336488,0.2150214,0.07584512,-1.482285,-4.49581,-2.566278,0.5778109,1.145728,0.3544548,-1.335946,0.03168726,0.9,3,-0.3728709,0.4745453,0.2336284,-0.6116189,-4.098062,0.0330706,0.6834702,1.306488,0.3008113,-0.29482,0.3485487,0.1232896,-0.9265702,0.402177,-0.002566222,0.8291814,1.363302,0.1813688,0.3146382,1.131083,0.2008198,275.6323,253.0023,348.6671,True
1,0.9555568,-0.3268904,0.2107688,0.07266746,-1.484044,-4.497259,-2.562862,0.575556,1.146044,0.3532331,-1.335629,0.028424,0.9,3,-0.3836405,0.4468855,0.2315156,-0.6090117,-4.09132,0.03229056,0.68146,1.306661,0.2995884,-0.284099,0.3400167,0.1317061,-0.9248034,0.4066732,-0.002458098,0.8278264,1.36335,0.1810763,0.3122509,1.132454,0.1995617,275.4629,253.77,347.8194,True
1,0.9666679,-0.3108684,0.196907,0.06314869,-1.485289,-4.4984,-2.559984,0.5733852,1.146388,0.352062,-1.33516,0.04239138,0.9,3,-0.3720992,0.3946536,0.2290361,-0.6064705,-4.087262,0.03266367,0.679492,1.306902,0.2985294,-0.2819682,0.3389651,0.131696,-0.9232935,0.4115961,-0.002348908,0.8264098,1.363539,0.1807392,0.309847,1.133686,0.1984325,275.3124,254.6634,346.8826,True
1,0.977779,-0.292738,0.1884096,0.05892415,-1.486675,-4.499611,-2.55729,0.5711858,1.146735,0.3508861,-1.33466,0.0451466,0.6,2.9,-0.336216,0.3669571,0.2071799,-0.6047442,-4.081249,0.0301872,0.6773822,1.307171,0.2975392,-0.2851791,0.3411075,0.1306711,-0.9218,0.416643,-0.001987783,0.8249402,1.363616,0.1802754,0.3074119,1.134802,0.1974466,275.1895,255.6773,345.8913,True
1,0.9888902,-0.2532601,0.1628776,0.04732799,-1.487368,-4.50024,-2.55579,0.5690791,1.147116,0.3497577,-1.334889,-0.02139602,0.6,2.9,-0.3258926,0.3531741,0.1835577,-0.6034291,-4.075269,0.02852033,0.6753361,1.307331,0.296484,-0.2916834,0.3347425,0.1168658,-0.9209163,0.4209872,-0.001131311,0.8234991,1.363707,0.1799731,0.3049274,1.135871,0.1965736,275.1214,256.7067,344.9531,True
1,1.000001,-0.2340284,0.1426596,0.04317115,-1.488239,-4.500705,-2.553824,0.5668926,1.147438,0.3486395,-1.334881,0.0007653686,0.6,2.9,-0.3037317,0.3553284,0.165201,-0.6019127,-4.067731,0.02491414,0.6731448,1.307519,0.2953818,-0.2906115,0.3315479,0.1168643,-0.9194809,0.4255323,-0.000763262,0.8220338,1.363807,0.1796474,0.3024759,1.136929,0.1957861,275.0573,257.5782,344.2056,True
1,1.011112,-0.1923776,0.1011973,0.03910701,-1.488358,-4.500352,-2.553141,0.5647644,1.147709,0.3476064,-1.33576,-0.08051717,0.6,2.9,-0.2889599,0.3681607,0.1501791,-0.6005104,-4.059054,0.02058624,0.6710378,1.307685,0.2945232,-0.2830614,0.330463,0.128522,-0.9175889,0.4302363,-0.0006732471,0.8205414,1.363936,0.1792793,0.3000778,1.138002,0.1950425,274.974,258.5366,343.3815,True
1,1.022224,-0.1752579,0.07139162,0.03499218,-1.488457,-4.500048,-2.551773,0.5626219,1.147972,0.3465281,-1.335086,0.06205783,1.1,2.4,-0.2858528,0.376718,0.1405741,-0.5992442,-4.051156,0.01711134,0.6689029,1.307805,0.2934239,-0.2840594,0.3197994,0.1359597,-0.9158185,0.4343621,5.326322E-07,0.8190188,1.364141,0.1789403,0.2978167,1.139037,0.194299,274.8306,259.3656,342.6793,True
1,1.033335,-0.1506492,0.03099385,0.03945576,-1.488495,-4.498863,-2.550925,0.5604542,1.148239,0.3455224,-1.335906,-0.07578436,1.1,2.4,-0.304166,0.3704436,0.1258655,-0.5982051,-4.044131,0.01537416,0.6668134,1.308012,0.2923739,-0.2894745,0.3049023,0.1263866,-0.9146744,0.4380025,0.001375256,0.8175141,1.364301,0.1785517,0.2956303,1.139999,0.1934843,274.6739,260.2354,341.9082,True
1,1.044446,-0.1186075,0.001234231,0.03640625,-1.488372,-4.497954,-2.550771,0.5583448,1.148386,0.3445604,-1.335022,0.08129923,1.1,2.4,-0.3104522,0.3746873,0.1334157,-0.5964293,-4.036704,0.01284975,0.6647254,1.308227,0.2913325,-0.2894609,0.3006442,0.1274319,-0.9133418,0.4420694,0.002062086,0.8159044,1.364474,0.178247,0.2935769,1.1408,0.1925545,274.4934,260.7652,341.4385,True
1,1.055557,-0.09938742,-0.01574497,0.03968189,-1.48841,-4.497011,-2.550408,0.5563132,1.148617,0.3435318,-1.335076,-0.005902709,1.1,2.4,-0.3153126,0.3948491,0.1655363,-0.5932804,-4.026956,0.008407067,0.6626663,1.308588,0.290231,-0.2851325,0.2984892,0.1369855,-0.911412,0.446163,0.002685798,0.8144163,1.364567,0.1778922,0.2915647,1.14142,0.1914577,274.3832,261.0713,341.1405,True
1,1.066668,-0.09938742,-0.01574497,0.03968189,-1.48841,-4.497011,-2.550408,0.5563132,1.148617,0.3435318,-1.33554,-0.04248744,1.1,2.4,-0.3153126,0.3948491,0.1655363,-0.5932804,-4.026956,0.008407067,0.6626663,1.308588,0.290231,-0.2851325,0.2984892,0.1369855,-0.911412,0.446163,0.002685798,0.8144163,1.364567,0.1778922,0.2896129,1.141858,0.1901819,274.3268,261.0756,341.0822,True
1,1.077779,-0.05988601,-0.04661765,0.02491253,-1.487499,-4.49545,-2.550452,0.5524464,1.148927,0.3415391,-1.335519,0.002037726,4.8,1.9,-0.3184479,0.3980648,0.167739,-0.5891765,-4.010571,0.001685248,0.6587224,1.30892,0.2880886,-0.2723714,0.3049118,0.1347676,-0.9084687,0.4551531,0.002875948,0.8114485,1.364729,0.1772499,0.2881954,1.142004,0.1889254,274.3233,260.403,341.5729,True
1,1.08889,-0.05135456,-0.05087882,0.02066976,-1.487158,-4.494801,-2.550232,0.5505469,1.148906,0.3405089,-1.335043,0.04330371,4.8,1.9,-0.3050554,0.3789747,0.1344645,-0.5888814,-4.004578,-0.0005507417,0.6567528,1.308738,0.2868905,-0.2734808,0.3102557,0.1294664,-0.907208,0.4598428,0.00303414,0.8098686,1.36483,0.1769452,0.2872946,1.141891,0.1878342,274.3738,259.7299,342.0806,True
1,1.100002,-0.04175043,-0.05405235,0.02175076,-1.487033,-4.493952,-2.550237,0.5486497,1.148892,0.3394196,-1.33455,0.04439987,4.8,1.9,-0.2905375,0.3822628,0.1012676,-0.5888904,-3.996688,-0.004404602,0.6547279,1.308626,0.2858799,-0.2734134,0.3049147,0.1379649,-0.9054625,0.4639462,0.003607784,0.8084674,1.365007,0.1766868,0.2849204,1.141924,0.186246,274.3986,259.4957,342.3208,True
1,1.111113,-0.02791912,-0.04764175,0.0185164,-1.486933,-4.493642,-2.550436,0.546818,1.14883,0.3384292,-1.334378,0.01529237,4.8,1.9,-0.2686438,0.3770249,0.06262678,-0.5895259,-3.989677,-0.008175905,0.6526949,1.308529,0.284873,-0.2637036,0.3038302,0.1528018,-0.9032132,0.46835,0.003498595,0.8069837,1.365096,0.1763716,0.2825485,1.141831,0.1845986,274.4536,258.8371,342.889,True
1,1.122224,-0.00661874,-0.04440464,0.01742658,-1.486822,-4.49314,-2.551154,0.5449705,1.14886,0.3375082,-1.334394,-0.001702445,4.8,1.9,-0.2655894,0.3791837,0.05087686,-0.5893506,-3.982255,-0.0114974,0.6507487,1.308331,0.2838919,-0.2562578,0.3112923,0.151695,-0.9015658,0.4730386,0.003147856,0.805377,1.3652,0.1761112,0.2804439,1.141604,0.1830307,274.5356,258.1908,343.4065,True
1,1.133335,0.01470383,-0.04963817,0.02490215,-1.486855,-4.49223,-2.552112,0.5431751,1.148781,0.3365383,-1.334462,-0.006323323,8.4,2.1,-0.2538039,0.3801938,0.05393858,-0.5886428,-3.974655,-0.01564714,0.6488249,1.308209,0.2830949,-0.2434331,0.3304527,0.1590948,-0.8994709,0.478638,0.00203066,0.8038269,1.365332,0.1759124,0.2786266,1.141287,0.1815915,274.6321,257.715,343.761,True
1,1.144446,0.03282857,-0.051723,0.0259802,-1.486855,-4.491369,-2.553207,0.5412933,1.148557,0.3355343,-1.334782,-0.02933,8.4,2.1,-0.2454535,0.3716924,0.04207849,-0.5886449,-3.967875,-0.01884985,0.6469262,1.308179,0.282125,-0.2285242,0.3432482,0.1590017,-0.897742,0.4840836,0.000695085,0.8023064,1.365471,0.1757104,0.2769949,1.140933,0.1803147,274.7265,257.2342,344.1237,True
1,1.155557,0.0413432,-0.04849984,0.02702549,-1.486896,-4.49082,-2.55399,0.53947,1.148433,0.3346274,-1.334811,-0.002596571,8.4,2.1,-0.2390914,0.3588899,0.03983677,-0.5882497,-3.961757,-0.02195457,0.6450171,1.30812,0.2811887,-0.2200354,0.3496659,0.1546833,-0.8962096,0.4894187,-0.0004460795,0.8008175,1.365675,0.1753874,0.2754211,1.140583,0.1791956,274.8007,256.9835,344.2997,True
1,1.166668,0.05416941,-0.05800823,0.0366594,-1.487012,-4.489592,-2.555251,0.537623,1.148406,0.3337977,-1.334731,0.007280018,8.4,2.1,-0.2338143,0.3418137,0.03972024,-0.587634,-3.956166,-0.02427471,0.6431345,1.308014,0.2803817,-0.2073327,0.3422417,0.1439055,-0.8950309,0.493987,-0.001454086,0.7993597,1.365747,0.1751242,0.2738281,1.140224,0.1781753,274.8182,257.1609,344.1216,True
1,1.17778,0.05843512,-0.06013888,0.03453798,-1.486861,-4.488803,-2.556109,0.5358073,1.148292,0.33289,-1.334234,0.04520733,11,2.9,-0.2340013,0.3098916,0.02999154,-0.5878412,-3.952178,-0.02529151,0.6412649,1.307906,0.2795091,-0.1945581,0.3273363,0.1426977,-0.8935204,0.4979776,-0.002193912,0.7979115,1.36578,0.1749449,0.2721387,1.139817,0.1771844,274.8103,257.4617,343.8418,True
1,1.188891,0.06270839,-0.06650205,0.03775673,-1.486631,-4.487767,-2.556902,0.5342578,1.148098,0.3318362,-1.334424,-0.01794494,11,2.9,-0.2299545,0.2822182,0.01704285,-0.5882118,-3.948748,-0.02601882,0.6394422,1.307832,0.2788,-0.1840019,0.32098,0.1298196,-0.8924434,0.50232,-0.003266633,0.7964185,1.365805,0.174648,0.2703748,1.139362,0.1762136,274.8748,257.6578,343.6452,True
1,1.200002,0.06909813,-0.06436889,0.03668364,-1.48663,-4.486906,-2.558001,0.5325689,1.147867,0.3308675,-1.33393,0.04523226,11,2.9,-0.2193236,0.2843117,0.01585386,-0.5881171,-3.942952,-0.02862366,0.6375207,1.307774,0.2779443,-0.179767,0.3103417,0.1255072,-0.8911235,0.5063784,-0.003983556,0.7949055,1.365909,0.1743846,0.2686023,1.138871,0.1752469,274.9769,257.7731,343.5295,True
1,1.211113,0.07439873,-0.054784,0.03343619,-1.486715,-4.486574,-2.559073,0.5309522,1.147729,0.3299921,-1.333663,0.02397381,11,2.9,-0.2098539,0.2885762,0.005089045,-0.5885932,-3.937173,-0.0315052,0.6356441,1.307778,0.2769349,-0.1765697,0.3039463,0.1265335,-0.8896375,0.5104613,-0.004599279,0.7933818,1.366,0.1741176,0.2668817,1.138347,0.1742648,275.0718,257.8012,343.5364,True
1,1.222224,0.08185468,-0.05264436,0.03236607,-1.486798,-4.485818,-2.560369,0.5292782,1.147627,0.3293037,-1.333861,-0.01835545,11,2.9,-0.2066483,0.300283,0.004031796,-0.588696,-3.930463,-0.03472496,0.6338382,1.307658,0.2760761,-0.1722245,0.297534,0.1371295,-0.8878244,0.5145581,-0.005315669,0.791929,1.366243,0.1738622,0.2653194,1.137787,0.17323,275.1505,257.8439,343.5443,True
1,1.233335,0.09251903,-0.05687257,0.03344864,-1.486696,-4.484926,-2.561847,0.5277112,1.147487,0.3284762,-1.333805,0.005251811,10.5,4.2,-0.1947403,0.3055198,0.01775125,-0.5881757,-3.923928,-0.03842329,0.6320131,1.307709,0.2752025,-0.167907,0.2900579,0.1445361,-0.8859532,0.518413,-0.005966013,0.7904499,1.36633,0.1736486,0.2638277,1.13721,0.1721147,275.2237,257.805,343.5529,True
1,1.244446,0.0989242,-0.06324188,0.03454335,-1.486547,-4.483938,-2.563169,0.5261516,1.147282,0.3277256,-1.33388,-0.007028904,10.5,4.2,-0.1840581,0.3065349,0.02081955,-0.5879408,-3.91784,-0.04166622,0.6302507,1.307539,0.2743399,-0.1624968,0.2815255,0.1540584,-0.8839719,0.5222811,-0.006777478,0.7889642,1.366383,0.1733141,0.2623669,1.13664,0.1709772,275.3234,257.5231,343.7132,True
1,1.255558,0.09572283,-0.06002131,0.04091996,-1.486809,-4.483092,-2.564198,0.5246176,1.147096,0.3269174,-1.333951,-0.006471431,10.5,4.2,-0.1776002,0.3118145,0.02501893,-0.5877442,-3.911441,-0.04522074,0.6285519,1.307483,0.2735837,-0.1604411,0.2708961,0.1444284,-0.8826978,0.5257398,-0.007235542,0.7875203,1.366462,0.1730127,0.2609232,1.136089,0.1698825,275.4214,257.225,343.8755,True
1,1.266669,0.09677248,-0.05039953,0.04939365,-1.487342,-4.482255,-2.565433,0.5231791,1.146675,0.3255701,-1.333687,0.0240962,10.5,4.2,-0.1745407,0.2979743,0.01852861,-0.5879061,-3.906441,-0.04734621,0.6268619,1.307486,0.2728698,-0.1455434,0.2538846,0.1400062,-0.881297,0.5290206,-0.00829042,0.7860506,1.366547,0.1727858,0.2595247,1.135535,0.1688444,275.486,257.0196,344.005,True
1,1.27778,0.09567373,-0.03652609,0.05464926,-1.488078,-4.481908,-2.566492,0.5217072,1.146462,0.3247566,-1.333293,0.03576406,9,4.6,-0.1723684,0.2851584,0.02484089,-0.587545,-3.901462,-0.04963573,0.6251774,1.307419,0.27212,-0.1360429,0.2379487,0.1281728,-0.8802232,0.5320467,-0.009022257,0.7845184,1.366607,0.1725357,0.2581544,1.134961,0.1678534,275.5405,256.9728,344.0038,True
1,1.288891,0.0976973,0.009294202,0.0576129,-1.489671,-4.482849,-2.567721,0.5202451,1.146186,0.3239264,-1.333407,-0.0107444,9,4.6,-0.1563051,0.2605523,0.03839146,-0.5866368,-3.897614,-0.05147997,0.6236219,1.307221,0.2713578,-0.1328942,0.2326437,0.1217412,-0.8791111,0.5353157,-0.009737582,0.7830729,1.366751,0.172338,0.256761,1.134384,0.1668619,275.5961,257.4733,343.5424,True
1,1.300002,0.09340296,0.0231405,0.05967484,-1.49063,-4.482975,-2.568623,0.5187823,1.146089,0.3232443,-1.333246,0.01479028,9,4.6,-0.1468301,0.2520306,0.03184219,-0.5867146,-3.892975,-0.05392289,0.6219304,1.307039,0.2706354,-0.128608,0.231575,0.1249047,-0.8775622,0.5387302,-0.01059991,0.7815778,1.366882,0.1720848,0.2553625,1.133781,0.1657755,275.6451,258.1895,342.9048,True
1,1.311113,0.08485027,0.03483655,0.05961828,-1.491616,-4.48331,-2.569273,0.5173544,1.145884,0.3225958,-1.333461,-0.01979238,9,4.6,-0.1332546,0.2456916,0.01140545,-0.5874497,-3.888266,-0.05678552,0.6202893,1.307011,0.2699711,-0.1167933,0.2283593,0.136519,-0.8756554,0.5419891,-0.01179993,0.7801228,1.367012,0.171901,0.2539638,1.133178,0.1646582,275.7541,258.4679,342.54,True
1,1.322224,0.08168101,0.02415548,0.05541425,-1.491978,-4.482981,-2.570125,0.515981,1.145684,0.3220344,-1.333055,0.03728629,9,4.6,-0.1218336,0.2340277,-0.01009529,-0.5883967,-3.884455,-0.05901458,0.6187619,1.306827,0.2693512,-0.11034,0.2177121,0.1428311,-0.8740015,0.5449358,-0.01267665,0.7789061,1.367116,0.1715164,0.252511,1.132613,0.1636449,275.8859,258.7641,342.0851,True
1,1.333336,0.0795859,0.009197488,0.04803497,-1.49202,-4.482495,-2.57096,0.5145614,1.145535,0.3213966,-1.332761,0.02653612,7.5,8.4,-0.1136242,0.236245,-0.03575756,-0.5897911,-3.879712,-0.06193953,0.6171687,1.30683,0.2688987,-0.1018073,0.2049262,0.1437995,-0.8723834,0.5472885,-0.01333498,0.7775816,1.367204,0.1713052,0.2510354,1.132119,0.1628174,276.0192,258.9015,341.8357,True
1,1.344447,0.07967999,-0.03024417,0.04291601,-1.491461,-4.480912,-2.571907,0.513169,1.145352,0.3210015,-1.332897,-0.01267406,7.5,8.4,-0.1018911,0.2287322,-0.03274491,-0.5902268,-3.875811,-0.0643971,0.6156652,1.306714,0.2682958,-0.1039015,0.1953234,0.1480578,-0.8706167,0.5496568,-0.013625,0.7762374,1.367282,0.1710591,0.2495776,1.13171,0.1622017,276.1011,259.1183,341.5954,True
1,1.355558,0.0850701,-0.05582491,0.03771877,-1.490857,-4.479539,-2.573137,0.5117891,1.145237,0.3204038,-1.332904,-0.0004975056,7.5,8.4,-0.09741858,0.2286496,-0.01575459,-0.5900063,-3.871295,-0.06724801,0.6141877,1.306622,0.2676539,-0.0996253,0.1846722,0.1501354,-0.8688339,0.5519832,-0.01409238,0.7749614,1.36737,0.1707458,0.248191,1.131364,0.1617531,276.1282,259.383,341.3959,True
1,1.366669,0.08725515,-0.07928367,0.03251278,-1.490178,-4.478065,-2.574222,0.5104572,1.145139,0.3198516,-1.332939,-0.003178441,7.5,8.4,-0.1100021,0.2307462,0.0003888644,-0.5896867,-3.866658,-0.06936629,0.6128728,1.306695,0.2672207,-0.09007515,0.1814839,0.1457903,-0.8674288,0.5544682,-0.01501091,0.7738061,1.367511,0.1706319,0.2468607,1.131056,0.1613703,276.1222,259.5727,341.3099,True
1,1.37778,0.08619451,-0.08358065,0.02721668,-1.48987,-4.477021,-2.575172,0.5091863,1.144984,0.3192477,-1.33324,-0.02748339,7.5,8.4,-0.1248831,0.2190488,0.005852241,-0.589578,-3.863003,-0.07050559,0.6114275,1.306639,0.2666318,-0.09011825,0.179366,0.140459,-0.8660824,0.5570023,-0.01565672,0.7725362,1.367611,0.1704559,0.2456424,1.130738,0.1609613,276.104,259.6185,341.3541,True
1,1.388891,0.07978185,-0.07616188,0.02292003,-1.489648,-4.476445,-2.575888,0.5078924,1.144835,0.3186553,-1.333105,0.01255761,7.7,7,-0.1321788,0.2190169,0.01979071,-0.5891264,-3.858468,-0.07241375,0.6100407,1.30659,0.2661877,-0.09338403,0.1900341,0.1341222,-0.8648003,0.5603474,-0.01650441,0.771329,1.367681,0.1702271,0.2444829,1.130387,0.1604207,276.1008,259.5837,341.4578,True
1,1.400002,0.0776007,-0.06020932,0.01964382,-1.48967,-4.476216,-2.576592,0.5066029,1.144887,0.3182414,-1.332972,0.01206172,7.7,7,-0.1279917,0.2339568,0.01127226,-0.5896105,-3.852746,-0.07576267,0.6085634,1.306485,0.2656503,-0.09767997,0.1868473,0.1298946,-0.8633888,0.5630093,-0.01699203,0.7700269,1.367714,0.1700628,0.243381,1.129984,0.1597099,276.1258,259.3994,341.6467,True
1,1.411114,0.07434878,-0.0389226,0.01740513,-1.489934,-4.476429,-2.577299,0.5053859,1.144815,0.3177302,-1.332768,0.0185048,7.7,7,-0.1161135,0.2424078,0.02181841,-0.5892084,-3.847126,-0.07957152,0.6072062,1.306503,0.2650814,-0.08919179,0.1868557,0.1266357,-0.8620269,0.565758,-0.01797927,0.7688305,1.367844,0.1698713,0.2422997,1.129536,0.1588394,276.1745,259.1476,341.8289,True
1,1.422225,0.07537856,-0.02615505,0.01628225,-1.490164,-4.476215,-2.57819,0.5041671,1.144676,0.3170495,-1.332784,-0.001561219,7.7,7,-0.1001043,0.2370354,0.0258561,-0.5890247,-3.842189,-0.08295587,0.605875,1.306434,0.2646549,-0.07968962,0.1783624,0.1158784,-0.8611747,0.5680278,-0.01886503,0.7676712,1.367977,0.169749,0.2411828,1.129077,0.1578766,276.2729,258.6822,342.1388,True
1,1.433336,0.07326879,-0.03360119,0.01951738,-1.490124,-4.475528,-2.579015,0.5030002,1.144664,0.3166082,-1.332851,-0.006123041,6.8,8.5,-0.1003282,0.2200496,0.01193976,-0.5894859,-3.838707,-0.08467521,0.6046376,1.306445,0.2642162,-0.07869868,0.1783843,0.1062819,-0.8603406,0.5706697,-0.01976145,0.7665318,1.368057,0.1695549,0.2400261,1.128669,0.1569509,276.4085,258.1413,342.4817,True
1,1.444447,0.07013158,-0.0559471,0.02709779,-1.489908,-4.47393,-2.579786,0.5018356,1.144701,0.3163972,-1.333025,-0.01576634,6.8,8.5,-0.1078684,0.2072997,0.00877909,-0.5897309,-3.835352,-0.0858723,0.6033393,1.306357,0.2638359,-0.08088942,0.1720095,0.09882692,-0.8595086,0.5729584,-0.02024508,0.7654929,1.368208,0.1694555,0.2388417,1.128331,0.156153,276.494,257.9526,342.5552,True
1,1.455558,0.06909606,-0.06552059,0.0303438,-1.489743,-4.472828,-2.580661,0.5007256,1.144732,0.3160198,-1.332943,0.007551497,6.8,8.5,-0.1078736,0.1817131,0.0140024,-0.5894566,-3.833139,-0.08655593,0.6021561,1.306491,0.2634645,-0.07881767,0.1624379,0.09239621,-0.8586644,0.574942,-0.02064323,0.7643549,1.368152,0.1694174,0.2376754,1.128041,0.155478,276.5304,258.0505,342.4427,True
1,1.466669,0.07117547,-0.04527337,0.03130737,-1.490159,-4.472659,-2.581562,0.4996061,1.14444,0.3152719,-1.332814,0.01172515,6.8,8.5,-0.1077138,0.1560547,0.03307324,-0.5884824,-3.831466,-0.08679828,0.6009467,1.30641,0.2630956,-0.07349955,0.1624435,0.0923558,-0.8576002,0.5774556,-0.02152873,0.7633755,1.368174,0.1693017,0.2366237,1.127777,0.1549177,276.5754,258.0157,342.4628,True
1,1.47778,0.06577695,-0.02187284,0.0258617,-1.490547,-4.473146,-2.581954,0.4985073,1.144408,0.3150051,-1.332958,-0.01322975,6.8,8.5,-0.1053962,0.1591823,0.047966,-0.5877213,-3.827855,-0.08858446,0.5998268,1.30621,0.2627625,-0.0661222,0.1635393,0.08271115,-0.8570217,0.5800119,-0.02269413,0.7623764,1.368244,0.1692469,0.2356995,1.127546,0.154433,276.6297,257.9218,342.5309,True
1,1.488891,0.04548364,-0.002783382,0.01938059,-1.490877,-4.473683,-2.58179,0.4974739,1.14427,0.314784,-1.333083,-0.01125875,6.2,12.1,-0.09371494,0.150609,0.04671923,-0.5873804,-3.825752,-0.08971604,0.5986866,1.306312,0.2624571,-0.06507352,0.161414,0.08057102,-0.8561599,0.5823682,-0.02355859,0.7614696,1.368289,0.1692498,0.2347846,1.127353,0.1539523,276.6312,258.0392,342.4369,True
1,1.500003,0.04016551,-0.002773273,0.02471245,-1.491233,-4.473257,-2.582195,0.4964014,1.143956,0.3140438,-1.332648,0.03984934,6.2,12.1,-0.09163297,0.1506144,0.04349345,-0.5872126,-3.822729,-0.09115601,0.5976962,1.30611,0.2622168,-0.063999,0.1401068,0.08050913,-0.8552971,0.5835332,-0.02365446,0.7606409,1.368342,0.1692424,0.2337737,1.127151,0.1534325,276.5899,258.375,342.114,True
1,1.511114,0.02634647,-0.01124379,0.04180708,-1.491902,-4.472342,-2.582107,0.4955342,1.14389,0.3138034,-1.332092,0.05053313,6.2,12.1,-0.08766074,0.1357817,0.02421621,-0.5875791,-3.820585,-0.09196934,0.5967599,1.306016,0.2618961,-0.06401109,0.1315903,0.07835953,-0.8544922,0.5851313,-0.02401798,0.7597756,1.368361,0.1691725,0.2326938,1.126938,0.1529822,276.61,258.3333,342.0602,True
1,1.522225,0.02637649,-0.01655618,0.04716619,-1.492279,-4.471424,-2.582722,0.4945301,1.143807,0.3130667,-1.332605,-0.04724833,6.2,12.1,-0.08669044,0.1283616,0.01778759,-0.5876425,-3.818061,-0.09324978,0.5958769,1.306065,0.2615638,-0.05878116,0.1220729,0.06444214,-0.8543357,0.5872303,-0.02503265,0.7590355,1.368296,0.1690822,0.2315594,1.126736,0.1526566,276.6352,258.453,341.9235,True
1,1.533336,0.02633304,0.001597567,0.05559519,-1.49341,-4.471477,-2.583012,0.4938225,1.143812,0.3127785,-1.332217,0.0360162,5.7,10.7,-0.08669043,0.1283616,0.01778759,-0.5875828,-3.815485,-0.09443942,0.5950384,1.306042,0.2613342,-0.05139899,0.1093146,0.05476329,-0.8540742,0.5883082,-0.02540656,0.7583168,1.368284,0.1690626,0.230465,1.126523,0.1523553,276.6465,259.0466,341.4496,True
1,1.544447,0.01878808,0.03460338,0.0554285,-1.494681,-4.472475,-2.582898,0.4932051,1.143921,0.3127053,-1.33293,-0.06558923,5.7,10.7,-0.08333736,0.1165757,0.03367401,-0.5867999,-3.813518,-0.09514782,0.5944041,1.306017,0.261157,-0.04506527,0.09658033,0.04615089,-0.8539362,0.5896782,-0.02605157,0.7577002,1.368221,0.1689584,0.2295412,1.126327,0.1520134,276.72,259.7139,340.9069,True
1,1.555558,0.008053661,0.06434575,0.04356232,-1.495633,-4.473825,-2.58258,0.4926113,1.1438,0.31252,-1.332803,0.01221149,5.7,10.7,-0.06851357,0.08989856,0.03338574,-0.5862992,-3.813224,-0.0949076,0.5938495,1.305925,0.2610683,-0.0408725,0.09020989,0.03757872,-0.8538249,0.5907127,-0.02641696,0.7570096,1.368217,0.1689479,0.2287187,1.126176,0.151512,276.7825,260.1498,340.5513,True
1,1.566669,-0.00474328,0.0696387,0.04354089,-1.496539,-4.474378,-2.582054,0.4919353,1.143699,0.312341,-1.33248,0.0295028,5.7,10.7,-0.04732947,0.08028758,0.02562469,-0.58637,-3.811965,-0.09609564,0.5931166,1.305931,0.2611041,-0.03234903,0.09555561,0.03645106,-0.8535644,0.5927119,-0.02777251,0.7564245,1.368213,0.1689477,0.2280955,1.126086,0.1509797,276.8751,260.2912,340.2896,True
1,1.577781,-0.02286923,0.07597622,0.04245406,-1.497482,-4.474942,-2.581186,0.49131,1.143699,0.3124683,-1.332326,0.01387013,5.7,10.7,-0.02743927,0.06328113,0.001871191,-0.5870731,-3.811831,-0.09641815,0.5925347,1.305804,0.2610404,-0.02592428,0.0912862,0.0406516,-0.8529423,0.5938767,-0.02844283,0.7558077,1.3682,0.1689298,0.2275554,1.126116,0.1505758,276.9354,260.2299,340.1431,True
1,1.588892,-0.0334892,0.06315424,0.04039424,-1.497908,-4.474953,-2.580459,0.4907857,1.143604,0.312413,-1.332128,0.01801287,5.4,9.6,-0.0245121,0.05591026,-0.0184403,-0.5880526,-3.811004,-0.09696596,0.5918404,1.305932,0.2610118,-0.02809151,0.07851366,0.03638279,-0.8526525,0.5944905,-0.02839542,0.7552346,1.368283,0.1691232,0.2269642,1.126263,0.1503817,276.8935,260.3468,339.9059,True
1,1.600003,-0.03878276,0.05247352,0.03832811,-1.498379,-4.474842,-2.579998,0.4901615,1.143643,0.3125396,-1.331877,0.02293126,5.4,9.6,-0.01928487,0.04419281,-0.02281853,-0.5884824,-3.81094,-0.09676702,0.5912689,1.305792,0.2610033,-0.03134573,0.07213331,0.02893808,-0.8525823,0.5951942,-0.02841007,0.7546111,1.368386,0.1691389,0.2262841,1.12651,0.1503878,276.824,260.7716,339.4588,True
1,1.611114,-0.02709666,0.06530377,0.04145277,-1.499452,-4.475503,-2.580015,0.4897503,1.143668,0.3125384,-1.332075,-0.0181989,5.4,9.6,-0.01685574,0.04622354,0.000593462,-0.5877905,-3.809673,-0.09773082,0.5907526,1.305852,0.2610705,-0.03029693,0.06894684,0.02679396,-0.8523372,0.5961863,-0.02876241,0.7540461,1.368472,0.1693332,0.2255879,1.126842,0.1505953,276.7598,261.3351,338.9455,True
1,1.622225,-0.01968857,0.08662389,0.04028551,-1.500865,-4.476638,-2.580084,0.489199,1.143636,0.3124976,-1.332466,-0.03554835,5.4,9.6,-0.02087997,0.05042225,0.01876528,-0.5871146,-3.808215,-0.09853696,0.590286,1.305701,0.2610271,-0.02174237,0.06786913,0.03097857,-0.8518898,0.5970666,-0.0293752,0.7534566,1.368473,0.1693969,0.2249389,1.127225,0.1509209,276.6737,261.9186,338.4893,True
1,1.633336,-0.01651151,0.09514414,0.03810995,-1.50183,-4.477599,-2.579952,0.4886855,1.143617,0.3124535,-1.3331,-0.05756443,5.6,7.4,-0.03672966,0.03976145,0.03170291,-0.586288,-3.807934,-0.09777183,0.5899047,1.305626,0.2610424,-0.009971235,0.05614172,0.03725014,-0.851207,0.5973671,-0.02985989,0.7529662,1.368468,0.1695368,0.224333,1.12764,0.1512947,276.599,262.5818,337.9421,True
1,1.644447,-0.01760349,0.1046919,0.03167348,-1.502698,-4.478698,-2.579576,0.4882057,1.143661,0.3126447,-1.333255,-0.01377198,5.6,7.4,-0.03350872,0.01202855,0.04008188,-0.5853761,-3.809098,-0.09653506,0.5895069,1.305469,0.2610641,-0.01004381,0.04656173,0.02870834,-0.8511457,0.5973784,-0.02965643,0.7525857,1.368363,0.1695406,0.2237703,1.128047,0.1516858,276.5182,263.5635,337.0695,True
1,1.655559,-0.02823762,0.0929064,0.02428107,-1.503113,-4.479195,-2.578849,0.4877267,1.143634,0.312691,-1.333032,0.02043976,5.6,7.4,-0.0209752,-0.001786768,0.02388535,-0.5856723,-3.809903,-0.09592786,0.589039,1.305418,0.2611337,-0.001582153,0.04338136,0.02117403,-0.8511814,0.597799,-0.03020664,0.7521815,1.368351,0.1696196,0.2231348,1.128402,0.1520543,276.4285,264.6668,336.0663,True
1,1.66667,-0.03352977,0.07471485,0.0115978,-1.503115,-4.479458,-2.578256,0.4873275,1.143623,0.3128161,-1.332767,0.02406896,5.6,7.4,-0.001940039,-0.003926856,0.01298573,-0.5858778,-3.810166,-0.09634944,0.5886052,1.305361,0.2611716,-0.005877648,0.04658645,0.01695346,-0.8511947,0.5986255,-0.03055258,0.751796,1.368293,0.1696336,0.2224638,1.128661,0.152395,276.3692,265.3826,335.421,True
1,1.677781,-0.03241025,0.05333355,-0.004274078,-1.502417,-4.479695,-2.577912,0.4869943,1.143464,0.3126488,-1.33238,0.03519225,5.6,7.4,0.009629195,-0.001767869,0.001136517,-0.5862022,-3.809698,-0.09709939,0.5882388,1.305217,0.2611847,-0.006956521,0.04977708,0.015908,-0.8509988,0.5993556,-0.03085458,0.7513827,1.368331,0.1697075,0.2218042,1.128825,0.1527426,276.3564,265.745,335.098,True
1,1.688892,-0.0312659,0.0202511,-0.01582274,-1.501495,-4.479213,-2.577636,0.4866095,1.143546,0.3127663,-1.332518,-0.01283563,5.9,12.7,-0.004132867,0.0003750657,0.007709093,-0.5858885,-3.809479,-0.09678194,0.58788,1.305172,0.2612007,-0.003782567,0.04765505,0.01375267,-0.8508288,0.6000262,-0.0312719,0.7510132,1.36833,0.1698208,0.2211894,1.128917,0.153067,276.3653,265.9319,334.9844,True
1,1.700003,-0.02590972,0.003178381,-0.02532474,-1.500835,-4.479199,-2.577384,0.4862383,1.143586,0.3128834,-1.332838,-0.02908,5.9,12.7,-0.01687146,0.00785099,0.01003194,-0.5856445,-3.809066,-0.09642827,0.5874889,1.305246,0.2612085,-0.00591629,0.04658515,0.01376478,-0.8507207,0.6006032,-0.03147271,0.7506944,1.368342,0.169924,0.2206878,1.12895,0.1533361,276.3537,265.9426,335.0792,True
1,1.711114,-0.01946725,-0.01707199,-0.03055021,-1.499915,-4.478748,-2.577396,0.48591,1.14367,0.31306,-1.33292,-0.007234111,5.9,12.7,-0.03157912,0.01210589,0.0251531,-0.5848717,-3.808034,-0.09657341,0.5871883,1.30532,0.2611499,-0.004865628,0.04342188,0.01162021,-0.8506669,0.601626,-0.03213956,0.7504251,1.368229,0.1698966,0.2203037,1.128912,0.1534807,276.3206,265.6955,335.4256,True
1,1.722225,-0.01732255,-0.02135138,-0.0326504,-1.499477,-4.478487,-2.577337,0.4855047,1.143681,0.3129973,-1.332991,-0.006479267,5.9,12.7,-0.02069056,0.02265271,0.042106,-0.5839007,-3.806955,-0.09752869,0.5869563,1.305254,0.2612274,-0.00386104,0.04023802,0.004145174,-0.850905,0.6019703,-0.03236806,0.7502011,1.36818,0.1700084,0.2200158,1.128836,0.153487,276.337,265.0791,336.0285,True
1,1.733337,-0.01731969,-0.02241679,-0.03264487,-1.499034,-4.478448,-2.577156,0.4851997,1.143738,0.3131807,-1.333228,-0.02164135,4.1,21.7,-0.01326172,0.01838148,0.0409315,-0.5835375,-3.806632,-0.09789301,0.5867012,1.305251,0.2614043,0.001432939,0.03600621,-0.0001670988,-0.8510355,0.6026453,-0.03304157,0.7499547,1.368044,0.1700633,0.2197729,1.128759,0.1533994,276.3722,264.3755,336.6398,True
1,1.744448,-0.01945405,-0.02242256,-0.03264341,-1.498656,-4.478455,-2.576798,0.4848975,1.143808,0.3134615,-1.333178,0.004805804,4.1,21.7,0.0005120765,-0.009350326,0.04170604,-0.5830075,-3.808186,-0.09691217,0.5864471,1.305367,0.2615259,0.003532402,0.02748633,-0.004466115,-0.8512416,0.6024712,-0.03306474,0.7497118,1.36804,0.1701393,0.2197355,1.128622,0.1535453,276.3555,264.3215,336.6233,True
1,1.755559,-0.02053652,-0.01494084,-0.02735492,-1.498603,-4.478613,-2.576533,0.4846452,1.143846,0.313628,-1.333043,0.0121963,4.1,21.7,0.00676541,-0.02425321,0.03410232,-0.5828935,-3.809549,-0.09597553,0.5861308,1.305374,0.2616651,0.00243747,0.02006624,-0.00873405,-0.851477,0.602937,-0.03339178,0.749442,1.367963,0.1702633,0.2193283,1.128545,0.1533984,276.4299,263.4592,337.4984,True
1,1.76667,-0.01848195,0.01384201,-0.02430909,-1.499052,-4.47962,-2.576304,0.4844931,1.143754,0.3136775,-1.332851,0.0174849,4.1,21.7,0.01408881,-0.03808811,0.02648996,-0.5828344,-3.810985,-0.09514409,0.5859163,1.305494,0.2619636,0.0003274339,0.01262949,-0.007674319,-0.8516326,0.6032369,-0.03363333,0.7491956,1.367878,0.1703353,0.2189813,1.128517,0.1532488,276.4639,262.9824,337.8622,True
1,1.777781,-0.01638781,0.02665563,-0.02011128,-1.499402,-4.48026,-2.576072,0.4842937,1.143737,0.3137355,-1.332945,-0.008683341,4.1,21.7,0.02048381,-0.0349137,0.02642162,-0.5825495,-3.81157,-0.09500162,0.5857646,1.305508,0.262131,-0.0008055526,0.01263918,-0.01512849,-0.8521178,0.6032977,-0.03354331,0.7490342,1.367855,0.1704504,0.2186874,1.128563,0.153173,276.482,262.5424,338.1709,True
1,1.788892,-0.01429328,0.04160807,-0.01379739,-1.499966,-4.481063,-2.575922,0.4841141,1.143732,0.3139765,-1.33306,-0.0104832,3.2,21.9,0.02904127,-0.03174851,0.0284561,-0.5821489,-3.811854,-0.09535954,0.5855755,1.305566,0.2623069,0.01306099,0.01585727,-0.0141751,-0.8523303,0.6040532,-0.03474413,0.7488551,1.367801,0.1706414,0.2183716,1.128102,0.1531671,276.7136,261.2417,339.4045,True
1,1.800003,-0.01429216,0.04271486,-0.00634905,-1.500334,-4.481418,-2.57573,0.4839537,1.143662,0.3139634,-1.33304,0.001920302,3.2,21.9,0.02566181,-0.03914684,0.01568548,-0.5822948,-3.813264,-0.09429561,0.5854564,1.305448,0.2624643,0.01948693,0.01264327,-0.009981253,-0.8523857,0.6039159,-0.03506398,0.7487095,1.367785,0.1707239,0.2178528,1.126421,0.1536496,277.3959,254.5042,346.511,True
1,1.811115,-0.01747512,0.03633433,-0.003106035,-1.500654,-4.48147,-2.575339,0.4837328,1.144027,0.3151512,-1.33312,-0.007359366,3.2,21.9,0.02539996,-0.05184853,-0.00247292,-0.5828466,-3.815002,-0.09312222,0.5853556,1.305423,0.2625537,0.01413834,-0.001199383,-0.01316772,-0.8526376,0.6032373,-0.03456437,0.7485164,1.36784,0.1708655,0.2171103,1.124425,0.1545681,278.2185,253.1252,348.3033,True
1,1.822226,-0.01958904,0.02990556,-0.008395539,-1.500474,-4.481644,-2.575089,0.4835562,1.144077,0.3153226,-1.333046,0.006867471,3.2,21.9,0.02122734,-0.05613292,0.006085865,-0.5823508,-3.816272,-0.09209611,0.5852983,1.305346,0.2626858,0.01734244,-0.007603675,-0.01215174,-0.8528481,0.6026051,-0.03438008,0.748434,1.367807,0.1709356,0.2162818,1.122608,0.1557225,278.9364,253.8177,348.0304,True
1,1.833337,-0.02061051,0.01175384,-0.01576062,-1.499821,-4.481465,-2.574836,0.4833529,1.144055,0.3154087,-1.332816,0.02090431,3.2,21.9,0.02025615,-0.05614872,0.01356357,-0.5817451,-3.816916,-0.09178399,0.5852017,1.305223,0.2627954,0.02374462,-0.009719666,-0.01114231,-0.8529205,0.6027017,-0.03497396,0.7482329,1.36778,0.1708906,0.215511,1.121266,0.1569296,279.4828,254.2726,347.9276,True
1,1.844448,-0.02802457,-0.007478455,-0.02311876,-1.498993,-4.481147,-2.574233,0.483156,1.144155,0.3155265,-1.332952,-0.01254593,3,23.9,0.01807944,-0.05825957,0.01038115,-0.5817606,-3.8182,-0.09081539,0.585053,1.305052,0.2629311,0.02912922,-0.006542742,-0.003727948,-0.8527772,0.6027272,-0.03547357,0.7480854,1.367737,0.170969,0.2149547,1.120442,0.1578539,279.9416,256.4097,345.7386,True
1,1.855559,-0.02799158,-0.02026702,-0.02411836,-1.498364,-4.480737,-2.573964,0.4829283,1.144221,0.315676,-1.332952,0.0001746153,3,23.9,0.01998035,-0.05391644,-0.008792872,-0.5823944,-3.818898,-0.09051339,0.5847611,1.304979,0.2628591,0.02385889,-0.009759525,0.002704042,-0.8524805,0.6023511,-0.03531405,0.7478548,1.36776,0.1710572,0.2147211,1.12076,0.1582025,279.9151,260.6085,341.306,True
1,1.86667,-0.02155818,-0.03836771,-0.02616238,-1.497497,-4.480138,-2.573921,0.4827044,1.144333,0.3157861,-1.332608,0.03148738,3,23.9,0.01670341,-0.03575321,-0.01933008,-0.5829723,-3.818632,-0.09082764,0.5845857,1.304983,0.262897,0.0217131,-0.01827128,0.0005737063,-0.8524927,0.601808,-0.03509407,0.7476796,1.367847,0.1712477,0.2148517,1.122054,0.1580544,279.3975,261.303,340.4933,True
1,1.877781,-0.01300151,-0.05113589,-0.02716226,-1.496736,-4.479478,-2.574142,0.4824812,1.144474,0.3158655,-1.332923,-0.02913333,3,23.9,-0.003459539,-0.02292823,-0.01583011,-0.5830512,-3.818414,-0.09028435,0.5843636,1.305003,0.2629244,0.01744096,-0.0235981,-0.0004674543,-0.8525109,0.6012183,-0.03472149,0.7475632,1.367896,0.1713154,0.2151655,1.123796,0.1575663,278.6982,259.7117,341.9377,True
1,1.888893,-0.002323352,-0.0596071,-0.02180344,-1.496075,-4.478733,-2.574511,0.482349,1.144453,0.315742,-1.333186,-0.02376292,3.8,27.9,-0.01470912,-0.008110829,0.01846748,-0.581742,-3.817198,-0.09087371,0.5842533,1.305122,0.2632172,0.007795559,-0.02039064,-0.006767863,-0.8527048,0.6010442,-0.03431084,0.7474519,1.367936,0.1714315,0.2155601,1.12566,0.1569755,277.9978,258.5292,342.8701,True
1,1.900004,0.003009021,-0.06062522,-0.01541043,-1.495666,-4.478132,-2.574753,0.4821999,1.144539,0.3157938,-1.333448,-0.02378994,3.8,27.9,-0.02187292,0.006739931,0.03885601,-0.5808083,-3.816047,-0.09133737,0.5842252,1.305172,0.2632279,0.008841149,-0.01825839,-0.008905639,-0.8529157,0.6007953,-0.03427648,0.7473723,1.367968,0.1715422,0.2158986,1.127516,0.1564346,277.261,258.3936,342.7762,True
1,1.911115,0.0008508642,-0.04997336,-0.01440034,-1.495419,-4.478055,-2.574673,0.4820906,1.144485,0.3158078,-1.333565,-0.01050481,3.8,27.9,-0.02576213,0.01943365,0.06559457,-0.5793079,-3.814349,-0.09241648,0.584153,1.305294,0.2633739,0.01623738,-0.006520916,-0.01639866,-0.853394,0.6012041,-0.03505253,0.7472532,1.367977,0.1716547,0.2162188,1.129239,0.1559412,276.5917,260.1071,340.8026,True
1,1.922226,-0.01201992,-0.01586989,-0.00604967,-1.496073,-4.478839,-2.57405,0.4820639,1.144322,0.3159056,-1.333398,0.01528584,3.8,27.9,-0.02909859,0.01842331,0.05498344,-0.5790042,-3.814008,-0.09219491,0.584144,1.305224,0.2634683,0.01733489,-0.0001425892,-0.01213812,-0.8534888,0.601369,-0.03537583,0.7471632,1.367944,0.1717961,0.2165015,1.1307,0.1554443,275.9674,262.5699,338.1284,True
1,1.933337,-0.01310308,-0.008400438,-0.002893341,-1.496174,-4.478908,-2.573864,0.4819736,1.144236,0.315933,-1.333052,0.03146653,3.8,27.9,-0.0325672,0.009998284,0.03475004,-0.5793334,-3.814321,-0.09152459,0.5840273,1.30524,0.2634728,0.01516489,0.007326651,-0.01635874,-0.8537487,0.6018243,-0.03572737,0.7470425,1.367954,0.1718681,0.2167166,1.131789,0.1550277,275.4938,262.9343,337.5981,True
1,1.944448,-0.02381463,0.01400532,0.008712538,-1.497059,-4.479461,-2.573071,0.4819541,1.144098,0.3160386,-1.332535,0.04701109,4.1,32.1,-0.01604649,-0.004796993,-0.003868368,-0.5805739,-3.815387,-0.09101513,0.5839007,1.30528,0.2636075,0.01939041,0.008397063,-0.02065772,-0.8541881,0.6018431,-0.0360821,0.7469654,1.367924,0.1719913,0.2168169,1.132349,0.1547758,275.226,262.4604,337.9373,True
1,1.955559,-0.02489836,0.0257642,0.01824675,-1.497845,-4.479589,-2.572891,0.4818811,1.144027,0.3160646,-1.332893,-0.03312982,4.1,32.1,-0.0004661214,-0.03136683,-0.02974445,-0.5816546,-3.817859,-0.08939433,0.583814,1.30521,0.2637994,0.02358262,-0.00223678,-0.02922866,-0.8546345,0.6012229,-0.03606586,0.7468689,1.367824,0.1720614,0.2167596,1.132411,0.1547617,275.1938,262.5876,337.7371,True
1,1.966671,-0.01960612,0.03964882,0.02243395,-1.498661,-4.48014,-2.572811,0.4818751,1.143958,0.3161798,-1.332038,0.07800537,4.1,32.1,0.01832108,-0.06007496,-0.05460419,-0.5829409,-3.820836,-0.08773624,0.5837575,1.305215,0.2639005,0.02783147,-0.00328606,-0.03032842,-0.8549663,0.6013956,-0.03658198,0.7467976,1.367738,0.172008,0.2165648,1.132051,0.1549593,275.3171,262.6795,337.682,True
1,1.977782,-0.01644271,0.05566824,0.02981354,-1.499802,-4.48065,-2.572796,0.4818453,1.143907,0.3162737,-1.331739,0.02571546,4.1,32.1,0.03421851,-0.06755981,-0.06016167,-0.5837069,-3.822899,-0.08699722,0.5836807,1.305125,0.2640634,0.02893007,-0.003307786,-0.02607906,-0.8551559,0.6010889,-0.03669916,0.7466002,1.367703,0.1720364,0.2162569,1.131397,0.1553287,275.5668,263.0309,337.4448,True
1,1.988893,-0.01327963,0.06956945,0.03826339,-1.501058,-4.481298,-2.572711,0.4818766,1.143826,0.3164294,-1.330655,0.09780135,4.1,32.4,0.03337682,-0.05376414,-0.04517737,-0.5836669,-3.82293,-0.08726753,0.5836831,1.305117,0.2644303,0.03443158,-0.009727653,-0.005902102,-0.8546457,0.6010918,-0.0373495,0.7465116,1.36767,0.1719351,0.2158908,1.130573,0.1557879,275.8579,263.4099,337.2347,True
1,2.000004,-0.01329315,0.07808202,0.03716013,-1.502004,-4.481973,-2.572647,0.4819126,1.143803,0.3165581,-1.329031,0.1461603,4.1,32.4,0.03135612,-0.03673799,-0.04082099,-0.5840206,-3.822897,-0.08768698,0.5836326,1.305074,0.2645414,0.03765679,-0.02039508,-0.001699565,-0.8546265,0.6002116,-0.03717187,0.7464303,1.367743,0.1719594,0.2155314,1.129665,0.1562941,276.1504,263.7477,337.0531,True
1,2.011115,-0.01115175,0.07597927,0.04143152,-1.502875,-4.482299,-2.572585,0.481982,1.143726,0.3167033,-1.326935,0.1887454,4.1,32.4,0.02206567,-0.01227727,-0.02248542,-0.5836871,-3.821424,-0.0888617,0.5836663,1.305009,0.2646496,0.03559186,-0.02147518,0.005775485,-0.8542654,0.5999616,-0.03736894,0.7463882,1.36776,0.1721225,0.2151938,1.128751,0.1568029,276.4271,264.2278,336.707,True
1,2.022226,-0.01326128,0.06847961,0.03615181,-1.50324,-4.4824,-2.572371,0.4821673,1.143727,0.3168571,-1.324632,0.2071923,4.1,32.4,0.02030836,0.0110464,0.00214583,-0.5827817,-3.820123,-0.09012616,0.5838158,1.305062,0.2647378,0.03765386,-0.02146718,-0.001705371,-0.8546425,0.5995082,-0.0374491,0.7464107,1.367836,0.1721561,0.2149106,1.127878,0.1572932,276.6733,264.7099,336.3366,True
1,2.033337,-0.010063,0.06526575,0.0319135,-1.50395,-4.482679,-2.572377,0.4823493,1.143721,0.31703,-1.322054,0.2320136,4.1,32.4,0.01834607,0.01846861,0.01392523,-0.5822411,-3.819056,-0.09117465,0.5839142,1.304994,0.2649076,0.03766101,-0.02040423,-0.000635711,-0.8545796,0.5992551,-0.03768612,0.7464004,1.367768,0.1723204,0.214686,1.127071,0.1577376,276.8754,265.0427,336.1034,True
1,2.044448,-0.005802777,0.0631023,0.02339984,-1.504337,-4.483221,-2.572409,0.4825063,1.143745,0.3172235,-1.31913,0.263483,4.2,29,0.01741181,0.01202418,0.02563486,-0.5815012,-3.819353,-0.0911355,0.5841186,1.3051,0.2652044,0.03977265,-0.02254344,-0.002790503,-0.8546856,0.5985545,-0.03771835,0.7464172,1.367709,0.1723402,0.2145694,1.126317,0.158115,277.0363,265.324,335.9083,True
