loc,t,aDotUA,bDotUA,gDotUA,aUA,bUA,gUA,xUA,yUA,zUA,qE,qDotE,emgA,emgB,aDotSH,bDotSH,gDotSH,aSH,bSH,gSH,xSH,ySH,zSH,aDotUB,bDotUB,gDotUB,aUB,bUB,gUB,xUB,yUB,zUB,xHand,yHand,zHand,aHand,bHand,gHand,enable
0,0,0.03427918,-1.333017,0.1574214,-1.443446,-4.11765,2.907853,0.6241089,1.205267,0.4997997,-1.729951,0.08594454,4.1,4.7,-0.3614459,0.7574676,-0.2594898,-0.8748921,-4.169208,-0.1827751,0.6210182,1.413367,0.4144917,-0.131345,0.6304944,0.3749656,-0.8200613,0.5573708,-0.235429,0.7470523,1.543019,0.2696936,0.4368173,1.077765,0.2954189,298.4274,234.6084,352.5288,True
0,0.01111111,0.03427918,-1.333017,0.1574214,-1.443446,-4.11765,2.907853,0.6241089,1.205267,0.4997997,-1.730347,-0.03681898,4.1,4.7,-0.3614459,0.7574676,-0.2594898,-0.8748921,-4.169208,-0.1827751,0.6210182,1.413367,0.4144917,-0.131345,0.6304944,0.3749656,-0.8200613,0.5573708,-0.235429,0.7470523,1.543019,0.2696936,0.4370036,1.076907,0.2918171,298.5033,234.4632,352.0096,True
0,0.02222222,0.01301762,-1.354434,0.1523077,-1.448599,-4.102489,2.906528,0.6215819,1.2041,0.4983399,-1.730567,-0.01961638,4.1,4.7,-0.3763436,0.7414963,-0.2572925,-0.8790194,-4.159931,-0.1840886,0.6192459,1.412556,0.4136763,-0.1390563,0.598607,0.354713,-0.8181433,0.5659179,-0.239342,0.7459486,1.542926,0.2698827,0.4382708,1.075829,0.2876191,298.6715,233.9456,351.288,True
0,0.03333334,-0.04870047,-1.400785,0.1112598,-1.457616,-4.070573,2.905657,0.6166805,1.202515,0.4952528,-1.729674,0.08187091,4.1,4.7,-0.4026892,0.6423118,-0.2169387,-0.8847724,-4.146222,-0.1832311,0.6163136,1.411266,0.4119847,-0.1472137,0.4847919,0.2969568,-0.8150013,0.5773843,-0.2437216,0.7441279,1.542645,0.2699311,0.4401263,1.074749,0.2835116,298.8868,233.4175,350.5556,True
0,0.04444445,-0.07108337,-1.406359,0.09002934,-1.461548,-4.054953,2.905537,0.6144137,1.201871,0.4936879,-1.729355,0.02869455,4.1,4.7,-0.4080521,0.5442934,-0.2129599,-0.8873749,-4.143739,-0.1799818,0.6153914,1.41091,0.4110796,-0.1444696,0.4273922,0.2573418,-0.8143712,0.5816428,-0.2452351,0.743535,1.542691,0.2698247,0.441642,1.073177,0.2777449,299.0279,233.3008,349.8594,True
0,0.05555556,-0.1126845,-1.410037,0.04961956,-1.464263,-4.039115,2.906615,0.6123494,1.201483,0.4922187,-1.729979,-0.05680759,4.1,4.7,-0.3782883,0.4537308,-0.2145761,-0.8902026,-4.142126,-0.1780241,0.6145439,1.410731,0.4103734,-0.1418347,0.3753255,0.2092346,-0.8143185,0.5849911,-0.245952,0.7431332,1.542638,0.2695286,0.4438372,1.071628,0.2712659,299.341,232.6083,349.1516,True
0,0.06666667,-0.1522001,-1.38702,0.01429909,-1.466446,-4.024606,2.908138,0.6105639,1.201291,0.4906073,-1.729973,0.001188497,4.3,6.8,-0.327058,0.3748011,-0.19609,-0.8920306,-4.140676,-0.1771689,0.6140181,1.410787,0.4096289,-0.1456923,0.3062678,0.1504783,-0.8150535,0.5863696,-0.2452593,0.7428178,1.542713,0.26914,0.44665,1.07038,0.2647632,299.6683,231.6025,348.3508,True
0,0.07777778,-0.1950135,-1.336254,-0.01378939,-1.468332,-4.011401,2.910565,0.6089388,1.20137,0.4891934,-1.729077,0.08214407,4.3,6.8,-0.2778203,0.2936897,-0.1616115,-0.8927395,-4.140164,-0.1762432,0.6134961,1.410973,0.408947,-0.1677446,0.2382697,0.08554152,-0.8162077,0.5859373,-0.2422433,0.7426161,1.542629,0.268609,0.4497847,1.069578,0.258657,299.9158,230.5435,347.5515,True
0,0.08888889,-0.1950135,-1.336254,-0.01378939,-1.468332,-4.011401,2.910565,0.6089388,1.20137,0.4891934,-1.729046,0.002365877,4.3,6.8,-0.2778203,0.2936897,-0.1616115,-0.8927395,-4.140164,-0.1762432,0.6134961,1.410973,0.408947,-0.1677446,0.2382697,0.08554152,-0.8162077,0.5859373,-0.2422433,0.7426161,1.542629,0.268609,0.4529077,1.069305,0.2531427,300.0751,229.4828,346.9397,True
0,0.1,-0.3043675,-1.097221,-0.05517811,-1.469926,-3.993538,2.918709,0.6065203,1.201973,0.4867244,-1.73236,-0.3027183,4.3,6.8,-0.220712,0.1559395,-0.07304785,-0.8916668,-4.140554,-0.1728892,0.6128927,1.41166,0.4073246,-0.1544454,0.1339722,0.04038892,-0.8162344,0.5857877,-0.239305,0.7423294,1.542596,0.2670889,0.4557578,1.069651,0.2485517,300.1054,228.3788,346.4334,True
0,0.1111111,-0.3269918,-1.01117,-0.07401039,-1.470466,-3.984746,2.922076,0.6052798,1.202286,0.4855087,-1.724531,0.7184935,4.3,6.8,-0.1946858,0.07476081,-0.01173986,-0.8893738,-4.142551,-0.17047,0.6129653,1.412235,0.4063818,-0.1622525,0.03180219,0.0156429,-0.8164431,0.5814539,-0.2342029,0.7428684,1.543009,0.2662041,0.4578189,1.070512,0.2453686,299.9041,227.8087,345.9315,True
0,0.1222222,-0.32519,-0.9082009,-0.1164675,-1.469044,-3.977979,2.924962,0.6046385,1.203136,0.484503,-1.727476,-0.2753074,3.9,5.8,-0.1753024,0.03630319,0.01673979,-0.8879192,-4.143634,-0.1685951,0.6130198,1.412836,0.4055479,-0.1721188,-0.03097995,-0.005743321,-0.8166519,0.5774741,-0.229185,0.7430373,1.543126,0.2652061,0.4585885,1.071704,0.2419923,299.9015,227.5664,345.9465,True
0,0.1333333,-0.3180979,-0.7761317,-0.1218962,-1.46853,-3.973356,2.9276,0.6041913,1.204134,0.4837263,-1.729481,-0.1797114,3.9,5.8,-0.1284762,0.002190895,0.01304879,-0.8878308,-4.145018,-0.1680598,0.6136838,1.413765,0.4046736,-0.1766989,-0.08948127,-0.02826954,-0.8174109,0.5734457,-0.2236741,0.7437822,1.543262,0.2640278,0.4587798,1.073525,0.2389743,299.7043,226.9844,346.2523,True
0,0.1444445,-0.3473732,-0.5920924,-0.1426613,-1.466319,-3.972586,2.932368,0.6041954,1.20558,0.4831071,-1.730681,-0.1081882,3.9,5.8,-0.1039941,-0.01274012,0.01173425,-0.887704,-4.145833,-0.1672465,0.6141301,1.414647,0.4038575,-0.1705847,-0.1011132,-0.05500223,-0.8187473,0.5712401,-0.2206328,0.7442704,1.543537,0.2627728,0.4586442,1.075893,0.2364921,299.2384,226.5538,346.4587,True
0,0.1555556,-0.3765133,-0.4709938,-0.1724555,-1.463536,-3.970807,2.93759,0.6040449,1.206707,0.4827704,-1.731438,-0.06821656,3.9,5.8,-0.07071197,-0.05867688,0.04646349,-0.8855815,-4.148302,-0.1661474,0.6149234,1.415835,0.4030993,-0.1559803,-0.1361725,-0.07873829,-0.8206089,0.5677907,-0.2164239,0.7452664,1.543942,0.2612591,0.4585032,1.07867,0.2347409,298.6539,226.1882,346.6786,True
0,0.1666667,-0.4207128,-0.2979115,-0.2218635,-1.458852,-3.972408,2.943999,0.6044563,1.208465,0.4827013,-1.729914,0.1398505,3.1,8.5,-0.04247423,-0.1132502,0.1163614,-0.881395,-4.151532,-0.164516,0.6159838,1.417225,0.4022818,-0.147863,-0.2245129,-0.1089096,-0.8217269,0.5595601,-0.2090976,0.7460951,1.544219,0.2594979,0.4583543,1.081643,0.2336649,298.0851,225.9753,346.822,True
0,0.1777778,-0.4520707,-0.1439174,-0.2668634,-1.453449,-3.975629,2.950485,0.6052747,1.210439,0.482837,-1.7294,0.04596612,3.1,8.5,0.01682105,-0.1700439,0.2062427,-0.8753102,-4.155371,-0.1643445,0.6174543,1.418758,0.4014785,-0.1396358,-0.2957977,-0.1305277,-0.8233604,0.5517965,-0.2023315,0.7471063,1.544642,0.2577071,0.4579906,1.084663,0.2331073,297.6078,225.7082,347.1147,True
0,0.1888889,-0.4738711,0.01638578,-0.3236511,-1.447042,-3.979876,2.956849,0.6062354,1.212462,0.4831812,-1.728856,0.04959834,3.1,8.5,0.095274,-0.1948728,0.2907456,-0.8687828,-4.157723,-0.1667229,0.6188492,1.420218,0.400691,-0.1334137,-0.333051,-0.1444999,-0.8241019,0.5451346,-0.1966641,0.7475268,1.544739,0.2559662,0.4573638,1.087631,0.2329431,297.1783,225.2858,347.6347,True
0,0.2,-0.4987453,0.1308793,-0.3800293,-1.439911,-3.984242,2.963706,0.6074598,1.214734,0.4837525,-1.729279,-0.03872576,3.1,8.5,0.2126129,-0.2497787,0.4430097,-0.8574516,-4.161598,-0.1709952,0.620791,1.422007,0.3999126,-0.122038,-0.3862469,-0.1735269,-0.8258383,0.5360489,-0.1896155,0.7486153,1.545083,0.2538679,0.4565303,1.090658,0.2332633,296.906,224.7418,348.3427,True
0,0.2111111,-0.5107747,0.2306195,-0.420312,-1.433294,-3.988542,2.970287,0.6084256,1.216765,0.4841325,-1.729928,-0.05870078,3.1,8.5,0.292568,-0.2811644,0.5796762,-0.845951,-4.164519,-0.1750685,0.6229286,1.423835,0.3991067,-0.110505,-0.4501589,-0.1876346,-0.8265653,0.5257244,-0.1818832,0.7493771,1.545109,0.2516716,0.4555298,1.093848,0.2341252,296.6765,224.1581,349.2152,True
0,0.2222222,-0.5304423,0.3768114,-0.5078726,-1.422833,-3.996527,2.977945,0.6101196,1.219483,0.4851186,-1.729828,0.009823479,3.9,6.3,0.3453535,-0.331512,0.6547183,-0.8350506,-4.169467,-0.1775945,0.6250936,1.42567,0.3982351,-0.09572831,-0.4821008,-0.1985274,-0.8279523,0.5163588,-0.1750363,0.7503858,1.545364,0.2494662,0.4543968,1.097232,0.2355131,296.3937,223.5562,350.2381,True
0,0.2333333,-0.5795881,0.3766845,-0.6282072,-1.411338,-3.998308,2.986559,0.6118475,1.22227,0.4858732,-1.730353,-0.04800418,3.9,6.3,0.4133261,-0.4203196,0.7646734,-0.8216822,-4.177249,-0.1792715,0.6277691,1.427794,0.3973279,-0.07879972,-0.5289761,-0.208388,-0.8289121,0.5056594,-0.1678625,0.7512995,1.545684,0.2471187,0.4531552,1.10081,0.2372797,296.0589,222.9711,351.3732,True
0,0.2444444,-0.5795881,0.3766845,-0.6282072,-1.411338,-3.998308,2.986559,0.6118475,1.22227,0.4858732,-1.730129,0.02103948,3.9,6.3,0.4133261,-0.4203196,0.7646734,-0.8216822,-4.177249,-0.1792715,0.6277691,1.427794,0.3973279,-0.07879972,-0.5289761,-0.208388,-0.8289121,0.5056594,-0.1678625,0.7512995,1.545684,0.2471187,0.4517754,1.104521,0.2392108,295.6747,222.3362,352.5878,True
0,0.2555556,-0.5770186,0.4806278,-0.9210297,-1.381495,-4.007604,3.00101,0.6156416,1.228266,0.4879344,-1.736636,-0.5949956,3.9,6.3,0.5756164,-0.6117159,0.9523542,-0.7916055,-4.195914,-0.1839336,0.6340609,1.432158,0.395587,-0.05894899,-0.6855167,-0.2356701,-0.8316216,0.4779088,-0.1485101,0.7539678,1.546271,0.2419469,0.4502242,1.108307,0.241272,295.1486,221.5858,353.946,True
0,0.2666667,-0.5411172,0.5663236,-0.9985365,-1.367041,-4.014573,3.006961,0.6175225,1.231406,0.4887581,-1.721888,1.353426,3,7.2,0.6479059,-0.7118701,0.9418517,-0.7798364,-4.209522,-0.1842007,0.6373072,1.434171,0.3945951,-0.05704343,-0.7472534,-0.2529039,-0.8335407,0.4633312,-0.1381712,0.7553083,1.546569,0.2392256,0.4490035,1.111739,0.2432602,294.4315,221.3568,355.0024,True
0,0.2777778,-0.5198464,0.5911071,-0.9732118,-1.356361,-4.020506,3.013159,0.6193688,1.234683,0.4899127,-1.730609,-0.8089088,3,7.2,0.7696522,-0.8757446,0.8614945,-0.7707736,-4.229495,-0.1830393,0.6411489,1.436468,0.3935113,-0.02794057,-0.8674952,-0.3153566,-0.8373665,0.4433303,-0.1254349,0.7570513,1.546821,0.2359312,0.448808,1.115565,0.2458165,294.8302,218.7649,358.0201,True
0,0.2888889,-0.4167476,0.6581585,-1.011201,-1.343151,-4.028521,3.015924,0.6213977,1.238003,0.4911299,-1.733185,-0.2268223,3,7.2,0.7949384,-0.9246577,0.8313146,-0.7606036,-4.243677,-0.1822095,0.6446278,1.438733,0.3922737,-0.01328439,-0.9345685,-0.3380857,-0.8401496,0.4257099,-0.1141921,0.7586238,1.547232,0.2329681,0.4487043,1.119872,0.2485925,294.9797,215.6136,1.261595,True
0,0.3,-0.349775,0.6985725,-1.039335,-1.329545,-4.036281,3.019171,0.6230208,1.241468,0.4921765,-1.732939,0.0241077,3,7.2,0.7930225,-0.9961333,0.8630622,-0.7477011,-4.260653,-0.1786105,0.6482561,1.441103,0.3909721,0.01955831,-1.021918,-0.3493207,-0.8428218,0.4056624,-0.102219,0.7602392,1.547459,0.2296698,0.4481997,1.124515,0.2513579,294.7407,213.9216,3.203896,True
0,0.3111111,-0.1473984,0.6946685,-1.060842,-1.316102,-4.04188,3.014876,0.6248497,1.245351,0.4930837,-1.736601,-0.3353498,3,7.2,0.7903835,-1.040035,0.934329,-0.732585,-4.276093,-0.1757015,0.6519464,1.443563,0.3894114,0.06318164,-1.094375,-0.3489606,-0.845266,0.3861185,-0.09141061,0.7622609,1.54769,0.2263103,0.4474345,1.129344,0.2540862,294.2992,213.0035,4.65841,True
0,0.3222222,-0.01525491,0.6420881,-1.144702,-1.299778,-4.044876,3.011211,0.626461,1.249335,0.4937949,-1.736143,0.04435216,2.5,6.8,0.789722,-1.065763,0.9853908,-0.71778,-4.291734,-0.1726858,0.6553998,1.445938,0.3878927,0.09384388,-1.147607,-0.3675362,-0.8486887,0.3663219,-0.08041788,0.763992,1.547853,0.2229581,0.4465646,1.134056,0.256934,293.811,211.4597,6.77234,True
0,0.3333333,-0.5111895,0.7844353,-1.280665,-1.279815,-4.056483,3.036445,0.6287517,1.253859,0.4950962,-1.742426,-0.5757653,2.5,6.8,0.789184,-1.063853,1.052524,-0.7019762,-4.305749,-0.1705366,0.659006,1.448527,0.3861382,0.09901232,-1.165681,-0.3814951,-0.8523788,0.3480422,-0.0695133,0.7657322,1.547992,0.2196655,0.4455391,1.138428,0.2599094,293.5612,209.7237,9.076404,True
0,0.3444445,-0.4748542,0.7452238,-1.269699,-1.265855,-4.061955,3.041989,0.6309885,1.258111,0.4962595,-1.740877,0.1457954,2.5,6.8,0.7809875,-1.059704,1.092022,-0.6867717,-4.319921,-0.1679594,0.6623214,1.451265,0.3843386,0.09336293,-1.175172,-0.4123681,-0.8572971,0.3299435,-0.05856904,0.7674674,1.54798,0.2161636,0.4448133,1.142178,0.2632459,293.4401,207.9409,11.52711,True
0,0.3555556,-0.5387937,0.7091992,-1.349189,-1.247973,-4.066933,3.051645,0.6335461,1.262766,0.4973011,-1.713862,2.467319,2.5,6.8,0.7317617,-0.9982247,1.191698,-0.6688108,-4.329822,-0.166409,0.6660774,1.454145,0.3824093,0.07174814,-1.18253,-0.4409359,-0.8624173,0.3119881,-0.04676191,0.7694566,1.548158,0.2126169,0.4443313,1.144971,0.2668497,293.6682,205.8663,14.09886,True
0,0.3666667,-0.4760313,0.7163341,-1.404727,-1.229921,-4.074046,3.056848,0.6351753,1.267219,0.4978862,-1.729819,-1.4785,2.5,6.8,0.703546,-0.9568969,1.259177,-0.6510193,-4.340427,-0.1647117,0.6699516,1.456712,0.380528,0.05563474,-1.185673,-0.4535738,-0.8674555,0.2941789,-0.03531325,0.7712457,1.548145,0.2089365,0.4431179,1.147863,0.2701165,294.9823,204.967,15.43086,True
0,0.3777778,-0.3802332,0.7170975,-1.468767,-1.210365,-4.0808,3.06001,0.6366556,1.271925,0.4985995,-1.728561,0.1302602,1.4,7,0.6908775,-1.016605,1.278268,-0.6338409,-4.358581,-0.1574615,0.6736346,1.459213,0.3781724,0.05463982,-1.204876,-0.4440247,-0.8715844,0.2753991,-0.02365819,0.7731178,1.548308,0.2051339,0.4421564,1.151747,0.2734031,295.9547,204.2284,16.93196,True
0,0.3888889,-0.3420187,0.7467718,-1.499959,-1.191985,-4.089497,3.065848,0.6383657,1.276496,0.4992745,-1.733645,-0.4672443,1.4,7,0.6810151,-1.053802,1.252675,-0.6190614,-4.377447,-0.1494718,0.6774074,1.461634,0.3759503,0.07949138,-1.234824,-0.408151,-0.8745491,0.2557794,-0.01293631,0.7748607,1.548187,0.2011175,0.4415245,1.156693,0.2764313,296.5708,202.9378,19.01122,True
0,0.4,-0.3420187,0.7467718,-1.499959,-1.191985,-4.089497,3.065848,0.6383657,1.276496,0.4992745,-1.736202,-0.2292591,1.4,7,0.6810151,-1.053802,1.252675,-0.6190614,-4.377447,-0.1494718,0.6774074,1.461634,0.3759503,0.07949138,-1.234824,-0.408151,-0.8745491,0.2557794,-0.01293631,0.7748607,1.548187,0.2011175,0.4407854,1.162521,0.2789736,296.7152,200.6319,21.79273,True
0,0.4111111,-0.3005418,0.7365966,-1.581944,-1.153335,-4.103892,3.077039,0.6415955,1.285809,0.5003612,-1.736803,-0.05383025,1.4,7,0.6532409,-1.118763,1.250566,-0.587814,-4.417867,-0.129917,0.6845495,1.46643,0.3710871,0.09967566,-1.269985,-0.4106207,-0.8838808,0.2175636,0.008543953,0.778477,1.547826,0.1933858,0.4397877,1.168642,0.2811258,296.1227,197.8296,24.97856,True
0,0.4222222,-0.2483982,0.7276294,-1.650108,-1.131995,-4.110952,3.080897,0.6430204,1.290636,0.5005689,-1.730453,0.5803729,1.5,6.5,0.6234663,-1.118763,1.257201,-0.5721897,-4.437305,-0.1194137,0.6877694,1.468617,0.3684683,0.1004937,-1.263518,-0.4361923,-0.8899166,0.1997733,0.01853533,0.7802148,1.547521,0.1894376,0.4387847,1.174158,0.2827533,295.1861,196.0062,27.28683,True
0,0.4333333,-0.1814636,0.7515417,-1.740943,-1.109174,-4.11957,3.084337,0.6444985,1.295347,0.5005555,-1.733377,-0.2726901,1.5,6.5,0.5878297,-1.083335,1.302178,-0.5552712,-4.454547,-0.1103643,0.6908191,1.470925,0.3657997,0.09814346,-1.25386,-0.4585212,-0.8961111,0.1827429,0.02816053,0.7819676,1.547343,0.1856642,0.4383352,1.179836,0.2852104,296.4895,192.9732,30.14835,True
0,0.4444444,-0.1538881,0.7736779,-1.778455,-1.088001,-4.128657,3.089469,0.6460836,1.299932,0.5007238,-1.734975,-0.1439563,1.5,6.5,0.56106,-1.030446,1.307014,-0.539598,-4.468752,-0.1029496,0.6936634,1.472871,0.3629403,0.09148896,-1.228206,-0.4871561,-0.9030193,0.1669011,0.03714231,0.7835991,1.54697,0.1817644,0.4375373,1.185735,0.2881518,297.5355,190.4093,32.85151,True
0,0.4555556,-0.1231372,0.8074872,-1.820335,-1.066004,-4.138784,3.09457,0.6473988,1.304548,0.5007534,-1.736012,-0.09399203,1.5,6.5,0.4854488,-0.9227838,1.300517,-0.5249453,-4.478981,-0.09687888,0.6962824,1.474857,0.3600135,0.08191574,-1.198362,-0.4880375,-0.9089257,0.151777,0.04587215,0.7851911,1.546658,0.1780028,0.4362143,1.191598,0.291315,297.9972,188.437,35.47394,True
0,0.4666667,-0.1072038,0.8265893,-1.834363,-1.045035,-4.148926,3.100176,0.6487847,1.309265,0.5006711,-1.734403,0.1477253,1.5,6.5,0.4438946,-0.8620136,1.298936,-0.5098883,-4.491873,-0.08913494,0.6992552,1.476782,0.3571546,0.07570779,-1.185616,-0.4730426,-0.9144033,0.1357917,0.05490613,0.7867799,1.546356,0.1741042,0.4344937,1.197107,0.2946661,298.4005,186.5069,38.30537,True
0,0.4777778,-0.08275807,0.8371128,-1.856856,-1.023268,-4.159157,3.105438,0.6499895,1.313839,0.5004528,-1.734553,-0.01523415,2,6.8,0.3981495,-0.7799541,1.299572,-0.4950098,-4.501315,-0.08358038,0.7017422,1.478538,0.3543124,0.0686599,-1.159082,-0.4366849,-0.9188017,0.1209762,0.06332598,0.7881953,1.545907,0.1702325,0.4325398,1.20215,0.298195,298.9964,184.9971,40.74472,True
0,0.4888889,-0.05714935,0.8296226,-1.868542,-1.001573,-4.168943,3.110333,0.6511607,1.318451,0.4999287,-1.733986,0.05184887,2,6.8,0.3757699,-0.738355,1.299915,-0.4797173,-4.513611,-0.07607293,0.7045093,1.480371,0.3514779,0.06362092,-1.141045,-0.4088911,-0.9233568,0.1059411,0.07192293,0.7897136,1.545642,0.1664326,0.4303802,1.206775,0.3018261,299.8373,183.959,42.66977,True
0,0.5,-0.04330122,0.8178135,-1.884427,-0.9795613,-4.178823,3.115858,0.6523672,1.323021,0.4993763,-1.734221,-0.0221782,2,6.8,0.3705474,-0.704293,1.309653,-0.4641687,-4.525875,-0.06909012,0.706881,1.48199,0.3484862,0.06508112,-1.098536,-0.3736257,-0.9270783,0.09268786,0.07912385,0.7910126,1.545246,0.1626861,0.4281522,1.21114,0.3054906,300.8228,183.3807,44.15496,True
0,0.5111111,-0.03474975,0.8135034,-1.892921,-0.9578943,-4.189108,3.121681,0.6536015,1.327688,0.4987216,-1.734302,-0.00743972,2,6.8,0.3629963,-0.6978632,1.305502,-0.4490612,-4.54123,-0.05891445,0.7091719,1.483673,0.3452563,0.0491786,-1.064449,-0.3680422,-0.932051,0.07967352,0.08689655,0.7922853,1.544871,0.1590004,0.4259076,1.215367,0.3090598,301.8743,182.9187,45.54402,True
0,0.5222223,-0.026223,0.8241522,-1.897276,-0.9363642,-4.200598,3.128218,0.6548713,1.332074,0.4978948,-1.733645,0.05978685,1.5,4.5,0.3425691,-0.6838999,1.282286,-0.4351174,-4.556215,-0.0484437,0.7112647,1.485168,0.3421702,0.03106087,-1.020743,-0.3730654,-0.9374263,0.0677596,0.09416671,0.7934459,1.544326,0.1553268,0.4237589,1.21957,0.3124217,302.941,182.4883,46.89429,True
0,0.5333334,-0.01460105,0.8615053,-1.893354,-0.9152417,-4.214033,3.135955,0.6561164,1.336276,0.4970858,-1.733461,0.01617386,1.5,4.5,0.3147666,-0.6476151,1.268789,-0.4211022,-4.569308,-0.03898175,0.7132314,1.486777,0.3392327,0.02252102,-0.9695657,-0.3771291,-0.9428096,0.05734279,0.1003032,0.7946191,1.543974,0.1519096,0.4218147,1.223856,0.3155238,304.0156,182.034,48.17773,True
0,0.5444446,0.000184238,0.9138747,-1.884216,-0.8945841,-4.229421,-3.138404,0.6574835,1.340479,0.4963424,-1.733436,0.002158746,1.5,4.5,0.2888423,-0.6123143,1.229697,-0.4084927,-4.582376,-0.02914723,0.7150167,1.488377,0.3363631,0.01725972,-0.9184288,-0.3737398,-0.9477839,0.04726285,0.1061698,0.795699,1.54343,0.1485186,0.4200856,1.228347,0.3183256,305.0582,181.5134,49.42298,True
0,0.5555557,0.000184238,0.9138747,-1.884216,-0.8945841,-4.229421,-3.138404,0.6574835,1.340479,0.4963424,-1.733423,0.001095712,1.5,4.5,0.2888423,-0.6123143,1.229697,-0.4084927,-4.582376,-0.02914723,0.7150167,1.488377,0.3363631,0.01725972,-0.9184288,-0.3737398,-0.9477839,0.04726285,0.1061698,0.795699,1.54343,0.1485186,0.4184846,1.233093,0.3208375,306.0277,180.804,50.76159,True
0,0.5666668,0.01696646,1.038005,-1.829899,-0.855884,-4.264637,-3.117013,0.6599697,1.348355,0.4947202,-1.73292,0.04601508,1.6,6.4,0.246429,-0.5895683,1.124655,-0.3862723,-4.613439,-0.0046845,0.7186671,1.490795,0.3306808,-0.006875575,-0.8428102,-0.3413863,-0.9565856,0.02854802,0.1177684,0.7977321,1.542632,0.1417294,0.4169596,1.237934,0.3231089,306.4451,179.7666,52.51882,True
0,0.577778,0.01254058,1.105488,-1.787858,-0.8376563,-4.28486,-3.10363,0.6613295,1.352013,0.4939234,-1.734207,-0.1180901,1.6,6.4,0.2332396,-0.6021876,1.075716,-0.3758967,-4.632916,0.01118181,0.7201979,1.491897,0.3281002,-0.02468622,-0.800261,-0.3155065,-0.960126,0.01980034,0.1237046,0.7986038,1.54216,0.1385984,0.4156698,1.242241,0.3248369,306.3539,179.1154,53.92911,True
0,0.5888891,0.001823187,1.153699,-1.754171,-0.8199441,-4.305594,-3.089482,0.6626266,1.355728,0.4930131,-1.732992,0.1115475,1.6,6.4,0.2146091,-0.6115467,1.015133,-0.3665628,-4.652908,0.02809502,0.7217056,1.492993,0.3253171,-0.03726971,-0.7683489,-0.2992817,-0.9637825,0.01103201,0.1295271,0.7994231,1.541587,0.1354725,0.4142527,1.247065,0.3269435,308.5128,178.343,54.55422,True
0,0.6000003,-0.01103771,1.220197,-1.70039,-0.8038443,-4.328681,-3.073335,0.6638894,1.359177,0.4919739,-1.732378,0.05553212,1.6,6.4,0.1939936,-0.5975445,0.9716733,-0.3572061,-4.671394,0.04399649,0.7230503,1.494063,0.3226175,-0.06478745,-0.7119044,-0.2860456,-0.9671903,0.004467719,0.1349844,0.8001989,1.541107,0.1326115,0.4123663,1.252829,0.329713,309.9813,177.7265,55.34206,True
0,0.6111114,-0.02191484,1.288113,-1.614629,-0.789068,-4.352809,-3.055993,0.6649578,1.36237,0.4910724,-1.732114,0.02381619,1.6,6.4,0.1746454,-0.5782819,0.9484516,-0.3477801,-4.689606,0.05981859,0.7242891,1.495166,0.3201129,-0.09567463,-0.6596808,-0.2898225,-0.971355,-0.001846769,0.1406735,0.800884,1.540636,0.1296806,0.4100774,1.259365,0.3330417,310.4812,177.2092,56.83938,True
0,0.6222225,-0.0345366,1.309643,-1.577553,-0.7750683,-4.376827,-3.03842,0.6660287,1.365453,0.4898901,-1.731936,0.01587426,1.9,4.8,0.1497633,-0.5344161,0.8976577,-0.3398668,-4.703986,0.07260256,0.7252444,1.495979,0.3175502,-0.1233913,-0.621299,-0.2936828,-0.9755101,-0.007945541,0.1464664,0.8016174,1.540069,0.1269207,0.4075574,1.266343,0.3367156,310.7989,176.6975,58.87576,True
0,0.6333337,-0.04727626,1.319732,-1.515837,-0.7620646,-4.40059,-3.020461,0.6668389,1.368361,0.4888752,-1.731727,0.01918205,1.9,4.8,0.1012065,-0.4712736,0.8172859,-0.3336419,1.567766,0.08388638,0.7259823,1.496893,0.3154011,-0.1425814,-0.5818586,-0.2976378,-0.97977,-0.01367959,0.151846,0.8023523,1.539669,0.1245322,0.4049124,1.273507,0.3405248,311.1912,176.2134,61.01655,True
0,0.6444448,-0.05789697,1.322165,-1.481731,-0.748678,-4.424968,-3.001838,0.6678597,1.371371,0.4877276,-1.731668,0.005232139,1.9,4.8,0.07758495,-0.4456005,0.7941273,-0.325743,1.552453,0.09832177,0.7269485,1.497665,0.3131058,-0.1521781,-0.5562815,-0.3017292,-0.9841248,-0.0196725,0.1569936,0.8031175,1.539199,0.1219666,0.4022497,1.280658,0.3443001,311.5977,175.82,63.01714,True
0,0.655556,-0.07268548,1.29917,-1.426117,-0.737147,-4.447687,-2.983825,0.6683856,1.373958,0.486609,-1.731366,0.02755773,1.9,4.8,0.03894672,-0.4326711,0.75719,-0.3191772,1.536402,0.1143886,0.7275353,1.498507,0.3110559,-0.1702551,-0.5179164,-0.301429,-0.9880946,-0.02431226,0.1620078,0.8036841,1.538758,0.1197417,0.3997028,1.287614,0.3478515,312.01,175.5228,64.84264,True
0,0.6666671,-0.08521473,1.265643,-1.370352,-0.7261151,-4.470466,-2.966115,0.6689895,1.376461,0.4854581,-1.731401,-0.003413573,1.9,4.8,0.02162817,-0.4261664,0.7285915,-0.3126391,1.51895,0.1314896,0.7282645,1.49937,0.3090572,-0.1830215,-0.4859535,-0.3033227,-0.9920956,-0.02890635,0.1668409,0.8043252,1.538415,0.1174054,0.3973798,1.294234,0.3510575,312.4547,175.2658,66.46114,True
0,0.6777782,-0.09145033,1.221349,-1.31774,-0.715813,-4.492032,-2.94873,0.6692218,1.378909,0.4843462,-1.731086,0.02883511,1.6,7.1,-0.005210668,-0.3994229,0.700125,-0.3065368,1.5046,0.1461745,0.7286174,1.500106,0.3071649,-0.2053404,-0.4369356,-0.3018823,-0.9958598,-0.03185553,0.1714844,0.804796,1.538048,0.1154094,0.3953748,1.300462,0.3538498,312.9729,175.0203,67.88486,True
0,0.6888894,-0.09231901,1.174789,-1.284299,-0.7052833,-4.513316,-2.931717,0.6695713,1.381416,0.48316,-1.731658,-0.05239788,1.6,7.1,-0.0330883,-0.3598981,0.6748885,-0.3004962,1.49287,0.1586855,0.7287984,1.500869,0.3050594,-0.2168482,-0.3922346,-0.2856651,-0.9990662,-0.03483069,0.1757135,0.8052258,1.537653,0.1133056,0.3935554,1.306246,0.3561126,313.4452,174.7361,69.16965,True
0,0.7000005,-0.09635663,1.100664,-1.232493,-0.6960182,-4.531922,-2.916229,0.66944,1.383718,0.4820044,-1.731372,0.02667463,1.6,7.1,-0.06307781,-0.3075893,0.6497253,-0.2944407,1.483622,0.1692295,0.7289374,1.501511,0.3031626,-0.2197378,-0.349701,-0.2588739,-1.001482,-0.03738386,0.1796062,0.805606,1.537336,0.1114774,0.3919433,1.311563,0.3578793,313.9232,174.4093,70.29499,True
0,0.7111117,-0.09635663,1.100664,-1.232493,-0.6960182,-4.531922,-2.916229,0.66944,1.383718,0.4820044,-1.731694,-0.0297534,1.6,7.1,-0.06307781,-0.3075893,0.6497253,-0.2944407,1.483622,0.1692295,0.7289374,1.501511,0.3031626,-0.2197378,-0.349701,-0.2588739,-1.001482,-0.03738386,0.1796062,0.805606,1.537336,0.1114774,0.390423,1.316447,0.3591892,314.444,174.1008,71.20885,True
0,0.7222228,-0.09589946,0.9513083,-1.140606,-0.6778906,-4.567687,-2.886375,0.6693537,1.388274,0.479629,-1.732633,-0.08557006,1.8,6.3,-0.1059003,-0.2467246,0.6161608,-0.2824005,1.461487,0.1938432,0.7291852,1.502697,0.299695,-0.2353877,-0.2730722,-0.2339878,-1.006863,-0.04147168,0.1873318,0.8063102,1.536638,0.1081038,0.3893139,1.320794,0.3602189,314.7509,173.6257,72.29145,True
0,0.7333339,-0.1136248,0.8422216,-1.059754,-0.6705637,-4.580364,-2.874577,0.6685693,1.39019,0.478642,-1.730566,0.1897004,1.8,6.3,-0.1403405,-0.22951,0.57068,-0.2779025,1.450713,0.206922,0.7289112,1.503195,0.2982309,-0.2576942,-0.2070102,-0.2324964,-1.00942,-0.04115636,0.1907372,0.8065444,1.536318,0.1068509,0.3885714,1.324083,0.3607576,314.7653,173.1991,73.19626,True
0,0.7444451,-0.119876,0.7861152,-1.017706,-0.6628214,-4.596375,-2.860229,0.6683409,1.392256,0.4775107,-1.731325,-0.07092427,1.8,6.3,-0.1523004,-0.2294065,0.5430704,-0.2734076,1.437247,0.2220421,0.7288581,1.503801,0.2966907,-0.2630337,-0.1910243,-0.2345237,-1.012421,-0.0425384,0.1946225,0.8068972,1.535972,0.1052325,0.3868537,1.327442,0.3608443,316.093,173.4314,72.84424,True
0,0.7555562,-0.1185271,0.7099835,-0.9510067,-0.6563446,-4.608563,-2.849311,0.6674892,1.394136,0.4765532,-1.730936,0.03646905,1.8,6.3,-0.162244,-0.2079477,0.4963413,-0.2698539,1.427805,0.2333001,0.72848,1.504266,0.295249,-0.2918762,-0.1249088,-0.2468209,-1.015503,-0.04080975,0.1979869,0.8069344,1.535666,0.1040902,0.3850565,1.331171,0.3610558,317.0095,173.4563,72.80186,True
0,0.7666674,-0.14174,0.6497591,-0.8865418,-0.6503146,-4.62119,-2.836942,0.6668581,1.395846,0.4755301,-1.731117,-0.01698571,1.8,6.3,-0.1836364,-0.1578181,0.481737,-0.2651497,1.422694,0.2410265,0.7279401,1.504931,0.2935824,-0.2982327,-0.1067925,-0.2456462,-1.018365,-0.04098618,0.2014719,0.8071067,1.535218,0.1026685,0.383276,1.335091,0.3613503,317.2987,173.2182,73.39329,True
0,0.7777785,-0.2576026,0.5784835,-0.8378697,-0.6441079,-4.632124,-2.821625,0.6661245,1.397457,0.4744403,-1.731725,-0.05517817,1.9,17.5,-0.2037587,-0.1098929,0.4916348,-0.2593855,1.418564,0.2480045,0.7274699,1.505498,0.2921202,-0.302138,-0.09091224,-0.2125358,-1.019797,-0.04137021,0.2051462,0.8071685,1.534943,0.1014404,0.3817303,1.339035,0.3617415,317.5534,172.9134,74.25728,True
0,0.7888896,-0.3735199,0.5329397,-0.7691762,-0.6394058,-4.642871,-2.804987,0.665243,1.3991,0.4733746,-1.730815,0.08367197,1.9,17.5,-0.2292511,-0.03531316,0.4941947,-0.2534594,1.420779,0.249299,0.7267965,1.506056,0.2907152,-0.299615,-0.08678189,-0.1752617,-1.020849,-0.04236983,0.2088528,0.8070813,1.534799,0.1002619,0.3802704,1.342846,0.3621337,317.8275,172.5626,75.17121,True
0,0.8000008,-0.3765416,0.4875688,-0.7176368,-0.6348971,-4.652979,-2.792727,0.6642584,1.400697,0.4723506,-1.726706,0.3750921,1.9,17.5,-0.2718779,0.03826651,0.4851784,-0.2477603,1.426921,0.2478742,0.7261387,1.506541,0.2893131,-0.290957,-0.08576229,-0.1625652,-1.022484,-0.04310965,0.2121535,0.807119,1.534546,0.09903312,0.3788778,1.346429,0.3624429,318.1078,172.3017,75.96667,True
0,0.8111119,-0.3570651,0.3975366,-0.6636182,-0.6301588,-4.658595,-2.78509,0.6631188,1.402103,0.4712167,-1.725381,0.1183123,1.9,17.5,-0.2899891,0.07449572,0.4843663,-0.2421261,1.428466,0.2504184,0.7257653,1.506867,0.2881756,-0.2823309,-0.09327656,-0.1530861,-1.024175,-0.04450928,0.2156212,0.8070666,1.534414,0.09794903,0.3773794,1.349858,0.3623632,318.41,172.2667,76.51247,True
0,0.8222231,-0.3503768,0.3073931,-0.6202353,-0.6252234,-4.663003,-2.77788,0.6618532,1.403444,0.4702101,-1.729813,-0.405375,2.9,58.2,-0.3091788,0.09050769,0.4813688,-0.2366405,1.429448,0.2536248,0.7251564,1.50732,0.2869346,-0.2833402,-0.09011528,-0.1498688,-1.025898,-0.04538253,0.2191177,0.8069691,1.534228,0.09692502,0.3757986,1.353323,0.3616321,318.7019,172.2944,76.8783,True
0,0.8333342,-0.3534054,0.2597111,-0.588932,-0.6205405,-4.668632,-2.769238,0.6605804,1.404914,0.4690852,-1.731708,-0.1693803,2.9,58.2,-0.3072511,0.08417559,0.4578981,-0.2323304,1.42648,0.2599117,0.7246338,1.507732,0.2856905,-0.2833447,-0.08905415,-0.1498613,-1.0278,-0.04611862,0.222677,0.807044,1.534038,0.09592795,0.3744364,1.356769,0.3603387,318.9728,171.9546,77.42479,True
0,0.8444453,-0.1462793,0.115911,-0.5293428,-0.6157953,-4.665082,-2.778025,0.6588497,1.406298,0.4679444,-1.731437,0.02583406,2.9,58.2,-0.2915091,0.07786416,0.428988,-0.228651,1.424922,0.2640442,0.7240272,1.508043,0.2844226,-0.2864631,-0.08055395,-0.1434165,-1.029282,-0.0464671,0.2260331,0.8069906,1.533829,0.09490347,0.373398,1.359914,0.3586289,319.2066,171.2386,78.17943,True
0,0.8555565,-0.1236443,0.023376,-0.5189962,-0.6096892,-4.663541,-2.778676,0.6572237,1.407535,0.4668078,-1.731036,0.03637504,2.9,58.2,-0.2779221,0.08221224,0.3947962,-0.2256076,1.425781,0.265678,0.7232868,1.508314,0.2833245,-0.2894807,-0.06464317,-0.1284129,-1.030059,-0.04667336,0.2292433,0.8068354,1.533716,0.09416795,0.3725232,1.362588,0.3566247,319.486,170.4118,78.827,True
0,0.8666676,-0.1236443,0.023376,-0.5189962,-0.6096892,-4.663541,-2.778676,0.6572237,1.407535,0.4668078,-1.740758,-0.889277,2.9,58.2,-0.2779221,0.08221224,0.3947962,-0.2256076,1.425781,0.265678,0.7232868,1.508314,0.2833245,-0.2894807,-0.06464317,-0.1284129,-1.030059,-0.04667336,0.2292433,0.8068354,1.533716,0.09416795,0.3716186,1.364806,0.3544062,319.7783,169.7482,79.22544,True
0,0.8777788,-0.1541328,-0.07694958,-0.406245,-0.6029551,-4.659932,-2.77683,0.6540973,1.409692,0.4645572,-1.735368,0.4999697,7.4,93.6,-0.3293306,0.1505709,0.3538691,-0.2176692,1.4405,0.2600532,0.7216393,1.508826,0.2812445,-0.3025681,-0.02652419,-0.05784878,-1.029166,-0.04672356,0.2360509,0.8063989,1.533365,0.09267211,0.3712043,1.366052,0.3525704,319.9623,168.8068,79.72946,True
0,0.8888899,-0.1646092,-0.1267295,-0.369584,-0.5992475,-4.657057,-2.777074,0.6525313,1.410605,0.4636397,-1.730155,0.4706526,7.4,93.6,-0.3550102,0.2177706,0.3319099,-0.2137746,1.457861,0.2477922,0.7205846,1.509125,0.2801673,-0.3054388,-0.00532487,-0.02791994,-1.028356,-0.04647589,0.2392512,0.8061725,1.533419,0.09200835,0.3708781,1.366206,0.3513075,320.0078,168.2605,79.92042,True
0,0.900001,-0.153862,-0.1466339,-0.3331995,-0.5962034,-4.654703,-2.777637,0.6506367,1.41151,0.4624627,-1.730738,-0.05780271,7.4,93.6,-0.368808,0.2369455,0.3363416,-0.2091263,1.468425,0.2419817,0.7195553,1.509387,0.2791443,-0.3031603,0.01167533,-0.01404347,-1.027994,-0.04585763,0.2423074,0.8059088,1.533298,0.09122849,0.3688436,1.365818,0.3497148,320.4922,168.6038,79.35223,True
0,0.9111122,-0.1345043,-0.1919855,-0.2859657,-0.5934013,-4.649962,-2.780794,0.6487272,1.412314,0.4613307,-1.729198,0.140376,7.4,93.6,-0.3806728,0.2359487,0.3172542,-0.2058038,1.476664,0.2384134,0.7185314,1.509568,0.2781498,-0.3052448,0.01698598,-0.009749573,-1.027974,-0.0455033,0.2455565,0.8058333,1.533248,0.0905056,0.366479,1.36506,0.3482847,320.9041,169.1889,78.47556,True
0,0.9222233,-0.1258815,-0.2227323,-0.271862,-0.5898976,-4.645887,-2.783087,0.6469048,1.413052,0.4601583,-1.727844,0.120571,5.8,79.9,-0.3968011,0.2637356,0.296159,-0.2024982,1.492647,0.2278113,0.7174078,1.50973,0.2771082,-0.3073567,0.03296107,-0.008616421,-1.027871,-0.0445186,0.2485491,0.805564,1.533182,0.0897646,0.3641986,1.364116,0.3471521,321.1525,169.742,77.68595,True
0,0.9333345,-0.1396234,-0.2622317,-0.2768374,-0.585259,-4.640757,-2.785405,0.6450004,1.413626,0.4589317,-1.725863,0.1778956,5.8,79.9,-0.3957253,0.291431,0.295173,-0.1983954,1.509191,0.2160106,0.7162527,1.509897,0.2761252,-0.2987198,0.04677233,0.001983555,-1.027354,-0.04356905,0.2511396,0.8050927,1.533218,0.08908677,0.3619646,1.363167,0.3462481,321.3331,170.2169,77.07973,True
0,0.9444456,-0.1480578,-0.2855485,-0.2606497,-0.5817345,-4.635875,-2.787631,0.6430842,1.414518,0.4578438,-1.722278,0.32346,5.8,79.9,-0.4052089,0.3180305,0.3049365,-0.1935404,1.526205,0.2040519,0.7150036,1.510021,0.2751298,-0.285713,0.07760057,0.02218535,-1.026002,-0.04172787,0.2530056,0.8046489,1.533261,0.08846259,0.3598621,1.362224,0.3455576,321.4801,170.5909,76.66238,True
0,0.9555568,-0.1501306,-0.2927323,-0.2275613,-0.5791992,-4.630737,-2.790152,0.6411375,1.415279,0.4567204,-1.717415,0.4387481,5.8,79.9,-0.422321,0.3372536,0.2944792,-0.1897811,1.546025,0.1899572,0.7136973,1.510254,0.2741263,-0.2919852,0.0935528,0.03294953,-1.02489,-0.04012771,0.2556792,0.8043034,1.533291,0.08784389,0.3578359,1.36128,0.3450302,321.668,170.8922,76.37658,True
0,0.9666679,-0.1298468,-0.2988492,-0.2019594,-0.5767763,-4.625702,-2.793641,0.639253,1.416021,0.4556305,-1.712825,0.4123795,5.8,79.9,-0.4499508,0.3841487,0.2980393,-0.1854045,-4.708866,0.1681171,0.712287,1.51058,0.2732697,-0.2992969,0.122287,0.04482455,-1.023483,-0.03779358,0.2579708,0.803716,1.53333,0.08738017,0.35577,1.360325,0.3445705,321.9095,171.1955,76.07903,True
0,0.977779,-0.1115698,-0.3497227,-0.1770487,-0.5738702,-4.617111,-2.800212,0.637263,1.416793,0.4545097,-1.707724,0.4589646,7.8,77.2,-0.4678994,0.3979613,0.3173991,-0.1804569,-4.685749,0.1511661,0.7108707,1.51078,0.2723088,-0.296142,0.1446706,0.03953093,-1.022683,-0.03527384,0.2598201,0.8033279,1.533357,0.08689189,0.3536116,1.359442,0.3441419,322.1056,171.5483,75.66186,True
0,0.9888902,-0.09543298,-0.4061446,-0.177656,-0.5699596,-4.607225,-2.80807,0.6352201,1.417515,0.4532993,-1.702899,0.4328525,7.8,77.2,-0.4849292,0.4032916,0.3186299,-0.1761537,-4.663775,0.1354255,0.7095859,1.511048,0.2712634,-0.2919558,0.1500155,0.0320424,-1.022193,-0.03325769,0.2618612,0.8029485,1.533436,0.08642197,0.3513706,1.358644,0.3437458,322.2098,171.8928,75.28117,True
0,1.000001,-0.06860918,-0.4763774,-0.1770958,-0.5656879,-4.595049,-2.818457,0.6331202,1.418205,0.4520998,-1.69645,0.5810609,7.8,77.2,-0.4881873,0.4235735,0.3091323,-0.1724083,-4.635016,0.1126743,0.7081214,1.511052,0.270287,-0.2803645,0.1670906,0.01812168,-1.021884,-0.0304892,0.2629887,0.8025395,1.533422,0.08595729,0.3491409,1.35783,0.3434653,322.2832,172.1588,75.02939,True
0,1.011112,-0.04482239,-0.6040854,-0.1696575,-0.5608569,-4.577006,-2.833906,0.6310338,1.418832,0.4510365,-1.689304,0.6429121,7.8,77.2,-0.4809679,0.4481561,0.2782599,-0.1697744,-4.603771,0.08705074,0.7066079,1.511218,0.269371,-0.2699122,0.1777939,-0.002200369,-1.02205,-0.02767078,0.2641214,0.80215,1.533493,0.085603,0.3469336,1.356791,0.3433106,322.3564,172.4007,74.86661,True
0,1.022224,-0.04482239,-0.6040854,-0.1696575,-0.5608569,-4.577006,-2.833906,0.6310338,1.418832,0.4510365,-1.682,0.6566794,7.8,77.2,-0.4809679,0.4481561,0.2782599,-0.1697744,-4.603771,0.08705074,0.7066079,1.511218,0.269371,-0.2699122,0.1777939,-0.002200369,-1.02205,-0.02767078,0.2641214,0.80215,1.533493,0.085603,0.3447211,1.355319,0.3432656,322.4926,172.689,74.66238,True
0,1.033335,-0.02120855,-0.6755291,-0.1861252,-0.5517825,-4.549379,-2.857503,0.6270239,1.420109,0.448853,-1.673432,0.7716076,5.2,74.6,-0.4703752,0.4534895,0.26967,-0.1632699,-4.544348,0.03852023,0.7034388,1.511365,0.2674959,-0.2551302,0.1916737,-0.01616206,-1.021733,-0.02221676,0.2665033,0.8009443,1.533837,0.08502316,0.3428725,1.353269,0.3435525,322.6913,173.0474,74.18863,True
0,1.044446,-0.007369995,-0.6820472,-0.2063328,-0.5468615,-4.537109,-2.868249,0.6251736,1.420806,0.4478052,-1.664618,0.7928373,5.2,74.6,-0.4697292,0.4483184,0.2185101,-0.1623634,-4.515982,0.01585886,0.7016292,1.511438,0.2667704,-0.2613134,0.2012004,0.004168537,-1.020355,-0.01966518,0.268343,0.8004513,1.534084,0.08469343,0.3413929,1.350773,0.3443474,322.7744,173.5551,73.6566,True
0,1.055557,0.02137339,-0.6853706,-0.2308408,-0.5414505,-4.524168,-2.880544,0.6232042,1.421495,0.4468358,-1.65504,0.8623624,5.2,74.6,-0.4376565,0.5068611,0.2269513,-0.1597503,-4.468179,-0.02733202,0.6996825,1.511695,0.2660556,-0.2990695,0.2553875,0.05904222,-1.016849,-0.01528468,0.270619,0.7996575,1.53436,0.08447599,0.3388169,1.347457,0.3446903,323.0812,174.3002,73.10411,True
0,1.066668,0.05433574,-0.6640595,-0.2406475,-0.5368331,-4.512842,-2.892015,0.6212766,1.422082,0.4459186,-1.645387,0.8684998,5.2,74.6,-0.4128897,0.5642846,0.2535654,-0.1564059,-4.414371,-0.07669265,0.6978625,1.511888,0.2652385,-0.3169158,0.278764,0.08380231,-1.014061,-0.01143655,0.2727266,0.7988589,1.534631,0.08424664,0.3362179,1.343411,0.3450524,323.578,175.2186,71.96744,True
0,1.077779,0.07875669,-0.631987,-0.2345489,-0.5330823,-4.502459,-2.902554,0.6194639,1.422708,0.4452028,-1.636172,0.8281705,3,63.9,-0.4085251,0.6090019,0.2621892,-0.1541017,-4.358726,-0.127191,0.695939,1.512108,0.2644804,-0.3251172,0.3053143,0.1137939,-1.010835,-0.007360578,0.274431,0.798017,1.534908,0.08411002,0.3338182,1.339036,0.3456683,324.1218,176.2126,70.52856,True
0,1.08889,0.101055,-0.6052619,-0.2316086,-0.5293896,-4.492595,-2.912831,0.6176301,1.423461,0.44437,-1.626283,0.8897559,3,63.9,-0.4170915,0.5941169,0.2558285,-0.1523477,-4.317704,-0.1629966,0.6940793,1.512458,0.2636919,-0.3228707,0.2946263,0.1265252,-1.008278,-0.004607935,0.2765264,0.7973156,1.53522,0.08405924,0.331597,1.334643,0.3466852,324.6785,177.1657,69.1168,True
0,1.100002,0.1328945,-0.5593376,-0.2277739,-0.5259706,-4.484612,-2.922299,0.6160107,1.423997,0.4437249,-1.615387,0.9812306,3,63.9,-0.3972225,0.5548193,0.2129351,-0.1522913,-4.285629,-0.1909609,0.692143,1.512606,0.2630072,-0.3292784,0.286111,0.1255004,-1.006189,-0.001795503,0.278882,0.7965155,1.535504,0.08395791,0.3294668,1.330479,0.348203,325.175,178.1026,67.84347,True
0,1.111113,0.1657394,-0.492079,-0.2219869,-0.523105,-4.479352,-2.929743,0.6144307,1.424589,0.4432306,-1.604528,0.9769437,3,63.9,-0.36746,0.5388342,0.2062568,-0.1514092,-4.247982,-0.2251258,0.6902176,1.512814,0.2623708,-0.3507506,0.2872354,0.109737,-1.004836,0.001586978,0.2817427,0.7956084,1.535776,0.08393812,0.327329,1.326734,0.3502429,325.5874,179.1021,66.72845,True
0,1.122224,0.1900357,-0.4141986,-0.2162694,-0.5206304,-4.475823,-2.935579,0.6128465,1.425096,0.4427724,-1.59416,0.9320602,3,63.9,-0.3141489,0.5600784,0.2101663,-0.1505868,-4.198574,-0.2722763,0.6882168,1.512873,0.2618086,-0.3677097,0.3191811,0.1163955,-1.002119,0.006292916,0.2838216,0.7945811,1.536103,0.08389831,0.3251013,1.323512,0.3527389,325.9669,180.1486,65.82817,True
0,1.133335,0.2026953,-0.3661734,-0.2102959,-0.5181319,-4.472026,-2.94152,0.6113288,1.425575,0.442354,-1.583322,0.9755221,5.9,39.2,-0.2909764,0.5686868,0.1759181,-0.1517416,-4.155708,-0.3123169,0.6863323,1.512912,0.2612889,-0.3469195,0.3467138,0.1684662,-0.9974049,0.01049911,0.2846507,0.7936314,1.536438,0.08388042,0.3228652,1.320824,0.3557018,326.3101,181.1346,65.16346,True
0,1.144446,0.2184873,-0.2926031,-0.2077373,-0.5157377,-4.470901,-2.94555,0.6097318,1.426055,0.4418488,-1.571972,1.021865,5.9,39.2,-0.2985202,0.5516726,0.1663446,-0.1519967,-4.117481,-0.3463771,0.6844825,1.512951,0.2607112,-0.3209104,0.343365,0.2118719,-0.9928004,0.01330888,0.2858003,0.7925946,1.536804,0.08386636,0.3205627,1.318663,0.359104,326.5834,182.0867,64.66135,True
0,1.155557,0.2353901,-0.2468669,-0.2219906,-0.5126334,-4.469767,-2.949745,0.608246,1.426504,0.441493,-1.560579,1.025542,5.9,39.2,-0.2973954,0.5132849,0.1779348,-0.1513618,-4.084177,-0.3760287,0.6827216,1.512964,0.2602472,-0.3080078,0.3262752,0.2244745,-0.9891502,0.01580346,0.2874059,0.7916279,1.537126,0.08390069,0.3181528,1.316956,0.3628654,326.7831,183.0485,64.33274,True
0,1.166668,0.2502636,-0.2362454,-0.2306238,-0.5093519,-4.465926,-2.956259,0.6067895,1.42705,0.4411039,-1.549756,0.973347,5.9,39.2,-0.2836243,0.4877324,0.1703002,-0.1514513,-4.051282,-0.4059086,0.6808948,1.513029,0.2596645,-0.2994393,0.3251866,0.2297084,-0.9857334,0.01893907,0.2888861,0.7906452,1.537453,0.08395553,0.3156716,1.315557,0.3668604,326.9628,184.0436,64.13318,True
0,1.17778,0.2502636,-0.2362454,-0.2306238,-0.5093519,-4.465926,-2.956259,0.6067895,1.42705,0.4411039,-1.538874,0.9795002,5.9,39.2,-0.2836243,0.4877324,0.1703002,-0.1514513,-4.051282,-0.4059086,0.6808948,1.513029,0.2596645,-0.2994393,0.3251866,0.2297084,-0.9857334,0.01893907,0.2888861,0.7906452,1.537453,0.08395553,0.3131256,1.314351,0.3709719,327.1638,185.0317,63.99823,True
0,1.188891,0.2608955,-0.2308887,-0.2306831,-0.5033774,-4.457522,-2.969594,0.6040711,1.427871,0.4404712,-1.524821,1.269426,7.9,20.3,-0.2293332,0.4770368,0.16665,-0.1524511,-3.979278,-0.4736147,0.6772828,1.513034,0.2586677,-0.2695805,0.3688387,0.2305962,-0.9781674,0.0279283,0.2891524,0.7886442,1.538073,0.08440828,0.3109748,1.313207,0.3752327,327.341,185.9749,63.91793,True
0,1.200002,0.2597762,-0.2095507,-0.226599,-0.5007297,-4.454995,-2.974693,0.6027387,1.428226,0.4401662,-1.52002,0.4209706,7.9,20.3,-0.2179348,0.4313282,0.1312566,-0.1537874,-3.959039,-0.4914651,0.6755548,1.513068,0.2584591,-0.2549172,0.390213,0.2049436,-0.9753428,0.03336541,0.2885873,0.7876361,1.538366,0.08468819,0.3092688,1.312002,0.3793834,327.4679,187.0346,63.81816,True
0,1.211113,0.2639765,-0.1914124,-0.2246256,-0.4980665,-4.452709,-2.979619,0.6014814,1.428605,0.4400015,-1.506615,1.215524,7.9,20.3,-0.2031526,0.3994073,0.1171898,-0.1547211,-3.936408,-0.5120926,0.6738055,1.513053,0.2581482,-0.2498954,0.390297,0.1750627,-0.9732437,0.03811037,0.2885191,0.7866997,1.538673,0.08500409,0.3070696,1.310462,0.3831874,327.9155,187.7712,63.70822,True
0,1.222224,0.2617818,-0.1733743,-0.2332943,-0.4950113,-4.450886,-2.984079,0.6002378,1.429063,0.4399204,-1.495791,0.9719613,7.9,20.3,-0.1936117,0.3673746,0.1074589,-0.1546519,-3.922255,-0.5250571,0.6723706,1.512266,0.257139,-0.2468225,0.3807376,0.1643579,-0.9705262,0.04210764,0.2891234,0.7855984,1.539032,0.08531046,0.3050609,1.308607,0.3868577,328.2628,188.5914,63.34562,True
0,1.233335,0.2457866,-0.1648422,-0.2269551,-0.492418,-4.448328,-2.98861,0.5989784,1.429537,0.4398692,-1.485783,0.9005075,9,16.1,-0.1785425,0.3704967,0.1265249,-0.1550679,-3.891318,-0.5541319,0.670768,1.512129,0.2568679,-0.2232263,0.3945284,0.1790725,-0.966752,0.04695526,0.288158,0.784644,1.539388,0.08570695,0.3032764,1.306523,0.3903909,328.5568,189.4655,62.85461,True
0,1.244446,0.2372332,-0.1553137,-0.2312876,-0.4895268,-4.44619,-2.99286,0.5976683,1.430037,0.4398522,-1.476122,0.869639,9,16.1,-0.1799011,0.3471682,0.09341943,-0.1570024,-3.875002,-0.5680429,0.6690847,1.512549,0.2572854,-0.193174,0.4157558,0.2001373,-0.9624046,0.052219,0.2864397,0.7836951,1.53967,0.08611035,0.3017572,1.304322,0.3938306,328.9122,190.3149,62.29456,True
0,1.255558,0.2180679,-0.1585529,-0.2301725,-0.486764,-4.44305,-2.997356,0.5964497,1.430492,0.4397871,-1.466322,0.8827426,9,16.1,-0.1797675,0.3449836,0.1104569,-0.1575436,-3.84879,-0.5919528,0.667591,1.512492,0.2571132,-0.1612526,0.412551,0.1955383,-0.9592839,0.05668512,0.2845862,0.7828131,1.53998,0.08657193,0.3004163,1.30215,0.3972104,329.3261,191.1239,61.69512,True
0,1.266669,0.20743,-0.1671252,-0.2332843,-0.4837776,-4.439394,-3.002546,0.5952644,1.430904,0.4397576,-1.457605,0.7840419,9,16.1,-0.1730836,0.3331521,0.146585,-0.1571095,-3.81984,-0.6189751,0.6661453,1.512634,0.2573175,-0.141185,0.4104594,0.1793482,-0.9565803,0.06156256,0.2828927,0.7817929,1.540246,0.08698559,0.2991204,1.300137,0.4005088,329.7276,191.9244,61.11208,True
0,1.27778,0.1957175,-0.1714586,-0.2374929,-0.4807176,-4.435664,-3.007618,0.5940617,1.431312,0.439646,-1.448663,0.8057727,6.7,13.9,-0.163583,0.2862909,0.14103,-0.1570349,-3.80655,-0.6305652,0.6647838,1.512641,0.257324,-0.1242953,0.4041022,0.164242,-0.954102,0.06624147,0.2810149,0.780906,1.540533,0.08742714,0.297801,1.29838,0.4037162,330.1059,192.6699,60.62936,True
0,1.288891,0.174397,-0.1704986,-0.2438643,-0.4776129,-4.432662,-3.011434,0.5929801,1.431833,0.4395132,-1.441001,0.6887749,6.7,13.9,-0.1627132,0.2586633,0.1196209,-0.1578168,-3.794538,-0.6405933,0.6633399,1.512648,0.2571328,-0.09476173,0.3977737,0.1362257,-0.9523411,0.0711325,0.278352,0.7802301,1.540786,0.08793879,0.2965011,1.296916,0.4067914,330.4484,193.3654,60.28928,True
0,1.300002,0.1509336,-0.1653294,-0.2545349,-0.4741614,-4.429901,-3.014798,0.5918539,1.43225,0.4393914,-1.43356,0.67009,6.7,13.9,-0.1595172,0.2351642,0.1173985,-0.1573848,-3.784566,-0.6493285,0.6622391,1.511948,0.2564332,-0.07664204,0.3903005,0.1370826,-0.9496992,0.07544948,0.2760593,0.7794528,1.540927,0.08822465,0.2952585,1.29572,0.4096971,330.767,193.9638,60.08295,True
0,1.311113,0.1264046,-0.154804,-0.2620445,-0.4709678,-4.427841,-3.017358,0.5907496,1.432644,0.4394076,-1.426136,0.6689634,6.7,13.9,-0.1552609,0.229834,0.1173475,-0.1577923,-3.767621,-0.6644906,0.6611804,1.511777,0.2563145,-0.06075332,0.3668706,0.1304659,-0.9475383,0.07882304,0.2743373,0.7786568,1.541065,0.08862901,0.2940716,1.294759,0.4123956,331.0724,194.4966,59.93148,True
0,1.322224,0.1072135,-0.1484524,-0.2599437,-0.4680058,-4.425287,-3.020172,0.5896779,1.433052,0.4392903,-1.419608,0.5873976,4.4,12.9,-0.137047,0.2212561,0.1320806,-0.1578099,-3.748837,-0.6820372,0.6600982,1.511929,0.2566082,-0.0481441,0.3402759,0.1153393,-0.9460698,0.08209753,0.2726576,0.7779399,1.541235,0.08902836,0.2929345,1.294035,0.4148514,331.3731,194.9745,59.79837,True
0,1.333336,0.1072135,-0.1484524,-0.2599437,-0.4680058,-4.425287,-3.020172,0.5896779,1.433052,0.4392903,-1.414059,0.4994975,4.4,12.9,-0.137047,0.2212561,0.1320806,-0.1578099,-3.748837,-0.6820372,0.6600982,1.511929,0.2566082,-0.0481441,0.3402759,0.1153393,-0.9460698,0.08209753,0.2726576,0.7779399,1.541235,0.08902836,0.2917825,1.293531,0.4170349,331.6632,195.3492,59.7168,True
0,1.344447,0.04214339,-0.1112435,-0.2495216,-0.4627077,-4.424046,-3.020444,0.5878629,1.433788,0.4391787,-1.408777,0.4762616,4.4,12.9,-0.09663989,0.1413207,0.1315079,-0.1562232,-3.731752,-0.6979005,0.6586472,1.511958,0.2567687,-0.01100728,0.3072695,0.1031452,-0.9425443,0.08864944,0.268158,0.7765641,1.541538,0.08966184,0.2908299,1.293255,0.4189543,331.8431,195.6654,59.69675,True
0,1.355558,0.009092037,-0.09198631,-0.2294011,-0.460867,-4.423822,-3.019621,0.5869604,1.434151,0.4390569,-1.404795,0.3579517,4.4,12.9,-0.08808634,0.100805,0.1398332,-0.1546162,-3.725432,-0.7034732,0.6579902,1.511967,0.2567637,0.01662472,0.2742413,0.09850526,-0.9411436,0.09060527,0.2658311,0.7760363,1.541592,0.08984041,0.2901304,1.293138,0.4205287,331.9173,195.9639,59.72746,True
0,1.366669,-0.01859257,-0.09302753,-0.217642,-0.4586874,-4.422025,-3.020122,0.5861371,1.434592,0.4388604,-1.401382,0.3073374,4.4,12.9,-0.0667278,0.04428732,0.1533373,-0.1520452,-3.722201,-0.7065641,0.6575105,1.512006,0.2567449,0.03563738,0.2220628,0.08537345,-0.9404895,0.09124283,0.2644404,0.7755212,1.541669,0.08994412,0.2888197,1.293129,0.4217107,332.2608,196.0781,59.69952,True
0,1.37778,-0.03561597,-0.09618067,-0.2069422,-0.4566288,-4.419921,-3.021006,0.58519,1.434997,0.4387047,-1.397842,0.3196335,4.4,12.9,-0.04670586,-0.0004011542,0.1306633,-0.1505384,-3.727382,-0.7016263,0.6571804,1.512026,0.2566934,0.03535365,0.1678048,0.06071397,-0.940662,0.09133923,0.2639744,0.7750895,1.541704,0.08999252,0.2875036,1.293336,0.4225793,332.479,196.1574,59.6809,True
0,1.388891,-0.06431738,-0.1131766,-0.1918466,-0.454861,-4.416174,-3.02265,0.5843757,1.435388,0.4385552,-1.395384,0.2207973,1.9,11.8,-0.03502585,-0.02490291,0.128372,-0.1488356,-3.725781,-0.7031906,0.6567943,1.512004,0.2565982,0.03947955,0.1390743,0.04887351,-0.9402439,0.0921515,0.2629565,0.7745754,1.541724,0.09017658,0.2863139,1.293743,0.4231262,332.5394,196.235,59.73927,True
0,1.400002,-0.09616056,-0.150453,-0.179777,-0.4529323,-4.409721,-3.026257,0.5834463,1.435785,0.4383166,-1.393565,0.163466,1.9,11.8,-0.03499914,-0.038757,0.1336538,-0.1470331,-3.721051,-0.7073963,0.6566031,1.512024,0.2563417,0.0480125,0.1220183,0.05086721,-0.9394258,0.09286469,0.2616979,0.774133,1.541763,0.09020066,0.2853155,1.294268,0.423344,332.6005,196.2151,59.88879,True
0,1.411114,-0.1322296,-0.1973182,-0.1665554,-0.4511219,-4.401367,-3.031169,0.5825193,1.436265,0.4379387,-1.391245,0.2098842,1.9,11.8,-0.03939205,-0.03443774,0.1166572,-0.1463444,-3.719301,-0.7085396,0.6562737,1.51204,0.2561989,0.05868015,0.1008444,0.05492101,-0.9385827,0.09615343,0.2590998,0.774119,1.542152,0.09008622,0.2844444,1.294809,0.4232671,332.6697,196.0698,60.06554,True
0,1.422225,-0.1661691,-0.2484493,-0.1554362,-0.4492577,-4.391958,-3.036712,0.5816684,1.436626,0.4376438,-1.389363,0.1695691,1.9,11.8,-0.0458294,-0.04933094,0.1124031,-0.1447939,-3.718812,-0.7083558,0.6560976,1.512123,0.2558689,0.06833338,0.07524119,0.0632709,-0.9376308,0.09570562,0.2583128,0.7738092,1.542175,0.08993053,0.2836934,1.295263,0.4229192,332.7285,195.8793,60.22683,True
0,1.433336,-0.2022325,-0.3017398,-0.1464243,-0.4474313,-4.380562,-3.043525,0.5808588,1.437027,0.4372902,-1.387839,0.1373693,0.8,11,-0.05003221,-0.06000728,0.1209252,-0.1429047,-3.716921,-0.7095231,0.655835,1.512132,0.2556338,0.06951925,0.04538326,0.07704237,-0.936165,0.09483436,0.2580214,0.7731,1.542042,0.08991194,0.282984,1.295518,0.4222789,332.8232,195.6944,60.33857,True
0,1.444447,-0.2287554,-0.3400935,-0.1386113,-0.4457343,-4.369783,-3.049878,0.5800631,1.437498,0.4370396,-1.386624,0.1095572,0.8,11,-0.05710495,-0.03564147,0.1658075,-0.1406101,-3.698798,-0.7266808,0.6558144,1.5122,0.2554073,0.06960578,0.03469904,0.08553015,-0.9350508,0.09442544,0.2574118,0.7727677,1.542073,0.08977056,0.2823407,1.295516,0.4213264,332.9665,195.5121,60.36989,True
0,1.455558,-0.2551948,-0.4093903,-0.1358685,-0.4437561,-4.353974,-3.060404,0.5792136,1.437989,0.4366753,-1.3854,0.1106878,0.8,11,-0.06246276,-0.004719604,0.1584913,-0.1401185,-3.686297,-0.7381963,0.6556893,1.51217,0.2550962,0.07506349,0.0390211,0.102491,-0.9334177,0.09685265,0.2556981,0.772807,1.541956,0.08953118,0.2818265,1.295234,0.4200887,333.138,195.2831,60.32621,True
0,1.466669,-0.2954566,-0.4851569,-0.1362643,-0.4414461,-4.335766,-3.072469,0.578407,1.438436,0.4361548,-1.384913,0.0433132,0.8,11,-0.05506275,0.01768716,0.1478513,-0.1399789,-3.675427,-0.7487139,0.6556331,1.512062,0.2548132,0.08046013,0.03585885,0.1098859,-0.9317591,0.09788222,0.2541162,0.7725502,1.542126,0.08945847,0.2814622,1.294698,0.4185902,333.3456,195.0302,60.16656,True
0,1.47778,-0.3230253,-0.532104,-0.1358383,-0.4394716,-4.318351,-3.083671,0.5775438,1.438951,0.4357696,-1.384143,0.069834,0.4,10.3,-0.04857326,0.0506784,0.1564273,-0.1397089,-3.656456,-0.7671869,0.6556224,1.512112,0.2545769,0.08478581,0.03583704,0.1162341,-0.9302033,0.09791564,0.2529865,0.7724264,1.542161,0.08932734,0.2812288,1.293983,0.4168996,333.5693,194.7374,59.92336,True
0,1.488891,-0.3230253,-0.532104,-0.1358383,-0.4394716,-4.318351,-3.083671,0.5775438,1.438951,0.4357696,-1.383156,0.08952764,0.4,10.3,-0.04857326,0.0506784,0.1564273,-0.1397089,-3.656456,-0.7671869,0.6556224,1.512112,0.2545769,0.08478581,0.03583704,0.1162341,-0.9302033,0.09791564,0.2529865,0.7724264,1.542161,0.08932734,0.2811296,1.293085,0.4150413,333.8328,194.4273,59.69475,True
0,1.500003,-0.4045545,-0.7080146,-0.125748,-0.4362162,-4.271243,-3.115253,0.5758977,1.43994,0.4348142,-1.387138,-0.3650064,0.4,10.3,-0.06832068,0.05156862,0.2194495,-0.1358702,-3.6162,-0.805014,0.6559951,1.512352,0.2539806,0.09431969,0.01565315,0.1160597,-0.9278629,0.09809301,0.2511313,0.7723542,1.54217,0.08888745,0.2811983,1.292075,0.4130413,334.1198,194.1219,59.37027,True
0,1.511114,-0.4246818,-0.7484745,-0.1168592,-0.4350668,-4.248806,-3.130163,0.5751433,1.440442,0.4342227,-1.377491,0.8850973,0.4,10.3,-0.08310802,0.05685699,0.2345012,-0.134275,-3.595458,-0.8241695,0.6563703,1.512545,0.2536614,0.09636799,-0.004516214,0.1116993,-0.9270937,0.09800486,0.2504365,0.7725117,1.542048,0.08850503,0.2815028,1.291135,0.4112158,334.2194,193.6685,59.11975,True
0,1.522225,-0.4554185,-0.8017437,-0.1067868,-0.4341997,-4.223871,3.136422,0.5744025,1.440796,0.4335496,-1.380685,-0.2999285,0.4,10.3,-0.0926204,0.06643002,0.2431307,-0.1331698,-3.573697,-0.8443906,0.6568686,1.512694,0.2532117,0.1016813,-0.01837479,0.110536,-0.9261761,0.09672135,0.2497861,0.7727419,1.542,0.08819675,0.2814813,1.289859,0.4091213,334.6687,193.5005,58.94525,True
0,1.533336,-0.4894099,-0.8293953,-0.08946674,-0.4339158,-4.199639,3.12102,0.5737895,1.441164,0.432858,-1.38169,-0.0882594,0,9.9,-0.10469,0.04420113,0.2016083,-0.1324017,-3.570072,-0.8464056,0.6573436,1.512747,0.252821,0.0950525,-0.04595414,0.09133727,-0.9260924,0.09598792,0.2497305,0.7730283,1.541915,0.08784771,0.2815688,1.288347,0.4065965,335.1791,193.2654,58.67419,True
0,1.544447,-0.5138873,-0.8326226,-0.08407366,-0.43352,-4.177407,3.107222,0.5731636,1.441458,0.4321985,-1.381252,0.04053527,0,9.9,-0.1144715,0.04109083,0.1782444,-0.1318552,-3.561315,-0.8534619,0.6577671,1.512659,0.2525408,0.09690213,-0.06609175,0.06461833,-0.9266352,0.09496939,0.2491443,0.7731864,1.542005,0.08748531,0.2818972,1.286756,0.4037153,335.5247,192.9304,58.26951,True
0,1.555558,-0.5340867,-0.8475916,-0.08392479,-0.4329917,-4.154213,3.092713,0.5726616,1.441655,0.4314766,-1.380725,0.04784998,0,9.9,-0.1036906,0.03250489,0.1951765,-0.130186,-3.545227,-0.8686563,0.6583276,1.512697,0.2522531,0.09542865,-0.09154668,0.02620659,-0.9281707,0.09295245,0.2493923,0.7735486,1.541892,0.08719015,0.2824636,1.285116,0.4005377,335.7906,192.4731,57.87022,True
0,1.566669,-0.5531752,-0.880727,-0.08892728,-0.4327061,-4.127707,3.075363,0.5722305,1.441902,0.4307709,-1.38101,-0.02641354,0,9.9,-0.1027304,0.01123847,0.1833914,-0.1285812,-3.536472,-0.8763957,0.6587838,1.512685,0.2519143,0.1004344,-0.1073932,-0.002663778,-0.9293936,0.09230796,0.248739,0.7739974,1.541735,0.08681679,0.2832091,1.283469,0.3971154,336.0452,191.9368,57.4576,True
0,1.577781,-0.5637257,-0.9202154,-0.09390974,-0.4323802,-4.099868,3.056746,0.5717869,1.44212,0.4300518,-1.381016,-9.683974E-05,0,9.9,-0.1062967,-0.00353045,0.1386287,-0.1281833,-3.539458,-0.8721554,0.6593705,1.51269,0.2516022,0.09472769,-0.125394,-0.03888045,-0.9314858,0.09040833,0.2489781,0.774428,1.541618,0.08654165,0.2840227,1.281878,0.3935488,336.2879,191.3185,57.06145,True
0,1.588892,-0.5668976,-0.9212313,-0.0853755,-0.4327338,-4.074943,3.040426,0.5715358,1.442396,0.429342,-1.380967,0.004561888,0,8.5,-0.1042298,-0.001376472,0.1301082,-0.1274482,-3.53104,-0.8794274,0.6599613,1.512679,0.2513075,0.08597641,-0.1284761,-0.0611712,-0.9330071,0.08981697,0.2487041,0.7747729,1.541584,0.08607984,0.2849328,1.280366,0.3899552,336.5234,190.6553,56.74257,True
0,1.600003,-0.5733771,-0.8838611,-0.07290128,-0.4332201,-4.054807,3.028654,0.5713259,1.442561,0.4286723,-1.381136,-0.01544647,0,8.5,-0.07428223,0.009205963,0.1437523,-0.1265284,-3.516024,-0.8946155,0.6605721,1.512723,0.2510173,0.07927641,-0.1337174,-0.09201866,-0.9354465,0.08837074,0.2487853,0.7752512,1.5414,0.08565855,0.2859936,1.278879,0.3864156,336.7704,189.9773,56.4957,True
0,1.611114,-0.5627001,-0.8771712,-0.03884882,-0.4353288,-4.032718,3.014462,0.5708786,1.442895,0.4280515,-1.381602,-0.04241331,0,8.5,-0.05619282,0.02198871,0.140457,-0.1261459,-3.502336,-0.9081363,0.6612204,1.512814,0.2505431,0.07604009,-0.1368976,-0.09517949,-0.9367392,0.08681186,0.2490468,0.7753849,1.541257,0.08529067,0.2871875,1.277357,0.3829795,337.0343,189.3323,56.23417,True
0,1.622225,-0.5510811,-0.8279093,-0.01159021,-0.4369688,-4.014773,3.003932,0.5705993,1.44297,0.4273055,-1.381522,0.007677317,0,8.5,-0.05531643,0.01455392,0.1127377,-0.125077,-3.503931,-0.9064481,0.6621527,1.512407,0.2494707,0.07715768,-0.1433164,-0.09094534,-0.9379728,0.08461941,0.2492072,0.7757952,1.541113,0.08469844,0.2884796,1.275838,0.3796983,337.2656,188.7733,55.88224,True
0,1.633336,-0.528807,-0.786182,0.004038215,-0.4387824,-3.997788,2.993706,0.5702895,1.443077,0.4265373,-1.382204,-0.06239022,0,9.1,-0.05666374,-0.00558012,0.07965866,-0.124637,-3.508452,-0.9012907,0.6628305,1.512346,0.2490473,0.08260921,-0.160406,-0.0771959,-0.9388474,0.08192603,0.2496988,0.7761939,1.540956,0.0841589,0.2896836,1.274387,0.3765811,337.4456,188.3137,55.47551,True
0,1.644447,-0.528807,-0.786182,0.004038215,-0.4387824,-3.997788,2.993706,0.5702895,1.443077,0.4265373,-1.382382,-0.01578641,0,9.1,-0.05666374,-0.00558012,0.07965866,-0.124637,-3.508452,-0.9012907,0.6628305,1.512346,0.2490473,0.08260921,-0.160406,-0.0771959,-0.9388474,0.08192603,0.2496988,0.7761939,1.540956,0.0841589,0.2907567,1.273004,0.3736176,337.5694,187.9189,55.11216,True
0,1.655559,-0.4597266,-0.7187058,0.0257652,-0.4420666,-3.965192,2.972621,0.5694448,1.443371,0.4249296,-1.387913,-0.505672,0,9.1,-0.05706229,-0.07042427,0.03789232,-0.122352,-3.53073,-0.8777667,0.6640302,1.512666,0.2487872,0.0624,-0.1955744,-0.07176009,-0.94151,0.07571753,0.2524213,0.7769245,1.540634,0.08316612,0.2916584,1.271765,0.3708495,337.6888,187.5218,54.7175,True
0,1.66667,-0.4406201,-0.6877565,0.02655143,-0.4436081,-3.949786,2.962902,0.5689448,1.443205,0.4242654,-1.378448,0.86949,0,9.1,-0.0580442,-0.05340202,0.04648171,-0.121871,-3.523191,-0.8845556,0.6645178,1.512957,0.248641,0.04424243,-0.1880985,-0.07794748,-0.9430695,0.07369819,0.253558,0.7774646,1.540393,0.08264112,0.2924143,1.270893,0.3686598,337.6539,187.0276,54.46816,True
0,1.677781,-0.4258663,-0.6259148,0.02599563,-0.4445849,-3.938666,2.957082,0.5687069,1.443163,0.4235916,-1.383401,-0.4609365,0,9.1,-0.05371362,-0.01400359,0.05083424,-0.1223414,-3.512614,-0.8945992,0.6648525,1.512958,0.2481945,0.02495031,-0.1624755,-0.09152824,-0.9447266,0.0729798,0.2543495,0.7778565,1.540228,0.08215451,0.2928564,1.269901,0.3664811,337.8297,187.0383,54.4454,True
0,1.688892,-0.4216183,-0.6120076,0.03227498,-0.4464731,-3.924472,2.948683,0.5685135,1.443046,0.4229379,-1.383584,-0.01188261,0.5,7.9,-0.05367282,0.0360727,0.0499303,-0.1236362,-3.498572,-0.9080237,0.6651322,1.513039,0.2478616,0.011077,-0.1422197,-0.09558581,-0.9460448,0.07215169,0.2551327,0.7783961,1.540133,0.08165097,0.293375,1.268801,0.3642504,338.039,186.8645,54.42554,True
0,1.700003,-0.3982233,-0.5884722,0.03413919,-0.4476161,-3.911983,2.940715,0.5682679,1.442848,0.4222429,-1.383331,0.02263761,0.5,7.9,-0.06550504,0.1032687,0.02892856,-0.1265087,-3.485025,-0.9202766,0.6653582,1.512964,0.2474117,-0.002645567,-0.1209334,-0.0847321,-0.9467517,0.0716385,0.2559415,0.7787839,1.540009,0.0811677,0.2939453,1.267611,0.3620413,338.1526,186.5737,54.2524,True
0,1.711114,-0.3653066,-0.5500038,0.03805235,-0.4492284,-3.901231,2.934036,0.5679164,1.442826,0.4214404,-1.382957,0.0338964,0.5,7.9,-0.08164015,0.1310556,0.006774349,-0.1288192,-3.477913,-0.9258338,0.6658051,1.512951,0.2469227,-0.01412784,-0.1156792,-0.06223216,-0.9470382,0.0699197,0.2573721,0.7792718,1.539866,0.0805161,0.2946196,1.26646,0.3599251,338.2271,186.2817,53.97764,True
0,1.722225,-0.3303125,-0.4869689,0.04812627,-0.4506665,-3.893881,2.929927,0.5675374,1.442654,0.4206245,-1.383871,-0.08403459,0.5,7.9,-0.1009261,0.1129577,-0.01017167,-0.1289737,-3.483327,-0.9193219,0.66621,1.51229,0.2456491,-0.01190819,-0.1199807,-0.05374759,-0.9478036,0.06802552,0.2584167,0.7797112,1.539717,0.08001208,0.295404,1.265325,0.3578854,338.299,186.0156,53.75665,True
0,1.733337,-0.2930616,-0.4708267,0.05540894,-0.452543,-3.883541,2.922714,0.567282,1.442526,0.4198463,-1.384055,-0.0161178,0.5,7.9,-0.1222256,0.05755287,-0.001644494,-0.1276629,-3.486428,-0.9139782,0.6667238,1.512243,0.2452207,-0.01527841,-0.1199371,-0.07075704,-0.9494547,0.0667026,0.2594811,0.7801957,1.539642,0.07949066,0.2961778,1.264181,0.3559073,338.4026,185.7547,53.53868,True
0,1.744448,-0.2739302,-0.4536296,0.06694888,-0.4544695,-3.873787,2.916513,0.5671189,1.442295,0.4190314,-1.384306,-0.02316693,0.6,6.4,-0.1116707,0.0106906,-0.007216989,-0.1268741,-3.495308,-0.9041302,0.667076,1.512572,0.2452269,-0.0228404,-0.1113881,-0.08236683,-0.9509136,0.06573161,0.2604675,0.7806773,1.539585,0.07902861,0.2968058,1.263066,0.3539741,338.4948,185.5621,53.26096,True
0,1.755559,-0.2579969,-0.4343569,0.07316073,-0.4564258,-3.865076,2.911012,0.5670147,1.44207,0.4183557,-1.38447,-0.01498821,0.6,6.4,-0.07443957,0.008548066,-0.01391364,-0.127085,-3.49773,-0.9020763,0.66743,1.512502,0.2447827,-0.0347157,-0.09428448,-0.09924306,-0.952674,0.06567927,0.261267,0.7810649,1.539449,0.07861876,0.2972606,1.262034,0.3521205,338.5367,185.3931,53.02399,True
0,1.76667,-0.2485033,-0.4034156,0.07503047,-0.4581138,-3.857911,2.90725,0.5670366,1.44176,0.4176607,-1.383731,0.06748301,0.6,6.4,-0.05216824,0.01817026,-0.02684489,-0.1282296,-3.49795,-0.9019263,0.6676681,1.512586,0.2444491,-0.04963114,-0.07084171,-0.1011481,-0.9537238,0.06577688,0.2622401,0.7813984,1.539289,0.0780983,0.2977504,1.261072,0.3504264,338.5584,185.2171,52.90091,True
0,1.777781,-0.2358454,-0.3608374,0.06719309,-0.459137,-3.852138,2.904293,0.5670409,1.441461,0.4170256,-1.383652,0.006439839,0.6,6.4,-0.04587983,0.02673119,-0.04071729,-0.1292768,-3.500801,-0.8988336,0.6678683,1.512427,0.2440174,-0.05173209,-0.06125852,-0.09896837,-0.9548189,0.06569725,0.2629363,0.7817346,1.539185,0.07770276,0.298319,1.260114,0.3488704,338.5866,185.076,52.81787,True
0,1.788892,-0.2220994,-0.3256314,0.06901925,-0.4605974,-3.846972,2.901791,0.5669843,1.441297,0.4163499,-1.383117,0.04876892,1.3,5.3,-0.06711222,0.05762965,-0.03405679,-0.1307032,-3.493362,-0.9045501,0.668045,1.512342,0.2436566,-0.04421633,-0.05596138,-0.09369442,-0.955695,0.06517248,0.2634268,0.7820933,1.539041,0.07726908,0.2989843,1.259138,0.3474348,338.6169,184.9572,52.70764,True
0,1.800003,-0.2220994,-0.3256314,0.06901925,-0.4605974,-3.846972,2.901791,0.5669843,1.441297,0.4163499,-1.383342,-0.02109599,1.3,5.3,-0.06711222,0.05762965,-0.03405679,-0.1307032,-3.493362,-0.9045501,0.668045,1.512342,0.2436566,-0.04421633,-0.05596138,-0.09369442,-0.955695,0.06517248,0.2634268,0.7820933,1.539041,0.07726908,0.299675,1.258147,0.3460635,338.6655,184.8723,52.55046,True
0,1.811115,-0.1797888,-0.2168494,0.06912256,-0.4625399,-3.843668,2.901689,0.5671853,1.440814,0.4153061,-1.385368,-0.1851234,1.3,5.3,-0.07667844,0.07361862,-0.03179836,-0.1328816,-3.485402,-0.910229,0.6683939,1.512181,0.2428966,-0.01643009,-0.0549624,-0.0854433,-0.9574879,0.06393611,0.2636114,0.7827913,1.538692,0.07636762,0.3003143,1.257238,0.3447836,338.7529,184.7188,52.28883,True
0,1.822226,-0.1522512,-0.1624221,0.07076718,-0.4633911,-3.843759,2.902763,0.5673597,1.440656,0.414829,-1.381775,0.3298717,1.3,5.3,-0.0587466,0.04170134,-0.05121637,-0.1330579,-3.495933,-0.8998241,0.668836,1.512149,0.2424579,-0.02087402,-0.06024202,-0.1035263,-0.959464,0.06335261,0.2642924,0.7831392,1.538508,0.07591391,0.3008437,1.25658,0.3437721,338.7426,184.5532,52.0511,True
0,1.833337,-0.1332324,-0.1037352,0.07557765,-0.4641831,-3.845862,2.905507,0.5675342,1.440419,0.4144404,-1.383384,-0.1501554,1.3,5.3,-0.03856458,0.01506499,-0.05572399,-0.1329514,-3.503558,-0.8925044,0.6691087,1.512124,0.2421365,-0.03269547,-0.06340886,-0.1130119,-0.9613111,0.06279241,0.2654476,0.7834184,1.538422,0.07544827,0.3011396,1.255981,0.3427162,338.7371,184.6826,52.00329,True
0,1.844448,-0.1226738,-0.06961169,0.0763469,-0.4650332,-3.846601,2.907282,0.5676997,1.440212,0.414012,-1.383883,-0.04417569,1.4,4.3,-0.004617035,-0.004091993,-0.06990138,-0.1332571,-3.512554,-0.8843991,0.6694902,1.511953,0.2417927,-0.03587183,-0.06022374,-0.1108467,-0.9626347,0.06242263,0.2662141,0.78376,1.538342,0.07503223,0.3014278,1.255538,0.3416543,338.7517,184.7119,51.96921,True
0,1.855559,-0.1111113,-0.01528723,0.0716144,-0.4652596,-3.850533,2.911636,0.567981,1.439983,0.413727,-1.383832,0.004799243,1.4,4.3,0.02745254,-0.0126896,-0.05527066,-0.1330659,-3.515627,-0.8826813,0.6697983,1.511861,0.2414992,-0.03461031,-0.05708439,-0.0916739,-0.9631242,0.06192023,0.2668575,0.7839679,1.538239,0.07464552,0.3017341,1.255312,0.3406587,338.7049,184.6424,51.91442,True
0,1.86667,-0.1005999,0.03371459,0.06798688,-0.4653874,-3.854654,2.916182,0.568293,1.439848,0.4133511,-1.383355,0.04334595,1.4,4.3,0.04029065,-0.02656201,-0.04688885,-0.1328007,-3.518497,-0.8805974,0.6701176,1.511705,0.2410548,-0.02366568,-0.04866784,-0.0629899,-0.9629383,0.06127881,0.2671912,0.7841576,1.538122,0.07420993,0.3019813,1.255295,0.3397739,338.5822,184.5361,51.90279,True
0,1.877781,-0.08896163,0.06033346,0.06242251,-0.4655397,-3.85839,2.920128,0.5685247,1.439661,0.4130318,-1.383392,-0.003911669,1.4,4.3,0.02748451,-0.05211783,-0.04686762,-0.1320118,-3.528887,-0.8702002,0.6704009,1.511635,0.2407305,-0.008374888,-0.04346967,-0.02583898,-0.9621814,0.06046148,0.2673379,0.784393,1.538068,0.07376814,0.3021504,1.25543,0.3390087,338.4541,184.446,51.95835,True
0,1.888893,-0.07628326,0.09437969,0.05358536,-0.465218,-3.862827,2.924516,0.5688127,1.439437,0.4126396,-1.383212,0.01640614,1.6,4.1,0.02543356,-0.04472621,-0.04361748,-0.1313716,-3.53509,-0.8648152,0.6708848,1.510929,0.2396257,-0.001840901,-0.04031911,-0.01204622,-0.9619679,0.05995561,0.2674208,0.784591,1.537987,0.0733974,0.3022369,1.255719,0.3383881,338.3344,184.3912,52.03585,True
0,1.900004,-0.06037014,0.1135164,0.04488761,-0.46516,-3.866685,2.928199,0.5690377,1.439257,0.4123633,-1.383287,-0.007139232,1.6,4.1,0.03163427,-0.04784037,-0.06606657,-0.1322483,-3.546565,-0.853884,0.6710149,1.511132,0.2398384,0.001220394,-0.04667632,-0.02487986,-0.962835,0.0593331,0.2676599,0.7848095,1.537892,0.07303119,0.3022274,1.256149,0.3378887,338.2262,184.3902,52.14697,True
0,1.911115,-0.0497779,0.1304912,0.03301381,-0.4646966,-3.871169,2.932411,0.5692703,1.439164,0.4121022,-1.383325,-0.003417094,1.6,4.1,0.03362352,-0.07016938,-0.08106814,-0.1320012,-3.562566,-0.838435,0.6713042,1.511058,0.2395349,-0.00648275,-0.05832054,-0.04827368,-0.9644249,0.05855013,0.2684288,0.7850034,1.537826,0.07270503,0.3021165,1.256655,0.3374826,338.1173,184.3975,52.3163,True
0,1.922226,-0.03812767,0.1485099,0.01900002,-0.4640638,-3.875612,2.936505,0.5695148,1.439161,0.4118986,-1.383351,-0.002509827,1.6,4.1,0.02748796,-0.08517608,-0.0469865,-0.1307053,-3.567077,-0.8340347,0.6713086,1.511345,0.2395308,-0.00660909,-0.05615586,-0.06105452,-0.9658422,0.05821657,0.2687529,0.7851077,1.537675,0.07245588,0.3019405,1.257187,0.3371557,338.0156,184.4041,52.514,True
0,1.933337,-0.02859126,0.1612028,0.005032852,-0.4632521,-3.880157,2.940588,0.5697573,1.439155,0.4117084,-1.383221,0.01171611,1.6,4.1,0.03831312,-0.05434953,-0.02886428,-0.1307836,-3.564174,-0.8376523,0.6714628,1.511308,0.2392814,3.546476E-06,-0.03597921,-0.04082094,-0.9655855,0.05846184,0.2683987,0.7852492,1.537622,0.07222557,0.3017538,1.257702,0.3369167,337.9163,184.4046,52.69094,True
0,1.944448,-0.02010892,0.1707183,-0.006775871,-0.4624079,-3.884709,2.944636,0.5700877,1.439103,0.4114945,-1.383136,0.007596145,1,3.5,0.04366934,-0.04263947,-0.02568445,-0.1310957,-3.566061,-0.8363447,0.6715528,1.511421,0.2390797,0.00551144,-0.02218793,-0.02379514,-0.9652095,0.05856158,0.2681257,0.7853338,1.537591,0.07197571,0.3015769,1.258201,0.3367694,337.8451,184.4183,52.81001,True
0,1.955559,-0.02010892,0.1707183,-0.006775871,-0.4624079,-3.884709,2.944636,0.5700877,1.439103,0.4114945,-1.383088,0.004243268,1,3.5,0.04366934,-0.04263947,-0.02568445,-0.1310957,-3.566061,-0.8363447,0.6715528,1.511421,0.2390797,0.00551144,-0.02218793,-0.02379514,-0.9652095,0.05856158,0.2681257,0.7853338,1.537591,0.07197571,0.3014196,1.258706,0.3367163,337.8013,184.445,52.89194,True
0,1.966671,-0.006326109,0.1844167,-0.0282189,-0.4603689,-3.893466,2.952312,0.5706572,1.439264,0.4112458,-1.382969,0.0107436,1,3.5,0.03856485,-0.03526093,0.002078964,-0.1302552,-3.564971,-0.8380009,0.6719484,1.511518,0.238652,0.01305058,-0.01584735,-0.01639716,-0.9654875,0.05806184,0.2678956,0.7855363,1.537432,0.07127666,0.3012624,1.259205,0.336748,337.7593,184.4522,53.00317,True
0,1.977782,-0.003141522,0.1876033,-0.03038,-0.4595476,-3.898194,2.956468,0.5708952,1.439369,0.4111233,-1.382953,0.001322067,1,3.5,0.05354763,-0.05341772,0.01255462,-0.1290136,-3.567943,-0.8361554,0.6721916,1.511577,0.2384801,0.0139914,-0.02327112,-0.02814719,-0.9663067,0.05769658,0.2679241,0.7856568,1.5374,0.07098556,0.3011387,1.259633,0.3368488,337.73,184.4836,53.10569,True
0,1.988893,0.003205508,0.1992875,-0.03687864,-0.4584935,-3.903871,2.961389,0.5712377,1.439534,0.4110956,-1.382788,0.01498474,1,3.5,0.06411391,-0.07257401,0.003885861,-0.1281247,-3.577427,-0.8278348,0.67242,1.511642,0.2383137,0.01395651,-0.03924442,-0.03032611,-0.9670305,0.05662986,0.2683862,0.7857908,1.537358,0.07073283,0.3010495,1.260142,0.3369966,337.7389,184.6001,53.13383,True
0,2.000004,0.002129838,0.2024429,-0.04116715,-0.4574677,-3.908826,2.965808,0.571468,1.439626,0.4109809,-1.38268,0.009625267,1.4,2.9,0.07481386,-0.08645576,0.01121339,-0.1267958,-3.583344,-0.8232009,0.6726285,1.511699,0.2381532,0.01514665,-0.04354775,-0.0175714,-0.9670412,0.05575088,0.2686855,0.785818,1.537366,0.07051945,0.3009296,1.260749,0.3371649,337.7337,184.6841,53.19528,True
0,2.011115,0.008497491,0.203364,-0.06035803,-0.4557473,-3.91349,2.969692,0.5716963,1.439783,0.4109058,-1.382671,0.0007755717,1.4,2.9,0.07269993,-0.09071355,0.0133527,-0.1258695,-3.586819,-0.820513,0.672821,1.511555,0.2379153,0.01204938,-0.04144252,-0.007945824,-0.9669272,0.05519455,0.2689638,0.7859036,1.537355,0.07030344,0.3007631,1.261441,0.3373259,337.6978,184.7355,53.29313,True
0,2.022226,0.00635317,0.2010666,-0.07952106,-0.4537909,-3.917741,2.973503,0.5720097,1.439984,0.4107673,-1.382449,0.02017297,1.4,2.9,0.07266962,-0.08643881,0.009105206,-0.1253017,-3.591562,-0.8166218,0.6729865,1.511559,0.2377236,0.01431089,-0.03829214,0.004825043,-0.9665943,0.05457842,0.2691002,0.7859536,1.537394,0.07013035,0.3005756,1.262228,0.3374938,337.6385,184.7592,53.42448,True
0,2.033337,0.01059255,0.2041753,-0.09127066,-0.4519768,-3.922614,2.97762,0.5722353,1.440198,0.410681,-1.382633,-0.01704511,1.4,2.9,0.0569805,-0.04603998,0.04132084,-0.1249459,-3.57672,-0.831376,0.673066,1.511545,0.2375512,0.02183738,-0.03192501,0.01115981,-0.9662934,0.05430425,0.2687513,0.7860321,1.537376,0.06995249,0.3003125,1.263063,0.3376401,337.5841,184.7646,53.5963,True
0,2.044448,0.01484664,0.2040827,-0.1029958,-0.4500934,-3.927036,2.98121,0.5724279,1.440444,0.4105854,-1.3823,0.03058984,2.1,2.3,0.05278315,-0.02368664,0.04674961,-0.1248277,-3.570534,-0.8379785,0.6731179,1.511399,0.237381,0.03251483,-0.02556048,0.01321521,-0.9659727,0.05389732,0.2682669,0.785971,1.537389,0.06977367,0.3000235,1.263949,0.3378021,337.567,184.7363,53.78,True
0,2.055559,0.0212339,0.2007864,-0.1178913,-0.4479714,-3.931353,2.984631,0.5726904,1.440768,0.4105611,-1.382463,-0.01524472,2.1,2.3,0.04319106,-0.01941377,0.04577465,-0.1244921,-3.567849,-0.8407666,0.6732515,1.511402,0.237257,0.03777039,-0.03300319,0.006748401,-0.9662859,0.0532559,0.2680086,0.7860595,1.537388,0.06962419,0.2997386,1.26489,0.3379858,337.5733,184.7217,53.95291,True
0,2.06667,0.02017725,0.1943199,-0.1263583,-0.4459857,-3.935106,2.987831,0.5728788,1.441068,0.4105184,-1.382556,-0.008355581,2.1,2.3,0.03684336,-0.0386095,0.05429619,-0.1229651,-3.56857,-0.8401709,0.6735011,1.511416,0.2369943,0.04086857,-0.04045441,-0.002891712,-0.9669203,0.05217332,0.2680184,0.7861336,1.537322,0.06939602,0.2994257,1.265877,0.3381882,337.5622,184.7081,54.12211,True
0,2.077781,0.02125256,0.1856929,-0.1390705,-0.4437258,-3.938408,2.99053,0.5730674,1.441414,0.4105272,-1.382575,-0.001742289,2.1,2.3,0.051954,-0.05681708,0.08075076,-0.120809,-3.564378,-0.8454373,0.6737154,1.511452,0.2368562,0.03972553,-0.04362764,-0.01034695,-0.9674593,0.05158769,0.2679335,0.7862201,1.537304,0.06925058,0.2991064,1.266899,0.3384317,337.547,184.6851,54.30192,True
0,2.088892,0.02337563,0.1845599,-0.147596,-0.4414062,-3.942375,2.9938,0.5733916,1.441776,0.4104693,-1.382234,0.03119703,2.1,2.3,0.05620317,-0.06960584,0.08067742,-0.1192734,-3.565379,-0.8452373,0.6739765,1.511411,0.23669,0.0386677,-0.04471051,-0.0103326,-0.9676511,0.05069141,0.2679241,0.7862182,1.537257,0.06909585,0.2988158,1.267946,0.3387506,337.5434,184.6528,54.48821,True
0,2.100003,0.02759458,0.1973173,-0.151963,-0.4393119,-3.94795,2.998424,0.5736162,1.44214,0.4104614,-1.382252,-0.001958055,2.5,2.7,0.05729496,-0.06855164,0.08386798,-0.1180334,-3.562856,-0.8484104,0.6741743,1.51155,0.2365756,0.04190333,-0.0394035,-0.007145492,-0.9676031,0.05021989,0.2675566,0.7861851,1.537277,0.06898761,0.2985089,1.268982,0.3391214,337.5517,184.6367,54.67818,True
0,2.111114,0.02759458,0.1973173,-0.151963,-0.4393119,-3.94795,2.998424,0.5736162,1.44214,0.4104614,-1.382259,-0.0006580636,2.5,2.7,0.05729496,-0.06855164,0.08386798,-0.1180334,-3.562856,-0.8484104,0.6741743,1.51155,0.2365756,0.04190333,-0.0394035,-0.007145492,-0.9676031,0.05021989,0.2675566,0.7861851,1.537277,0.06898761,0.2982164,1.270002,0.3395438,337.5841,184.6379,54.8563,True
0,2.122225,0.04348354,0.2282418,-0.1533179,-0.4349102,-3.960669,3.00852,0.5741187,1.442826,0.4103038,-1.381924,0.03066382,2.5,2.7,0.05431501,-0.06330629,0.1105394,-0.1150624,-3.548004,-0.864253,0.6745527,1.511903,0.2363136,0.0474209,-0.05227141,0.01194709,-0.9671301,0.04772997,0.267592,0.7863851,1.537245,0.06856751,0.2979507,1.270977,0.3399836,337.5839,184.6671,55.07598,True
0,2.133336,0.0508824,0.2484936,-0.1545624,-0.4327163,-3.968319,3.014642,0.5743651,1.443153,0.4102829,-1.383108,-0.1086006,2.5,2.7,0.05967519,-0.06331379,0.1147613,-0.1136903,-3.541416,-0.8716196,0.6749066,1.512139,0.2362058,0.03446738,-0.07671928,-0.002908861,-0.9681134,0.04589599,0.2686844,0.7865088,1.537251,0.06835938,0.2976675,1.271782,0.3403505,337.5726,184.7362,55.22582,True
0,2.144447,0.05301088,0.2495647,-0.1545735,-0.4307035,-3.974332,3.019448,0.574666,1.443478,0.4102807,-1.382488,0.05754676,2.5,2.4,0.07002597,-0.08775304,0.07305751,-0.1120893,-3.561652,-0.8534188,0.6753677,1.511692,0.2355018,0.02371343,-0.08841228,-0.01241404,-0.9688527,0.04425148,0.2696512,0.7865328,1.537215,0.06818628,0.2973675,1.272747,0.3407701,337.6797,184.7846,55.17302,True
0,2.155558,0.05300039,0.2516592,-0.1588525,-0.4284802,-3.980615,3.024589,0.574928,1.443869,0.4103007,-1.382556,-0.006820946,2.5,2.4,0.07423473,-0.1079838,0.06869824,-0.1102767,-3.569844,-0.8462719,0.6755849,1.51176,0.2353685,0.0152156,-0.08521575,-0.01018846,-0.9691227,0.04326691,0.2703423,0.7865707,1.537214,0.06805706,0.2969887,1.273918,0.3412426,337.7162,184.8356,55.24053,True
0,2.166669,0.04877639,0.2356925,-0.1565872,-0.4265542,-3.985168,3.028515,0.5753354,1.444344,0.4103069,-1.382349,0.01902232,2.5,2.4,0.06687191,-0.1069512,0.0815277,-0.1086495,-3.567604,-0.84878,0.6757169,1.512235,0.2357185,0.0206268,-0.06926911,-0.002730167,-0.9688042,0.04285039,0.2701593,0.7866274,1.537258,0.06790805,0.2965383,1.275255,0.3417658,337.6723,184.8601,55.46728,True
0,2.17778,0.04243058,0.2186123,-0.1585666,-0.4245414,-3.988967,3.031747,0.5755609,1.444743,0.4103603,-1.382194,0.01395816,2.5,2.4,0.05424053,-0.08035854,0.09769332,-0.10754,-3.555892,-0.8605629,0.6758102,1.512381,0.2355778,0.03039976,-0.05228189,0.01426671,-0.9680143,0.04267329,0.2695598,0.786694,1.537235,0.06777716,0.2961,1.276673,0.3423406,337.6119,184.8718,55.78931,True
0,2.188891,0.04461749,0.2005644,-0.1530851,-0.422959,-3.992785,3.034663,0.5758924,1.445167,0.4104373,-1.381809,0.03508903,2.5,2.4,0.050064,-0.04735114,0.1063483,-0.1072274,-3.542064,-0.8745211,0.6759417,1.512797,0.2357054,0.0249656,-0.06505188,0.00363887,-0.9685757,0.04099537,0.2702688,0.7867441,1.537105,0.06753373,0.2957141,1.278112,0.342951,337.5777,184.8946,56.10353,True
0,2.200002,0.05319263,0.1846506,-0.1476314,-0.4213685,-3.996009,3.036693,0.5760536,1.445609,0.4104614,-1.381789,0.001537006,2.3,2.8,0.04592446,-0.04526416,0.1213029,-0.1057232,-3.531147,-0.8857325,0.6761438,1.512967,0.2356162,0.0194815,-0.07780017,-0.0112478,-0.9694599,0.03940453,0.2711157,0.7867957,1.537023,0.06740141,0.2954438,1.279513,0.3435549,337.5681,184.9347,56.39289,True
0,2.211113,0.06069556,0.1708775,-0.1411305,-0.4198782,-3.999135,3.038606,0.5762716,1.445939,0.4104686,-1.382142,-0.03222509,2.3,2.8,0.05869059,-0.04845353,0.1211853,-0.1045387,-3.524635,-0.893139,0.6763094,1.513205,0.2356145,0.01189803,-0.088413,-0.0229213,-0.9704751,0.03804712,0.2720094,0.7868936,1.536961,0.06724429,0.2952188,1.280793,0.3440933,337.5691,184.9528,56.6471,True
0,2.222224,0.06073548,0.1591605,-0.1410262,-0.4182415,-4.002202,3.040676,0.5765787,1.446344,0.4105506,-1.382511,-0.03344924,2.3,2.8,0.07115726,-0.06436596,0.07736503,-0.1032816,-3.541749,-0.877987,0.6766884,1.512766,0.2349627,0.006555416,-0.08841155,-0.02499545,-0.9710029,0.03688664,0.2726842,0.7868821,1.536914,0.0670383,0.295074,1.281922,0.3445633,337.5598,184.9602,56.84404,True
0,2.233335,0.05970836,0.1496604,-0.1302912,-0.4170505,-4.005246,3.042859,0.5768008,1.446638,0.4105945,-1.382526,-0.001159474,2.3,2.8,0.07104067,-0.0898957,0.06556606,-0.1016662,-3.551319,-0.8692734,0.6769222,1.512867,0.2349062,0.002445292,-0.0745997,-0.01106422,-0.970784,0.03637239,0.2731016,0.7869707,1.536883,0.06693792,0.2949402,1.28286,0.3449665,337.556,184.9491,56.99215,True
0,2.244446,0.05866665,0.1444117,-0.1206537,-0.4159373,-4.008659,3.045381,0.5770262,1.446988,0.4106092,-1.382258,0.02442384,2.3,2.8,0.06683432,-0.09098783,0.07199257,-0.0999969,-3.54949,-0.8717072,0.6771787,1.513215,0.2349315,0.001452271,-0.06823459,-0.004642188,-0.9707797,0.03553868,0.2735343,0.7871181,1.53688,0.06687784,0.2948603,1.283608,0.3453509,337.5679,184.9324,57.09618,True
0,2.255557,0.05443573,0.1381075,-0.1088772,-0.4150137,-4.011741,3.047752,0.5772325,1.447223,0.4106441,-1.382061,0.01770591,1.5,3.2,0.0518457,-0.07922292,0.06149667,-0.09940462,-3.549919,-0.8713242,0.6773822,1.513298,0.2348609,-0.00489543,-0.06717658,-0.0003138222,-0.9708202,0.03467449,0.2742782,0.7872355,1.536852,0.06676197,0.2948569,1.284211,0.3457561,337.6047,184.9352,57.13914,True
0,2.266668,0.05443573,0.1381075,-0.1088772,-0.4150137,-4.011741,3.047752,0.5772325,1.447223,0.4106441,-1.382029,0.002801257,1.5,3.2,0.0518457,-0.07922292,0.06149667,-0.09940462,-3.549919,-0.8713242,0.6773822,1.513298,0.2348609,-0.00489543,-0.06717658,-0.0003138222,-0.9708202,0.03467449,0.2742782,0.7872355,1.536852,0.06676197,0.2948536,1.284697,0.3461568,337.6411,184.9858,57.14153,True
0,2.277779,0.0502364,0.1265523,-0.08746487,-0.4135378,-4.017483,3.051934,0.5777462,1.447602,0.4106143,-1.381442,0.0536643,1.5,3.2,0.049757,-0.03660118,0.06376466,-0.09919636,-3.536067,-0.8860071,0.6775172,1.513684,0.2350168,-0.01779868,-0.0767295,-0.01192854,-0.9719797,0.0323863,0.2762859,0.7874877,1.536772,0.0665462,0.2948103,1.28509,0.3465261,337.6564,185.0569,57.1687,True
0,2.28889,0.04278152,0.126539,-0.08638221,-0.4126078,-4.020808,3.054729,0.5779557,1.44765,0.4105613,-1.382444,-0.09201999,1.5,3.2,0.0336012,-0.01199559,0.04053533,-0.1001146,-3.53284,-0.8888854,0.6776228,1.51376,0.2350564,-0.02310257,-0.0735414,-0.009731611,-0.9722061,0.03144687,0.2772636,0.787564,1.536733,0.06643295,0.2947459,1.285348,0.3468069,337.6732,185.1578,57.19102,True
0,2.300001,0.04492483,0.1233808,-0.08209024,-0.4118088,-4.0237,3.056804,0.5782132,1.44792,0.4106002,-1.38198,0.04330256,0.5,3.4,0.02821607,-0.00237187,0.03208539,-0.1003282,-3.530406,-0.8914684,0.6778374,1.513794,0.235033,-0.02202277,-0.0650261,-0.008649398,-0.9723505,0.03093408,0.2777818,0.7877346,1.536701,0.06645298,0.2948298,1.28568,0.3470949,337.745,185.2253,57.12209,True
0,2.311112,0.03854907,0.1213135,-0.07247806,-0.4112262,-4.02678,3.059423,0.5784554,1.448008,0.4106369,-1.381688,0.0261512,0.5,3.4,0.02401569,0.002941553,0.04065917,-0.1001295,-3.521891,-0.8998696,0.6780298,1.513833,0.2352245,-0.01781638,-0.0532927,-0.01504974,-0.9727862,0.03084273,0.2779016,0.7878906,1.536636,0.06643748,0.2948942,1.286067,0.347364,337.7604,185.2527,57.13105,True
0,2.322223,0.03324471,0.1160059,-0.06922682,-0.4105316,-4.029689,3.061811,0.5788242,1.448154,0.410759,-1.382006,-0.02920963,0.5,3.4,0.02712322,-0.007677142,0.0331532,-0.09973644,-3.521642,-0.9002917,0.6783139,1.513894,0.235141,-0.01572206,-0.04476397,-0.01931188,-0.973249,0.03060678,0.2781544,0.788147,1.536558,0.06642056,0.294892,1.286496,0.347589,337.7581,185.2718,57.1888,True
0,2.333334,0.02685352,0.1181726,-0.06284654,-0.4099414,-4.033044,3.064795,0.5791227,1.448238,0.4108837,-1.381693,0.0289281,0.5,3.4,0.04213097,-0.0269091,0.04682129,-0.09840327,-3.520264,-0.9026423,0.6785483,1.513953,0.2351933,-0.01790261,-0.04048561,-0.02460427,-0.9737769,0.03040677,0.2785411,0.7883296,1.536469,0.06643248,0.294904,1.286991,0.3478105,337.7484,185.2712,57.25835,True
0,2.344445,0.02045449,0.1235277,-0.05649882,-0.4093422,-4.036631,3.068052,0.5794893,1.448284,0.4109771,-1.381756,-0.006004259,0.5,3.4,0.04959519,-0.03435902,0.04887869,-0.09768049,-3.516011,-0.9076191,0.6788772,1.513938,0.2350733,-0.01791383,-0.03942155,-0.02566621,-0.974211,0.02994804,0.2790476,0.7884465,1.536391,0.06640363,0.2949286,1.287522,0.3480311,337.7137,185.2656,57.36206,True
0,2.355556,0.01509999,0.1385437,-0.04277132,-0.4092208,-4.04181,3.07283,0.5797645,1.448342,0.4111416,-1.381618,0.01274793,0,3.9,0.05790456,-0.06198996,0.0252873,-0.09669618,-3.531073,-0.8935776,0.6791514,1.513973,0.2351763,-0.01155818,-0.03089194,-0.02996678,-0.9746983,0.03007734,0.2788961,0.7886654,1.536323,0.06640267,0.2950222,1.288081,0.3482781,337.6781,185.2442,57.4768,True
0,2.366668,0.01189975,0.1450062,-0.03322708,-0.4091446,-4.046242,3.076785,0.5799973,1.448557,0.4112935,-1.381584,0.002999382,0,3.9,0.04792713,-0.09484476,-0.01948003,-0.09642028,-3.558128,-0.8667631,0.6793188,1.514123,0.2351162,-0.01159381,-0.03621867,-0.03425149,-0.9755244,0.02937094,0.2792434,0.7888491,1.53627,0.06635189,0.2951154,1.288634,0.3485318,337.6362,185.2335,57.59145,True
0,2.377779,0.01188983,0.1492853,-0.03113271,-0.4087622,-4.050728,3.080769,0.5802951,1.448635,0.4114363,-1.381574,0.0009417983,0,3.9,0.04266462,-0.09592103,-0.01091906,-0.09559736,-3.561996,-0.863163,0.6795624,1.514138,0.2351532,-0.01495017,-0.04895619,-0.04916979,-0.97684,0.02856733,0.2799728,0.7890737,1.536229,0.06638503,0.2951912,1.289172,0.3487768,337.5922,185.2418,57.68981,True
0,2.38889,0.004409894,0.1578403,-0.02373752,-0.4086216,-4.055489,3.085437,0.5806119,1.448616,0.4115348,-1.381759,-0.01689749,0,3.9,0.04279564,-0.09277563,0.005069844,-0.09453103,-3.563612,-0.8620413,0.6797327,1.514228,0.2351978,-0.01929048,-0.04148141,-0.05762936,-0.9778739,0.02845841,0.2804101,0.7893171,1.536124,0.06641436,0.2952007,1.28971,0.3489975,337.5301,185.2718,57.74397,True
0,2.400001,-0.001991302,0.1642888,-0.01526334,-0.408588,-4.060602,3.090321,0.5809784,1.44872,0.4117584,-1.381832,-0.006556936,0,4,0.04078362,-0.08535518,0.0189582,-0.09363035,-3.562377,-0.8636626,0.6799659,1.514209,0.2352166,-0.01810513,-0.03193014,-0.04695523,-0.977933,0.02839316,0.2805446,0.7894837,1.536262,0.06648922,0.2951792,1.29027,0.3492056,337.4712,185.2958,57.79696,True
0,2.411112,0.000129357,0.1685739,-0.01317119,-0.4084139,-4.065593,3.094831,0.5812554,1.448775,0.411917,-1.381443,0.03562775,0,4,0.0418021,-0.0554968,0.01052048,-0.09417151,-3.560647,-0.8657976,0.6801229,1.514223,0.2353466,-0.02658432,-0.01914912,-0.04363666,-0.9782164,0.0287696,0.2809116,0.7896391,1.536262,0.06658959,0.2951595,1.290844,0.3494173,337.4125,185.297,57.90201,True
0,2.422223,0.000129357,0.1685739,-0.01317119,-0.4084139,-4.065593,3.094831,0.5812554,1.448775,0.411917,-1.381559,-0.01084241,0,4,0.0418021,-0.0554968,0.01052048,-0.09417151,-3.560647,-0.8657976,0.6801229,1.514223,0.2353466,-0.02658432,-0.01914912,-0.04363666,-0.9782164,0.0287696,0.2809116,0.7896391,1.536262,0.06658959,0.2951591,1.291417,0.3496163,337.3442,185.3101,58.01826,True
0,2.433334,-0.007288203,0.1525095,-0.02047725,-0.4077513,-4.073015,3.101946,0.5817073,1.448885,0.4121597,-1.381819,-0.02361085,0,4,0.02702503,-0.02782513,0.02563852,-0.09381731,-3.550329,-0.8761283,0.6804106,1.514242,0.2354522,-0.02848858,-0.002168316,-0.02226133,-0.9781104,0.02923352,0.2814338,0.7899141,1.536229,0.06682301,0.2951787,1.291975,0.34979,337.2674,185.3149,58.14484,True
0,2.444445,-0.01152973,0.1450232,-0.02254785,-0.4072634,-4.076363,3.105264,0.5818781,1.448895,0.4122574,-1.381745,0.007007401,0,4,0.01216272,-0.0182765,0.02473832,-0.09296136,-3.551579,-0.8752135,0.6806488,1.513659,0.2349379,-0.02096817,0.003125634,-0.01591786,-0.9778989,0.02922207,0.2814727,0.7901238,1.536188,0.06691027,0.2951708,1.292428,0.349904,337.2256,185.2958,58.25004,True
0,2.455556,-0.008290604,0.1290353,-0.02454619,-0.4068778,-4.078499,3.107203,0.5820361,1.448979,0.4123302,-1.381799,-0.005064652,0,3.4,0.007871248,-0.03318015,0.02259499,-0.09219384,-3.556715,-0.870002,0.6808577,1.51365,0.234997,-0.01250876,0.00526798,-0.02238887,-0.978284,0.029529,0.2811598,0.790354,1.536167,0.06700897,0.2952321,1.292931,0.350051,337.1733,185.2832,58.26201,True
0,2.466667,-0.01039981,0.1151386,-0.02974886,-0.4064229,-4.0808,3.109658,0.5823534,1.44909,0.4124796,-1.381689,0.01016266,0,3.4,0.01751196,-0.0524268,0.02669883,-0.09052404,-3.570114,-0.857882,0.6811002,1.513407,0.2347183,-0.01477228,0.005300011,-0.03514767,-0.9790899,0.02973712,0.2813736,0.7906228,1.536119,0.06708479,0.2952431,1.293445,0.3502023,337.1312,185.2559,58.33531,True
0,2.477778,-0.01039287,0.1119248,-0.03185226,-0.405952,-4.083682,3.112427,0.5825188,1.449218,0.4125783,-1.38197,-0.02574304,0,3.4,0.02273989,-0.06305981,0.01597024,-0.08971763,-3.580677,-0.8477436,0.6815094,1.513341,0.2348795,-0.01820646,0.002174752,-0.05856001,-0.9805685,0.0301378,0.2814777,0.7908809,1.536063,0.06722617,0.2951888,1.293935,0.350341,337.1029,185.2347,58.44648,True
0,2.488889,-0.01889617,0.09904091,-0.04025204,-0.4052841,-4.085352,3.114568,0.5827353,1.449404,0.4127936,-1.38166,0.02853319,0,3.4,0.03014082,-0.09501332,0.01365688,-0.08852507,-3.598967,-0.8298817,0.681715,1.513959,0.2355435,-0.01945432,0.00435045,-0.07664642,-0.9818841,0.0305627,0.2815563,0.7911657,1.536001,0.06739354,0.2951691,1.294384,0.3504859,337.081,185.2159,58.55492,True
0,2.5,-0.01996247,0.09897872,-0.04664227,-0.4045432,-4.088043,3.117231,0.5829989,1.449547,0.4129143,-1.381868,-0.01924209,0,3.1,0.02692498,-0.1045879,0.01258883,-0.08742838,-3.608081,-0.8209109,0.6819233,1.513976,0.2356255,-0.01195782,0.007525021,-0.07458307,-0.9825845,0.03085339,0.2810735,0.7913507,1.535885,0.0676136,0.2952334,1.294801,0.3506447,337.0691,185.2128,58.62181,True
0,2.511111,-0.02637462,0.105334,-0.04882041,-0.403911,-4.091538,3.120968,0.5831603,1.449679,0.4130523,-1.381448,0.03864073,0,3.1,0.01087644,-0.1120107,0.007352885,-0.08663955,-3.622287,-0.8059375,0.6821506,1.514284,0.236099,-0.01087202,0.006452704,-0.0724664,-0.9832891,0.03114367,0.2809984,0.791571,1.535837,0.06776261,0.2952972,1.295197,0.3507999,337.0674,185.1967,58.65581,True
0,2.522222,-0.03172001,0.1116414,-0.0584624,-0.4028308,-4.095629,3.125111,0.5832474,1.44979,0.4132924,-1.381856,-0.03758422,0,3.1,0.005752847,-0.08863845,0.0319672,-0.0858683,-3.612884,-0.814894,0.6822518,1.514416,0.2362595,-0.01507603,0.01176829,-0.06707849,-0.983694,0.03169588,0.2810434,0.7917688,1.535873,0.06792307,0.2953785,1.295598,0.3509604,337.0808,185.1798,58.67825,True
0,2.533333,-0.03706904,0.1179816,-0.0627721,-0.4019658,-4.099489,3.129256,0.5834098,1.449936,0.4134471,-1.381612,0.0226559,0,3.1,-0.0005304664,-0.06309953,0.04275158,-0.08539479,-3.604146,-0.8233748,0.682376,1.514422,0.2363768,-0.01710655,0.01600333,-0.05745758,-0.9838985,0.03215408,0.281058,0.7919897,1.53586,0.06808949,0.295441,1.296031,0.3511142,337.0911,185.1628,58.70761,True
0,2.544444,-0.04238452,0.1168799,-0.06488886,-0.4011722,-4.102526,3.132562,0.5835924,1.450198,0.4135282,-1.381758,-0.01357721,0,3.1,-0.01222063,-0.04924187,0.04609036,-0.08495857,-3.598602,-0.8281877,0.6825596,1.514577,0.2364907,-0.01059812,0.02341716,-0.04578113,-0.9838745,0.0327144,0.2807355,0.7923586,1.535836,0.06821489,0.2953902,1.296515,0.351249,337.0881,185.1335,58.74674,True
0,2.555555,-0.04557563,0.1136388,-0.06911942,-0.4002353,-4.105528,3.135941,0.5836895,1.450401,0.4136262,-1.381604,0.01425675,0,2.8,-0.02277344,-0.03328684,0.05687879,-0.08441901,-3.587877,-0.8382225,0.6827495,1.514675,0.2366509,-0.004163783,0.02339973,-0.04158451,-0.984094,0.03310895,0.2803438,0.7926261,1.535793,0.06840754,0.2952262,1.297083,0.3513994,337.0807,185.0751,58.81315,True
0,2.566666,-0.04874629,0.1051012,-0.07331895,-0.3990822,-4.108747,3.139467,0.5840217,1.450608,0.4138002,-1.381709,-0.009710043,0,2.8,-0.01537792,-0.0524397,0.05250689,-0.0832648,-3.591134,-0.8349407,0.6830753,1.514701,0.2367694,-0.002099311,0.02341383,-0.04905979,-0.9848157,0.03353892,0.2799408,0.7928872,1.535699,0.06856394,0.2950379,1.297758,0.3515719,337.0652,185.0611,58.90516,True
0,2.577777,-0.04874629,0.1051012,-0.07331895,-0.3990822,-4.108747,3.139467,0.5840217,1.450608,0.4138002,-1.381661,0.004580363,0,2.8,-0.01537792,-0.0524397,0.05250689,-0.0832648,-3.591134,-0.8349407,0.6830753,1.514701,0.2367694,-0.002099311,0.02341383,-0.04905979,-0.9848157,0.03353892,0.2799408,0.7928872,1.535699,0.06856394,0.2948734,1.298527,0.3517423,337.0536,185.0642,59.03178,True
0,2.588888,-0.05189763,0.09539677,-0.08814161,-0.3966954,-4.114066,-3.138035,0.5841791,1.451177,0.4140561,-1.382288,-0.05740945,0,2.8,0.01015253,-0.1110883,0.04787457,-0.07892437,-3.623451,-0.8044805,0.683839,1.514176,0.2363381,-0.002479561,0.01073063,-0.08531529,-0.9877952,0.03430032,0.2797129,0.7934874,1.535629,0.06893802,0.2946914,1.299322,0.3518651,337.0168,185.0476,59.22934,True
0,2.599999,-0.05617548,0.1039077,-0.08819082,-0.3960088,-4.117921,-3.133823,0.5844036,1.45128,0.4141691,-1.381315,0.08953537,0,2.1,0.01008378,-0.1249097,0.04142921,-0.07768867,-3.637339,-0.7906228,0.6841742,1.51447,0.2368131,0.001789503,0.007528281,-0.08430217,-0.9886644,0.03455425,0.2793967,0.7937596,1.535587,0.06910038,0.2945972,1.300036,0.3519579,336.9795,184.9657,59.43225,True
0,2.61111,-0.06258559,0.1091887,-0.09142519,-0.3948898,-4.121569,-3.129533,0.5845565,1.451517,0.4143069,-1.38201,-0.06441434,0,2.1,-0.00169304,-0.1334017,0.03510506,-0.07628252,-3.652422,-0.7751543,0.6844572,1.514492,0.2369561,0.009367667,0.005353756,-0.07159844,-0.9889292,0.03463468,0.2790508,0.7940065,1.535533,0.06936169,0.2946168,1.300807,0.3521065,337.0454,184.8739,59.47005,True
0,2.622221,-0.06793485,0.1187444,-0.09150023,-0.3939204,-4.125317,-3.125235,0.5847956,1.451649,0.4142203,-1.381754,0.02407221,0,2.1,-0.009245485,-0.1333538,0.02558498,-0.07537492,-3.663671,-0.7632513,0.6846205,1.514723,0.2372675,0.00730858,0.006395522,-0.0641149,-0.9893324,0.03483894,0.2790199,0.7942665,1.535402,0.06952429,0.2945625,1.301638,0.3522578,337.0539,184.8076,59.53446,True
0,2.633332,-0.07010023,0.1282623,-0.09903628,-0.3925936,-4.129911,-3.120136,0.5850105,1.451884,0.4143348,-1.38148,0.02483095,0,2.1,-0.01011583,-0.1067876,0.04698229,-0.07425426,-3.655305,-0.7714064,0.684814,1.514817,0.237376,-0.003271438,0.003186502,-0.05656023,-0.9897084,0.0348745,0.2794053,0.7945215,1.535351,0.06968451,0.2944592,1.30248,0.3524018,336.9977,184.7717,59.68782,True
0,2.644443,-0.0786258,0.1378877,-0.09592491,-0.3914788,-4.135965,-3.113663,0.5849252,1.452136,0.414686,-1.381589,-0.01015425,0,2.1,-0.01104973,-0.08657945,0.06302481,-0.07344572,-3.644466,-0.7818689,0.6849377,1.515049,0.2375951,-0.004341207,0.002116353,-0.05761897,-0.9904552,0.03494627,0.2793469,0.794706,1.535281,0.06979275,0.2943063,1.303306,0.3525047,336.9665,184.7599,59.86315,True
0,2.655554,-0.08505808,0.1506165,-0.1002878,-0.3902735,-4.141607,-3.107284,0.5851577,1.452412,0.4148743,-1.381641,-0.004554591,0,1.7,-0.007748403,-0.0642446,0.07372191,-0.0726782,-3.631783,-0.7945445,0.6851823,1.515149,0.2377062,0.003185946,0.00954896,-0.05128105,-0.9906943,0.03548143,0.27876,0.7949749,1.535216,0.06996202,0.2941623,1.304105,0.3525317,336.9654,184.7507,60.02671,True
0,2.666665,-0.09360874,0.1634369,-0.09613815,-0.3892764,-4.148396,-3.099748,0.585555,1.452745,0.4151058,-1.381668,-0.00240393,0,1.7,-0.00342223,-0.05680572,0.08223481,-0.07172053,-3.622321,-0.80393,0.6856703,1.515211,0.2378786,0.0117392,0.01059736,-0.04816771,-0.9910762,0.03576612,0.2782082,0.7952111,1.535247,0.07012224,0.2939993,1.304916,0.3525205,336.9833,184.6524,60.12179,True
0,2.677776,-0.09895413,0.1708967,-0.09406539,-0.3883954,-4.154219,-3.09306,0.5857831,1.453017,0.4153168,-1.381435,0.02132014,0,1.7,-0.0002127811,-0.071773,0.07791273,-0.06943074,-3.636012,-0.7912813,0.686329,1.514582,0.2371681,0.02026397,0.0009998688,-0.04721591,-0.9916381,0.03554814,0.2778012,0.7955176,1.535169,0.07024097,0.2937312,1.305797,0.3525279,336.9594,184.5105,60.18118,True
0,2.688887,-0.09681548,0.1773203,-0.09199202,-0.3875736,-4.160208,-3.086873,0.5860595,1.453309,0.4154701,-1.381378,0.005067646,0,1.7,0.002760649,-0.1196435,0.05536608,-0.06749089,-3.667911,-0.7595642,0.6868103,1.514595,0.2372959,0.02963984,-0.02238411,-0.06762175,-0.9933926,0.03479846,0.2774068,0.7958504,1.535071,0.07030153,0.2935401,1.306805,0.3526053,336.9225,184.4337,60.27505,True
0,2.699998,-0.09677561,0.1699337,-0.08554765,-0.3867943,-4.165149,-3.081414,0.5864859,1.45347,0.4156048,-1.381408,-0.002693245,0,1.7,0.005899444,-0.1356088,0.04996397,-0.06581683,-3.687041,-0.7406573,0.6872295,1.5146,0.2373943,0.0240656,-0.03722605,-0.0910465,-0.9954507,0.03430831,0.277606,0.7961704,1.534985,0.07038522,0.293458,1.307961,0.3527398,336.8794,184.3952,60.42676,True
0,2.711109,-0.09780002,0.155008,-0.08648512,-0.3858734,-4.168482,-3.077215,0.5867061,1.45369,0.4156733,-1.382119,-0.06492002,0,1.9,0.01854187,-0.1611626,0.02954723,-0.06386686,-3.728765,-0.7003129,0.6877294,1.514516,0.2373767,0.02172172,-0.04889122,-0.1112992,-0.9976159,0.03377914,0.2777581,0.7965031,1.534913,0.07055736,0.2933705,1.309208,0.3528603,336.8219,184.3537,60.64526,True
0,2.72222,-0.0945355,0.13259,-0.0937594,-0.3845578,-4.170831,-3.074277,0.5868876,1.453906,0.4157174,-1.381972,0.0140092,0,1.9,0.03131063,-0.1654489,0.02729111,-0.06236963,-3.753699,-0.6762291,0.6880755,1.514609,0.2376215,0.02387388,-0.05103323,-0.1091896,-0.998703,0.03336102,0.2776148,0.7967513,1.534886,0.07075834,0.2933235,1.310485,0.3529661,336.7428,184.2772,60.92117,True
0,2.733331,-0.0945355,0.13259,-0.0937594,-0.3845578,-4.170831,-3.074277,0.5868876,1.453906,0.4157174,-1.381726,0.02225617,0,1.9,0.03131063,-0.1654489,0.02729111,-0.06236963,-3.753699,-0.6762291,0.6880755,1.514609,0.2376215,0.02387388,-0.05103323,-0.1091896,-0.998703,0.03336102,0.2776148,0.7967513,1.534886,0.07075834,0.2933404,1.311691,0.3530478,336.6585,184.183,61.2273,True
0,2.744442,-0.09980372,0.1090865,-0.09887488,-0.3824459,-4.175626,-3.067415,0.5874797,1.454251,0.4157331,-1.382803,-0.09861856,0,1.9,0.02192713,-0.1410513,0.04874247,-0.05914401,-3.778179,-0.6521839,0.6887709,1.514912,0.2379756,0.02205767,-0.03727254,-0.07823943,-0.9997028,0.03319564,0.2773661,0.7972788,1.534885,0.07087135,0.2932963,1.312704,0.3530314,336.5876,184.0925,61.51845,True
0,2.755553,-0.1061674,0.09949026,-0.09772156,-0.3814478,-4.177874,-3.063946,0.5877755,1.454422,0.415834,-1.380975,0.1680024,0,1.7,0.01347195,-0.1122911,0.05422668,-0.05845851,-3.772243,-0.6579345,0.6888895,1.515065,0.2379897,0.02112913,-0.04050761,-0.06438982,-1.000078,0.03263318,0.277459,0.7975265,1.534842,0.07091594,0.2932701,1.313404,0.352949,336.5449,183.9586,61.74018,True
0,2.766664,-0.1040375,0.09846777,-0.09452006,-0.3805732,-4.181352,-3.059544,0.5880426,1.454772,0.4159658,-1.381522,-0.05151141,0,1.7,0.01035857,-0.0867683,0.05964915,-0.05757115,-3.77284,-0.6576381,0.6892882,1.515379,0.2379427,0.02443576,-0.04161257,-0.0537705,-1.000478,0.03200774,0.2773235,0.7978088,1.534725,0.07095551,0.2933546,1.313938,0.3528575,336.6426,183.9036,61.74292,True
0,2.777775,-0.09548272,0.09755328,-0.08280911,-0.3800533,-4.185347,-3.055311,0.5884363,1.455044,0.4162369,-1.381532,-0.0002659425,0,1.7,0.01883445,-0.07715376,0.05534899,-0.05705343,-3.77189,-0.6587675,0.6895287,1.515959,0.2385671,0.02442911,-0.0490684,-0.05379322,-1.001287,0.03130972,0.2774431,0.7981029,1.534634,0.07097578,0.2935054,1.314396,0.3527024,336.7151,183.8818,61.71474,True
0,2.788886,-0.08907036,0.09338258,-0.07425748,-0.3795729,-4.18789,-3.052173,0.5886941,1.45523,0.4163518,-1.381783,-0.02291533,0,1.7,0.03046034,-0.08458701,0.04457876,-0.05622892,-3.786817,-0.6445957,0.6898654,1.516081,0.2387238,0.02113087,-0.06076499,-0.06338257,-1.002636,0.03030717,0.2778098,0.7983445,1.534566,0.07099819,0.2937011,1.314823,0.3524959,336.7546,183.8278,61.68362,True
0,2.799997,-0.08585782,0.08920389,-0.06677134,-0.3790914,-4.190677,-3.04869,0.5889701,1.455401,0.4164884,-1.382476,-0.06316319,0,1.7,0.04317518,-0.09308966,0.03700105,-0.05525739,-3.801141,-0.6311545,0.6901742,1.516094,0.2387977,0.01681946,-0.06075484,-0.06866554,-1.003748,0.02972567,0.2780487,0.7986286,1.534513,0.07094741,0.2939284,1.315309,0.3522772,336.7755,183.735,61.63736,True
0,2.811108,-0.07092135,0.0883433,-0.04760313,-0.3792922,-4.193289,-3.045999,0.5891631,1.455521,0.4165738,-1.382268,0.01949554,0,1.2,0.04732341,-0.104771,0.02414673,-0.05451384,-3.826584,-0.6064356,0.6905205,1.516198,0.2389441,0.01367731,-0.06076769,-0.06330718,-1.004437,0.02913339,0.2783182,0.7988755,1.534446,0.07089663,0.2942041,1.315891,0.3521281,336.744,183.5965,61.66016,True
0,2.822219,-0.06130337,0.07892675,-0.03048305,-0.3796197,-4.194794,-3.044018,0.5894045,1.45543,0.4165387,-1.382084,0.01657557,0,1.2,0.03971881,-0.1078842,0.007156577,-0.0543434,-3.844599,-0.5884649,0.6907908,1.516244,0.2390532,0.01482249,-0.06825484,-0.05481619,-1.00502,0.02803723,0.2786663,0.7990612,1.534347,0.07085037,0.2944055,1.316518,0.3520368,336.6954,183.4795,61.76306,True
0,2.83333,-0.04953868,0.06517462,-0.02292078,-0.3796358,-4.195491,-3.043226,0.589568,1.455478,0.4165533,-1.382662,-0.05299991,0,1.2,0.03319519,-0.1003634,-0.009811698,-0.05444087,-3.86297,-0.5702334,0.6910784,1.516289,0.2391279,0.009525821,-0.0714557,-0.05157606,-1.005711,0.02715386,0.2792157,0.7992744,1.534275,0.07079983,0.2945164,1.317157,0.351991,336.6482,183.409,61.89345,True
0,2.844441,-0.04410987,0.02686825,-0.01940252,-0.3794184,-4.193045,-3.045009,0.5894691,1.455661,0.4164364,-1.382356,0.02836469,0,1.2,0.02787523,-0.0864965,-0.009715086,-0.05424539,-3.867632,-0.5656501,0.6911472,1.516285,0.2389235,0.002106704,-0.08105377,-0.04726341,-1.006411,0.02577953,0.2801645,0.7994033,1.534214,0.07081389,0.2945599,1.317746,0.3519739,336.5599,183.3752,62.06334,True
0,2.855552,-0.03765909,0.004501246,-0.02135239,-0.3790019,-4.191522,-3.04619,0.5896463,1.455628,0.4164212,-1.382689,-0.03073527,0,3.1,0.01725198,-0.06731553,-0.00743391,-0.05412875,-3.867283,-0.5657593,0.6915015,1.516224,0.2389054,-0.003151022,-0.07467508,-0.04079632,-1.006771,0.02515289,0.280719,0.7995478,1.534153,0.07079172,0.2945924,1.318184,0.3519521,336.4747,183.3734,62.24912,True
0,2.866663,-0.03227545,-0.01680139,-0.02223131,-0.3787952,-4.188995,-3.048319,0.589756,1.455517,0.4163733,-1.382323,0.0336327,0,3.1,0.003479838,-0.02469934,-0.0007919827,-0.05463848,-3.843686,-0.5886896,0.691486,1.51614,0.2387242,-0.006267309,-0.06404266,-0.03434176,-1.007056,0.02475142,0.2810109,0.7997555,1.534022,0.07063818,0.2946277,1.318425,0.3519146,336.4558,183.3617,62.35407,True
0,2.877774,-0.02799102,-0.025267,-0.01470503,-0.3788624,-4.186981,-3.049879,0.589892,1.455514,0.4162226,-1.382476,-0.01425889,0,3.1,0.001476251,0.01042374,0.01105171,-0.05500759,-3.817794,-0.614542,0.6917803,1.516046,0.2387025,-0.01044258,-0.04914547,-0.02680119,-1.00711,0.02477299,0.2812825,0.7998447,1.533975,0.07059383,0.294645,1.318444,0.351826,336.4964,183.3606,62.37166,True
0,2.888885,-0.02799102,-0.025267,-0.01470503,-0.3788624,-4.186981,-3.049879,0.589892,1.455514,0.4162226,-1.382458,0.001746639,0,3.1,0.001476251,0.01042374,0.01105171,-0.05500759,-3.817794,-0.614542,0.6917803,1.516046,0.2387025,-0.01044258,-0.04914547,-0.02680119,-1.00711,0.02477299,0.2812825,0.7998447,1.533975,0.07059383,0.2947916,1.318259,0.3517319,336.5436,183.3396,62.35926,True
0,2.899997,-0.02265766,-0.01974975,0.006550612,-0.3795974,-4.185652,-3.05075,0.5903441,1.455473,0.4164362,-1.382611,-0.01406897,0,3.1,0.01747239,0.04234059,0.00570338,-0.05561426,-3.796764,-0.6368579,0.6921997,1.515738,0.2384226,-0.01248392,-0.04917196,-0.01826343,-1.00769,0.02355792,0.2822317,0.8000839,1.533873,0.07046676,0.2950031,1.317884,0.3516197,336.5887,183.3286,62.27935,True
0,2.911108,-0.01945636,-0.01424247,0.02674196,-0.380603,-4.185433,-3.050847,0.5904946,1.455396,0.4165273,-1.382053,0.05107465,0,3.4,0.02258455,0.01258197,-0.01786909,-0.05590614,-3.820359,-0.6137326,0.692421,1.515734,0.2384994,-0.01355639,-0.05236379,-0.01932845,-1.008166,0.02285418,0.2826924,0.8001746,1.533815,0.07042503,0.2952342,1.317407,0.3515013,336.6161,183.3566,62.12976,True
0,2.922219,-0.01732107,-0.01306448,0.04059291,-0.3816198,-4.184469,-3.051505,0.5905672,1.455268,0.4166727,-1.382326,-0.02537883,0,3.4,0.03838879,-0.006529577,-0.03616583,-0.05649737,-3.835705,-0.5991526,0.6925278,1.515969,0.2387402,-0.01784739,-0.05555005,-0.02249479,-1.008769,0.02212062,0.2833595,0.8002496,1.533788,0.07038093,0.2956225,1.316873,0.3513787,336.6436,183.4215,61.97414,True
0,2.93333,-0.02051306,-0.01409838,0.04486191,-0.3821673,-4.183963,-3.051607,0.5907245,1.455123,0.4167957,-1.382376,-0.004297144,0,3.4,0.0574258,-0.01607451,-0.05232973,-0.05721695,-3.850372,-0.5857261,0.6926869,1.515972,0.2388122,-0.0167312,-0.05876216,-0.0171885,-1.008997,0.02125549,0.2839598,0.8003139,1.533747,0.07030559,0.2961155,1.316378,0.3512821,336.6811,183.4347,61.78375,True
0,2.944441,-0.02369517,-0.02150934,0.05239926,-0.3831133,-4.182122,-3.052748,0.5908819,1.455021,0.4168577,-1.382207,0.01536032,0,3.4,0.0678843,-0.02025885,-0.07479765,-0.05847663,-3.866777,-0.5702965,0.6927817,1.5161,0.2389278,-0.01127659,-0.05774564,-0.004455325,-1.008812,0.02032325,0.2843881,0.8002832,1.533807,0.07016635,0.2965149,1.315953,0.3511763,336.6562,183.4301,61.63638,True
0,2.955552,-0.01941212,-0.02783031,0.05883773,-0.3838851,-4.180721,-3.05395,0.5910879,1.454838,0.4169285,-1.38203,0.01599102,0,3.8,0.06784512,-0.01171153,-0.0800951,-0.05952005,-3.871574,-0.5661654,0.6929661,1.516056,0.2389579,-0.007998671,-0.06096754,0.004026111,-1.008717,0.01933641,0.2849298,0.8002579,1.533801,0.07007861,0.2967826,1.315591,0.3510716,336.608,183.4057,61.56366,True
0,2.966663,-0.02470021,-0.03949745,0.06854284,-0.3850388,-4.177672,-3.056229,0.5910404,1.454587,0.4169459,-1.381813,0.01979453,0,3.8,0.0573774,0.01594018,-0.05861352,-0.06005269,-3.851552,-0.5862696,0.6928885,1.516038,0.2389503,-0.008949481,-0.05887379,0.01469397,-1.008428,0.01840351,0.285501,0.8002253,1.533847,0.07004094,0.2969875,1.315299,0.3509872,336.5799,183.3953,61.53275,True
0,2.977774,-0.02254997,-0.04694595,0.0696677,-0.3857136,-4.175263,-3.058243,0.5909294,1.454551,0.4169538,-1.382259,-0.0409682,0,3.8,0.04462045,0.03513315,-0.05630913,-0.06104285,-3.839027,-0.5987529,0.6929656,1.515889,0.2389672,-0.004524525,-0.0546619,0.0306379,-1.007773,0.01762826,0.2858168,0.8001856,1.533855,0.06994271,0.2972005,1.315061,0.3508984,336.5489,183.4197,61.52705,True
0,2.988885,-0.01823218,-0.06501094,0.07515156,-0.3867022,-4.171039,-3.062125,0.590931,1.454295,0.4168615,-1.381858,0.03700915,0,3.8,0.02973102,0.06284341,-0.05610221,-0.06245752,-3.82369,-0.6139113,0.6929417,1.515861,0.2389469,-0.001221724,-0.05896012,0.04124157,-1.007306,0.0164056,0.2863114,0.8001642,1.533901,0.06993961,0.2974331,1.314826,0.3507928,336.5027,183.416,61.56139,True
0,2.999996,-0.0171575,-0.07033167,0.07625956,-0.3874772,-4.16818,-3.064513,0.5910476,1.454085,0.416873,-1.382133,-0.02543467,0,3.8,0.02454494,0.09476554,-0.03997403,-0.06361227,-3.794918,-0.6425294,0.6928924,1.515842,0.2388442,-0.0001606308,-0.05469798,0.04018426,-1.007006,0.01568429,0.2866288,0.8001683,1.53385,0.06981421,0.297569,1.314516,0.3506075,336.4557,183.41,61.57409,True
0,3.011107,-0.01073619,-0.07879034,0.08165167,-0.3884785,-4.16482,-3.06773,0.5909508,1.453839,0.4168863,-1.382342,-0.01888615,0,4.4,0.03088224,0.1011754,-0.04746209,-0.06501788,-3.785437,-0.6525418,0.6928476,1.515806,0.2388635,0.00403955,-0.05042174,0.03376222,-1.006971,0.01515632,0.286733,0.8000687,1.533863,0.06976676,0.2976547,1.314134,0.3503552,336.4362,183.3966,61.54102,True
0,3.022218,-0.006490521,-0.07447149,0.08693115,-0.3894617,-4.162955,-3.069385,0.5906737,1.453434,0.4169526,-1.382104,0.02182561,0,4.4,0.03282678,0.09805304,-0.06878933,-0.06678675,-3.786306,-0.651962,0.692832,1.515537,0.238894,0.005055609,-0.0440172,0.02843862,-1.006999,0.01475564,0.2868667,0.7998542,1.533891,0.06975055,0.2978342,1.31364,0.3500732,336.412,183.3721,61.51854,True
0,3.033329,-0.006505571,-0.07015862,0.0932795,-0.3905376,-4.160959,-3.071017,0.5905617,1.453095,0.4170132,-1.382412,-0.02830264,0,4.4,0.03179887,0.08207286,-0.06137078,-0.06750261,-3.780921,-0.6575363,0.6926898,1.515373,0.2390039,0.007248603,-0.0461679,0.0348025,-1.006582,0.01390077,0.2871625,0.7997102,1.533914,0.0697093,0.298118,1.313041,0.3497885,336.3998,183.3373,61.44763,True
0,3.04444,-0.006505571,-0.07015862,0.0932795,-0.3905376,-4.160959,-3.071017,0.5905617,1.453095,0.4170132,-1.382236,0.01623382,0,4.4,0.03179887,0.08207286,-0.06137078,-0.06750261,-3.780921,-0.6575363,0.6926898,1.515373,0.2390039,0.007248603,-0.0461679,0.0348025,-1.006582,0.01390077,0.2871625,0.7997102,1.533914,0.0697093,0.2983366,1.312324,0.3494943,336.3809,183.2723,61.34341,True
0,3.055551,-0.008647107,-0.06484119,0.09430206,-0.3925308,-4.156668,-3.074767,0.5904237,1.452722,0.4169917,-1.382248,-0.001214497,0,4.4,-0.001270473,0.07039663,-0.06540199,-0.06934978,-3.783083,-0.6544007,0.6923704,1.515152,0.2390556,0.0002006516,-0.03242639,0.07433321,-1.004074,0.0125339,0.2881109,0.7992337,1.534002,0.0697093,0.2984061,1.311535,0.3492264,336.3831,183.2303,61.16596,True
0,3.066662,-0.008655414,-0.0627088,0.09427957,-0.3934847,-4.154926,-3.076248,0.5902096,1.452366,0.416991,-1.381956,0.02668233,0.1,4.2,0.001024067,0.133212,-0.05031053,-0.07173864,-3.742758,-0.6945567,0.6920449,1.51513,0.2391291,0.001476437,-0.01544245,0.09354556,-1.002386,0.0123584,0.2880896,0.7990375,1.534073,0.06966805,0.2984802,1.310829,0.3490618,336.4135,183.2557,60.96702,True
0,3.077773,-0.005488195,-0.05415955,0.09739974,-0.394657,-4.153488,-3.077505,0.590011,1.45212,0.416986,-1.382035,-0.007404398,0.1,4.2,1.192093E-07,0.153458,-0.04703758,-0.07362255,-3.719954,-0.7172753,0.6917772,1.515004,0.2391608,0.005890645,0.003691094,0.1074069,-1.000578,0.01263763,0.2877314,0.7987723,1.534181,0.06971335,0.2985741,1.310129,0.3489382,336.3569,183.3242,60.88964,True
0,3.088884,-0.00975953,-0.0509849,0.0963117,-0.3956552,-4.152118,-3.07853,0.5897375,1.451808,0.4169722,-1.382072,-0.003363753,0.1,4.2,-0.0192059,0.1470926,-0.05009924,-0.07503989,-3.711476,-0.7248965,0.6915149,1.514927,0.239203,0.01121777,0.01114066,0.10738,-0.9993395,0.01256772,0.2875348,0.7985389,1.534245,0.06969738,0.2986037,1.309428,0.3488121,336.3368,183.3751,60.8117,True
0,3.099995,-0.01080456,-0.05955732,0.09212177,-0.3964094,-4.149115,-3.08116,0.5896335,1.45151,0.4168465,-1.382123,-0.004647112,0.1,4.2,-0.03412585,0.1375295,-0.04894289,-0.07627293,-3.702924,-0.732454,0.6912507,1.514824,0.2391775,0.01108427,0.005850386,0.09457927,-0.9988761,0.01219262,0.2876262,0.7983416,1.534285,0.06972456,0.2985604,1.308751,0.3486749,336.3352,183.4134,60.71409,True
0,3.111106,-0.006521277,-0.06808537,0.09005933,-0.3972754,-4.146296,-3.083827,0.589313,1.451213,0.4167876,-1.38195,0.01584948,0.1,4.8,-0.04055355,0.1354178,-0.05315918,-0.07775045,-3.69592,-0.7387457,0.6909685,1.514724,0.2392192,0.008822002,0.002687259,0.08181005,-0.9984398,0.01183975,0.287811,0.7981144,1.53441,0.06972265,0.2984704,1.308138,0.3485281,336.3206,183.4533,60.6019,True
0,3.122217,-0.007581554,-0.07447077,0.09224443,-0.39828,-4.143214,-3.086328,0.5890433,1.450898,0.4167275,-1.382028,-0.007258443,0.1,4.8,-0.04046677,0.1257507,-0.04786618,-0.07814354,-3.697941,-0.7370168,0.6908487,1.514035,0.238466,0.01308347,0.01334181,0.08073092,-0.9974571,0.01214361,0.2873093,0.7979439,1.534474,0.06985664,0.2983516,1.30759,0.3483613,336.2949,183.4922,60.53598,True
0,3.133328,-0.008636825,-0.07875293,0.09015122,-0.3991471,-4.140508,-3.088697,0.588727,1.450612,0.4167008,-1.382239,-0.01923181,0.1,4.8,-0.04890788,0.1267904,-0.03713713,-0.0790799,-3.684013,-0.7500111,0.6904618,1.513901,0.2384391,0.01204836,0.02398943,0.08290275,-0.9963424,0.01250194,0.2870224,0.7977224,1.534574,0.06994653,0.298296,1.307076,0.3481669,336.2855,183.5141,60.51927,True
0,3.144439,-0.01290832,-0.0798915,0.08377389,-0.3998252,-4.137835,-3.090786,0.5883725,1.450528,0.4167109,-1.381845,0.03624783,0.1,4.8,-0.0563336,0.1363682,-0.03385136,-0.08048286,-3.670668,-0.7624311,0.6902322,1.514221,0.2390084,0.007868119,0.04634977,0.08940258,-0.9947913,0.01357853,0.28653,0.7975746,1.53471,0.07014203,0.2982295,1.306549,0.3479306,336.2654,183.493,60.50497,True
0,3.15555,-0.01184403,-0.08312843,0.07846957,-0.4004356,-4.135128,-3.093131,0.5879876,1.450322,0.4167137,-1.382014,-0.01587531,0.1,4.8,-0.06056377,0.1374269,-0.02849709,-0.08186557,-3.658562,-0.773525,0.6897844,1.514332,0.2392859,0.009074166,0.06335844,0.1022229,-0.9929687,0.01450677,0.2859175,0.7972807,1.534851,0.07028389,0.2981592,1.305982,0.3476515,336.2336,183.47,60.46721,True
0,3.166661,-0.0161078,-0.08426005,0.07316858,-0.4012196,-4.132227,-3.095508,0.5874773,1.44993,0.4167812,-1.3818,0.01982267,0,4.4,-0.067975,0.1406124,-0.02310077,-0.08311566,-3.644691,-0.7863439,0.6894394,1.51425,0.2393584,0.01450278,0.07504544,0.1107264,-0.9911886,0.01531411,0.2850317,0.79696,1.534895,0.07039571,0.2980771,1.305384,0.3473505,336.2251,183.4337,60.37484,True
0,3.177772,-0.01505917,-0.0767852,0.07522619,-0.4019935,-4.130374,-3.097106,0.5870916,1.449732,0.4167542,-1.38201,-0.01936086,0,4.4,-0.06586687,0.141699,-0.02524836,-0.08473912,-3.632599,-0.7976482,0.6889747,1.514359,0.2395029,0.02092795,0.07822735,0.1138698,-0.9895806,0.01594448,0.2842557,0.796633,1.535039,0.07052302,0.2979648,1.304804,0.3470509,336.243,183.4032,60.23428,True
0,3.188883,-0.01612946,-0.07464866,0.07627441,-0.4028271,-4.12828,-3.098805,0.586653,1.449478,0.416759,-1.381899,0.01028222,0,4.4,-0.0616302,0.1235888,-0.0264047,-0.08553328,-3.628635,-0.8010365,0.6886452,1.514315,0.2396295,0.01225626,0.07187906,0.09902138,-0.9889063,0.01629495,0.28413,0.7963724,1.535079,0.07068872,0.2977832,1.304244,0.3467703,336.2432,183.3434,60.14874,True
0,3.199994,-0.01612946,-0.07464866,0.07627441,-0.4028271,-4.12828,-3.098805,0.586653,1.449478,0.416759,-1.382074,-0.01606731,0,4.4,-0.0616302,0.1235888,-0.0264047,-0.08553328,-3.628635,-0.8010365,0.6886452,1.514315,0.2396295,0.01225626,0.07187906,0.09902138,-0.9889063,0.01629495,0.28413,0.7963724,1.535079,0.07068872,0.297514,1.303674,0.3465211,336.2168,183.2945,60.10012,True
0,3.211105,-0.02149517,-0.06405515,0.0708662,-0.4042455,-4.125229,-3.100945,0.5856429,1.448935,0.4168248,-1.382195,-0.01099242,0,4.4,-0.05647263,0.09168554,-0.04358805,-0.08740068,-3.630096,-0.7985132,0.6879483,1.514101,0.2398789,0.007722124,0.0730194,0.0724355,-0.9877169,0.01773359,0.2834389,0.7958105,1.535341,0.07114577,0.2973172,1.303156,0.3463481,336.2213,183.3146,59.9945,True
0,3.222216,-0.01938767,-0.0566392,0.06547587,-0.4047888,-4.12412,-3.101853,0.5851489,1.448657,0.4168229,-1.381654,0.0495476,0,4.4,-0.07556036,0.095939,-0.03169996,-0.08835037,-3.618003,-0.8089386,0.6874239,1.513979,0.2399991,0.00888662,0.08897773,0.07993037,-0.9861057,0.01910618,0.2823603,0.7954401,1.535458,0.07127166,0.2971603,1.302748,0.3462602,336.2385,183.3215,59.9113,True
0,3.233327,-0.02152735,-0.05562463,0.06014132,-0.4052383,-4.122577,-3.10296,0.584762,1.448353,0.4168048,-1.381819,-0.0154659,0,4.4,-0.09784264,0.1215041,-0.02291631,-0.08994027,-3.600084,-0.8249807,0.6869174,1.513921,0.2400463,0.01334095,0.1027708,0.09803647,-0.9840279,0.02038796,0.2813411,0.7951378,1.535579,0.07145071,0.2966617,1.302287,0.3461094,336.1654,183.3064,59.93003,True
0,3.244438,-0.02155121,-0.04925086,0.057963,-0.4059062,-4.121695,-3.10347,0.5844347,1.448164,0.4166682,-1.382094,-0.02499412,0,4.4,-0.1041947,0.1428038,-0.0185334,-0.09166653,-3.58329,-0.8401961,0.6864004,1.51382,0.239985,0.009188354,0.1133956,0.1077019,-0.9821184,0.02160609,0.2806692,0.7948326,1.53572,0.07160807,0.2961438,1.301806,0.3459631,336.1337,183.3198,59.92299,True
0,3.255549,-0.02371018,-0.03967868,0.05681841,-0.4064777,-4.121401,-3.103407,0.5840048,1.44789,0.4166646,-1.381925,0.01570412,0,4.4,-0.108439,0.1619827,-0.01843895,-0.09366018,-3.567156,-0.8549176,0.6858989,1.513725,0.2400432,0.004942641,0.1187226,0.1088212,-0.9805834,0.02292462,0.2800183,0.7946146,1.535831,0.07178569,0.2956925,1.301334,0.3458456,336.1372,183.3382,59.88772,True
0,3.26666,-0.02484269,-0.01191381,0.06510624,-0.4075063,-4.123276,-3.101413,0.5835437,1.447717,0.4166834,-1.381919,0.0004554398,0,4.1,-0.1041688,0.1736618,-0.02482934,-0.09512065,-3.561031,-0.8607286,0.6855711,1.513058,0.23949,0.0113337,0.1229767,0.1087707,-0.9790035,0.02421612,0.2790085,0.7943579,1.536005,0.0720644,0.2953677,1.30089,0.345748,336.1481,183.389,59.831,True
0,3.277771,-0.02382887,0.005177498,0.07029107,-0.4085449,-4.12447,-3.099972,0.5831422,1.447387,0.4166939,-1.381899,0.001793173,0,4.1,-0.1000085,0.1555893,-0.03557437,-0.09653267,-3.559331,-0.8614429,0.6850951,1.512964,0.2395196,0.007989973,0.1251536,0.09389218,-0.9781055,0.0257798,0.2781493,0.7941796,1.536068,0.07223558,0.2951226,1.300495,0.3456167,336.1525,183.4491,59.7606,True
0,3.288882,-0.02598431,0.01805413,0.08190241,-0.4098472,-4.125816,-3.098383,0.5826817,1.447027,0.4166701,-1.381966,-0.006145972,0,4.1,-0.09592029,0.1172899,-0.0517191,-0.09744719,-3.569286,-0.8504344,0.6847838,1.513124,0.240113,0.005652666,0.1166902,0.07365666,-0.977591,0.02688794,0.2775136,0.7938533,1.536173,0.07244229,0.294839,1.300158,0.3454298,336.1357,183.4585,59.68585,True
0,3.299993,-0.02810853,0.01804845,0.08297057,-0.4108123,-4.125754,-3.098119,0.5822397,1.446754,0.4166703,-1.381909,0.005283791,0,4.1,-0.08121613,0.06515451,-0.07117287,-0.09777636,-3.585161,-0.8341175,0.684314,1.513172,0.2404401,0.0002674758,0.111384,0.06837159,-0.9766675,0.02792324,0.2771376,0.7935283,1.536309,0.07263994,0.294468,1.299922,0.3451964,336.0664,183.447,59.62225,True
0,3.311104,-0.03238198,0.0212049,0.07975195,-0.4116469,-4.126571,-3.096855,0.5817673,1.446358,0.4166603,-1.381904,0.0004134178,0,4.1,-0.06744993,0.03959925,-0.07882126,-0.09822644,-3.597375,-0.821688,0.6839067,1.513036,0.2405543,-0.00721927,0.1103335,0.06524665,-0.9757396,0.02909131,0.2767903,0.7932293,1.536443,0.07300115,0.2940385,1.29976,0.3449359,335.9597,183.4163,59.644,True
0,3.322215,-0.03557432,0.02227552,0.08188187,-0.4127037,-4.126948,-3.096062,0.5813171,1.445986,0.416661,-1.381945,-0.003798268,0,5,-0.06522571,0.04485635,-0.07455021,-0.09857052,-3.600634,-0.8184611,0.6835611,1.512372,0.2400298,-0.003703117,0.1294179,0.09509432,-0.9731521,0.03082556,0.2756414,0.7929028,1.536589,0.07325625,0.293575,1.299624,0.3446527,335.8477,183.3788,59.71189,True
0,3.333326,-0.04516804,0.02437874,0.08187348,-0.4136315,-4.127688,-3.094532,0.5808491,1.445553,0.416661,-1.381772,0.01592548,0,5,-0.08741919,0.09809579,-0.05715452,-0.1007687,-3.579587,-0.8375722,0.6829088,1.512166,0.2400212,0.005178943,0.1516841,0.1291636,-0.9699621,0.03282093,0.274145,0.7925966,1.536783,0.0735209,0.2931372,1.299465,0.3443722,335.7657,183.3219,59.78481,True
0,3.344437,-0.04731043,0.03077639,0.08394793,-0.4146228,-4.128831,-3.092952,0.5803671,1.445094,0.4165375,-1.381839,-0.006235701,0,5,-0.1097243,0.1268297,-0.05582866,-0.1025136,-3.573572,-0.8419839,0.6824902,1.511848,0.2398989,0.008514687,0.1612236,0.1419421,-0.9674998,0.03446716,0.2729482,0.792317,1.536917,0.07364464,0.2926975,1.299253,0.3440918,335.6938,183.2699,59.83539,True
0,3.355548,-0.04731043,0.03077639,0.08394793,-0.4146228,-4.128831,-3.092952,0.5803671,1.445094,0.4165375,-1.381479,0.03304772,0,5,-0.1097243,0.1268297,-0.05582866,-0.1025136,-3.573572,-0.8419839,0.6824902,1.511848,0.2398989,0.008514687,0.1612236,0.1419421,-0.9674998,0.03446716,0.2729482,0.792317,1.536917,0.07364464,0.2922785,1.298973,0.3438182,335.6174,183.2326,59.85977,True
0,3.366659,-0.04834983,0.02336706,0.0904035,-0.4167954,-4.129369,-3.09131,0.5793044,1.44429,0.4163525,-1.382314,-0.07670577,0.1,4.5,-0.1426785,0.1630756,-0.04908675,-0.1072029,-3.551368,-0.8596956,0.6814506,1.511825,0.2404709,0.01146527,0.1548959,0.1184638,-0.9645416,0.0376049,0.270869,0.7917802,1.537098,0.07419729,0.2919551,1.298648,0.3435619,335.5805,183.2377,59.82512,True
0,3.37777,-0.04724937,0.01384929,0.09794082,-0.4181238,-4.128954,-3.091202,0.5786442,1.443871,0.4163415,-1.381337,0.09006419,0.1,4.5,-0.1458948,0.1438807,-0.05337577,-0.1078143,-3.553675,-0.8561131,0.6810849,1.511397,0.2401588,0.006857857,0.1475374,0.08547051,-0.9642294,0.03926618,0.2701351,0.7914999,1.537177,0.07447886,0.2917384,1.298329,0.3433398,335.5725,183.2252,59.78017,True
0,3.388881,-0.04718838,-0.006363373,0.1013086,-0.4193158,-4.126992,-3.092469,0.5780384,1.443445,0.4162331,-1.38176,-0.03956804,0.1,4.5,-0.1396434,0.1204857,-0.06841429,-0.1090724,-3.558861,-0.8495955,0.6807314,1.511174,0.2402275,0.004450038,0.1486845,0.05779879,-0.9640766,0.04133799,0.2689979,0.7913053,1.537285,0.07476497,0.2910851,1.297885,0.3429377,335.4414,183.2442,59.80354,True
0,3.399992,-0.05035572,-0.02023859,0.09930211,-0.4203549,-4.12534,-3.093195,0.57766,1.443162,0.4162643,-1.38196,-0.01779906,0.1,4.5,-0.1279569,0.1108856,-0.06962022,-0.1104397,-3.560374,-0.8468927,0.6802772,1.511342,0.240731,0.001207024,0.1476388,0.05356671,-0.9630981,0.04314015,0.2681079,0.7911456,1.53752,0.07513642,0.290418,1.297358,0.3424654,335.3559,183.2442,59.80383,True
0,3.411103,-0.05457737,-0.03519147,0.09623743,-0.4212578,-4.122992,-3.094592,0.5770898,1.442712,0.4162188,-1.381948,0.001205369,0.1,4.5,-0.125819,0.1194061,-0.06961063,-0.1121265,-3.555913,-0.850019,0.6798598,1.511171,0.2408783,-0.0008077174,0.1582626,0.06427119,-0.9614933,0.04529451,0.2669534,0.7909133,1.537651,0.07542658,0.2898411,1.296758,0.3419804,335.3019,183.2062,59.76455,True
0,3.422215,-0.05883104,-0.0394594,0.09627087,-0.4221952,-4.121712,-3.094902,0.5767184,1.442364,0.4161994,-1.381703,0.02239449,0.3,5,-0.1248031,0.122646,-0.0749348,-0.1142459,-3.551421,-0.8529863,0.6792399,1.511308,0.2413132,0.00370124,0.1709785,0.08770642,-0.9590352,0.04747431,0.2654266,0.7906708,1.537678,0.07564449,0.2894623,1.296095,0.3415237,335.2726,183.1673,59.68661,True
0,3.433326,-0.066284,-0.04053687,0.09735269,-0.4232897,-4.120351,-3.095125,0.5762184,1.441946,0.4162228,-1.38174,-0.00349436,0.3,5,-0.125952,0.1248111,-0.08557215,-0.1162358,-3.55172,-0.8512403,0.6787527,1.511126,0.2414978,0.005968541,0.1698724,0.1015325,-0.9570069,0.0491521,0.2643211,0.790378,1.537839,0.07591891,0.2892944,1.295412,0.3411163,335.2617,183.1308,59.57409,True
0,3.444437,-0.06630656,-0.02981973,0.1057836,-0.4247603,-4.120171,-3.094578,0.5756946,1.441612,0.4161699,-1.381671,0.006351335,0.3,5,-0.1334046,0.1237683,-0.08232248,-0.1180393,-3.547971,-0.8529271,0.6780417,1.511089,0.241749,0.002735257,0.1688175,0.09836704,-0.9555965,0.05097104,0.2634111,0.7900522,1.537925,0.07623291,0.2891555,1.294697,0.3407054,335.2544,183.0929,59.4656,True
0,3.455548,-0.0684517,-0.02228526,0.1153138,-0.4263966,-4.120017,-3.093842,0.5752213,1.441241,0.4162135,-1.381545,0.01156915,0.3,5,-0.1375425,0.1183991,-0.06632604,-0.1190795,-3.542213,-0.8570055,0.6776704,1.510891,0.24189,0.002646342,0.1656479,0.08983557,-0.9545131,0.05278226,0.2623451,0.7899268,1.537982,0.07654572,0.2890291,1.294,0.3402937,335.2432,183.0678,59.3426,True
0,3.466659,-0.06632419,-0.0212139,0.1153026,-0.4276504,-4.119372,-3.093771,0.5747574,1.440889,0.4162223,-1.38188,-0.03077549,0.1,5.8,-0.1439249,0.1066943,-0.06311461,-0.1202348,-3.540552,-0.8567711,0.6772135,1.5107,0.2419336,0.006768391,0.1592878,0.07591785,-0.9538761,0.0544422,0.2610918,0.7897472,1.538091,0.07682419,0.2888006,1.29334,0.339846,335.2117,183.055,59.21728,True
0,3.47777,-0.06737669,-0.02549027,0.1142747,-0.4288616,-4.118046,-3.094203,0.5742802,1.4404,0.4161651,-1.381783,0.00914907,0.1,5.8,-0.1407265,0.1184161,-0.0641697,-0.1221059,-3.535882,-0.8599419,0.67698,1.510462,0.2420461,0.008766472,0.1678519,0.06100605,-0.9531304,0.05698512,0.2593104,0.7894989,1.538121,0.07721257,0.2884769,1.292764,0.3393666,335.1493,183.0491,59.10078,True
0,3.488881,-0.0673299,-0.04146,0.1154758,-0.4301634,-4.115544,-3.095714,0.5737638,1.440003,0.4160993,-1.382003,-0.02013253,0.1,5.8,-0.1269545,0.1099206,-0.07175392,-0.1236314,-3.534378,-0.860351,0.6765476,1.510289,0.2420352,0.007571086,0.1657591,0.04822776,-0.9525791,0.05910633,0.2580172,0.7893333,1.538191,0.0775063,0.2881306,1.292286,0.3388931,335.0638,183.0217,59.03592,True
