loc,t,aDotUA,bDotUA,gDotUA,aUA,bUA,gUA,xUA,yUA,zUA,qE,qDotE,emgA,emgB,aDotSH,bDotSH,gDotSH,aSH,bSH,gSH,xSH,ySH,zSH,aDotUB,bDotUB,gDotUB,aUB,bUB,gUB,xUB,yUB,zUB,xHand,yHand,zHand,aHand,bHand,gHand,enable
0,0,0.3237668,-0.5252604,0.2838041,-1.425636,-4.195672,-2.912463,0.5800724,1.4487,0.4590168,-0.8831506,0.06267186,77,26.52,-0.4953412,0.6291959,-0.0962802,-0.6374825,-3.810373,-0.3001955,0.6610851,1.715267,0.3613911,-0.2250166,0.5832928,0.2416428,-0.965928,0.3194132,0.01190326,0.8381017,1.787275,0.1907382,0.3880941,1.184602,0.2880983,321.1555,240.2642,350.8107,False
0,0.01111111,0.3130143,-0.505047,0.2848153,-1.427879,-4.189931,-2.91629,0.5782114,1.448094,0.4580705,-0.8832267,-0.007493508,74.52,25.79,-0.4657276,0.5845909,-0.1212869,-0.6412604,-3.80284,-0.3018656,0.6587449,1.714941,0.3611519,-0.2197445,0.5758293,0.2383859,-0.963235,0.32684,0.01004065,0.8367689,1.78768,0.1916678,0.3883469,1.182833,0.2866824,321.4508,240.1426,350.7104,False
0,0.02222222,0.2926482,-0.4774762,0.2772305,-1.429664,-4.184974,-2.919546,0.5768363,1.447339,0.4573586,-0.8825183,0.06490856,72.2,25.1,-0.4319117,0.5410604,-0.1516461,-0.6452722,-3.79687,-0.302819,0.6568353,1.714444,0.36098,-0.2090919,0.5576945,0.2414394,-0.9603918,0.3336343,0.008109326,0.8355639,1.787909,0.192482,0.3885742,1.181314,0.285162,321.617,239.9657,350.6139,False
0,0.03333334,0.2776032,-0.4520822,0.2600504,-1.430758,-4.180053,-2.922917,0.575635,1.446485,0.4562626,-0.8826962,-0.01681816,70.03,24.45,-0.4096575,0.5315416,-0.1657501,-0.6492031,-3.789038,-0.3052635,0.6547761,1.714038,0.3606682,-0.1952473,0.5459533,0.243414,-0.9575204,0.3407021,0.00581155,0.8343121,1.788121,0.1932418,0.3887369,1.17996,0.2835131,321.7453,239.8153,350.4684,False
0,0.04444445,0.2679026,-0.4298457,0.2428845,-1.431878,-4.175499,-2.926311,0.5744535,1.445637,0.4553225,-0.8823308,0.03361358,68,23.84,-0.3744681,0.5176697,-0.1618667,-0.6523961,-3.781623,-0.3082356,0.6530871,1.713637,0.3604627,-0.1836042,0.5257149,0.2379287,-0.9550633,0.3472059,0.003650129,0.8332278,1.788319,0.1939523,0.3888657,1.178737,0.2817168,321.843,239.6408,350.3425,False
0,0.05555556,0.2667396,-0.4107496,0.2321308,-1.43323,-4.170904,-2.929854,0.5731878,1.444881,0.4545455,-0.8824805,-0.01393475,65.6,23.11,-0.3476737,0.4941512,-0.1441244,-0.6548942,-3.77457,-0.310845,0.6512387,1.713318,0.3603194,-0.1762648,0.5033367,0.2314247,-0.9526148,0.3530466,0.002137453,0.8321522,1.788454,0.1946621,0.389083,1.177612,0.2798713,321.8483,239.4395,350.2296,False
0,0.06666667,0.2697971,-0.3809789,0.219172,-1.434481,-4.167212,-2.933554,0.5721322,1.44418,0.4538288,-0.8826472,-0.01498355,63.36,22.42,-0.3219916,0.4589049,-0.1306787,-0.656987,-3.769167,-0.3123648,0.6496758,1.712953,0.3602042,-0.1582747,0.4735036,0.2226566,-0.9504651,0.3584304,7.43022E-05,0.8311438,1.788702,0.1953852,0.3893799,1.176456,0.2779916,321.8162,239.2144,350.1403,False
0,0.07777778,0.2707288,-0.3543791,0.2147586,-1.435996,-4.16358,-2.937003,0.5710592,1.443404,0.4531283,-0.8828539,-0.01874705,61.26,21.79,-0.2985591,0.4312255,-0.1331558,-0.6598397,-3.763727,-0.3141723,0.6481344,1.71243,0.3600736,-0.146659,0.4511166,0.2171864,-0.9480166,0.3637781,-0.001661014,0.8301511,1.788814,0.1959624,0.3897822,1.175222,0.2761748,321.8279,238.9848,349.9845,False
0,0.08888889,0.2727005,-0.3182001,0.2060267,-1.437419,-4.160924,-2.940537,0.5702708,1.44267,0.4524353,-0.8831766,-0.02940031,59.29,21.2,-0.2857585,0.4152228,-0.1333087,-0.6620981,-3.758334,-0.3159699,0.6466932,1.711898,0.3597512,-0.1413808,0.4362076,0.2139047,-0.9457721,0.3692795,-0.003508715,0.8292199,1.789003,0.1965837,0.3903035,1.173906,0.2745187,321.9219,238.7791,349.7699,False
0,0.1,0.1253308,-0.2379138,0.198302,-1.439284,-4.160266,-2.937205,0.5698645,1.441841,0.4519916,-0.8829668,0.01939572,56.99,20.91,-0.26447,0.4003373,-0.1367755,-0.6650691,-3.752916,-0.3181181,0.6454011,1.711517,0.3594427,-0.1287156,0.4085042,0.2073437,-0.9435505,0.3737384,-0.005055745,0.8283362,1.789188,0.1969845,0.3909375,1.172507,0.2731152,322.0708,238.6185,349.5496,False
0,0.1111111,0.07936356,-0.19874,0.1938852,-1.441098,-4.158474,-2.936848,0.5692086,1.441117,0.451422,-0.8831532,-0.01722211,54.83,20.63,-0.2506319,0.3801069,-0.1380543,-0.6676715,-3.748024,-0.3196233,0.6443597,1.711029,0.3590269,-0.118187,0.3914691,0.1986854,-0.941592,0.3786669,-0.006846987,0.8276699,1.789225,0.1974883,0.3916116,1.170993,0.2719638,322.2783,238.5155,349.3719,False
0,0.1222222,0.1387855,-0.1452601,0.1892706,-1.443044,-4.158151,-2.940409,0.5687052,1.440458,0.4509139,-0.8767717,0.5837629,52.81,20.37,-0.2419591,0.3544405,-0.1201479,-0.6692806,-3.743742,-0.3205021,0.6433491,1.710659,0.3586535,-0.112951,0.3733688,0.1922058,-0.9396937,0.3830735,-0.008398279,0.8269799,1.789356,0.1979141,0.3923531,1.16941,0.2711112,322.4842,238.4706,349.2176,False
0,0.1333333,0.1983195,-0.1206112,0.1730837,-1.444153,-4.157081,-2.945175,0.5681276,1.439976,0.4504147,-0.8793555,-0.2409595,50.92,20.13,-0.2289959,0.3362291,-0.1001131,-0.6707022,-3.739197,-0.3219855,0.6425008,1.710287,0.358376,-0.1035715,0.3403651,0.1771379,-0.9381166,0.3864291,-0.009454221,0.8264682,1.789514,0.1981053,0.3927625,1.16789,0.2703361,322.9985,238.5902,349.0249,False
0,0.1444445,0.2514801,-0.102411,0.148423,-1.444797,-4.15648,-2.950065,0.5679649,1.439532,0.4499457,-0.8842195,-0.4417689,49.15,19.91,-0.2064534,0.2999016,-0.08025405,-0.6715145,-3.736257,-0.3227791,0.6417246,1.71004,0.3581395,-0.1015804,0.3244085,0.1653643,-0.9367195,0.3902221,-0.01064572,0.825927,1.789626,0.1983941,0.3928041,1.166724,0.2695191,323.4391,238.6223,348.9799,False
0,0.1555556,0.2160984,-0.05257992,0.133281,-1.445917,-4.157196,-2.950864,0.5679308,1.439153,0.4496267,-0.8857972,-0.1406952,47.23,20.03,-0.194798,0.2818354,-0.08791076,-0.6736391,-3.733067,-0.3235554,0.6409171,1.709638,0.3579047,-0.09111524,0.3031199,0.1503037,-0.9355424,0.3935743,-0.01189687,0.8254848,1.789705,0.1985373,0.3927824,1.166004,0.2688244,323.4776,238.6327,348.954,False
0,0.1666667,0.18179,-0.004883968,0.1149499,-1.446813,-4.158635,-2.951417,0.5681252,1.438761,0.4494553,-0.8858079,-0.0003909066,45.44,20.15,-0.1630409,0.2521118,-0.110712,-0.6761857,-3.731569,-0.3240649,0.6404581,1.709435,0.3575995,-0.07953946,0.2786272,0.1394859,-0.934368,0.396456,-0.01312592,0.8251476,1.789817,0.1986902,0.3929222,1.165535,0.2683803,323.2305,238.6464,348.9223,False
0,0.1777778,0.191222,0.02917305,0.1030384,-1.447797,-4.159801,-2.953747,0.5684101,1.438426,0.449357,-0.8816555,0.3793522,43.75,20.25,-0.1458345,0.2243117,-0.09182049,-0.6769825,-3.729406,-0.3246678,0.6400278,1.709357,0.3571839,-0.07864383,0.2541519,0.1277156,-0.9331881,0.3990233,-0.01361781,0.8248497,1.7898,0.1987212,0.3933613,1.165057,0.2682737,322.9276,238.7011,348.8641,False
0,0.1888889,0.2135136,0.04518231,0.09120511,-1.448536,-4.160659,-2.956832,0.5686498,1.438072,0.4492099,-0.8810797,0.0494356,42.18,20.35,-0.1370999,0.2060727,-0.06748758,-0.6773937,-3.726938,-0.3253589,0.6395549,1.709196,0.3568528,-0.07558562,0.2360648,0.1159235,-0.932394,0.4015437,-0.01443034,0.8245933,1.789858,0.1987798,0.3938595,1.164401,0.2683796,322.9502,238.8797,348.7359,False
0,0.2,0.2570895,0.06659358,0.07932348,-1.449234,-4.161773,-2.961214,0.569233,1.437782,0.4493256,-0.8829657,-0.1724017,40.54,20.88,-0.1177646,0.195333,-0.04960552,-0.6779561,-3.724087,-0.3269765,0.6392027,1.709015,0.356478,-0.06835368,0.1902771,0.1019101,-0.9316291,0.4022733,-0.0141824,0.8245498,1.789833,0.1985686,0.3943282,1.163653,0.2686391,323.1695,239.0497,348.6627,False
0,0.2111111,0.2463314,0.08994319,0.07175118,-1.450055,-4.16344,-2.963339,0.5698617,1.437478,0.4494011,-0.8839325,-0.08685423,39.01,21.37,-0.09435505,0.2049327,-0.05296722,-0.6796419,-3.720591,-0.3293856,0.6390406,1.708951,0.3561985,-0.06420122,0.1668498,0.0954414,-0.9305484,0.403822,-0.01445005,0.824497,1.789772,0.1984768,0.3948567,1.162896,0.269052,323.3539,239.1723,348.6812,False
0,0.2222222,0.218425,0.1366375,0.061947,-1.450972,-4.16646,-2.964214,0.5708307,1.43733,0.449729,-0.8852203,-0.1172245,37.57,21.83,-0.06891121,0.215656,-0.06698622,-0.6816958,-3.717075,-0.332085,0.639011,1.708952,0.3559351,-0.05585602,0.140235,0.08145162,-0.9301149,0.4046299,-0.01458613,0.8245856,1.789769,0.1982155,0.3955368,1.162111,0.2696087,323.449,239.274,348.732,False
0,0.2333333,0.1701899,0.2056008,0.04885441,-1.451942,-4.170766,-2.963979,0.5721282,1.43728,0.4502707,-0.883003,0.2035432,36.23,22.26,-0.04654112,0.2135237,-0.06719305,-0.6831536,-3.714044,-0.3346872,0.6390408,1.708913,0.3556318,-0.04642629,0.1168153,0.0685349,-0.9296451,0.4054129,-0.0149153,0.8246567,1.789852,0.1980088,0.3965632,1.161283,0.2704002,323.4524,239.4001,348.7367,False
0,0.2444444,0.1454781,0.2512081,0.03052205,-1.452372,-4.174944,-2.96441,0.573559,1.437152,0.4506972,-0.8816214,0.1244175,34.97,22.67,-0.01653898,0.1739928,-0.04741367,-0.6831264,-3.713345,-0.3360411,0.6393839,1.709069,0.3553243,-0.03610167,0.07318125,0.04170324,-0.9301266,0.4044672,-0.01431715,0.8249142,1.789816,0.197547,0.3977887,1.160329,0.2713359,323.6224,239.6118,348.6573,False
0,0.2555556,0.1185895,0.3096124,0.01959051,-1.453147,-4.179915,-2.964353,0.5752366,1.437064,0.4512277,-0.8806887,0.0844937,33.93,23.28,0.02944661,0.107836,-0.02683956,-0.6823993,-3.71466,-0.3369136,0.6400508,1.709223,0.3551643,-0.02356889,0.02526521,0.02336652,-0.9304046,0.4029016,-0.01355256,0.8252394,1.789834,0.1968954,0.3991346,1.159423,0.2724247,323.9592,239.8652,348.513,False
0,0.2666667,0.1034514,0.3617219,0.01400014,-1.454136,-4.185553,-2.964403,0.5768722,1.43701,0.4517272,-0.8814759,-0.07240172,32.95,23.85,0.08377762,0.02258989,-0.02775234,-0.6820361,-3.719011,-0.3363152,0.6408619,1.709407,0.3551202,-0.007747751,-0.03012414,0.01563352,-0.9304158,0.4004746,-0.0126138,0.8256707,1.789788,0.1961918,0.4004464,1.158725,0.2736501,324.3437,240.1476,348.3752,False
0,0.2777778,0.08396488,0.4361316,0.001903761,-1.454991,-4.192608,-2.964075,0.578876,1.437222,0.4522736,-0.8813955,0.008209014,32.03,24.38,0.1423481,-0.06902263,-0.02978598,-0.6811881,-3.724861,-0.3352853,0.6419457,1.709669,0.3551059,0.01228692,-0.09938198,0.00676881,-0.9304552,0.3962825,-0.01078367,0.8261958,1.789722,0.1954057,0.4016242,1.158281,0.274969,324.5851,240.4086,348.3309,False
0,0.2888889,0.06989004,0.4882194,-0.007947512,-1.455781,-4.19972,-2.963624,0.5808944,1.437345,0.45294,-0.8817433,-0.03179609,31.17,24.88,0.199819,-0.1595617,-0.03713494,-0.6803615,-3.732314,-0.3334941,0.6430613,1.709972,0.3550351,0.02379072,-0.1355803,-0.009401185,-0.9310443,0.3930145,-0.009474196,0.82671,1.789707,0.1947062,0.4026361,1.158123,0.2763574,324.6952,240.7395,348.2942,False
0,0.3,0.1579609,0.5726904,-0.01595141,-1.456907,-4.208812,-2.967168,0.5833809,1.437649,0.4537003,-0.8817332,0.001299438,30.84,25.49,0.2317726,-0.2064355,-0.03764675,-0.6795167,-3.738385,-0.3324488,0.6442661,1.710271,0.3549924,0.04583006,-0.1930901,-0.03423889,-0.9321373,0.3878073,-0.007648865,0.8273566,1.789564,0.1937494,0.403464,1.158244,0.2777883,324.7073,241.1552,348.2368,False
0,0.3111111,0.2068296,0.6048083,-0.0225695,-1.457719,-4.216324,-2.970333,0.5856217,1.437834,0.4543924,-0.8817614,-0.002486295,30.53,26.06,0.2808272,-0.2703817,-0.03199478,-0.6780515,-3.745844,-0.3312988,0.6456882,1.710584,0.3547006,0.06368789,-0.2484782,-0.05050768,-0.9330417,0.3821265,-0.005414473,0.8281008,1.789443,0.1927691,0.4041973,1.158695,0.2793218,324.6356,241.6212,348.1609,False
0,0.3222222,0.1778326,0.657877,-0.03666734,-1.458382,-4.225396,-2.970191,0.5884938,1.438222,0.4552088,-0.8859975,-0.3872819,30.24,26.59,0.3044281,-0.3056314,-0.01319917,-0.676052,-3.752595,-0.3302389,0.6471583,1.710957,0.3546007,0.07627761,-0.3038698,-0.06140815,-0.934059,0.3755656,-0.002793123,0.8289907,1.78932,0.1916549,0.4048626,1.159415,0.2809906,324.4816,242.1083,348.0749,False
0,0.3333333,0.1414299,0.6992136,-0.04536575,-1.459105,-4.23442,-2.969297,0.5913016,1.43848,0.4559693,-0.8856864,0.03165496,29.96,27.08,0.3344851,-0.3291956,0.0130589,-0.6736429,-3.758626,-0.3300727,0.6488351,1.711428,0.3542824,0.08355966,-0.3400755,-0.0732725,-0.9351174,0.3695087,-0.0002822951,0.8298088,1.78919,0.1905484,0.4057817,1.160306,0.2830024,324.0812,242.6533,347.9827,False
0,0.3444445,0.09938231,0.8130047,-0.05656195,-1.460832,-4.247698,-2.967205,0.594949,1.439126,0.4573593,-0.8822318,0.3150323,29.7,27.54,0.3655052,-0.3388534,0.02765625,-0.6716679,-3.764151,-0.3307449,0.6508218,1.711873,0.3540695,0.09714666,-0.3869271,-0.09268624,-0.9368436,0.362132,0.002519883,0.8308492,1.789037,0.1892955,0.4070113,1.160981,0.285335,323.684,243.222,347.9446,False
0,0.3555556,-0.02338785,0.8742703,-0.05886792,-1.462325,-4.259228,-2.961785,0.5980336,1.439519,0.4583271,-0.8811026,0.1005744,30.09,27.91,0.3912933,-0.3741337,0.05282527,-0.6685669,-3.771538,-0.3301534,0.6529303,1.712409,0.353977,0.1160118,-0.4359027,-0.1164176,-0.9389374,0.35438,0.005211274,0.8320084,1.788841,0.1879156,0.4085,1.161363,0.2879147,323.5979,243.8421,347.9259,False
0,0.3666667,-0.1198407,1.013452,-0.05524845,-1.464747,-4.27523,-2.955161,0.6020861,1.439655,0.45925,-0.8804959,0.05501742,30.46,28.25,0.4213281,-0.4094101,0.07688914,-0.6652443,-3.77933,-0.3295175,0.6552872,1.712987,0.3539259,0.1296269,-0.480625,-0.1337007,-0.9410961,0.3460955,0.008126636,0.8332095,1.788603,0.1864648,0.410136,1.161558,0.290661,323.7839,244.4736,347.869,False
0,0.3777778,-0.1460427,1.169984,-0.04753359,-1.467972,-4.292999,-2.950918,0.6060598,1.43987,0.4602757,-0.8772942,0.2926363,30.8,28.57,0.4619353,-0.4606177,0.09119654,-0.6616911,-3.788842,-0.3284138,0.6577261,1.713579,0.3538699,0.1422795,-0.5136542,-0.1413467,-0.9428133,0.3377547,0.01112083,0.8343072,1.788431,0.1850781,0.4118867,1.161889,0.2936738,324.1028,245.2676,347.6613,False
0,0.3888889,-0.1538778,1.262696,-0.03631851,-1.47103,-4.309774,-2.947569,0.6101152,1.43989,0.4608839,-0.8768095,0.04226451,31.12,28.87,0.4844403,-0.4958467,0.1068016,-0.6581379,-3.798023,-0.3271203,0.6601192,1.71419,0.3538897,0.1601293,-0.5551813,-0.1618556,-0.9453396,0.3285896,0.01403832,0.8357638,1.788202,0.1834605,0.4131788,1.162313,0.2966275,324.5034,246.1205,347.5464,False
0,0.4,-0.1587101,1.400082,-0.03918388,-1.474342,-4.32977,-2.943684,0.6147627,1.440207,0.4617743,-0.8799638,-0.287951,31.42,29.15,0.5326541,-0.5396816,0.1381241,-0.653242,-3.80829,-0.3265437,0.6628902,1.714825,0.3539026,0.1779743,-0.6222877,-0.1781608,-0.9480907,0.3173284,0.01804771,0.8371835,1.787961,0.1816874,0.413944,1.163175,0.2995015,324.7277,247.145,347.3779,False
0,0.4111111,-0.1688929,1.540644,-0.0420568,-1.477922,-4.351185,-2.939409,0.6198539,1.440217,0.4625111,-0.8814935,-0.1369696,32.37,29.68,0.6009551,-0.6036664,0.1521297,-0.648468,-3.820701,-0.3255142,0.6657684,1.715551,0.3538861,0.1843739,-0.6521323,-0.1719008,-0.9499139,0.3075324,0.02158545,0.8385791,1.787721,0.1800406,0.4142914,1.164623,0.3023722,324.548,248.3207,347.1533,False
0,0.4222222,-0.1951269,1.70135,-0.05033815,-1.481825,-4.374793,-2.93431,0.6251574,1.440239,0.4632654,-0.8815883,-0.007598681,33.26,30.17,0.6604556,-0.6728272,0.1342231,-0.6444961,-3.835554,-0.3230044,0.6687063,1.716116,0.3539031,0.1959296,-0.6819528,-0.183799,-0.9525232,0.2970587,0.0250979,0.8400229,1.787417,0.1782961,0.4145042,1.166561,0.3052679,323.9917,249.5287,346.9629,False
0,0.4333333,-0.215964,1.842891,-0.06172156,-1.486055,-4.399754,-2.929036,0.6304836,1.440357,0.4639437,-0.8814419,0.01340921,34.09,30.63,0.6804905,-0.7046783,0.1062013,-0.6410261,-3.849486,-0.3205618,0.6716483,1.716955,0.3540468,0.2073835,-0.7064195,-0.2074048,-0.9558165,0.286713,0.02839649,0.8416137,1.787107,0.1765387,0.4148816,1.168928,0.3083865,323.253,250.8419,346.6307,False
0,0.4444444,-0.2205076,1.912074,-0.06954223,-1.489918,-4.42287,-2.9246,0.6356068,1.440568,0.4646816,-0.8809279,0.04702124,34.86,31.06,0.7036535,-0.7343543,0.07495665,-0.6383885,-3.86433,-0.3173583,0.6748127,1.717527,0.3540468,0.2126066,-0.7191921,-0.2160071,-0.9587849,0.2765058,0.0317289,0.8431093,1.786803,0.1748126,0.4154403,1.171408,0.3118092,322.4673,252.3016,346.1942,False
0,0.4555556,-0.2154496,1.972719,-0.0879485,-1.493448,-4.446065,-2.920651,0.6408602,1.440583,0.4653525,-0.8809588,-0.003017075,36.49,32.13,0.7248334,-0.7651768,0.05971047,-0.635149,-3.87878,-0.3142977,0.678177,1.718062,0.3538902,0.2263228,-0.7383745,-0.2268395,-0.9618768,0.2660117,0.03483282,0.8447062,1.786495,0.1730318,0.4160963,1.173773,0.3156119,321.8402,253.8918,345.6872,False
0,0.4666667,-0.2229679,1.977906,-0.1071375,-1.496517,-4.467689,-2.916253,0.646273,1.440703,0.4659593,-0.8817812,-0.07494469,38.01,33.13,0.7418019,-0.7789838,0.05097076,-0.6320949,-3.893276,-0.3114346,0.6814208,1.718604,0.353838,0.2337363,-0.7522305,-0.2290732,-0.9648068,0.2553561,0.03804379,0.8462714,1.78616,0.1712253,0.4167795,1.175924,0.3198246,321.4142,255.5211,345.2459,False
0,0.4777778,-0.2452435,1.948938,-0.1282642,-1.499177,-4.488562,-2.911227,0.6515795,1.440886,0.4665434,-0.8824395,-0.05940592,39.43,34.07,0.7983372,-0.798208,0.06102624,-0.6283665,-3.908087,-0.3100353,0.6850388,1.719162,0.3537023,0.2506794,-0.7788813,-0.2357046,-0.9681773,0.2437757,0.04118632,0.8481189,1.78572,0.1691573,0.4175588,1.177822,0.3243985,321.0604,257.0328,345.0106,False
0,0.4888889,-0.2802786,1.908193,-0.150377,-1.501537,-4.508792,-2.905379,0.6570412,1.441111,0.4671993,-0.8819633,0.04401072,40.77,34.95,0.8152116,-0.8140943,0.04268151,-0.6257166,-3.923746,-0.3069115,0.6884404,1.719538,0.3535182,0.2644579,-0.8140503,-0.2380524,-0.9713635,0.2315448,0.04465535,0.8499098,1.785246,0.1671522,0.4185828,1.179446,0.3292697,320.6928,258.4943,344.9098,False
0,0.5,-0.3046227,1.864313,-0.1692918,-1.503698,-4.528234,-2.899784,0.6622356,1.441444,0.4677136,-0.8812938,0.06083185,42.01,35.77,0.7932006,-0.8925314,-0.03741288,-0.6249874,-3.945816,-0.2973238,0.6920457,1.72005,0.3533998,0.2792437,-0.8417525,-0.2467812,-0.9748474,0.2192925,0.04795661,0.8516623,1.784763,0.1651855,0.4199969,1.180854,0.3343021,320.4107,259.9151,344.8975,False
0,0.5111111,-0.3383917,1.78089,-0.2060962,-1.504445,-4.545563,-2.893856,0.6673193,1.441903,0.4680142,-0.8805204,0.070325,44.14,37.37,0.796287,-0.9073853,-0.04921802,-0.6226428,-3.963167,-0.291986,0.6955745,1.720496,0.3531661,0.2887355,-0.8534762,-0.2543585,-0.9784001,0.2076708,0.0510512,0.8534492,1.784334,0.1632891,0.4217461,1.182104,0.3393341,320.2766,261.2547,344.9114,False
0,0.5222223,-0.3625771,1.692169,-0.2439613,-1.504642,-4.562378,-2.887877,0.6723866,1.442538,0.4681907,-0.8808656,-0.03191487,46.14,38.87,0.8165915,-0.921271,-0.04200669,-0.6197714,-3.981188,-0.2872352,0.6992856,1.721078,0.3530126,0.2982403,-0.8662608,-0.2608714,-0.9820976,0.1956351,0.05408108,0.8553069,1.783818,0.1612964,0.423725,1.183327,0.3442411,320.2773,262.5182,344.9073,False
0,0.5333334,-0.379277,1.598161,-0.2796634,-1.504257,-4.578014,-2.881941,0.6770818,1.443281,0.4684198,-0.8806956,0.01611646,48.01,40.27,0.8178833,-0.9107347,-0.01533298,-0.6163215,-3.996833,-0.2837332,0.7033099,1.721592,0.3526385,0.3078167,-0.875866,-0.2620699,-0.9857802,0.1835234,0.05687767,0.8573232,1.783241,0.1591463,0.4257427,1.184618,0.3488905,320.3109,263.6834,344.9365,False
0,0.5444446,-0.392849,1.527733,-0.2909921,-1.504581,-4.593235,-2.876013,0.6817222,1.443954,0.4687304,-0.8808485,-0.01409913,49.76,41.59,0.8099871,-0.8780578,0.0562771,-0.6111411,-4.010039,-0.2817156,0.7072608,1.722098,0.3521879,0.3226236,-0.8971786,-0.2697189,-0.9897148,0.1707502,0.05974269,0.8593005,1.782669,0.1570525,0.4277287,1.186099,0.3531782,320.2892,264.6627,345.0485,False
0,0.5555557,-0.4359922,1.39749,-0.3104931,-1.503744,-4.605503,-2.869007,0.6860378,1.44457,0.4690154,-0.881101,-0.0227543,52.73,43.79,0.8007857,-0.8740138,0.1011373,-0.6058329,-4.024956,-0.2780644,0.7113098,1.722692,0.35181,0.3329091,-0.9280124,-0.3029219,-0.9948984,0.1574966,0.06288682,0.8615656,1.782064,0.154711,0.429626,1.187887,0.3570936,320.1824,265.5131,345.1201,False
0,0.5666668,-0.459143,1.336659,-0.3165178,-1.503886,-4.619234,-2.862572,0.6904498,1.445132,0.4693511,-0.8813444,-0.02188484,55.51,45.84,0.7787188,-0.8752418,0.1364852,-0.6007697,-4.04029,-0.2732765,0.7150347,1.723038,0.3514178,0.3380727,-0.9428916,-0.318998,-0.9997193,0.1449204,0.0656938,0.8635466,1.781484,0.1525865,0.4313166,1.189987,0.360687,319.9644,266.2816,345.0903,False
0,0.577778,-0.5087922,1.229836,-0.3329381,-1.502754,-4.630139,-2.854589,0.694384,1.44586,0.4695992,-0.8803515,0.0912312,58.11,47.76,0.7543964,-0.8582957,0.1570233,-0.5960447,-4.054349,-0.2691556,0.7189281,1.723493,0.3509555,0.3421876,-0.9524328,-0.3318746,-1.004683,0.1327652,0.06837133,0.8657448,1.781013,0.1504378,0.4327947,1.192364,0.3640203,319.5774,267.043,344.9936,False
0,0.5888891,-0.5405107,1.17641,-0.3421978,-1.502278,-4.642546,-2.847111,0.6986185,1.446608,0.4697862,-0.8811718,-0.07575087,60.55,49.55,0.740562,-0.863632,0.1592416,-0.591936,-4.070149,-0.2637435,0.7227984,1.723975,0.3505542,0.3443845,-0.9556421,-0.3265908,-1.008845,0.1205759,0.07089468,0.8676436,1.78041,0.1484029,0.4340203,1.19493,0.3670987,319.0977,267.6863,344.9434,False
0,0.6000003,-0.5860045,1.095177,-0.3576945,-1.500887,-4.652855,-2.838464,0.7023914,1.447383,0.4699461,-0.8798493,0.1219857,62.83,51.24,0.726527,-0.8667816,0.1412746,-0.5882278,-4.087074,-0.2570587,0.7268333,1.724597,0.3500526,0.3486607,-0.9588497,-0.3245088,-1.013067,0.1083434,0.0734103,0.8696393,1.779761,0.1463277,0.435095,1.197667,0.3700256,318.5381,268.3414,344.8317,False
0,0.6111114,-0.6166497,1.038565,-0.3637485,-1.499909,-4.663428,-2.830235,0.7062267,1.448209,0.4699762,-0.8806211,-0.07156251,66.63,53.74,0.703086,-0.8625038,0.1404243,-0.5845809,-4.102534,-0.251151,0.7310331,1.724966,0.3494713,0.3550391,-0.9524577,-0.3288141,-1.017536,0.09666596,0.07536426,0.8716503,1.779142,0.1443017,0.4359926,1.200537,0.3728222,318.0298,268.9012,344.7896,False
0,0.6222225,-0.6631364,0.9403005,-0.3759587,-1.497819,-4.671504,-2.820747,0.7096646,1.449026,0.4699943,-0.8797774,0.07819427,70.19,56.08,0.6917422,-0.8520597,0.1831889,-0.5790468,-4.116966,-0.2462998,0.7351453,1.725339,0.3488741,0.3570329,-0.9481651,-0.3437381,-1.022575,0.08497774,0.07745964,0.8737185,1.77843,0.1422505,0.4368596,1.203586,0.3755837,317.4846,269.4514,344.7401,False
0,0.6333337,-0.6948244,0.8815738,-0.380925,-1.49635,-4.680396,-2.811744,0.7132186,1.449702,0.4700933,-0.8804661,-0.06351291,73.51,58.28,0.6866534,-0.858605,0.2130537,-0.5732198,-4.13272,-0.2403207,0.7392154,1.725752,0.3483498,0.3612219,-0.9534808,-0.3544329,-1.027594,0.0727035,0.07948364,0.8756632,1.777691,0.1402597,0.4375826,1.206734,0.3783157,316.9651,269.9445,344.7665,False
0,0.6444448,-0.7478483,0.8227736,-0.3794875,-1.494781,-4.688299,-2.80097,0.7165424,1.450338,0.4701004,-0.8795052,0.0887634,76.62,60.33,0.6707827,-0.8938214,0.2258033,-0.5677795,-4.151388,-0.2314495,0.7432895,1.726023,0.3477626,0.3589855,-0.9555833,-0.3650698,-1.032835,0.06076735,0.08172842,0.8777281,1.776922,0.1382532,0.4382301,1.209988,0.3810088,316.3995,270.4067,344.8652,False
0,0.655556,-0.7743304,0.8024876,-0.3740156,-1.494001,-4.697547,-2.791314,0.7198678,1.450939,0.4700589,-0.8803185,-0.07495509,81.26,62.99,0.6525936,-0.9076113,0.2173935,-0.5635696,-4.169309,-0.2228618,0.7473449,1.726301,0.3471472,0.3568042,-0.9513018,-0.3746046,-1.037957,0.04905689,0.08367599,0.8796993,1.776106,0.1363716,0.4387126,1.213285,0.383595,315.8349,270.7504,345.0575,False
0,0.6666671,-0.8009735,0.8110092,-0.3537902,-1.494342,-4.707421,-2.780706,0.7229786,1.451464,0.4699323,-0.8789976,0.1218031,85.61,65.47,0.6322424,-0.9032862,0.2048085,-0.5596718,-4.186583,-0.2145046,0.7514174,1.726505,0.3465676,0.3514914,-0.942771,-0.3745338,-1.042928,0.03779878,0.08567256,0.8817294,1.775332,0.1344626,0.4391172,1.216631,0.3860849,315.205,271.1001,345.1877,False
0,0.6777782,-0.854253,0.8269854,-0.3164998,-1.495969,1.565797,-2.768997,0.7260819,1.451927,0.4697793,-0.880473,-0.1356811,89.68,67.79,0.5947684,-0.8808213,0.1850232,-0.5563045,-4.202302,-0.2063409,0.7557754,1.726643,0.3457029,0.3474288,-0.9055119,-0.3648149,-1.047305,0.02786465,0.08667924,0.8838823,1.774501,0.132683,0.4393466,1.22002,0.3884517,314.639,271.4967,345.2584,False
0,0.6888894,-0.8776118,0.8269938,-0.2984487,-1.49683,1.556435,-2.758219,0.7292535,1.452535,0.4695907,-0.88013,0.03292883,93.48,69.97,0.5607858,-0.8691865,0.2002951,-0.551743,-4.218629,-0.1973783,0.7599409,1.726746,0.3449848,0.3496011,-0.8874183,-0.3647782,-1.052081,0.01743931,0.08785635,0.8861046,1.773742,0.1308904,0.439462,1.223495,0.3907358,314.0475,271.9795,345.2191,False
0,0.7000005,-0.914835,0.8152874,-0.2716085,-1.498224,1.547516,-2.746231,0.7319768,1.452926,0.4691477,-0.879339,0.07221224,97.04,72.01,0.5450022,-0.8692948,0.2228043,-0.5467448,-4.235454,-0.1884591,0.7639694,1.726861,0.3443179,0.340027,-0.845845,-0.3699174,-1.05702,0.008732505,0.08870457,0.8881681,1.772909,0.1292934,0.439406,1.227049,0.3929558,313.4731,272.6162,345.0608,False
0,0.7111117,-0.9286158,0.804651,-0.2619485,-1.499131,1.538486,-2.735098,0.7348123,1.453395,0.4688129,-0.8805231,-0.1085328,100,74.59,0.5342928,-0.8873969,0.219622,-0.5425866,-4.254524,-0.1775982,0.767964,1.726977,0.3436477,0.3347081,-0.8362492,-0.3709162,-1.06199,-0.001188169,0.09000952,0.8903066,1.772081,0.1274536,0.4392282,1.230783,0.395077,312.9164,273.3268,344.8728,False
0,0.7222228,-0.9509325,0.7939644,-0.2512147,-1.500307,1.529771,-2.723218,0.7374063,1.453722,0.4683256,-0.8797784,0.06927354,100,76.99,0.5199859,-0.9127067,0.167421,-0.5406409,-4.27547,-0.1649599,0.771783,1.726957,0.3430414,0.3187793,-0.7904124,-0.3727884,-1.066787,-0.008913733,0.09079409,0.8924105,1.771202,0.1259744,0.43904,1.23473,0.3970675,312.2586,273.937,344.7693,False
0,0.7333339,-0.9615021,0.7876233,-0.2394494,-1.50176,1.520799,-2.711778,0.7400476,1.4541,0.4678783,-0.8808752,-0.1007078,100,79.25,0.5049509,-0.9062472,0.1548152,-0.5376507,-4.294111,-0.1541145,0.7756901,1.72701,0.3423789,0.3102397,-0.7659008,-0.3769041,-1.071881,-0.01758472,0.09179676,0.8946469,1.770304,0.1242876,0.4386418,1.238794,0.3988848,311.5731,274.5178,344.668,False
0,0.7444451,-0.9742292,0.7780696,-0.2234041,-1.50357,1.51243,-2.699911,0.742388,1.454308,0.4673228,-0.8805396,0.03182054,100,81.36,0.4720153,-0.8785933,0.1648249,-0.5341998,-4.310613,-0.1440395,0.7793349,1.726972,0.34165,0.299604,-0.7285894,-0.3809777,-1.076887,-0.02479496,0.09228865,0.8967861,1.769399,0.1228027,0.4381766,1.242976,0.4005681,310.7988,275.0472,344.5163,False
0,0.7555562,-0.9880129,0.7792802,-0.1914306,-1.506449,1.503889,-2.688201,0.7443767,1.454491,0.4668868,-0.8812096,-0.06137318,100,83.33,0.4094571,-0.8265456,0.1986553,-0.5297347,-4.324169,-0.134814,0.7829727,1.726975,0.3407545,0.2963758,-0.6987501,-0.3872879,-1.082187,-0.03217698,0.09260557,0.8990122,1.768443,0.1213324,0.4376059,1.247203,0.4021503,310.0176,275.6071,344.2944,False
0,0.7666674,-0.9900523,0.7698066,-0.1722296,-1.508785,1.495707,-2.67673,0.7466028,1.454824,0.4664772,-0.8810568,0.01470029,100,85.61,0.3638975,-0.7915217,0.2269224,-0.5252579,-4.338352,-0.1250186,0.7866001,1.726901,0.3399663,0.2974527,-0.6912947,-0.3872811,-1.087209,-0.04017805,0.09295417,0.9011468,1.767501,0.1198819,0.4370201,1.251453,0.4036772,309.2247,276.2054,344.0227,False
0,0.7777785,-1.000569,0.742196,-0.147571,-1.511422,1.488729,-2.664824,0.7484055,1.455041,0.4659166,-0.8814051,-0.03184235,100,87.74,0.310925,-0.7362856,0.2606899,-0.5204307,-4.350172,-0.1163753,0.790375,1.726692,0.3392272,0.2932131,-0.6550664,-0.3903537,-1.09224,-0.04671358,0.09285617,0.9033237,1.766518,0.1185544,0.4362795,1.255625,0.405151,308.4786,276.8602,343.7231,False
0,0.7888896,-1.004644,0.7017914,-0.1313854,-1.513518,1.482504,-2.653221,0.7503429,1.455255,0.4653604,-0.8818403,-0.03933527,100,89.74,0.295073,-0.6905411,0.2749001,-0.5162383,-4.36162,-0.1092383,0.7939335,1.726411,0.3384933,0.2932115,-0.6380118,-0.3935155,-1.097341,-0.05362435,0.0927334,0.9055305,1.765522,0.1171482,0.4353975,1.259734,0.4065781,307.7915,277.5632,343.3672,False
0,0.8000008,-1.016103,0.6400433,-0.115069,-1.515323,1.477809,-2.641242,0.7517965,1.455399,0.4647584,-0.8815202,0.02962135,100,91.61,0.2810376,-0.6978946,0.2536815,-0.5133365,-4.377491,-0.09817131,0.7975464,1.726034,0.3378506,0.2899923,-0.6070963,-0.4008707,-1.10255,-0.05950634,0.09227294,0.9077033,1.764497,0.1159217,0.4345973,1.263847,0.407954,307.1102,278.22,343.0487,False
0,0.8111119,-1.030823,0.5996312,-0.0956551,-1.517689,1.472632,-2.629059,0.7533565,1.455429,0.4640546,-0.8818861,-0.0335815,100,93.73,0.2691323,-0.7254944,0.2333996,-0.510659,-4.395792,-0.08485417,0.8012367,1.725682,0.3371241,0.2770549,-0.5612344,-0.4230159,-1.108544,-0.06453066,0.09187479,0.9099717,1.763458,0.1146927,0.4337829,1.267933,0.4092126,306.4399,278.8414,342.8044,False
0,0.8222231,-1.044525,0.5677255,-0.07523292,-1.52022,1.467909,-2.616583,0.7545811,1.455509,0.4634447,-0.8816161,0.02507783,100,95.71,0.2477463,-0.7094661,0.224076,-0.5078526,-4.410743,-0.07390752,0.8047264,1.725211,0.3364604,0.2717142,-0.5313833,-0.4292878,-1.114035,-0.06955364,0.09120155,0.9121368,1.762416,0.1135483,0.433022,1.271998,0.4102798,305.7433,279.3808,342.6261,False
0,0.8333342,-1.05504,0.5400608,-0.06761101,-1.522496,1.462974,-2.604397,0.755975,1.455572,0.4628356,-0.8815591,0.005126711,100,97.56,0.2264314,-0.691349,0.2232858,-0.5048389,-4.424841,-0.06343197,0.8081056,1.72482,0.3357358,0.2707452,-0.51542,-0.4217874,-1.118921,-0.07507437,0.09058982,0.9143226,1.761351,0.1124253,0.4321391,1.275991,0.4110786,305.0659,279.8633,342.4632,False
0,0.8444453,-1.077214,0.4942568,-0.05030208,-1.524583,1.459792,-2.591548,0.756875,1.455615,0.4622233,-0.8814083,0.01385763,100,99.29,0.2126158,-0.6594045,0.2267585,-0.5018392,-4.437214,-0.05445525,0.8114432,1.724172,0.3350368,0.2708023,-0.4855943,-0.4206538,-1.123868,-0.07938483,0.08945744,0.9164729,1.76035,0.1114388,0.4311526,1.279954,0.4115943,304.4255,280.3793,342.1723,False
0,0.8555565,-1.099451,0.4612,-0.04159348,-1.526555,1.456072,-2.578196,0.7577597,1.455548,0.4615386,-0.8818594,-0.04121004,100,100,0.1933654,-0.6551064,0.2194836,-0.4993107,-4.452176,-0.04286198,0.8147228,1.723532,0.3343759,0.2717579,-0.4589262,-0.4355212,-1.129661,-0.0835937,0.08820123,0.9185286,1.759304,0.110543,0.4300183,1.283943,0.4118709,303.8294,280.874,341.7834,False
0,0.8666676,-1.118626,0.4632956,-0.03412709,-1.529278,1.451642,-2.56491,0.7586849,1.45546,0.4608815,-0.8813289,0.04899218,100,100,0.1615384,-0.6656599,0.1937353,-0.4972867,-4.467725,-0.03050358,0.8179599,1.722873,0.3337624,0.2641366,-0.4332983,-0.4566956,-1.13578,-0.0873144,0.08710614,0.9206395,1.758299,0.109623,0.4288502,1.288012,0.4119858,303.1949,281.3025,341.3788,False
0,0.8777788,-1.144304,0.5005962,-0.01619704,-1.533415,1.445889,-2.551317,0.7591739,1.455349,0.4601529,-0.8809806,0.03153096,100,100,0.1374637,-0.6676165,0.1634481,-0.4967861,-4.484105,-0.01624741,0.8210661,1.722245,0.3332498,0.2544346,-0.3895482,-0.476746,-1.141968,-0.08973695,0.08555432,0.9227507,1.757307,0.1088085,0.4274831,1.29215,0.4119644,302.5418,281.676,341.0327,False
0,0.8888899,-1.163555,0.5283535,0.007101499,-1.537766,1.440703,-2.537786,0.7597665,1.455352,0.4594519,-0.881265,-0.0260998,100,100,0.09750032,-0.6768823,0.1008867,-0.4978226,-4.500094,-0.001971005,0.8240509,1.721475,0.3327296,0.2578105,-0.3395111,-0.4660235,-1.146958,-0.09165282,0.0833351,0.9249191,1.756357,0.1081014,0.4259588,1.296413,0.4118713,301.864,282.0513,340.6476,False
0,0.900001,-1.176318,0.5284048,0.02629092,-1.541863,1.436408,-2.52423,0.7601872,1.455364,0.4588282,-0.8812565,0.001214544,100,100,0.06640381,-0.6767633,0.07772017,-0.497854,-4.515779,0.01214109,0.8269514,1.720846,0.3322248,0.2570314,-0.320396,-0.4393378,-1.151086,-0.09444528,0.08167648,0.9269122,1.755424,0.1074333,0.4243023,1.300847,0.4118319,301.1799,282.5858,340.0699,False
0,0.9111122,-1.180498,0.5103481,0.03918191,-1.545493,1.432763,-2.510866,0.7607019,1.455459,0.4582388,-0.8814791,-0.02023948,100,100,0.04416662,-0.6768326,0.09282664,-0.4963434,-4.53158,0.02615783,0.8299069,1.720259,0.3316569,0.2465715,-0.3118898,-0.4200459,-1.155421,-0.09753814,0.08057394,0.928985,1.754465,0.1068051,0.4223978,1.305474,0.4119753,300.515,283.3687,339.2962,False
0,0.9222233,-1.195252,0.4741715,0.05856279,-1.549027,1.430275,-2.496948,0.7609001,1.455623,0.4576221,-0.8816219,-0.01271178,100,100,0.023157,-0.6844537,0.1270634,-0.4940771,-4.54844,0.04143346,0.8326429,1.719683,0.331145,0.2358484,-0.2916081,-0.4305488,-1.160748,-0.09991887,0.07920135,0.9309657,1.753511,0.1062205,0.4204618,1.310353,0.4123023,299.7975,284.2281,338.5432,False
0,0.9333345,-1.200484,0.4571864,0.06610377,-1.552592,1.426969,-2.483421,0.7611831,1.455655,0.4570086,-0.8819591,-0.03060463,100,100,0.01267284,-0.6706961,0.1464034,-0.4921362,-4.563587,0.0549221,0.8353218,1.718957,0.3306837,0.2250854,-0.267063,-0.4453191,-1.166677,-0.1019401,0.07780691,0.933184,1.752593,0.1056366,0.418584,1.315466,0.4127542,298.9918,285.0527,337.899,False
0,0.9444456,-1.213146,0.4284304,0.07692153,-1.555923,1.424834,-2.469392,0.7611864,1.455888,0.4564896,-0.8815542,0.03738237,100,100,-0.006456196,-0.6217113,0.151071,-0.4905873,-4.574966,0.065689,0.8376945,1.718354,0.3302402,0.205903,-0.2329289,-0.4514465,-1.172055,-0.1030378,0.07661781,0.9351162,1.751697,0.1051655,0.4168542,1.320758,0.4132418,298.117,285.8638,337.3103,False
0,0.9555568,-1.218302,0.3880238,0.09312207,-1.559119,1.423272,-2.45559,0.7610562,1.456207,0.4560659,-0.8820539,-0.04594721,100,100,-0.0417344,-0.5779685,0.1377254,-0.4901133,-4.585704,0.07681808,0.8400789,1.717892,0.329716,0.1922056,-0.2031108,-0.4406147,-1.176938,-0.1042572,0.07530141,0.9371432,1.750923,0.1048241,0.4151177,1.326154,0.4136648,297.2426,286.7042,336.7034,False
0,0.9666679,-1.217084,0.3529584,0.1060729,-1.562198,1.42181,-2.441899,0.760886,1.456551,0.4557025,-0.8817258,0.03049666,100,100,-0.07575136,-0.5321888,0.1457023,-0.4886549,-4.595647,0.08757512,0.8421885,1.717396,0.3293371,0.1774759,-0.1754327,-0.4254955,-1.181301,-0.1052199,0.07418448,0.9390621,1.749911,0.1042812,0.4133729,1.331576,0.4139954,296.3596,287.5839,335.9867,False
0,0.977779,-1.214828,0.3221115,0.113689,-1.565022,1.420848,-2.428586,0.7606279,1.456951,0.4553893,-0.8820347,-0.02838904,100,100,-0.092704,-0.4992027,0.1545403,-0.4870048,-4.605387,0.09769221,0.8443882,1.716782,0.3289926,0.1627439,-0.1584044,-0.4093537,-1.18563,-0.1062943,0.073181,0.9409506,1.748998,0.1039376,0.4115239,1.337004,0.4141975,295.5586,288.4337,335.2448,False
0,0.9888902,-1.205034,0.2678425,0.1182304,-1.567055,1.42077,-2.415298,0.7601502,1.457475,0.4551952,-0.8823,-0.0238895,100,100,-0.1203707,-0.4598071,0.1602987,-0.4854724,-4.614161,0.1078932,0.8463516,1.716241,0.3286045,0.148958,-0.1509391,-0.4038761,-1.190107,-0.1075588,0.07242014,0.9427807,1.748133,0.1035933,0.4095996,1.342443,0.4142375,294.7953,289.2015,334.5191,False
0,1.000001,-1.201652,0.2177649,0.1142271,-1.568497,1.420958,-2.401914,0.7594718,1.458144,0.4550281,-0.8827756,-0.04329037,100,100,-0.1747454,-0.412895,0.1546098,-0.4843081,-4.621113,0.1177266,0.8478916,1.715855,0.3282948,0.1267183,-0.125376,-0.3940413,-1.194671,-0.1081395,0.07192532,0.9443027,1.747478,0.1033432,0.4076755,1.347896,0.4141246,294.0375,289.9319,333.7576,False
0,1.011112,-1.196183,0.1804985,0.1111901,-1.569839,1.420913,-2.388852,0.7588754,1.458832,0.4548786,-0.8828858,-0.009669953,100,100,-0.1960008,-0.3958773,0.1602078,-0.4828497,-4.630246,0.1285902,0.8497231,1.715394,0.3279409,0.1140467,-0.1136543,-0.3853886,-1.198987,-0.1088567,0.07109575,0.9462224,1.74653,0.1029792,0.4057853,1.353338,0.4138813,293.2709,290.6279,332.9793,False
0,1.022224,-1.185345,0.1304432,0.1061142,-1.570443,1.421852,-2.375805,0.7579585,1.459663,0.4547603,-0.8828155,0.006488082,100,100,-0.212692,-0.3438694,0.200026,-0.4796337,-4.635926,0.1366106,0.8511944,1.715006,0.3276641,0.09285063,-0.09020273,-0.3776701,-1.202973,-0.108804,0.07073142,0.9479276,1.745714,0.1027827,0.4038571,1.358749,0.4135345,292.5233,291.2072,332.2834,False
0,1.033335,-1.178831,0.09743863,0.1052114,4.711866,1.422604,-2.362875,0.7572011,1.460385,0.4545467,-0.8831399,-0.0297052,100,100,-0.2318022,-0.311945,0.2088765,-0.4773567,-4.641965,0.1452198,0.8526752,1.714606,0.3274295,0.08114004,-0.07418904,-0.3796843,-1.207748,-0.1088112,0.07005046,0.9495322,1.744857,0.1026821,0.4018652,1.364143,0.4131282,291.8119,291.6656,331.6735,False
0,1.044446,-1.165876,0.05275115,0.1054161,4.71165,1.424001,-2.350298,0.7560728,1.46126,0.4544764,-0.8831841,-0.00378704,100,100,-0.2680276,-0.2991504,0.2081887,-0.4755436,-4.648971,0.155715,0.8539582,1.714222,0.3271699,0.06412905,-0.04006814,-0.3815676,-1.212003,-0.107682,0.0695338,0.9511395,1.744109,0.1026208,0.3998834,1.369534,0.4127192,291.1096,292.1133,331.063,False
0,1.055557,-1.161563,0.03891383,0.1044186,4.710893,1.424846,-2.337472,0.755018,1.46212,0.4543982,-0.8832768,-0.008506075,100,100,-0.291391,-0.2629509,0.2149661,-0.4732901,-4.653577,0.1637338,0.8553407,1.713906,0.3268037,0.0461022,-0.01554795,-0.3760506,-1.216622,-0.1067988,0.06921023,0.9529068,1.743466,0.1025372,0.3978754,1.374927,0.4123127,290.4026,292.5624,330.4933,False
0,1.066668,-1.143389,0.02194762,0.1044632,4.710363,1.425765,-2.325278,0.7538408,1.463151,0.4543054,-0.8836011,-0.02958884,100,100,-0.3212549,-0.2629248,0.2109621,-0.4716405,-4.660829,0.1747095,0.8566415,1.713629,0.3266504,0.02916735,0.002563639,-0.3673187,-1.220406,-0.1059604,0.06911862,0.9544544,1.742804,0.1025853,0.3959112,1.380316,0.4118932,289.6855,293.0947,329.8704,False
0,1.077779,-1.116714,0.01140647,0.1066215,4.709648,1.426831,-2.313579,0.752341,1.464248,0.4542983,-0.8833317,0.02485095,100,100,-0.3373078,-0.2618153,0.2025844,-0.47022,-4.66788,0.1853374,0.8577809,1.713298,0.3265102,0.02199411,0.01209463,-0.3395265,-1.223269,-0.1052997,0.06889837,0.9559175,1.742189,0.1026161,0.3938811,1.385687,0.4114641,288.9729,293.612,329.249,False
0,1.08889,-1.106033,0.005101293,0.1108947,4.708762,1.427781,-2.301471,0.7510571,1.465216,0.4544082,-0.8838621,-0.04883246,100,100,-0.3427647,-0.2596193,0.1887929,-0.4690967,-4.675001,0.1957277,0.8587528,1.71286,0.3264813,0.01690573,0.02376341,-0.3170775,-1.22608,-0.1045012,0.06853245,0.9573859,1.741624,0.1027374,0.3918272,1.391063,0.4110495,288.3143,294.1925,328.5427,False
0,1.100002,-1.086815,-0.003298178,0.1205069,4.707873,1.429228,-2.289922,0.7495612,1.466304,0.4544475,-0.8843175,-0.04126822,100,100,-0.345059,-0.2446112,0.1697098,-0.4682817,-4.680569,0.2046394,0.8596814,1.712574,0.3264093,0.006241888,0.04936005,-0.322238,-1.229718,-0.1027778,0.06821181,0.9588029,1.741047,0.1028645,0.3897157,1.396459,0.4106708,287.6789,294.7974,327.8169,False
0,1.111113,-1.077196,-0.009603977,0.1279685,4.707031,1.430546,-2.278144,0.7480868,1.467398,0.4545994,-0.8838206,0.04567194,100,100,-0.3568619,-0.2402954,0.1602412,-0.4674114,-4.686612,0.2144284,0.8606242,1.712395,0.326412,0.006257206,0.06534509,-0.3232621,-1.233331,-0.1011607,0.06757292,0.9602431,1.74051,0.1030836,0.3875187,1.401851,0.4103445,287.0179,295.477,327.0112,False
0,1.122224,-1.059015,-0.02763343,0.1301749,4.706751,1.432327,-2.267085,0.7465049,1.468551,0.4546056,-0.8841919,-0.03444273,100,100,-0.3706338,-0.2286168,0.1689409,-0.4657906,-4.692287,0.2240704,0.861335,1.712206,0.3263583,-0.002202243,0.09198539,-0.3209839,-1.236686,-0.09888037,0.06713776,0.9615533,1.739988,0.1032808,0.3853725,1.407221,0.4100734,286.3672,296.3,326.0677,False
0,1.133335,-1.029132,-0.04133955,0.1302125,4.706445,1.433818,-2.256617,0.7447966,1.469787,0.4546537,-0.8838861,0.02820358,100,100,-0.3758957,-0.2137284,0.1765097,-0.4640265,-4.697325,0.2329028,0.8618616,1.712096,0.3261459,-0.0106172,0.1100833,-0.3123356,-1.23978,-0.09687555,0.06691432,0.9628576,1.739382,0.1034694,0.3832583,1.412561,0.4098217,285.7285,297.2272,325.0609,False
0,1.144446,-1.014199,-0.04770327,0.1249038,4.706264,1.43524,-2.245806,0.7432338,1.470926,0.4546523,-0.8844305,-0.05013992,100,100,-0.3907511,-0.2009738,0.1830936,-0.4622619,-4.702431,0.2423197,0.862439,1.711918,0.3261359,-0.01801914,0.1186068,-0.3079816,-1.242943,-0.09495248,0.06674361,0.9641128,1.73888,0.1036632,0.3811809,1.417867,0.4095668,285.1181,298.1677,324.0579,False
0,1.155557,-0.9896507,-0.05822873,0.1313254,4.705994,1.437166,-2.23557,0.7415627,1.472083,0.4546936,-0.8849114,-0.04365328,100,100,-0.4194937,-0.1477193,0.1867849,-0.4603013,-4.703589,0.2490897,0.8625023,1.712008,0.3261554,-0.0348278,0.1302966,-0.2854176,-1.245321,-0.0928539,0.0670315,0.9652165,1.738465,0.1039546,0.3791185,1.423119,0.4092515,284.4998,299.0887,323.0965,False
0,1.166668,-0.9693869,-0.06341405,0.1398461,4.705457,1.438952,-2.225227,0.740026,1.473261,0.4547188,-0.8844092,0.04605893,100,100,-0.4397512,-0.1295982,0.1859723,-0.4587039,-4.706824,0.2576188,0.8628851,1.711925,0.32621,-0.04210702,0.139849,-0.2682777,-1.247679,-0.09089608,0.06707757,0.9665,1.738013,0.1041136,0.3770644,1.428273,0.4088666,283.8722,300.0484,322.0597,False
0,1.17778,-0.9394591,-0.0855933,0.1548469,4.705452,1.441773,-2.215843,0.738273,1.474452,0.4547887,-0.8847234,-0.02929989,100,100,-0.4630928,-0.08489901,0.1959836,-0.4561569,-4.707112,0.2638077,0.8630581,1.711863,0.3262079,-0.0557701,0.1590066,-0.252118,-1.249767,-0.08822227,0.06730021,0.9676406,1.737562,0.1044459,0.3750791,1.433298,0.4084089,283.2805,301.0663,320.9317,False
0,1.188891,-0.9031019,-0.1195013,0.1635114,4.706144,1.444939,-2.207064,0.7364917,1.47566,0.4548528,-0.8844635,0.02394247,100,100,-0.4779441,-0.06149945,0.2036812,-0.4538069,-4.70868,0.2710094,0.8634534,1.711797,0.3261015,-0.06632066,0.1781868,-0.2444882,-1.251805,-0.08530678,0.06746213,0.9672443,1.736822,0.1050999,0.3731639,1.438183,0.4078658,282.7302,302.1549,319.7196,False
0,1.200002,-0.8699684,-0.1481333,0.1646935,4.707109,1.44799,-2.198461,0.7347239,1.476884,0.4548893,-0.885182,-0.06608299,100,100,-0.4915124,-0.01371169,0.2349304,-0.4499027,-4.707747,0.2761448,0.8634316,1.711746,0.3261101,-0.08344063,0.18889,-0.253884,-1.254766,-0.08254708,0.06805442,0.9682368,1.736381,0.1055033,0.3713253,1.442945,0.4072286,282.2433,303.2575,318.4917,False
0,1.211113,-0.8496689,-0.1651186,0.1594304,4.708102,1.450528,-2.189803,0.7331443,1.478086,0.4549272,-0.8856129,-0.03899029,100,100,-0.4967399,-0.002044499,0.2456862,-0.4469615,-4.709058,0.282784,0.863591,1.711543,0.3260279,-0.09089708,0.1974455,-0.2558952,-1.257075,-0.07966154,0.06827866,0.9690347,1.735682,0.1058676,0.3694938,1.447564,0.4064476,281.7348,304.3306,317.3075,False
0,1.222224,-0.8165617,-0.1873709,0.1584487,4.709412,1.453571,-2.182007,0.7314169,1.479269,0.4549336,-0.8855171,0.008811288,100,100,-0.5073996,0.006485194,0.2447556,-0.444325,-4.709994,0.2895751,0.8635887,1.711482,0.3260641,-0.1002546,0.225111,-0.2365602,-1.25881,-0.07597346,0.06855004,0.9699394,1.735271,0.1062906,0.3676771,1.451984,0.4054803,281.2012,305.2928,316.2029,False
0,1.233335,-0.7856156,-0.203257,0.1531707,4.710779,1.456263,-2.174328,0.7297816,1.480455,0.454946,-0.8851383,0.03432306,100,100,-0.4999785,0.005429775,0.2414792,-0.4421156,-4.711917,0.2965907,0.863662,1.71155,0.3261564,-0.1064748,0.2378979,-0.2204683,-1.260139,-0.07224251,0.06871062,0.9709363,1.734882,0.1067653,0.3659072,1.456178,0.4043479,280.6992,306.067,315.205,False
0,1.244446,-0.7504553,-0.2030985,0.1573928,4.71148,1.458983,-2.166873,0.7280782,1.481653,0.4549651,-0.8856614,-0.04835289,100,100,-0.4894673,-0.005146086,0.2253553,-0.4403532,1.568946,0.3037657,0.8635635,1.711501,0.3262889,-0.1126846,0.2549129,-0.2043858,-1.261614,-0.06849517,0.06903207,0.9717996,1.734453,0.1072478,0.3642204,1.46016,0.4031322,280.262,306.6277,314.3561,False
0,1.255558,-0.7206658,-0.1912407,0.1626269,4.711842,1.461612,-2.159736,0.7264113,1.482615,0.4550214,-0.8855277,0.01241673,100,100,-0.4895642,-0.006163687,0.2146862,-0.4386019,1.56704,0.3109994,0.8633811,1.711405,0.3264918,-0.1223101,0.2719833,-0.2106415,-1.263993,-0.06464757,0.0695884,0.972681,1.734016,0.1077218,0.3625708,1.463937,0.4018836,279.841,307.1268,313.5753,False
0,1.266669,-0.6972481,-0.1858097,0.1657712,4.712327,1.464291,-2.152639,0.7247126,1.483528,0.4550776,-0.8854126,0.01018407,100,100,-0.4939352,-0.002903461,0.201956,-0.4368623,1.565861,0.3177529,0.8632213,1.711316,0.3265855,-0.123508,0.2794788,-0.2255263,-1.266814,-0.06086309,0.06988907,0.9735541,1.733586,0.1082256,0.3609476,1.467529,0.4006625,279.4696,307.5677,312.8599,False
0,1.27778,-0.6557227,-0.1792452,0.1688901,-1.570482,1.466919,-2.146764,0.7231112,1.484434,0.4550664,-0.8854148,-0.0004805034,100,100,-0.5069775,0.02494472,0.172371,-0.435691,1.567976,0.3220609,0.8629671,1.711306,0.326689,-0.1279291,0.2827226,-0.2414157,-1.269177,-0.05714744,0.07048828,0.9744236,1.733241,0.1087568,0.3593072,1.470985,0.3995191,279.1474,308.1812,311.9948,False
0,1.288891,-0.6066599,-0.1939583,0.1721141,-1.569347,1.47008,-2.14149,0.7216235,1.485377,0.4550326,-0.8851628,0.02281171,100,100,-0.5079936,0.03663665,0.1777646,-0.4333613,1.5682,0.3275805,0.8628445,1.711249,0.3267829,-0.1246701,0.2720549,-0.2340178,-1.271311,-0.05408574,0.07072397,0.9755017,1.732995,0.1091151,0.35768,1.474298,0.3984787,278.8225,309.1317,310.8271,False
0,1.300002,-0.5533204,-0.2140039,0.1711004,-1.567797,1.473333,-2.137049,0.7200888,1.486319,0.4549577,-0.8860486,-0.08140061,100,100,-0.4758837,0.04080009,0.1956169,-0.4303732,1.567323,0.3325811,0.8627386,1.71125,0.326798,-0.1213204,0.2453682,-0.2138738,-1.272882,-0.05206294,0.0713658,0.9761674,1.732662,0.1095445,0.356077,1.477483,0.3975362,278.5159,310.2009,309.5885,False
0,1.311113,-0.515995,-0.2234567,0.1700442,-1.5664,1.47633,-2.132552,0.7184283,1.487333,0.4548209,-0.8863916,-0.0308632,100,100,-0.4590267,0.01425636,0.1761616,-0.4294401,1.56423,0.3400436,0.8625354,1.711264,0.327049,-0.1253922,0.2282715,-0.1915045,-1.274068,-0.04997382,0.07227632,0.9769143,1.732348,0.110055,0.354621,1.480498,0.3966483,278.2004,311.4185,308.2583,False
0,1.322224,-0.4616332,-0.2317747,0.1700327,-1.564982,1.479429,-2.129434,0.7169917,1.488138,0.4546747,-0.8868214,-0.03942104,100,100,-0.4314453,-0.002730876,0.1630542,-0.4283828,1.561678,0.3461513,0.8622278,1.711287,0.3272398,-0.1348681,0.2335868,-0.1807464,-1.275462,-0.04702317,0.07317994,0.9775363,1.732038,0.1105206,0.3533448,1.483285,0.3957337,277.8771,312.5788,307.0306,False
0,1.333336,-0.4275563,-0.2284544,0.1678475,-1.563987,1.48205,-2.125817,0.7156001,1.489118,0.4545605,-0.8863623,0.04196181,100,100,-0.4198932,-0.009042412,0.1447992,-0.4276717,1.560095,0.3519168,0.8618292,1.71138,0.3274341,-0.140208,0.2410383,-0.1828609,-1.278208,-0.04397611,0.07408036,0.9785187,1.731937,0.1110535,0.3521109,1.485809,0.3947316,277.5623,313.5863,305.9525,False
0,1.344447,-0.3732458,-0.2240065,0.1645727,-1.562925,1.484681,-2.123774,0.7142248,1.489811,0.4543989,-0.8872188,-0.07904787,100,100,-0.4158436,-0.007855982,0.120267,-0.4272919,1.559599,0.3567813,0.8613636,1.711511,0.3276274,-0.1520141,0.2570643,-0.1944264,-1.28049,-0.04027618,0.07509927,0.9791287,1.731646,0.1115625,0.3508006,1.488081,0.3936211,277.3139,314.2714,305.1554,False
0,1.355558,-0.3136475,-0.212075,0.1580592,-1.562293,1.486749,-2.122261,0.7126862,1.490648,0.4546487,-0.8863522,0.07962209,100,100,-0.4138681,0.03585553,0.1095491,-0.4259209,1.561759,0.3593238,0.8609964,1.711593,0.3276353,-0.1594408,0.2581148,-0.1922561,-1.282821,-0.03744338,0.07622926,0.9799616,1.731241,0.1119795,0.3495657,1.490031,0.3923954,277.0884,314.824,304.4289,False
0,1.366669,-0.2540073,-0.2107751,0.1558478,-1.56123,1.489066,-2.121268,0.7113394,1.491277,0.4545343,-0.8873392,-0.0913012,100,100,-0.419067,0.06355146,0.1153292,-0.4237771,1.565868,0.3604626,0.8604637,1.711789,0.3277206,-0.1699175,0.2570233,-0.1740301,-1.283707,-0.0344404,0.07757522,0.980015,1.730805,0.1124933,0.3483447,1.491713,0.3911107,276.9564,314.8342,304.1917,False
0,1.37778,-0.2007051,-0.2212411,0.1537193,-1.559734,1.491878,-2.120943,0.7101213,1.491915,0.45439,-0.8874825,-0.0126193,100,100,-0.4315287,0.1027956,0.150795,-0.4200561,1.568996,0.3626938,0.8599838,1.712065,0.3276212,-0.1761953,0.2506104,-0.1612007,-1.28482,-0.03173409,0.07893796,0.9805129,1.730524,0.112963,0.3471345,1.493098,0.3898379,276.8033,314.7121,304.0287,False
0,1.388891,-0.1665703,-0.2338995,0.1505501,-1.558016,1.494639,-2.120178,0.7087983,1.492651,0.4542315,-0.8874494,0.002627496,100,100,-0.4408384,0.121793,0.1829395,-0.4164555,1.570102,0.3669751,0.8596804,1.712346,0.3276179,-0.1889086,0.2325037,-0.150457,-1.285889,-0.02944963,0.08087754,0.9806396,1.730167,0.1134703,0.3458455,1.49419,0.3887157,276.6868,314.4449,303.981,False
0,1.400002,-0.1025549,-0.2624701,0.142115,-1.555404,1.497797,-2.121288,0.7077252,1.49317,0.4541035,-0.887549,-0.009531369,100,100,-0.4268801,0.1195953,0.1955919,-0.4135277,1.570695,0.3706947,0.8591521,1.712557,0.3277018,-0.1952913,0.2250513,-0.1482827,-1.287255,-0.02700792,0.08256891,0.9810166,1.729944,0.11393,0.3446427,1.494936,0.3877261,276.6024,314.2232,304.0352,False
0,1.411114,-0.07162368,-0.2751786,0.1346956,-1.55317,1.500644,-2.121369,0.7066213,1.49379,0.4540362,-0.8865844,0.08788579,100,100,-0.418546,0.1026558,0.1741286,-0.4123234,1.570818,0.3748546,0.8586836,1.712729,0.3278136,-0.2005679,0.2186399,-0.1429539,-1.288939,-0.02475661,0.08423685,0.9816335,1.729753,0.1144314,0.343564,1.495332,0.3867919,276.5641,313.6287,304.5791,False
0,1.422225,-0.02260967,-0.2792863,0.1293421,-1.551037,1.503471,-2.122848,0.7056499,1.494226,0.4539683,-0.8878212,-0.1141944,100,100,-0.3784392,0.1103163,0.1301316,-0.4120107,-4.709171,0.374768,0.85796,1.712944,0.3280706,-0.220845,0.2304013,-0.1491283,-1.290695,-0.02161168,0.08645473,0.9817882,1.729589,0.1149571,0.3425151,1.495471,0.3858429,276.5909,312.2458,305.9434,False
0,1.433336,0.01038046,-0.270631,0.1313911,-1.54958,1.506168,-2.123967,0.7046436,1.494723,0.4537997,-0.8864278,0.1280828,100,100,-0.3584544,0.1179151,0.1001624,-0.4113098,-4.705629,0.3748687,0.8572826,1.7132,0.3282831,-0.2314642,0.2378742,-0.1468875,-1.292168,-0.0184071,0.08849231,0.9820799,1.729367,0.1155038,0.3416458,1.495307,0.3848187,276.5611,310.6343,307.4916,False
0,1.444447,0.04864293,-0.2459707,0.1344188,-1.548849,1.508518,-2.125938,0.7038139,1.494865,0.4538338,-0.8871506,-0.06763478,100,100,-0.3384191,0.1446653,0.07561996,-0.4104123,-4.69972,0.3725216,0.8565612,1.713369,0.328439,-0.2483608,0.2517213,-0.1349634,-1.292862,-0.01496963,0.09074268,0.9822032,1.729089,0.1160827,0.3408084,1.494948,0.3837353,276.6214,308.6111,309.3707,False
0,1.455558,0.07195931,-0.2117503,0.1416663,-1.548843,1.510554,-2.127429,0.7029654,1.494894,0.4537439,-0.8864182,0.06731615,100,100,-0.3320933,0.1713371,0.06717655,-0.4089279,-4.693866,0.3707102,0.8558823,1.713488,0.328469,-0.2481683,0.2751186,-0.1189278,-1.293295,-0.01093507,0.09239624,0.9823754,1.728906,0.1166503,0.3400384,1.494417,0.3826126,276.6932,306.7881,311.0203,False
0,1.466669,0.08785094,-0.1871775,0.1436509,-1.548648,1.512631,-2.128953,0.7022092,1.494904,0.4537423,-0.886724,-0.02893971,100,100,-0.3267897,0.1841244,0.06506622,-0.4073656,-4.688953,0.3698132,0.8552456,1.713635,0.3286009,-0.2374285,0.2889309,-0.1126031,-1.293983,-0.007098922,0.09355046,0.9824426,1.72878,0.1171997,0.3392729,1.49378,0.3814782,276.8171,305.1653,312.4513,False
0,1.47778,0.0995582,-0.1860834,0.1404387,-1.547739,1.514902,-2.130437,0.7015553,1.494899,0.4536169,-0.8858685,0.07823536,100,100,-0.3076521,0.1788143,0.06060902,-0.4062823,-4.685136,0.3691144,0.8546492,1.713631,0.328732,-0.2065049,0.2814243,-0.1097227,-1.294775,-0.003903661,0.09375978,0.9824334,1.728642,0.1178052,0.3385948,1.493008,0.380403,276.909,304.116,313.2756,False
0,1.488891,0.1048992,-0.1925086,0.1298127,-1.546283,1.517012,-2.131816,0.7008146,1.494983,0.4535375,-0.8854286,0.03925402,100,100,-0.2874549,0.161782,0.05715133,-0.4053576,-4.682831,0.3696534,0.8540123,1.713589,0.3289406,-0.1895218,0.2643479,-0.1131417,-1.296172,-0.001533049,0.09475154,0.982496,1.728631,0.1183434,0.3379341,1.492133,0.3794331,277.0419,303.3988,313.795,False
0,1.500003,0.1155563,-0.2000237,0.110664,-1.544481,1.518727,-2.133418,0.7002506,1.494836,0.4535275,-0.8850398,0.03507808,100,100,-0.247016,0.1468801,0.05246617,-0.4045544,-4.680649,0.3689668,0.8534802,1.713528,0.3291616,-0.1756839,0.2451454,-0.111192,-1.297126,0.0006703176,0.09560429,0.9825057,1.728539,0.1187918,0.3373287,1.49119,0.3785787,277.1904,302.5104,314.5478,False
0,1.511114,0.1219454,-0.2000429,0.1031982,-1.543033,1.520716,-2.135086,0.6996317,1.49492,0.4534287,-0.8846435,0.03577181,100,100,-0.2269567,0.1341984,0.02986652,-0.4045134,-4.677867,0.3681221,0.8529489,1.713598,0.3292527,-0.160672,0.2323026,-0.09858042,-1.297561,0.002985004,0.09642454,0.9823478,1.728483,0.1191659,0.3367871,1.490219,0.3777967,277.3269,301.2668,315.7272,False
0,1.522225,0.1357357,-0.1850948,0.09990988,-1.542237,1.522418,-2.137129,0.699059,1.494731,0.4533861,-0.8846158,0.002076733,100,100,-0.1974455,0.1237203,-0.006662995,-0.4054647,-4.674195,0.3659058,0.8524042,1.713537,0.3294914,-0.1520588,0.224806,-0.08802874,-1.297981,0.005399559,0.09719633,0.9823245,1.72838,0.1195984,0.3362572,1.489271,0.377074,277.4238,299.7286,317.1974,False
0,1.533336,0.1430686,-0.1488063,0.1071634,-1.542646,1.523852,-2.139028,0.6985173,1.494433,0.4531963,-0.8844752,0.01276423,100,100,-0.1700225,0.1110928,-0.03785377,-0.4064533,-4.670726,0.3638501,0.8518201,1.713502,0.3296418,-0.1380989,0.2119498,-0.07436749,-1.298414,0.007292401,0.09782883,0.9824038,1.72832,0.1199777,0.3358057,1.488338,0.3764287,277.4853,298.339,318.4951,False
0,1.544447,0.1471952,-0.1114891,0.1101579,-1.543392,1.524973,-2.140859,0.6980388,1.494148,0.4531224,-0.8846456,-0.01587885,100,100,-0.1467442,0.08560403,-0.05522734,-0.4074919,-4.669454,0.3636126,0.8513426,1.713457,0.3298786,-0.1232703,0.1853063,-0.07776374,-1.299211,0.00871839,0.09849568,0.9820807,1.728235,0.1203651,0.3353751,1.487458,0.3758398,277.5713,297.3498,319.4137,False
0,1.555558,0.1469139,-0.03368266,0.1172016,-1.546048,1.525038,-2.142413,0.6976758,1.493632,0.4530644,-0.8843421,0.0278107,100,100,-0.1137488,0.05897975,-0.05777685,-0.4081864,-4.669244,0.3636179,0.8508486,1.713447,0.3300867,-0.1105476,0.1671838,-0.08112736,-1.300115,0.01010696,0.09890847,0.9819359,1.728182,0.1206698,0.3349813,1.486582,0.3752952,277.6292,297.0367,319.6727,False
0,1.566669,0.1435734,0.006781984,0.1159295,-1.547796,1.525433,-2.143956,0.6972874,1.493274,0.4530385,-0.8840778,0.02375921,100,100,-0.09560063,0.05149014,-0.05264226,-0.4083782,-4.668175,0.3631822,0.8503667,1.71344,0.330267,-0.1019683,0.1575634,-0.07271569,-1.300513,0.01170419,0.0994933,0.9817549,1.728091,0.1209764,0.3346027,1.485687,0.3747738,277.7187,297.2766,319.3923,False
0,1.577781,0.1402333,0.04402115,0.1093442,-1.549818,1.525322,-2.145403,0.697018,1.492887,0.4529197,-0.8836758,0.03648328,100,100,-0.07426068,0.05573059,-0.04960986,-0.4085374,-4.665983,0.3612506,0.849847,1.713472,0.3304102,-0.09749662,0.1276638,-0.04619807,-1.300084,0.01209142,0.1003186,0.9815097,1.72811,0.1211779,0.3342453,1.484766,0.3743033,277.8425,297.5456,319.0352,False
0,1.588892,0.1380425,0.05996927,0.1049997,-1.551232,1.525599,-2.146905,0.6967084,1.492576,0.4528828,-0.8835202,0.01383707,100,100,-0.07106794,0.05999158,-0.04961386,-0.408718,-4.663465,0.3597414,0.8494306,1.713384,0.330626,-0.09317582,0.1169821,-0.03775211,-1.300295,0.01313365,0.1010398,0.9813027,1.72813,0.12152,0.3339013,1.483838,0.3739643,278.0216,298.0516,318.4155,False
0,1.600003,0.1316388,0.05879597,0.08903276,-1.552058,1.525602,-2.148124,0.6964247,1.492306,0.4528112,-0.8833593,0.01459106,100,100,-0.07103881,0.06530197,-0.04639147,-0.4087739,-4.660994,0.3582631,0.8488815,1.713384,0.3307629,-0.09101253,0.1180363,-0.03457453,-1.300432,0.01453673,0.1015807,0.9810996,1.728132,0.1218109,0.3335655,1.482933,0.3737698,278.2085,298.3251,318.0854,False
0,1.611114,0.1273826,0.05664937,0.08905146,-1.553023,1.526232,-2.149362,0.6960893,1.492046,0.4527051,-0.8833396,0.001631469,100,100,-0.07315527,0.06743002,-0.04422706,-0.4087888,-4.658525,0.3569762,0.8483434,1.713298,0.3309262,-0.08780874,0.1297582,-0.03671014,-1.300809,0.01657378,0.1017762,0.9807969,1.728035,0.1221366,0.3332697,1.482074,0.3737163,278.3821,298.4851,317.9331,False
0,1.622225,0.1210394,0.04059014,0.07848951,-1.553189,1.526689,-2.150501,0.6956999,1.491823,0.4527245,-0.8830291,0.02838332,100,99.89,-0.07535404,0.08664829,-0.0526347,-0.4090237,-4.653874,0.3535927,0.8477209,1.713269,0.331073,-0.0825861,0.1489586,-0.0505638,-1.301634,0.01905931,0.101839,0.9806074,1.728026,0.1224854,0.3329963,1.481279,0.3737649,278.5189,298.5808,317.8939,False
0,1.633336,0.1157529,0.02882069,0.07216318,-1.553447,1.527186,-2.151628,0.6953408,1.491616,0.4527366,-0.8829897,0.003382795,100,96.25,-0.08076184,0.09521955,-0.06213383,-0.4095516,-4.649822,0.3509607,0.847133,1.713226,0.3313136,-0.07513039,0.1542693,-0.05062065,-1.301968,0.02092752,0.1020409,0.9803067,1.727965,0.1227973,0.3327232,1.480563,0.3738677,278.6299,298.6307,317.9312,False
0,1.644447,0.1094001,0.0170565,0.06797054,-1.553592,1.527836,-2.152627,0.6949115,1.49141,0.4527597,-0.882897,0.0084347,100,92.84,-0.07868341,0.09843886,-0.06852806,-0.410081,-4.646565,0.3487127,0.8466427,1.713064,0.3314862,-0.06543821,0.1584822,-0.04110917,-1.301805,0.02272116,0.1019104,0.9800621,1.727969,0.1231356,0.3324293,1.479932,0.3739438,278.7183,298.7985,317.8643,False
0,1.655559,0.1009113,0.005270369,0.06058614,-1.553648,1.528372,-2.153459,0.6944875,1.491129,0.4527419,-0.8828827,0.001275331,100,89.65,-0.07235844,0.09527941,-0.07711893,-0.4108251,-4.643569,0.3464487,0.846133,1.713004,0.331624,-0.05901278,0.153141,-0.03691228,-1.301762,0.02435794,0.1018931,0.9797148,1.727861,0.1234541,0.332099,1.479373,0.3739564,278.7667,298.793,317.9218,False
0,1.66667,0.09664211,0.006293135,0.05632319,-1.553976,1.528746,-2.154413,0.6939962,1.49082,0.4527683,-0.8827697,0.01032752,100,86.66,-0.07022353,0.0920772,-0.07608642,-0.4112507,-4.640819,0.3446887,0.8456861,1.712857,0.3317771,-0.04185638,0.1381626,-0.02325354,-1.301269,0.02528818,0.101468,0.979353,1.727937,0.1237028,0.3317577,1.478868,0.373893,278.799,298.7521,317.9675,False
0,1.677781,0.09134764,-0.004418689,0.04892785,-1.553814,1.529208,-2.15527,0.693584,1.490692,0.4527802,-0.8826222,0.01341886,100,83.47,-0.05738561,0.06647354,-0.06886531,-0.411737,-4.640464,0.3446293,0.845374,1.712822,0.3319066,-0.02984727,0.1178214,0.01065766,-1.300171,0.02585503,0.1013485,0.9791588,1.728054,0.1238682,0.331389,1.478398,0.373745,278.8164,298.7468,317.9539,False
0,1.688892,0.08925518,-0.01511223,0.04259054,-1.553508,1.529657,-2.156277,0.6931468,1.490502,0.4527013,-0.8827697,-0.01353367,100,80.48,-0.04665876,0.04405017,-0.05947947,-0.4121247,-4.640744,0.345115,0.8449852,1.712757,0.3320274,-0.02549922,0.1049849,0.02229393,-1.299654,0.02637688,0.1014891,0.978967,1.728115,0.1240191,0.3309928,1.477938,0.3735212,278.8198,298.7356,317.9191,False
0,1.700003,0.08609957,-0.03011672,0.02775862,-1.552727,1.529963,-2.157142,0.6928164,1.490452,0.4527159,-0.8827229,0.004400798,100,77.68,-0.03908732,0.02480398,-0.04579187,-0.4122962,-4.641564,0.3460408,0.8445876,1.712742,0.3321557,-0.01918182,0.09113888,0.01687218,-1.299585,0.02695106,0.1013109,0.9787397,1.728131,0.1241698,0.3305689,1.47747,0.3732575,278.837,298.6885,317.8915,False
0,1.711114,0.08397563,-0.03226631,0.02457522,-1.552562,1.530279,-2.158063,0.692482,1.490291,0.4527371,-0.8828949,-0.0157613,100,75.06,-0.03588942,0.02159937,-0.04476954,-0.412692,-4.640726,0.345681,0.8441621,1.712661,0.3322775,-0.01719315,0.08369164,0.005115462,-1.299917,0.02751565,0.1015474,0.9785749,1.72819,0.1244254,0.3301658,1.476996,0.3729737,278.8755,298.4018,318.1132,False
0,1.722225,0.07861638,-0.02485717,0.01921485,-1.552547,1.530327,-2.158786,0.6922095,1.490175,0.4528093,-0.8827963,0.009160002,100,72.6,-0.03269278,0.02479448,-0.04478122,-0.4130414,-4.63937,0.3446738,0.8437277,1.712647,0.3323798,-0.01732814,0.08372492,-0.008732697,-1.3004,0.0285363,0.1014776,0.978381,1.728233,0.1246104,0.3298033,1.476505,0.3726831,278.9044,297.9621,318.4987,False
0,1.733337,0.07433866,-0.01846378,0.0223823,-1.552814,1.530632,-2.159544,0.6918163,1.490021,0.4529419,-0.8828587,-0.005775538,100,70.91,-0.03266645,0.03756316,-0.04258494,-0.413142,-4.637069,0.34289,0.8432255,1.71264,0.3323834,-0.02471736,0.08691761,-0.001198784,-1.300057,0.02971595,0.1018563,0.9779624,1.728286,0.1248703,0.3295092,1.476008,0.3724269,278.9406,297.3459,319.039,False
0,1.744448,0.06792618,-0.01316663,0.02129539,-1.552966,1.530771,-2.160087,0.6915647,1.489885,0.4530299,-0.8826978,0.01476612,100,69.32,-0.03051528,0.05459632,-0.04038639,-0.4131047,-4.634079,0.3404724,0.8428253,1.712613,0.3324304,-0.02555962,0.08792809,0.02120823,-1.298644,0.03059147,0.1018744,0.9774798,1.728276,0.12499,0.3292591,1.475515,0.3722439,278.9881,296.961,319.3442,False
0,1.755559,0.05831708,-0.005732188,0.02232834,-1.553349,1.530794,-2.160529,0.6912837,1.489878,0.4530511,-0.8827415,-0.004074719,100,67.84,-0.03587275,0.06740613,-0.04453637,-0.4133237,-4.630703,0.3379229,0.842481,1.712689,0.332464,-0.01899275,0.07402038,0.04135223,-1.297476,0.03086244,0.1018065,0.9772075,1.728338,0.1250651,0.3290065,1.475049,0.3721697,279.0553,296.7446,319.4945,False
0,1.76667,0.05937029,-0.003620268,0.01805473,-1.553409,1.53082,-2.161229,0.6910201,1.489766,0.4531136,-0.8825753,0.01526043,100,66.45,-0.03260223,0.07268728,-0.03601516,-0.4131223,-4.628356,0.3360358,0.8421522,1.712674,0.3325238,-0.01674986,0.05479633,0.05620501,-1.296347,0.03057682,0.1020308,0.9769185,1.728286,0.1251435,0.3287093,1.474626,0.3722043,279.1192,296.7022,319.515,False
0,1.777781,0.05192652,-0.006877539,0.01168642,-1.553191,1.530889,-2.161642,0.6906864,1.489617,0.4530795,-0.8825061,0.006226947,100,69.18,-0.01869234,0.06092848,-0.02873151,-0.413003,-4.627655,0.3351407,0.8418593,1.712589,0.3325224,-0.01779534,0.0281503,0.06254309,-1.29548,0.02983553,0.1024681,0.9766654,1.728329,0.1251404,0.3284242,1.474258,0.3723229,279.1967,296.6827,319.5644,False
0,1.788892,0.05089753,-0.01645978,0.01280456,-1.552919,1.531291,-2.162188,0.6904297,1.489593,0.4531503,-0.882807,-0.02749527,100,71.74,-0.005908582,0.04921541,-0.02890448,-0.4132928,-4.626723,0.3339034,0.841547,1.712553,0.3326383,-0.02003904,0.01432859,0.05294879,-1.295217,0.02954697,0.1028249,0.9763517,1.728296,0.1252186,0.3281364,1.473981,0.3724934,279.274,296.6606,319.6489,False
0,1.800003,0.04241702,-0.02930271,0.007554411,-1.552245,1.531601,-2.162352,0.6902583,1.48963,0.4531608,-0.8825955,0.0195809,100,74.14,0.000450749,0.03325004,-0.03223551,-0.4137801,-4.626688,0.3336616,0.8412763,1.712587,0.3326774,-0.01916879,0.01649937,0.03270368,-1.295478,0.02976589,0.1029653,0.9761844,1.728392,0.1252868,0.3278672,1.473762,0.372682,279.2756,296.7279,319.6547,False
0,1.811115,0.03603142,-0.03041247,0.004366727,-1.551845,1.53176,-2.162625,0.6900173,1.489621,0.4531682,-0.8827335,-0.01280601,100,76.38,0.002635177,0.03322895,-0.02692122,-0.4136587,-4.625535,0.3324267,0.8409705,1.712591,0.3327229,-0.01918432,0.01330604,0.0316308,-1.295166,0.02977015,0.1031719,0.9759753,1.728427,0.1253395,0.3275906,1.473576,0.3728426,279.2547,296.8225,319.6311,False
0,1.822226,0.02961788,-0.02512092,0.002214623,-1.551707,1.531795,-2.16274,0.6898493,1.48958,0.4531777,-0.8824187,0.028967,100,78.47,-0.001493607,0.02888721,-0.01092451,-0.413134,-4.625586,0.332698,0.8407028,1.712631,0.3327103,-0.02451245,0.02503629,0.02958382,-1.294751,0.03040877,0.1034667,0.9757743,1.728407,0.1253691,0.3273742,1.473411,0.3729372,279.2501,296.801,319.702,False
0,1.833337,0.02849715,-0.01236765,-0.003175381,-1.551921,1.531473,-2.162976,0.6896909,1.48957,0.4531896,-0.8825513,-0.01237362,100,84.69,-0.008801779,0.02668368,0.006175414,-0.4124241,-4.625284,0.3327327,0.8404638,1.712639,0.3326931,-0.02670749,0.03677835,0.0211107,-1.294711,0.0312699,0.1036071,0.9756225,1.728414,0.1254308,0.3272095,1.473278,0.3729438,279.2609,296.5538,319.973,False
0,1.844448,0.0295263,-0.002775886,-0.003227232,-1.552141,1.531281,-2.163343,0.6894669,1.48954,0.4532175,-0.8824773,0.006949543,100,90.51,-0.02051117,0.02667899,0.007340241,-0.4122962,-4.624625,0.3327391,0.8402468,1.712676,0.3326597,-0.02567752,0.0410492,0.0168457,-1.294657,0.03189295,0.103691,0.9754663,1.728423,0.1254864,0.327047,1.473184,0.3728791,279.2595,296.325,320.1839,False
0,1.855559,0.02206701,-0.0006651315,-0.001101309,-1.552173,1.531309,-2.163409,0.6892187,1.489471,0.4531348,-0.8833919,-0.08258114,100,95.96,-0.03114616,0.02347495,0.009547086,-0.4120608,-4.624338,0.3331745,0.8399997,1.712635,0.3326735,-0.02462457,0.04425307,0.01471063,-1.294503,0.03254183,0.1037235,0.9753116,1.72842,0.1255655,0.3268984,1.473165,0.3727772,279.2876,296.1588,320.2978,True
0,1.86667,0.01568493,-0.003889459,-0.001077394,-1.551962,1.531453,-2.163366,0.6889235,1.489469,0.4530616,-0.8850563,-0.1499146,100,100,-0.03121018,0.01711374,0.002062153,-0.4122264,-4.62446,0.3335623,0.8398331,1.712623,0.3326318,-0.02134436,0.04528761,0.02320953,-1.293824,0.0329662,0.1037573,0.9751728,1.728454,0.1255779,0.3267446,1.47329,0.3726888,279.327,296.0299,320.3612,True
0,1.877781,0.01144342,-0.009231533,-0.00104489,-1.551723,1.531592,-2.163363,0.6886668,1.489418,0.4529922,-0.8867943,-0.1558628,100,100,-0.03133113,0.01398726,-0.01180202,-0.412775,-4.623852,0.3333561,0.8396016,1.712551,0.3326483,-0.02132373,0.05167678,0.02429005,-1.293431,0.0337549,0.1037818,0.975052,1.728428,0.1256192,0.3265709,1.473602,0.3726349,279.322,296.0491,320.3115,True
0,1.888893,0.004000668,-0.013546,-0.006338632,-1.551398,1.531535,-2.163236,0.6883428,1.48948,0.4529965,-0.8891155,-0.2089666,100,100,-0.03361229,0.0130066,-0.02776774,-0.4135303,-4.622684,0.3328871,0.8393672,1.712503,0.3326731,-0.01923024,0.0527493,0.02002431,-1.293116,0.03435238,0.1037293,0.9748942,1.728376,0.1256676,0.3263756,1.474135,0.3725862,279.2688,296.2117,320.1732,True
0,1.900004,0.001910114,-0.02528878,-0.009470373,-1.550731,1.53174,-2.163194,0.6880795,1.489495,0.4529479,-0.8919896,-0.2588345,100,100,-0.03039346,0.01086215,-0.02567415,-0.4136464,-4.622505,0.3328765,0.8391055,1.712422,0.3326044,-0.01616686,0.05277188,0.006157352,-1.293265,0.03490552,0.1036119,0.9747534,1.728344,0.1256797,0.3261758,1.474917,0.3725139,279.1602,296.4203,319.9982,True
0,1.911115,0.0062561,-0.0476266,-0.006162368,-1.549642,1.532466,-2.163432,0.6877378,1.489581,0.4528768,-0.8949127,-0.2628514,100,100,-0.03450644,0.01184307,-0.008587968,-0.4131548,-4.622475,0.3333836,0.8389218,1.712344,0.3325868,-0.01637105,0.04217429,-0.0130425,-1.293999,0.03524161,0.1037139,0.9746425,1.728293,0.1257393,0.3260098,1.475934,0.3724126,278.9871,296.7445,319.6733,True
0,1.922226,0.01160651,-0.05400338,-0.007200249,-1.548925,1.5328,-2.163805,0.687507,1.489561,0.4528201,-0.8981601,-0.2924518,100,100,-0.03233316,0.005423278,-0.003311436,-0.4130771,-4.622994,0.3341577,0.8387449,1.71227,0.3325534,-0.01635821,0.03897733,-0.0109169,-1.293916,0.0356524,0.1038172,0.9745471,1.72824,0.1257653,0.3258582,1.477168,0.3723055,278.765,297.1707,319.2121,True
0,1.933337,0.01157399,-0.04547868,-0.006183924,-1.548664,1.532845,-2.163891,0.6873245,1.489466,0.4527397,-0.9017293,-0.3215511,100,100,-0.03121081,0.01391133,0.003118797,-0.4126691,-4.622324,0.3338272,0.8386825,1.71221,0.3324642,-0.01628194,0.04108994,-0.003455102,-1.293648,0.03616759,0.1038612,0.9744318,1.728221,0.1257184,0.3257668,1.478552,0.3721791,278.4817,297.7681,318.6005,True
0,1.944448,0.005126946,-0.02843887,-0.003069376,-1.548972,1.532763,-2.163776,0.6872013,1.48944,0.4525647,-0.9047749,-0.2741415,100,100,-0.02907041,0.009634096,0.005213511,-0.4125465,-4.622654,0.3344946,0.8385788,1.712128,0.3324029,-0.01303924,0.03468548,0.002899385,-1.293229,0.03643591,0.1038779,0.9744551,1.728205,0.125663,0.3257301,1.479976,0.3719927,278.1336,298.5555,317.8129,True
0,1.955559,-0.01310698,0.004506673,-0.005355652,-1.549871,1.53202,-2.163016,0.6871789,1.489302,0.452497,-0.9069693,-0.1969942,100,100,-0.02382687,-0.0020364,-0.003414858,-0.4129881,-4.62311,0.3350941,0.8385263,1.712097,0.3323269,-0.009875985,0.02083423,0.001769758,-1.293252,0.03624416,0.1039368,0.9743478,1.728164,0.1255789,0.3257718,1.481288,0.371758,277.7674,299.6433,316.6858,True
0,1.966671,-0.02274757,0.01834504,-0.002222694,-1.550503,1.531702,-2.162397,0.6870356,1.489247,0.4524226,-0.9088666,-0.1706699,100,100,-0.01752423,-0.01263944,-0.01310935,-0.4135633,-4.623833,0.3357828,0.8384266,1.712058,0.3322699,-0.008940248,0.01127491,-0.009976914,-1.293695,0.03615494,0.1040185,0.9743081,1.728054,0.1255238,0.3258402,1.48239,0.3715102,277.4835,300.8916,315.3731,True
0,1.977782,-0.02281332,0.03646035,-0.00125308,-1.551368,1.531143,-2.16214,0.6870055,1.48921,0.4523633,-0.9100842,-0.1088178,100,100,-0.007989616,-0.0264615,-0.01965898,-0.4142973,-4.625198,0.336729,0.8383259,1.712007,0.3321455,-0.005880525,0.004910314,-0.02280395,-1.294317,0.03612059,0.104018,0.9742635,1.728005,0.1254396,0.3258995,1.483253,0.3712832,277.3194,301.9413,314.2535,True
0,1.988893,-0.0292249,0.0417638,-0.001274113,-1.551843,1.530792,-2.161644,0.686849,1.489294,0.4523308,-0.9117993,-0.1549518,100,100,-0.006917635,-0.03286026,-0.01863126,-0.414562,-4.626407,0.337908,0.8382059,1.711919,0.3321645,-0.002749972,0.003858081,-0.02922802,-1.294834,0.0362347,0.1039125,0.9741622,1.727982,0.1253378,0.3259026,1.483909,0.3711499,277.2633,302.5771,313.5415,True
0,2.000004,-0.03239111,0.03430585,0.0009001149,-1.551992,1.530812,-2.161179,0.6866554,1.489261,0.4522688,-0.9136128,-0.1636864,100,100,0.009189054,-0.03826504,-0.003883059,-0.4143442,-4.628185,0.3388942,0.8381566,1.71191,0.3321068,-0.0007057823,-0.006787579,-0.03672038,-1.295364,0.03572404,0.1039395,0.9739949,1.727997,0.1252365,0.3258216,1.48442,0.3711253,277.2627,302.8524,313.2375,True
0,2.011115,-0.03660607,0.02149594,-0.001154277,-1.551798,1.530889,-2.160668,0.6865152,1.489396,0.4522579,-0.9146254,-0.09056961,100,100,0.01025265,-0.03826127,-0.003897389,-0.4145583,-4.628884,0.339434,0.8380145,1.711854,0.3319921,0.0003668815,-0.006785301,-0.03566347,-1.295693,0.03578982,0.1039296,0.9738994,1.727912,0.1251597,0.3257207,1.484823,0.3712147,277.2824,303.0409,313.0642,True
0,2.022226,-0.03230339,0.01087021,0.001028264,-1.551629,1.53112,-2.160464,0.6863746,1.489472,0.4522007,-0.9156603,-0.09330361,100,100,0.01875387,-0.04677487,-0.006144414,-0.4149791,-4.630733,0.3405991,0.8379008,1.71189,0.3319037,-0.0006305464,-0.01213495,-0.02819956,-1.295634,0.03536318,0.1040308,0.9737296,1.727888,0.1250224,0.3255495,1.485174,0.371388,277.3023,303.18,312.9908,True
0,2.033337,-0.02799918,-0.001919239,-0.003165397,-1.551186,1.531245,-2.160324,0.68617,1.489577,0.4521441,-0.9165157,-0.07689752,100,100,0.01883399,-0.03723335,0.002428923,-0.4146627,-4.631343,0.3409145,0.8378571,1.711939,0.3318837,0.0004419424,-0.0249181,-0.02611277,-1.295955,0.0347665,0.1040654,0.9735916,1.727881,0.1249051,0.3253529,1.485494,0.3715785,277.3002,303.3463,312.9245,True
0,2.044448,-0.01943941,-0.01036954,0.00432769,-1.551057,1.53171,-2.16039,0.6859583,1.489671,0.4520626,-0.9175804,-0.09627184,100,100,0.01883517,-0.03297222,0.002450241,-0.4147037,-4.63184,0.3411576,0.8377314,1.711956,0.3317804,-0.002752047,-0.02917097,-0.02502603,-1.296238,0.03442908,0.1043315,0.9734391,1.727901,0.1247573,0.3251857,1.48582,0.3717328,277.299,303.3668,312.9966,True
0,2.055559,-0.01623793,-0.01356967,0.001150553,-1.550848,1.531813,-2.160279,0.6857232,1.489686,0.4519348,-0.9183186,-0.06632507,100,100,0.01254057,-0.01491008,0.01325288,-0.4140081,-4.631062,0.34054,0.8375806,1.711929,0.3315854,-0.009065557,-0.02598306,-0.01749918,-1.296195,0.0342388,0.1047184,0.9733019,1.727891,0.1246026,0.3250599,1.486154,0.3718047,277.2671,303.4821,312.9541,True
0,2.06667,-0.0119588,-0.0188906,-0.0009568864,-1.550468,1.531941,-2.160292,0.6855224,1.489756,0.4518421,-0.9190478,-0.06588311,100,100,0.005108877,-0.01066437,0.01653286,-0.4137753,-4.631329,0.341026,0.8374561,1.711972,0.3314934,-0.005902668,-0.02065912,-0.02177551,-1.296573,0.03413813,0.1046766,0.9732081,1.728012,0.1244636,0.3249305,1.48649,0.3717739,277.213,303.6397,312.8316,True
0,2.077781,-0.009847088,-0.01678684,-0.006295634,-1.550153,1.531883,-2.160169,0.6853786,1.489895,0.4516795,-0.9193344,-0.02542372,100,100,-0.001273132,-0.009602935,0.01765888,-0.4135591,-4.631728,0.3416489,0.8372195,1.712017,0.3313813,-0.009121167,-0.01531995,-0.02492724,-1.296947,0.03422135,0.1048692,0.9730726,1.728018,0.1243536,0.3247932,1.486803,0.3716214,277.1471,303.9653,312.5132,True
0,2.088892,-0.007730064,-0.0136031,-0.009507844,-1.549995,1.531775,-2.16018,0.6852211,1.489896,0.451565,-0.9198079,-0.0428811,100,100,-0.007741666,0.007496334,0.008212328,-0.4135724,-4.629891,0.3402042,0.8369883,1.712061,0.3312497,-0.01125809,-0.007851264,-0.02701352,-1.297216,0.03447196,0.1049552,0.9728687,1.727905,0.1242211,0.3246244,1.487065,0.3713635,277.0792,304.1912,312.2534,True
0,2.100003,0.001830031,-0.006110848,-0.00955724,-1.550081,1.531586,-2.160542,0.685035,1.489993,0.4515042,-0.9200082,-0.01778069,100,100,-0.009944933,0.01180062,-0.0002698163,-0.4137668,-4.628946,0.3395291,0.8367556,1.712122,0.3311365,-0.01232213,0.00600435,-0.02910038,-1.297582,0.03510339,0.1049371,0.9727156,1.727942,0.1241188,0.3244587,1.487266,0.3710404,277.0305,304.097,312.2773,True
0,2.111114,0.009324993,-0.0156699,-0.0105791,-1.549662,1.531747,-2.160945,0.6848729,1.49007,0.4514923,-0.9204023,-0.03576263,100,100,-0.01416959,0.01497762,0.004050151,-0.4133828,-4.628572,0.3395043,0.8366215,1.712204,0.3309586,-0.01005797,0.007039454,-0.01525819,-1.297053,0.03523961,0.1049749,0.9724725,1.72787,0.1239924,0.3243111,1.487419,0.3707003,277.0069,303.7818,312.5092,True
0,2.122225,0.01573678,-0.01989503,-0.008433828,-1.549332,1.531928,-2.161368,0.6847051,1.490139,0.4514496,-0.9209903,-0.05331654,100,100,-0.011849,0.007406701,0.02636508,-0.4124267,-4.629936,0.3408188,0.8364757,1.712249,0.3307979,-0.01848631,-0.004703262,-0.003479813,-1.296677,0.03457888,0.105687,0.9723903,1.727875,0.1238844,0.3241691,1.487524,0.3704009,276.9892,303.5309,312.6672,True
0,2.133336,0.01684217,-0.029477,-0.007319098,-1.548743,1.532295,-2.161637,0.6844971,1.490143,0.4512961,-0.9212231,-0.02075179,100,100,-0.009625318,0.01054513,0.03701631,-0.4116427,-4.630184,0.3410889,0.8362818,1.712238,0.3307188,-0.01845144,-0.008974712,0.0007709492,-1.296535,0.03429246,0.1059669,0.97224,1.727874,0.1237409,0.3240215,1.487582,0.3701887,276.9802,303.3862,312.7343,True
0,2.144447,0.01898993,-0.03478396,-0.005161856,-1.548293,1.532618,-2.161848,0.6843663,1.490158,0.4512305,-0.9213616,-0.01244444,100,100,-0.006455892,0.01268922,0.03380181,-0.4113588,-4.629807,0.3406897,0.8360853,1.712265,0.3305867,-0.0216877,-0.01321215,-0.002402529,-1.296716,0.03418061,0.106372,0.9721824,1.727866,0.1236129,0.3238893,1.487571,0.3700661,276.9636,303.2189,312.8695,True
0,2.155558,0.022209,-0.04009243,-0.004069583,-1.547809,1.532972,-2.162259,0.6841892,1.490154,0.4511018,-0.9213035,0.005473036,100,100,-0.006611567,0.01810627,0.01571932,-0.4116341,-4.628555,0.3396167,0.8358741,1.712273,0.3305094,-0.01960081,-0.007876178,-0.007736809,-1.296995,0.03432708,0.1064689,0.9720558,1.727866,0.1235147,0.3237508,1.487488,0.3700069,276.9525,303.1177,312.9991,True
0,2.166669,0.02434776,-0.04328588,-0.004055064,-1.547224,1.533282,-2.162544,0.6839045,1.490202,0.4509358,-0.9213222,-0.001744923,100,100,-0.006705219,0.02455176,0.005101131,-0.4117215,-4.627229,0.3385261,0.8356687,1.712224,0.3303809,-0.02062599,-0.0004197238,-0.004503324,-1.296753,0.0346464,0.1066809,0.9717609,1.727766,0.1233835,0.3235971,1.487333,0.3699551,276.9553,302.9783,313.2042,True
0,2.17778,0.02756828,-0.04966014,-0.002959361,-1.546594,1.533699,-2.162968,0.6837794,1.490231,0.4508364,-0.9216008,-0.02540006,100,100,-0.006787237,0.02886088,-0.00446475,-0.4119617,-4.625704,0.3371983,0.8355135,1.712261,0.3302903,-0.02055144,0.0006275587,0.002955934,-1.296473,0.03467356,0.1068897,0.971585,1.727759,0.1232822,0.3234556,1.487128,0.3698826,276.9846,302.6945,313.5377,True
0,2.188891,0.03182296,-0.04750978,-0.001914978,-1.54618,1.533908,-2.163464,0.6835475,1.490286,0.4507298,-0.9215661,0.003411415,100,100,-0.0002716314,0.02772588,0.009330018,-0.4111702,-4.625702,0.3368976,0.8354291,1.712365,0.3301239,-0.02265019,-0.005765506,0.006161601,-1.296252,0.03440285,0.1071211,0.971391,1.727797,0.123167,0.3232827,1.486897,0.3697594,277.0179,302.368,313.9043,True
0,2.200002,0.03499112,-0.03787108,0.005487904,-1.546299,1.534217,-2.163984,0.6834294,1.490212,0.4506269,-0.9217419,-0.01604638,100,100,0.003161854,0.01799892,0.03695064,-0.4098626,-4.627266,0.3381594,0.8353046,1.712403,0.3300178,-0.02585411,-0.0174813,0.007229943,-1.296203,0.03377368,0.1076889,0.9712375,1.727801,0.1230242,0.3230587,1.486667,0.3695699,277.0561,301.8958,314.3927,True
0,2.211113,0.03600026,-0.0207917,0.01178608,-1.546749,1.534308,-2.164414,0.6833334,1.49014,0.4505777,-0.9218735,-0.01188531,100,100,0.007447595,0.008395219,0.04005516,-0.4095452,-4.628165,0.3387695,0.835137,1.71244,0.3299077,-0.02587111,-0.01747898,0.005102653,-1.296191,0.03353639,0.1079688,0.9711455,1.727796,0.1229236,0.3228774,1.48644,0.3693212,277.0868,301.3445,314.92,True
0,2.222224,0.03700329,-0.004825545,0.008504563,-1.547162,1.533998,-2.164849,0.6832131,1.490045,0.4504783,-0.9219251,-0.004621059,100,100,0.006209618,0.0106278,0.01983425,-0.4099542,-4.62716,0.3377903,0.8350017,1.712432,0.3298306,-0.02375574,-0.01322404,0.002965931,-1.29618,0.03341841,0.1082085,0.9709401,1.727815,0.1228642,0.3227067,1.486231,0.3690422,277.1107,300.9409,315.2697,True
0,2.233335,0.03907544,0.01223746,0.0105476,-1.547896,1.5338,-2.16538,0.6830335,1.490039,0.4503453,-0.9218596,0.006048005,100,100,0.008162,0.003273011,-0.000461303,-0.4106626,-4.627055,0.3375413,0.8347697,1.712386,0.3297803,-0.01844892,-0.005767588,-0.0002639553,-1.296266,0.03361242,0.1081915,0.9707828,1.727813,0.122823,0.3226081,1.486021,0.3687606,277.1353,300.8807,315.2626,True
0,2.244446,0.04327659,0.02822224,0.008327567,-1.548597,1.53331,-2.166008,0.6828909,1.490001,0.4502325,-0.9218798,-0.00195187,100,100,0.01121696,0.002296934,-0.01753004,-0.4111931,-4.626479,0.3366829,0.8345529,1.712322,0.3298092,-0.01949615,-0.0004367577,-0.0002297608,-1.296073,0.03380191,0.1082668,0.9705225,1.72776,0.1227808,0.3225389,1.485818,0.3685157,277.1678,300.9541,315.1189,True
0,2.255557,0.03897924,0.03671084,0.005100365,-1.549178,1.532971,-2.16627,0.6827798,1.489909,0.450196,-0.921989,-0.009933105,100,100,0.01215811,0.006631222,-0.0324335,-0.4119772,-4.625229,0.3353063,0.834367,1.712326,0.3297558,-0.01635244,-0.0004288703,-0.005587201,-1.296326,0.03384798,0.1083283,0.9703077,1.727773,0.1227534,0.3224292,1.485633,0.3683475,277.205,301.0013,315.021,True
0,2.266668,0.04004828,0.03671579,0.005097986,-1.549522,1.532792,-2.166788,0.6826723,1.489857,0.4501333,-0.9221057,-0.01057966,100,100,0.01333477,0.004443688,-0.02073459,-0.4117551,-4.625424,0.3351578,0.8343036,1.712414,0.3297203,-0.01528409,-0.003628586,-0.004545367,-1.296437,0.03369911,0.1085627,0.9701549,1.72779,0.1226878,0.3222525,1.485483,0.368269,277.2581,301.106,314.9026,True
0,2.277779,0.0272904,0.02919718,0.003021958,-1.549496,1.532782,-2.166633,0.6825981,1.489823,0.4501531,-0.9217488,0.03272843,100,100,0.0178067,-0.002071656,0.003697037,-0.410996,-4.626791,0.3360576,0.8341248,1.71246,0.3296604,-0.01410214,-0.01538193,0.009264249,-1.295969,0.0330457,0.108849,0.9699339,1.727819,0.1226203,0.3220625,1.485341,0.3682922,277.2901,301.2827,314.7325,True
0,2.28889,0.02729497,0.02812572,0.001955522,-1.549673,1.532535,-2.166981,0.6824589,1.489703,0.4501836,-0.9219736,-0.02082956,100,100,0.02423359,-0.002094291,0.006838631,-0.4108437,-4.627186,0.3358326,0.8339607,1.712493,0.3296456,-0.01300384,-0.01751423,0.01245047,-1.295656,0.03285955,0.108922,0.9697155,1.727848,0.1225588,0.3218947,1.485201,0.3684097,277.3206,301.4792,314.567,True
0,2.300001,0.02517161,0.02706949,0.005159292,-1.549959,1.532525,-2.167189,0.6823354,1.489648,0.4502106,-0.9213568,0.05661286,100,100,0.02628896,0.006473048,-0.001657848,-0.411004,-4.62596,0.3344193,0.8337508,1.712511,0.3296382,-0.01408483,-0.01431154,0.01033807,-1.295616,0.03280229,0.10913,0.9695083,1.727875,0.1225302,0.321775,1.48505,0.3685831,277.3376,301.6451,314.4635,True
0,2.311112,0.02307382,0.01852969,0.003077165,-1.549888,1.532549,-2.167434,0.6821547,1.489607,0.4503007,-0.9218356,-0.04425284,100,100,0.02412373,0.009694479,-0.005885184,-0.4111095,-4.625169,0.3334967,0.8334578,1.712461,0.3296852,-0.00991351,-0.01002588,0.0007278051,-1.295841,0.03298924,0.1090873,0.9691918,1.727858,0.1225679,0.3216718,1.484913,0.3687791,277.3636,301.6054,314.564,True
0,2.322223,0.02308849,0.01426293,0.002034386,-1.549892,1.532525,-2.167693,0.6820155,1.489591,0.4503469,-0.9217904,0.00462534,100,100,0.02196253,0.01077484,-0.009054609,-0.4112027,-4.624771,0.3329998,0.8331833,1.712471,0.3296885,-0.009932838,-0.0004409957,-0.003504232,-1.295912,0.03313864,0.1090474,0.9689175,1.727897,0.1226032,0.3215555,1.48479,0.3689855,277.3712,301.6934,314.5235,True
0,2.333334,0.02946502,0.01637988,-0.005442327,-1.549958,1.532047,-2.168255,0.6818539,1.489563,0.4503515,-0.9218383,-0.00449464,100,100,0.01653451,0.01083468,-0.02072604,-0.4117497,-4.62394,0.3322387,0.8329134,1.712543,0.3296854,-0.01305808,0.001680576,0.003982353,-1.295662,0.03325263,0.1093632,0.9687425,1.727957,0.122448,0.3214194,1.484682,0.3691753,277.3914,301.8669,314.3951,True
0,2.344445,0.03376869,0.003578883,-0.01177159,-1.549418,1.531968,-2.168795,0.6816965,1.489619,0.4504051,-0.9218798,-0.003732606,100,100,0.01662476,0.01610991,-0.01004109,-0.4113103,-4.623305,0.3315257,0.8326589,1.712622,0.3296773,-0.01185033,-0.01753589,0.022031,-1.294988,0.03233317,0.1097441,0.9684923,1.727954,0.122381,0.3212525,1.484585,0.3693297,277.4007,301.9063,314.3889,True
0,2.355556,0.03913204,-0.009214937,-0.01703855,-1.548709,1.531969,-2.169322,0.6814759,1.489677,0.450413,-0.9222026,-0.02949344,100,100,0.0188382,0.01179808,-0.000494773,-0.4110451,-4.623653,0.3315739,0.8323764,1.712688,0.3297193,-0.01823815,-0.02178969,0.02314839,-1.294745,0.03191745,0.1102634,0.9682169,1.728,0.122364,0.3210785,1.484497,0.3694429,277.4093,301.8674,314.4471,True
0,2.366668,0.0413083,-0.02198739,-0.01696987,-1.548138,1.532193,-2.169802,0.6812314,1.489671,0.4503808,-0.9221931,0.00110523,100,100,0.01568165,0.008571899,0.004847664,-0.4108011,-4.624059,0.331955,0.8321632,1.712786,0.3297184,-0.02253908,-0.01537786,0.0178909,-1.294558,0.03198936,0.1106021,0.9678763,1.728089,0.1224339,0.3209003,1.484396,0.3695367,277.4025,301.8062,314.5098,True
0,2.377779,0.04983404,-0.02410911,-0.02122876,-1.547637,1.532063,-2.17065,0.6810166,1.489695,0.4504523,-0.9221515,0.003796,100,100,0.01784078,0.01175128,0.008040875,-0.4105359,-4.623722,0.3313563,0.8318594,1.712866,0.3297381,-0.02484128,-0.01213483,-0.000189739,-1.295166,0.03202651,0.1109449,0.9675955,1.728138,0.1224716,0.3207248,1.484266,0.3696104,277.3876,301.5619,314.7581,True
0,2.38889,0.05087769,-0.01878435,-0.02232616,-1.547476,1.531822,-2.171194,0.6808817,1.489726,0.4505332,-0.922078,0.00664911,100,100,0.01993104,0.01284005,0.002709318,-0.4105518,-4.623359,0.3306573,0.8315886,1.71287,0.3297756,-0.03023943,-0.006788891,-0.008637562,-1.29539,0.03202944,0.1114189,0.967273,1.728176,0.1224973,0.3205196,1.4841,0.3696482,277.3711,301.2561,315.0838,True
0,2.400001,0.05509841,-0.008121531,-0.02345225,-1.547514,1.531421,-2.171938,0.6807175,1.489746,0.4506328,-0.9224215,-0.03146941,100,100,0.02517522,0.01714791,-0.006902839,-0.4108283,-4.622245,0.3291766,0.831259,1.712948,0.3297725,-0.03882041,-0.004629593,-0.01494069,-1.295803,0.0321128,0.1121191,0.9668922,1.728225,0.1225073,0.3202913,1.483893,0.3696344,277.3712,300.9705,315.3802,True
0,2.411112,0.06467808,-0.007037574,-0.02666263,-1.547246,1.531121,-2.172979,0.6805419,1.489807,0.4507823,-0.9221296,0.02693692,100,100,0.03360024,0.02039137,-0.01761648,-0.411322,-4.621021,0.3274418,0.8308676,1.713101,0.3296628,-0.04615382,-0.002524134,-0.003145272,-1.295431,0.0319835,0.1128291,0.9665962,1.728368,0.1223826,0.3200826,1.483629,0.3696079,277.3838,300.6028,315.7062,True
0,2.422223,0.06893543,-0.009213435,-0.03837478,-1.546615,1.530567,-2.173867,0.6804076,1.489865,0.4509082,-0.9222649,-0.01266333,100,100,0.04321985,0.0203662,-0.01344031,-0.4112528,-4.620585,0.3263201,0.8304694,1.713245,0.3297009,-0.05546586,-0.0175096,0.02674301,-1.294201,0.0308932,0.1139354,0.9661833,1.728463,0.1222503,0.3199044,1.48333,0.369619,277.4394,300.19,316.0536,True
0,2.433334,0.08173868,-0.01556899,-0.04048298,-1.546044,1.530373,-2.175155,0.680281,1.489959,0.4510348,-0.9225419,-0.02516712,100,100,0.03796235,0.03524408,-0.005862812,-0.4107734,-4.618633,0.3242572,0.8299888,1.713464,0.3296232,-0.05527244,-0.01861768,0.04697908,-1.293098,0.03057469,0.1146699,0.965842,1.728606,0.122191,0.3197255,1.48302,0.3697109,277.504,299.8007,316.391,True
0,2.444445,0.08815537,-0.02302095,-0.04365055,-1.545252,1.530151,-2.176321,0.6800185,1.49007,0.4511712,-0.9223725,0.01563717,100,100,0.02317718,0.06819873,0.008276053,-0.4097508,-4.614806,0.3209834,0.8295846,1.713691,0.3295164,-0.0584367,-0.00689922,0.04811072,-1.292476,0.0308201,0.1153079,0.9655741,1.728708,0.1222539,0.319551,1.48269,0.3699019,277.5423,299.3883,316.787,True
0,2.455556,0.1020821,-0.04319323,-0.04036229,-1.544106,1.530493,-2.177919,0.67981,1.490245,0.4512875,-0.9226788,-0.02820984,100,100,-0.001139835,0.09793096,0.0288777,-0.4081704,-4.610678,0.3179998,0.8291173,1.713924,0.3294289,-0.05647737,0.0165854,0.02684131,-1.292766,0.03183556,0.1155887,0.9653218,1.728815,0.1223521,0.3193882,1.482339,0.370197,277.5747,298.9092,317.2891,True
0,2.466667,0.1074552,-0.05596173,-0.04136699,-1.543018,1.530633,-2.17927,0.6796023,1.490461,0.4513423,-0.9225249,0.01427462,100,100,-0.01493048,0.1085546,0.03543472,-0.4072783,-4.607525,0.3156887,0.8287036,1.714104,0.3293509,-0.06081452,0.02193078,0.01838085,-1.292686,0.03210121,0.116361,0.9650244,1.728937,0.1223302,0.3192267,1.481963,0.3705646,277.607,298.5484,317.7166,True
0,2.477778,0.1139085,-0.07081833,-0.03490319,-1.541865,1.531225,-2.180772,0.6793442,1.490664,0.4514313,-0.9228418,-0.02917572,100,100,-0.0255443,0.1149274,0.03982021,-0.4062412,-4.604365,0.3134405,0.8283353,1.714295,0.3293319,-0.07372371,0.04755875,0.00152318,-1.293099,0.03365304,0.1172244,0.9648403,1.729037,0.1224678,0.3190031,1.481565,0.3709555,277.6527,298.1863,318.1782,True
0,2.488889,0.1203598,-0.08460493,-0.02737836,-1.540706,1.531965,-2.182327,0.6789885,1.490798,0.45151,-0.9225515,0.02672058,100,100,-0.02766882,0.1032014,0.04190958,-0.405543,-4.603061,0.3126791,0.827953,1.714352,0.3293545,-0.07802864,0.04863881,-0.002683692,-1.29301,0.03416742,0.1181429,0.9646035,1.729124,0.1224897,0.3187921,1.481125,0.3712895,277.7003,297.7323,318.7523,True
0,2.5,0.1246587,-0.09416524,-0.02520144,-1.539467,1.532583,-2.183871,0.6786875,1.490937,0.4515874,-0.9225755,-0.002473464,100,100,-0.02879914,0.08938494,0.03545721,-0.4051877,-4.60189,0.3120301,0.8275756,1.714419,0.3294086,-0.08867425,0.04757462,-0.002567891,-1.292829,0.03444266,0.1192713,0.9643142,1.729266,0.1226702,0.3185805,1.480657,0.371514,277.7717,297.1375,319.4448,True
0,2.511111,0.1321389,-0.09836815,-0.01879174,-1.538458,1.533314,-2.185621,0.6782341,1.490903,0.4516494,-0.922559,0.001475005,100,100,-0.02781161,0.07557862,0.02685678,-0.4050625,-4.601001,0.3114879,0.8272315,1.714497,0.3294861,-0.09085336,0.05186811,-0.007873529,-1.293101,0.0354813,0.1201221,0.9640222,1.729251,0.1227374,0.3183518,1.480165,0.3715869,277.8354,296.4951,320.1422,True
0,2.522222,0.1289408,-0.09622103,-0.0134733,-1.537671,1.533914,-2.186955,0.6779228,1.49094,0.4517417,-0.9224806,0.007128675,100,100,-0.0247858,0.06076097,0.007579697,-0.4055409,-4.600117,0.3108341,0.8269333,1.714471,0.3296084,-0.08970668,0.05078055,0.0006354512,-1.292722,0.03599768,0.1209427,0.9637651,1.729323,0.122869,0.3180849,1.47964,0.3714895,277.8828,295.8311,320.8059,True
0,2.533333,0.1214834,-0.09408703,-0.008150242,-1.536977,1.534517,-2.188058,0.6777169,1.490802,0.4518154,-0.9226074,-0.01170608,100,100,-0.01641262,0.05658533,-0.009562477,-0.406065,-4.598281,0.3090255,0.8265857,1.714373,0.3297169,-0.08111975,0.04541154,0.007988014,-1.292473,0.03611979,0.1214705,0.9634581,1.729473,0.1230116,0.3177948,1.479071,0.3712459,277.9159,295.0807,321.4938,True
0,2.544444,0.1193526,-0.09195249,-0.006029863,-1.5362,1.535052,-2.189401,0.6774333,1.490771,0.4518878,-0.9221541,0.04150335,100,100,-0.01331368,0.04918502,-0.02134862,-0.4066024,-4.597039,0.3078356,0.8262435,1.714368,0.3298352,-0.0639474,0.04214133,0.02060744,-1.291658,0.03611686,0.1214314,0.9631692,1.729542,0.123117,0.317466,1.478429,0.3708996,277.9431,294.4067,322.0573,True
0,2.555555,0.1150692,-0.08339815,0.002457116,-1.535978,1.535741,-2.190567,0.6772499,1.490705,0.4519303,-0.9218457,0.02778676,100,100,-0.00585179,0.0406533,-0.0203848,-0.4066668,-4.596646,0.3073256,0.8259405,1.714254,0.329927,-0.03830945,0.04423893,0.02782025,-1.290986,0.03700662,0.1207914,0.9627463,1.729474,0.123316,0.3171906,1.477724,0.3705113,278.0176,293.6754,322.6524,True
0,2.566666,0.1075979,-0.07593499,0.008816157,-1.535681,1.536336,-2.191604,0.6769283,1.490628,0.4519544,-0.9220599,-0.01973766,100,100,0.002633192,0.03747632,-0.02472782,-0.4068261,-4.595654,0.3061083,0.825614,1.714314,0.3300061,-0.01925787,0.03997503,0.01485067,-1.291113,0.03728306,0.1202026,0.9624108,1.729493,0.1233974,0.3169959,1.476979,0.3701335,278.1169,292.8936,323.3067,True
0,2.577777,0.0947157,-0.04719606,0.01293858,-1.536226,1.536299,-2.192263,0.6767722,1.490259,0.4519098,-0.9219086,0.0139739,100,100,0.007837795,0.03221795,-0.03864887,-0.4076224,-4.594486,0.3047775,0.8252964,1.714142,0.330106,-0.002368134,0.04105277,-0.001291731,-1.291597,0.03784578,0.1195024,0.962077,1.72951,0.1235416,0.3168316,1.476242,0.3698084,278.2307,292.1088,323.9878,True
0,2.588888,0.0839435,-0.01419452,0.01596807,-1.537062,1.535984,-2.192862,0.6766018,1.489898,0.4518495,-0.9217739,0.01222953,100,100,0.01417206,0.01520386,-0.04517788,-0.4083697,-4.594917,0.3048014,0.825035,1.713987,0.3302536,0.001867436,0.05597967,-0.005564682,-1.291698,0.03915619,0.1191581,0.9619853,1.729502,0.1237872,0.3166852,1.475552,0.3695478,278.355,291.5905,324.4455,True
0,2.599999,0.07852265,0.0113525,0.01583869,-1.537962,1.535553,-2.193543,0.6764392,1.489545,0.451829,-0.9214393,0.03049812,100,100,0.01620919,0.01206082,-0.0558648,-0.409314,-4.594132,0.3038382,0.8247143,1.713845,0.3303874,0.006096421,0.06876949,-0.0109018,-1.291855,0.04044516,0.118593,0.9616989,1.729521,0.1239727,0.3164875,1.47493,0.3693539,278.4378,291.3072,324.6969,True
0,2.61111,0.07304829,0.05077416,0.01989361,-1.539675,1.534687,-2.194074,0.6762574,1.489186,0.4517968,-0.9214116,0.002319262,100,100,0.01921142,0.01537282,-0.07824227,-0.4106909,-4.592011,0.3015758,0.8243704,1.713711,0.3305645,0.009287677,0.06663291,-0.01198957,-1.291732,0.04104224,0.1180963,0.961327,1.729583,0.1241658,0.3162995,1.474361,0.3692534,278.4885,291.4364,324.5432,True
0,2.622221,0.07403653,0.07317705,0.02510052,-1.541265,1.534112,-2.194924,0.6761172,1.488866,0.4517622,-0.9215661,-0.01403915,100,100,0.01699835,0.01009569,-0.08783877,-0.4119894,-4.591114,0.300611,0.824005,1.713657,0.3307211,0.002054513,0.04953799,0.01360616,-1.290737,0.04090336,0.1183527,0.961055,1.729563,0.1242964,0.3161056,1.473854,0.3692674,278.5374,291.776,324.1922,True
0,2.633332,0.07609449,0.09344158,0.02818433,-1.542803,1.533428,-2.195827,0.6759524,1.488654,0.4516919,-0.9215075,0.005506825,100,100,0.009716321,0.007862823,-0.06753987,-0.4119612,-4.591237,0.3008584,0.8237745,1.713701,0.3308158,0.00422838,0.04420868,0.01996292,-1.290238,0.04141615,0.1182494,0.9607278,1.729684,0.1243916,0.3159026,1.473406,0.3694087,278.5879,292.1796,323.7933,True
0,2.644443,0.07502025,0.09557488,0.02923957,-1.543894,1.533079,-2.196572,0.6757705,1.488419,0.4516861,-0.9218553,-0.03181141,100,100,0.01089199,0.006734131,-0.05476413,-0.4120145,-4.591032,0.3005023,0.8234618,1.713666,0.330889,0.002129495,0.03246788,0.02423528,-1.289642,0.04104357,0.1182744,0.9603637,1.72977,0.1245244,0.3156739,1.473028,0.3696838,278.6632,292.8066,323.2072,True
0,2.655554,0.07399003,0.08706072,0.03141759,-1.544703,1.533078,-2.197352,0.6755314,1.48824,0.4517031,-0.9219767,-0.0108496,100,100,0.005678186,0.01199783,-0.0419083,-0.4119569,-4.590285,0.2999145,0.8231554,1.713654,0.330946,0.001991628,0.02611916,0.01143592,-1.289976,0.04134944,0.1182316,0.9600421,1.729862,0.1246431,0.3154674,1.472702,0.3700471,278.7333,293.5423,322.5726,True
0,2.666665,0.07406667,0.06792199,0.0379146,-1.545218,1.533544,-2.198171,0.6752019,1.488128,0.4517565,-0.9218287,0.01362261,100,100,0.002531175,0.020486,-0.03544239,-0.4119729,-4.58906,0.2990003,0.8228725,1.713619,0.3310449,0.002937252,0.02933148,-0.00239941,-1.290251,0.04163187,0.1179397,0.9597478,1.729846,0.124706,0.3152694,1.472411,0.3704413,278.7861,294.2125,322.0345,True
0,2.677776,0.07846276,0.02955408,0.03172122,-1.544528,1.534222,-2.199194,0.6749607,1.488095,0.4517817,-0.9218532,-0.002320687,100,100,0.0099767,0.01303265,-0.0366097,-0.4124161,-4.588959,0.298575,0.8225685,1.713642,0.3311386,0.009278422,0.02401147,-0.005673756,-1.290423,0.04189339,0.1177165,0.9595774,1.729912,0.1248295,0.3150704,1.47213,0.370805,278.8168,294.7292,321.6442,True
0,2.688887,0.08282268,0.001843636,0.02653573,-1.543935,1.534788,-2.200283,0.6746809,1.488072,0.4518204,-0.9219022,-0.004487408,100,100,0.01947529,0.002429352,-0.04633418,-0.4133269,-4.588975,0.2980738,0.8222129,1.713614,0.3312693,0.01458096,0.01120215,-0.005745842,-1.290353,0.04128738,0.1176036,0.9593341,1.729936,0.1249225,0.3148389,1.47185,0.3710735,278.8454,295.0995,321.3784,True
0,2.699998,0.0850151,-0.01519859,0.02555831,-1.543493,1.535416,-2.201327,0.6744299,1.488053,0.4518659,-0.922112,-0.01913043,100,100,0.0258012,-0.0007306747,-0.05386239,-0.414186,-4.58862,0.2972439,0.8218868,1.713635,0.3313324,0.01898579,0.01009429,0.009123418,-1.289726,0.04126834,0.1172347,0.95901,1.730064,0.1249223,0.3145801,1.47156,0.3711832,278.8728,295.246,321.3113,True
0,2.711109,0.09361446,-0.03973432,0.01396389,-1.542362,1.535967,-2.202641,0.67421,1.488081,0.4518719,-0.9221946,-0.00738812,100,100,0.02483484,0.009868056,-0.04314817,-0.4141493,-4.587354,0.2958122,0.8215449,1.713715,0.3313069,0.01924864,0.005764787,0.03575036,-1.288385,0.04098751,0.1169684,0.9586951,1.730261,0.124898,0.3143686,1.471223,0.3710981,278.8723,294.9256,321.6548,True
0,2.72222,0.09150586,-0.04722733,0.008679004,-1.54168,1.536354,-2.203577,0.673969,1.488071,0.4519229,-0.9221355,0.005463946,100,100,0.008083424,0.03314531,-0.009860534,-0.4127868,-4.585254,0.2943917,0.8211057,1.713841,0.3312833,0.01405126,0.008922074,0.047544,-1.287241,0.04076887,0.1169226,0.9584264,1.730327,0.1249623,0.3141843,1.470833,0.3708483,278.88,294.4253,322.0927,True
0,2.733331,0.08296496,-0.04301287,0.006530765,-1.541407,1.536539,-2.204171,0.6737145,1.487965,0.4518566,-0.922372,-0.0217096,100,100,-0.0151749,0.05009564,0.00960204,-0.4117412,-4.583305,0.293451,0.8206947,1.713853,0.3313241,0.01287006,0.01322973,0.03584092,-1.28732,0.04131788,0.1167852,0.9581937,1.730353,0.1250684,0.314027,1.470389,0.370481,278.9157,293.9039,322.5057,True
0,2.744442,0.07762208,-0.03770269,0.006501097,-1.54126,1.536628,-2.204911,0.6733941,1.487942,0.451865,-0.9219992,0.03422388,100,100,-0.03016031,0.06718311,0.001296993,-0.4116373,-4.580153,0.2913717,0.8203578,1.713831,0.331392,0.01154068,0.03034449,0.004998721,-1.288264,0.04230764,0.1162507,0.9580498,1.730411,0.125221,0.3138935,1.469884,0.3700536,278.9443,293.1782,323.097,True
0,2.755553,0.07011334,-0.02279946,0.009625901,-1.541588,1.536633,-2.205419,0.673132,1.487891,0.4519579,-0.9216188,0.0344773,100,100,-0.03355348,0.06516132,-0.02105614,-0.4124177,-4.577968,0.2898547,0.8200291,1.713826,0.331506,0.000767475,0.04637619,-0.009772305,-1.288774,0.04347824,0.1162875,0.9578362,1.730497,0.1254129,0.3137245,1.469341,0.3696441,279.0007,292.5111,323.6217,True
0,2.766664,0.06046313,-0.007936354,0.006359604,-1.541848,1.536363,-2.205722,0.6727793,1.487792,0.4520898,-0.9217595,-0.01310672,100,100,-0.02617798,0.06095116,-0.03072567,-0.412799,-4.576256,0.288223,0.819675,1.71377,0.33166,0.0009518284,0.04739494,0.008352009,-1.287778,0.04385947,0.116044,0.9574976,1.730524,0.1256108,0.3134729,1.46881,0.3693041,279.097,292.0451,323.9789,True
0,2.777775,0.05084962,0.0005786738,0.01165115,-1.542253,1.536453,-2.205993,0.6725332,1.487684,0.4521618,-0.9215901,0.01565613,100,100,-0.01766798,0.05030179,-0.03191813,-0.4131133,-4.575473,0.2874198,0.8194274,1.713745,0.3317738,0.001203846,0.03560964,0.03602012,-1.286481,0.04371406,0.1160531,0.9572346,1.730628,0.1256974,0.3131504,1.468334,0.3690833,279.2075,291.6452,324.2877,True
0,2.788886,0.04123816,0.005881673,0.01376587,-1.542575,1.536518,-2.206063,0.6722454,1.487575,0.4520979,-0.9214223,0.01525948,100,100,-0.01126334,0.03963611,-0.02988905,-0.4132182,-4.575114,0.2870813,0.8191512,1.713766,0.3318076,0.00555364,0.02064973,0.04873797,-1.285447,0.04318649,0.1162022,0.9568759,1.730636,0.1257648,0.3128019,1.467946,0.3690245,279.309,291.4024,324.4593,True
0,2.799997,0.03266027,0.01967623,0.009440564,-1.543131,1.536072,-2.206124,0.6720403,1.487534,0.4521325,-0.9214292,-0.0007171684,100,100,-0.001670383,0.02151637,-0.0289977,-0.4136129,-4.575787,0.2874051,0.8190075,1.713783,0.331929,0.01290341,0.001473371,0.04010662,-1.285226,0.04241271,0.1159298,0.9566729,1.730662,0.1258304,0.3124289,1.467664,0.3691474,279.3765,291.3466,324.4947,True
0,2.811108,0.023087,0.01537346,0.007340746,-1.54315,1.536036,-2.206101,0.6718904,1.487595,0.452184,-0.9213067,0.01124745,100,100,0.0004432769,0.006608372,-0.03015104,-0.4140379,-4.576491,0.2880467,0.8188239,1.71382,0.3321414,0.01385832,-0.001685133,0.02942328,-1.285441,0.04254932,0.1157447,0.9565606,1.730799,0.1258821,0.3121156,1.467487,0.3693967,279.4138,291.5868,324.3335,True
0,2.822219,0.0177586,0.01427122,0.003093815,-1.543259,1.535898,-2.206119,0.6717395,1.487514,0.4522095,-0.9213786,-0.006593554,100,100,0.01646069,-0.009402785,-0.02504138,-0.4143026,-4.5781,0.2888196,0.8186064,1.713909,0.3322504,0.0200552,0.0004690625,0.00807037,-1.285947,0.04244213,0.1152131,0.9562625,1.730901,0.1259601,0.3118386,1.467416,0.3696893,279.4342,291.9348,324.1165,True
0,2.83333,0.0134822,0.01851595,0.003074402,-1.543542,1.535725,-2.206145,0.6715719,1.487535,0.4522214,-0.9213717,0.0007440605,100,100,0.02074945,-0.01367614,-0.02189983,-0.4144433,-4.578528,0.2888206,0.8183265,1.713852,0.3322577,0.02429605,0.000475035,0.006944818,-1.286123,0.04263907,0.1148864,0.9560598,1.731066,0.1260962,0.3116235,1.467454,0.3700004,279.4483,292.2119,323.9383,True
0,2.844441,0.01029446,0.01853316,0.008402797,-1.543873,1.535811,-2.206205,0.6713005,1.487531,0.4523311,-0.9214867,-0.01051142,100,100,0.01864227,-0.008364929,-0.01972551,-0.4145903,-4.578328,0.2884832,0.81811,1.71391,0.3323314,0.02457328,-0.01024887,0.03674816,-1.284749,0.04198753,0.1147492,0.9556884,1.731122,0.1260843,0.3114837,1.467586,0.3702883,279.427,292.3807,323.849,True
0,2.855552,0.008165504,0.01961876,0.01372588,-1.544254,1.535931,-2.206233,0.671199,1.487493,0.4524219,-0.9215741,-0.007851091,100,100,0.01768693,0.002224314,-0.006870192,-0.4140108,-4.577725,0.2878363,0.817964,1.714054,0.3322818,0.024763,-0.02201867,0.05802482,-1.28349,0.04121122,0.114696,0.955379,1.731247,0.1260891,0.3113768,1.467774,0.3705248,279.3643,292.653,323.6367,True
0,2.866663,0.001800687,0.01212587,0.01163799,-1.54416,1.535992,-2.206077,0.6711293,1.48757,0.4524415,-0.9216636,-0.008067643,100,100,0.02196366,0.006468602,-0.004754367,-0.4139703,-4.577447,0.2872464,0.8178117,1.714099,0.3322792,0.0226023,-0.02413851,0.05484838,-1.28305,0.04081707,0.1145713,0.9551058,1.731307,0.1259911,0.3112369,1.467997,0.3706954,279.3051,293.0075,323.3147,True
0,2.877774,0.006076477,0.007874846,0.01059065,-1.544159,1.536079,-2.206294,0.6710324,1.487623,0.4525321,-0.9216833,-0.001706345,100,100,0.0262457,0.0160446,-0.00261311,-0.4137658,-4.57627,0.2857343,0.8175828,1.7142,0.332269,0.0161256,-0.03902746,0.04848334,-1.282832,0.0398116,0.1148917,0.9547689,1.731395,0.1259284,0.3110565,1.468215,0.3707942,279.2457,293.3698,322.9551,True
0,2.888885,0.007161518,0.001455552,0.004229843,-1.543907,1.536015,-2.206461,0.6709543,1.487637,0.4525635,-0.921548,0.01245735,100,100,0.03690587,0.02775658,-0.001584317,-0.4136267,-4.574577,0.2835007,0.8173527,1.714261,0.3323405,0.01399714,-0.04968292,0.04953823,-1.282439,0.03880798,0.1149679,0.9544704,1.731592,0.1258729,0.3109422,1.468384,0.3708161,279.2038,293.6487,322.6704,True
0,2.899997,0.01037648,-0.00494685,-9.306241E-07,-1.543603,1.53607,-2.206695,0.6708844,1.487714,0.4526324,-0.9219416,-0.03612147,100,100,0.0507214,0.03095998,-0.004880771,-0.4136054,-4.573615,0.2817028,0.817093,1.714405,0.3323114,0.01409662,-0.05929893,0.06123284,-1.281488,0.03761702,0.1151351,0.9540921,1.731744,0.1257272,0.3108801,1.468513,0.3707674,279.1887,293.608,322.6889,True
0,2.911108,0.01783718,-0.007069882,-0.004257311,-1.543434,1.536,-2.207149,0.6706848,1.487755,0.4527729,-0.9219624,-0.001561635,100,100,0.05182441,0.02455194,-0.0006642621,-0.413493,-4.573426,0.2808948,0.8168011,1.714483,0.3324416,0.01417018,-0.06997657,0.0707989,-1.280415,0.0362873,0.1153948,0.9538506,1.731902,0.1258075,0.3108461,1.468589,0.3706826,279.1624,293.46,322.7862,True
0,2.922219,0.01995344,-0.003870371,-0.004279993,-1.543401,1.535909,-2.20739,0.6706078,1.487792,0.4529095,-0.9220273,-0.005964095,100,100,0.05616373,0.02343732,0.008883124,-0.412995,-4.573251,0.2800231,0.8164932,1.714636,0.3323631,0.0120685,-0.06465188,0.07296026,-1.279648,0.03560034,0.1155242,0.9536469,1.731999,0.125721,0.3108168,1.4686,0.370594,279.1388,293.2867,322.9016,True
0,2.93333,0.02954727,-0.007058966,-0.0095997,-1.543082,1.535789,-2.208021,0.6704716,1.487849,0.4530132,-0.9222484,-0.0201573,100,100,0.03704483,0.03833875,0.01445036,-0.4123697,-4.570958,0.2780135,0.8160208,1.714863,0.3322771,0.006671544,-0.04543934,0.06347312,-1.279193,0.03578449,0.1156819,0.9532974,1.732173,0.1256764,0.3107514,1.468552,0.3705342,279.1358,293.051,323.0734,True
0,2.944441,0.03062655,-0.01132651,-0.01171362,-1.542714,1.535735,-2.208387,0.6702546,1.487933,0.4531438,-0.9220444,0.01881605,100,100,0.02328349,0.05747542,0.02318471,-0.41159,-4.568329,0.2756555,0.815643,1.714992,0.332355,-0.001904748,-0.02622883,0.05508215,-1.278799,0.03613364,0.1159042,0.9530375,1.732275,0.125694,0.3106144,1.468446,0.3705432,279.1442,292.8544,323.2065,True
0,2.955552,0.04242342,-0.03475879,-0.01905927,-1.54151,1.536034,-2.209268,0.669966,1.488092,0.4532464,-0.9223863,-0.03147078,100,100,0.005242728,0.07235609,0.03087299,-0.4106594,-4.565677,0.273757,0.8152617,1.715103,0.3323486,-0.01591987,0.02180021,0.03081993,-1.27921,0.03825857,0.1159218,0.9527206,1.732395,0.1258557,0.3104706,1.468291,0.3706376,279.1852,292.7012,323.3314,True
0,2.966663,0.04246222,-0.04649732,-0.02219935,-1.540521,1.536244,-2.209709,0.669695,1.488211,0.4532778,-0.9221323,0.02348263,100,100,-0.008662719,0.07346494,0.02354808,-0.4103846,-4.563703,0.2723572,0.8149424,1.715151,0.3323579,-0.02661944,0.03568934,0.02455132,-1.279196,0.03915912,0.1163706,0.9524723,1.73256,0.1259058,0.3103034,1.468091,0.3708112,279.22,292.4977,323.5479,True
0,2.977774,0.04784996,-0.06244552,-0.01998997,-1.539445,1.536867,-2.210441,0.6693697,1.488352,0.4533856,-0.9225648,-0.03980856,100,100,-0.009857826,0.07247415,0.008638624,-0.4105897,-4.561582,0.2705638,0.8146523,1.715196,0.332392,-0.02871774,0.04314446,0.0267205,-1.278744,0.03990001,0.116565,0.9522072,1.732679,0.1259789,0.3100664,1.467874,0.3710403,279.2687,292.2122,323.8825,True
0,2.988885,0.05428933,-0.07410309,-0.01354068,-1.538618,1.537645,-2.211236,0.6691453,1.488449,0.453444,-0.9221371,0.03944777,100,100,-0.002498407,0.05441826,-0.002168141,-0.4109401,-4.561299,0.2700424,0.8143984,1.715335,0.3323493,-0.02972374,0.02501385,0.03308858,-1.278257,0.03971479,0.116798,0.951991,1.732812,0.1258934,0.3097883,1.46763,0.3712691,279.2877,291.7897,324.3854,True
0,2.999996,0.05432632,-0.08476716,-0.01561494,-1.537403,1.538231,-2.211871,0.6688768,1.488567,0.4534981,-0.9223251,-0.01757959,100,100,0.00500402,0.03627721,0.003001379,-0.410824,-4.562,0.2703117,0.8141394,1.715383,0.3323243,-0.02436397,0.009005867,0.04044368,-1.277568,0.0387687,0.1171676,0.951683,1.73296,0.1257794,0.3094878,1.467373,0.3714517,279.3253,291.3823,324.8698,True
0,3.011107,0.06285363,-0.08579773,-0.01561582,-1.536575,1.538664,-2.212874,0.6686201,1.488674,0.4535613,-0.9223725,-0.004180669,100,100,0.009288855,0.03414139,0.005084212,-0.4105636,-4.561068,0.2691257,0.8137925,1.715407,0.3323307,-0.01472503,-0.01659984,0.04988988,-1.276626,0.03752967,0.1173884,0.9510276,1.733015,0.1257548,0.3092134,1.467109,0.3715429,279.3647,291.0251,325.2816,True
0,3.022218,0.06497925,-0.08474836,-0.01988375,-1.535649,1.538938,-2.213724,0.6683609,1.488801,0.4535801,-0.9221824,0.01736997,100,100,0.01571737,0.02985822,0.00926778,-0.4102941,-4.560678,0.2683603,0.8133973,1.71552,0.3322659,-0.007278128,-0.02300285,0.04980181,-1.276143,0.0369471,0.1173828,0.9506609,1.733152,0.1256552,0.3090194,1.466827,0.3715033,279.3981,290.7131,325.6223,True
0,3.033329,0.07450156,-0.06767999,-0.02211482,-1.535297,1.538796,-2.214871,0.6681962,1.488817,0.4535704,-0.922495,-0.02878299,100,100,0.02738212,0.03415072,0.002799142,-0.4102663,-4.559217,0.2662985,0.8130528,1.715615,0.3321776,0.009783439,-0.01665163,0.05072062,-1.275534,0.03677147,0.1168001,0.9502317,1.733305,0.1256051,0.3088444,1.466542,0.3713405,279.4288,290.2052,326.0997,True
0,3.04444,0.07870566,-0.05062637,-0.02327033,-1.535131,1.538661,-2.215976,0.6679727,1.488737,0.4534757,-0.9223384,0.01460581,100,100,0.02624337,0.04591424,-0.005652001,-0.4102999,-4.556745,0.2638412,0.8125861,1.715714,0.3320885,0.01939956,-0.002821151,0.05171495,-1.275041,0.03711821,0.1162534,0.9500247,1.733352,0.1254854,0.3086744,1.46625,0.371102,279.4532,289.6806,326.5406,True
0,3.055551,0.07863724,-0.03144003,-0.02124097,-1.535249,1.538368,-2.216829,0.6678522,1.488656,0.4534206,-0.9225728,-0.02164422,100,100,0.01672249,0.05227085,0.001919826,-0.4098482,-4.554968,0.2623315,0.8121891,1.715809,0.3319736,0.01827575,0.01318047,0.04324182,-1.27476,0.03778799,0.1158869,0.9496775,1.73349,0.1254544,0.308497,1.465951,0.370843,279.4829,289.1857,326.9318,True
0,3.066662,0.08072364,-0.01971034,-0.02023825,-1.535213,1.53819,-2.217745,0.667696,1.488632,0.4533424,-0.9224977,0.007006743,100,100,0.01257026,0.05754565,0.01476409,-0.4090328,-4.553093,0.2606822,0.8117542,1.715936,0.331912,0.01394518,0.01854746,0.03582402,-1.274764,0.03837482,0.1158076,0.9493719,1.733621,0.125437,0.3083425,1.465616,0.3706275,279.4951,288.9255,327.1011,True
0,3.077773,0.08176193,-0.01116179,-0.01602342,-1.535342,1.538063,-2.218679,0.667556,1.488513,0.4533145,-0.9221861,0.02835559,100,100,0.014714,0.05327732,0.01578694,-0.4087611,-4.552189,0.2595413,0.8113019,1.716013,0.3318174,0.01062655,0.01964847,0.02307479,-1.274931,0.03866084,0.1157242,0.9489949,1.733739,0.1254184,0.3081866,1.465219,0.3704826,279.5108,288.8839,327.0941,True
0,3.088884,0.08490867,0.003791969,-0.01077238,-1.535872,1.53787,-2.219695,0.6673651,1.488325,0.4532852,-0.9221781,0.0004999766,100,100,0.01556557,0.05659744,-0.009772634,-0.4095553,-4.549861,0.2570851,0.8109624,1.716058,0.3317838,0.004228028,0.02499916,0.02313863,-1.274745,0.03928043,0.1159037,0.9487269,1.73389,0.1253669,0.3080468,1.464767,0.3704254,279.5748,288.8597,327.1042,True
0,3.099995,0.08807108,0.01556212,-0.003381752,-1.536462,1.537693,-2.220776,0.6671636,1.488186,0.4532528,-0.9221755,0.0002389202,100,100,0.008953195,0.06205252,-0.03525642,-0.4105801,-4.546931,0.2545423,0.8105191,1.716081,0.3317142,0.004326925,0.02922203,0.03168619,-1.273868,0.03939508,0.1156773,0.9482794,1.734055,0.1253624,0.3079043,1.464286,0.3704462,279.6604,288.7335,327.2505,True
0,3.111106,0.09018847,0.01985395,-0.0002029724,-1.536924,1.537601,-2.221811,0.6669927,1.488057,0.4532983,-0.9222341,-0.00538049,100,100,0.004553266,0.07491574,-0.05113538,-0.4113231,-4.543125,0.2512221,0.8102108,1.716092,0.3316493,0.004464764,0.03346194,0.04553661,-1.272939,0.03997778,0.1154981,0.9478397,1.73421,0.1253512,0.3077585,1.463783,0.3705341,279.7375,288.674,327.3432,True
0,3.122217,0.09554469,0.01242789,0.001961174,-1.536885,1.53776,-2.223055,0.6667935,1.487947,0.4532201,-0.9222772,-0.003898756,100,100,-0.002743691,0.07908572,-0.03294055,-0.4108075,-4.540925,0.2494575,0.8098793,1.716113,0.3315635,0.00662474,0.03238571,0.04870902,-1.27225,0.04022572,0.115276,0.9474695,1.734336,0.1253362,0.3075778,1.463266,0.3706709,279.8149,288.8265,327.2372,True
0,3.133328,0.09560002,-0.00355899,0.0009875859,-1.536395,1.53821,-2.224068,0.6665096,1.487915,0.4531732,-0.9222016,0.006926318,100,100,-0.006844193,0.075801,-0.01481318,-0.4101806,-4.539502,0.248311,0.8094065,1.716046,0.3317394,0.0128731,0.0334738,0.03374542,-1.272273,0.04057406,0.1148067,0.9470403,1.734474,0.125473,0.3073767,1.462742,0.3708309,279.902,289.0117,327.1045,True
0,3.144439,0.09562379,-0.008876836,0.003150401,-1.536263,1.538499,-2.225158,0.6662542,1.487809,0.4531009,-0.9223608,-0.01464839,100,100,-0.005797327,0.07368137,-0.01696401,-0.4102765,-4.537468,0.246458,0.8090347,1.716069,0.3317244,0.01904743,0.0420293,0.01028039,-1.272724,0.04122214,0.1142206,0.9467901,1.734486,0.1254964,0.3071862,1.462215,0.3709869,279.9882,289.0931,327.0844,True
0,3.15555,0.09350331,-0.01100418,0.00529411,-1.536202,1.538728,-2.226118,0.6660098,1.487666,0.4530032,-0.9221067,0.02329633,100,100,0.001466412,0.05142144,-0.03951231,-0.4115479,-4.537046,0.2457043,0.8087007,1.716,0.3316927,0.04125321,0.04310214,-0.006978886,-1.273358,0.04183813,0.1127915,0.9464624,1.734592,0.1255462,0.3069997,1.461681,0.3710808,280.052,289.0213,327.2397,True
0,3.166661,0.09029181,-0.007800738,0.009545669,-1.536399,1.538971,-2.226888,0.665818,1.487516,0.4528542,-0.922136,-0.00289579,100,100,0.003543645,0.04399654,-0.04596173,-0.4122328,-4.536026,0.244606,0.8083193,1.716015,0.3317127,0.05509125,0.04200099,-0.008174034,-1.2733,0.04200258,0.1116594,0.9461724,1.734688,0.1255841,0.306781,1.461153,0.37107,280.1165,288.7765,327.5433,True
0,3.177772,0.08491032,0.009263549,0.01691815,-1.537213,1.538911,-2.22764,0.6656308,1.487205,0.4527855,-0.9220029,0.01220998,100,100,0.01952897,0.02161676,-0.04514275,-0.4127548,-4.53713,0.2447978,0.8080479,1.715966,0.3317571,0.07664217,0.01952838,0.02032624,-1.272211,0.04129338,0.1102807,0.9457687,1.73484,0.1255879,0.3065578,1.460631,0.3709486,280.1748,288.5979,327.7346,True
0,3.188883,0.0837867,0.02419512,0.02216299,-1.537951,1.53879,-2.228409,0.6654692,1.486919,0.4526443,-0.9217978,0.01860169,100,100,0.03220972,0.01315692,-0.05807662,-0.4137711,-4.536689,0.243467,0.8076581,1.715992,0.3317764,0.08106236,0.009906147,0.0383594,-1.271364,0.04121149,0.1093534,0.9455385,1.734921,0.1255064,0.3063519,1.460114,0.3707276,280.236,288.509,327.8019,True
0,3.199994,0.07624314,0.04977371,0.02949284,-1.539429,1.538373,-2.228959,0.665364,1.486571,0.4525995,-0.9217877,0.0008012299,97.86,100,0.04270104,-0.001669165,-0.0763526,-0.4153562,-4.537171,0.2430561,0.8073277,1.715961,0.3318732,0.08650235,-0.003984086,0.05212245,-1.270374,0.0405409,0.1083861,0.9450719,1.735014,0.1254663,0.3061813,1.459613,0.3704298,280.3005,288.4714,327.7849,True
0,3.211105,0.07084397,0.07109887,0.03683981,-1.540942,1.537969,-2.229524,0.6652313,1.48631,0.4524384,-0.9218324,-0.004058965,95.24,100,0.0628766,-0.001632197,-0.08399384,-0.4165844,-4.536237,0.240832,0.8070372,1.715886,0.3318865,0.07372114,-0.01676575,0.05435944,-1.269697,0.03966552,0.1082817,0.9445475,1.735082,0.1254091,0.3060332,1.459124,0.3701127,280.3528,288.5746,327.5969,True
0,3.222216,0.06547359,0.08387955,0.03997392,-1.542354,1.537566,-2.230038,0.665144,1.486048,0.4523742,-0.9216561,0.01621292,92.8,100,0.07028231,-0.00373875,-0.08940074,-0.4177818,-4.535851,0.2395537,0.8067183,1.715831,0.3320096,0.0641482,-0.02101771,0.05657307,-1.269046,0.03919001,0.108066,0.9441533,1.735176,0.125385,0.3059089,1.458646,0.3698235,280.4026,288.7246,327.3572,True
0,3.233327,0.05904707,0.09022537,0.03461347,-1.543359,1.536848,-2.230393,0.6650932,1.485936,0.4524496,-0.9216859,-0.002904349,90.51,100,0.0598098,0.012142,-0.06898898,-0.4177125,-4.534208,0.2377305,0.8063191,1.715888,0.3320131,0.0532588,-0.00814553,0.03008185,-1.269412,0.03970294,0.1076231,0.9437685,1.735322,0.1255057,0.3057924,1.458196,0.3696226,280.4821,289.0223,326.9826,True
0,3.244438,0.05586579,0.08701198,0.0335675,-1.544208,1.536594,-2.230989,0.6648859,1.485829,0.452419,-0.921679,0.0007218118,88.37,100,0.05145574,0.03015751,-0.04964834,-0.4173328,-4.531959,0.2354383,0.80601,1.715905,0.3320279,0.04893169,-0.003859967,0.02267689,-1.269403,0.03981293,0.1071928,0.9433697,1.735443,0.1255443,0.3056623,1.457801,0.36952,280.5756,289.3766,326.6076,True
0,3.255549,0.05272937,0.06993894,0.03046526,-1.54452,1.536646,-2.231478,0.6646896,1.485766,0.452467,-0.9215709,0.009902851,87.53,100,0.03773316,0.04712964,-0.03559626,-0.4170505,-4.529551,0.2332764,0.8056151,1.71603,0.3320458,0.03300256,0.0164052,0.02501829,-1.268878,0.04078578,0.1070966,0.9430381,1.735586,0.1256564,0.3055475,1.45747,0.3695322,280.6594,289.609,326.3642,True
0,3.26666,0.05171274,0.05608486,0.03053997,-1.544855,1.536831,-2.231995,0.6644564,1.485707,0.4524658,-0.9218282,-0.02354577,86.74,100,0.03136805,0.05030877,-0.03232764,-0.4171682,-4.527946,0.2317126,0.8051536,1.716096,0.3320825,0.03844871,0.0227563,0.03563295,-1.268057,0.04104437,0.1062612,0.9426643,1.735789,0.1257191,0.3054174,1.457234,0.3696888,280.7338,289.7065,326.2654,True
0,3.277771,0.04859379,0.03367417,0.02533525,-1.54454,1.537163,-2.232446,0.6641665,1.485738,0.4525352,-0.9217749,0.005091239,86.01,100,0.03231147,0.05890697,-0.04721234,-0.4180439,-4.525001,0.2285306,0.8046727,1.716186,0.3320973,0.05031243,0.01949626,0.05043077,-1.266923,0.04089657,0.1052332,0.9422507,1.735958,0.125742,0.3052271,1.457087,0.3699463,280.7624,289.914,326.1253,True
0,3.288882,0.04764084,0.001674073,0.01805265,-1.543779,1.537745,-2.232996,0.6637937,1.485739,0.4525435,-0.9218149,-0.003714219,85.32,100,0.03123702,0.05784323,-0.04827525,-0.4185158,-4.523409,0.2267162,0.8042868,1.716134,0.3321199,0.05043488,0.008823568,0.06531867,-1.265728,0.04073118,0.1048239,0.9418005,1.736031,0.1257129,0.3050126,1.456999,0.3702352,280.7572,290.1604,325.9877,True
0,3.299993,0.04662023,-0.01222328,0.009603959,-1.543229,1.537949,-2.23352,0.6634451,1.485853,0.4525833,-0.921776,0.003623031,84.67,100,0.02916263,0.05994244,-0.04185465,-0.4185951,-4.521497,0.2247064,0.8038758,1.716239,0.3320971,0.051627,-0.01359584,0.08124191,-1.264261,0.03949175,0.1045174,0.9412915,1.73622,0.1256378,0.3047758,1.456944,0.3704812,280.7381,290.4069,325.8559,True
0,3.311104,0.04348939,-0.03250906,0.003318844,-1.542271,1.538389,-2.233878,0.6630172,1.48596,0.4526439,-0.9218862,-0.010134,85.16,100,0.02299246,0.06088715,-0.01623305,-0.4177749,-4.519916,0.2232461,0.803264,1.7163,0.3322184,0.04838302,-0.02530626,0.0790947,-1.26383,0.03870452,0.1044457,0.9410467,1.736438,0.1256504,0.3045002,1.456895,0.3706327,280.7059,290.4374,325.9086,True
0,3.322215,0.04138917,-0.04214203,-0.004086291,-1.541474,1.538617,-2.23431,0.6626572,1.486141,0.4526787,-0.9219006,-0.001189237,85.63,100,0.00712499,0.06189222,-0.003305925,-0.4171996,-4.518423,0.2223838,0.8028488,1.716425,0.3321912,0.04300069,-0.0167645,0.07171848,-1.263178,0.03867762,0.1041149,0.9406925,1.736571,0.1256447,0.3041812,1.456825,0.3706539,280.6702,290.2693,326.1115,True
0,3.333326,0.03929906,-0.05604027,-0.01253526,-1.540362,1.5389,-2.234677,0.6622425,1.486335,0.4526939,-0.9217456,0.01420275,86.06,100,-0.007572547,0.05644448,0.02129699,-0.4160854,-4.518071,0.2225843,0.8024826,1.71646,0.3321161,0.0278636,0.01421529,0.04528624,-1.263725,0.03999482,0.1041006,0.9405322,1.736719,0.1257856,0.3038285,1.456732,0.3705686,280.6662,289.9748,326.3745,True
0,3.344437,0.03395383,-0.05288406,-0.01680706,-1.539874,1.538916,-2.234845,0.6619126,1.486513,0.4527628,-0.9218319,-0.007981983,86.47,100,-0.01604458,0.04895492,0.02772789,-0.4155096,-4.517768,0.2228003,0.8021033,1.716495,0.3320751,0.02452416,0.02917495,0.02830711,-1.263866,0.04079723,0.1036678,0.9403287,1.736679,0.1258748,0.3034418,1.456622,0.3704048,280.6848,289.5453,326.737,True
0,3.355548,0.02542928,-0.05292674,-0.01892833,-1.539227,1.539038,-2.23483,0.6615009,1.486675,0.4528482,-0.9218016,0.002874073,87.65,100,-0.02147479,0.05220988,0.01607041,-0.415622,-4.515943,0.2216115,0.8018287,1.716578,0.3321505,0.02656242,0.05050845,0.0155545,-1.264011,0.04217209,0.1028702,0.9400508,1.736776,0.125948,0.3030635,1.456516,0.3702022,280.7192,289.057,327.1487,True
0,3.366659,0.01263002,-0.04871801,-0.0200101,-1.538695,1.538986,-2.234561,0.6610941,1.4868,0.4529531,-0.9216349,0.01519746,88.75,100,-0.01837562,0.0512075,0.005388305,-0.4157008,-4.514133,0.2200685,0.8014758,1.716627,0.3320265,0.03937736,0.04408421,0.01967191,-1.263652,0.04230645,0.1019613,0.9396647,1.736776,0.1258843,0.3026925,1.456427,0.3699999,280.7516,288.5361,327.5874,True
0,3.37777,0.004101546,-0.04769541,-0.02213704,-1.538105,1.539032,-2.234317,0.660763,1.48696,0.453007,-0.9214751,0.01449487,89.79,100,-0.0184614,0.04166765,-0.004246565,-0.4160502,-4.513593,0.2197971,0.80124,1.716658,0.3320642,0.05755726,0.01206105,0.03114305,-1.262963,0.0411517,0.1010132,0.939307,1.736885,0.125833,0.3023391,1.45638,0.3698524,280.7914,288.1544,327.8827,True
0,3.388881,-0.01080095,-0.0498746,-0.02104691,-1.537458,1.539228,-2.233751,0.6604862,1.487047,0.4531024,-0.9212764,0.01811365,90.76,100,-0.002483526,0.01821976,-0.003434341,-0.4161099,-4.51509,0.2207308,0.8011044,1.716823,0.3321717,0.06296213,-0.009267211,0.04275943,-1.26216,0.04042891,0.1004249,0.9388731,1.737004,0.1258194,0.3019504,1.456397,0.3697886,280.8132,287.8578,328.1159,True
0,3.399992,-0.02146371,-0.04564165,-0.01892721,-1.537091,1.539338,-2.233225,0.6601532,1.487211,0.453161,-0.9213579,-0.007538171,91.66,100,0.01252844,0.004309645,0.008084795,-0.415728,-4.516373,0.2212509,0.8009248,1.71691,0.3322122,0.0672735,-0.03806111,0.05223489,-1.261433,0.03887137,0.1000123,0.9385433,1.737081,0.1256938,0.3015398,1.456495,0.3698259,280.8215,287.6386,328.3076,True
0,3.411103,-0.03004116,-0.03074017,-0.0157968,-1.537239,1.539184,-2.232534,0.6599525,1.487357,0.4531832,-0.9211331,0.02069787,93.37,100,0.03074682,-0.01919913,0.02166156,-0.4151932,-4.519145,0.2228965,0.8007118,1.717021,0.332202,0.06509205,-0.05828537,0.051133,-1.261158,0.03759784,0.09990503,0.9382396,1.737275,0.1256177,0.3011831,1.456672,0.3699467,280.8025,287.4975,328.4688,True
0,3.422215,-0.03863651,-0.00944498,-0.01057994,-1.537588,1.538861,-2.231822,0.6597216,1.487373,0.4531555,-0.921246,-0.01043356,94.97,100,0.04141155,-0.02774151,0.02365822,-0.4150414,-4.520878,0.223754,0.8004946,1.717103,0.3322115,0.06076062,-0.08064848,0.0468636,-1.260915,0.03565414,0.09988452,0.9379038,1.737342,0.125566,0.3008831,1.456928,0.3701183,280.7701,287.4374,328.5753,True
0,3.433326,-0.04830541,0.01506614,-0.002176867,-1.538511,1.538455,-2.230943,0.659592,1.487343,0.4532709,-0.9212034,0.004057474,96.47,100,0.04670159,-0.0245256,0.01936683,-0.4150132,-4.521287,0.2234105,0.8002173,1.717175,0.3322551,0.05439807,-0.05825792,0.04697402,-1.260422,0.03585653,0.09949303,0.9375783,1.737465,0.1256037,0.3006011,1.457277,0.3703071,280.7413,287.5077,328.5623,True
0,3.444437,-0.05474041,0.02889827,-0.001178882,-1.539083,1.537987,-2.230226,0.6593949,1.487377,0.4533834,-0.9212779,-0.006793478,97.87,100,0.03911153,-0.001007758,0.003567757,-0.4153764,-4.51908,0.2212112,0.7999244,1.717204,0.3323493,0.0553977,-0.04970545,0.0384586,-1.26032,0.03574548,0.0988086,0.9371582,1.737642,0.1256039,0.3003626,1.457714,0.3704922,280.6992,287.7622,328.3653,True
0,3.455548,-0.05693436,0.04701709,0.001923641,-1.540082,1.537387,-2.229505,0.6592908,1.487374,0.4534953,-0.9212162,0.005781834,100,100,0.03581738,0.01289989,-0.008053278,-0.4157109,-4.517354,0.219331,0.7996364,1.717328,0.3324041,0.06066814,-0.04543676,0.03202545,-1.260228,0.03538942,0.09805918,0.9367796,1.73779,0.1256278,0.3001489,1.458203,0.3706661,280.6163,288.1567,328.003,True
0,3.466659,-0.05693125,0.04701895,0.0008499026,-1.540433,1.536923,-2.228949,0.6590798,1.487561,0.4536588,-0.9214585,-0.02217681,100,100,0.03792586,0.0150478,-0.01126382,-0.4159314,-4.51672,0.2181686,0.7994585,1.717407,0.3325498,0.05972155,-0.0507971,0.04585285,-1.259577,0.03447142,0.09782616,0.9364761,1.737977,0.125531,0.2999676,1.458722,0.370849,280.533,288.6446,327.5083,True
0,3.47777,-0.05051988,0.0417161,0.000870904,-1.540642,1.536765,-2.228624,0.6589315,1.487697,0.453779,-0.9215592,-0.008920074,100,100,0.0485779,0.01291499,-0.01136707,-0.4160561,-4.51649,0.2170727,0.799244,1.717601,0.332598,0.05340018,-0.05933049,0.05441663,-1.258777,0.03339111,0.09779074,0.9360907,1.738144,0.125443,0.2997815,1.459245,0.3710566,280.4475,289.0573,327.081,True
