loc,t,aDotUA,bDotUA,gDotUA,aUA,bUA,gUA,xUA,yUA,zUA,qE,qDotE,emgA,emgB,aDotSH,bDotSH,gDotSH,aSH,bSH,gSH,xSH,ySH,zSH,aDotUB,bDotUB,gDotUB,aUB,bUB,gUB,xUB,yUB,zUB,xHand,yHand,zHand,aHand,bHand,gHand,enable
3,0,-0.1757938,-0.8463821,-0.01356531,-1.475302,-4.346851,-3.090062,0.7192664,1.125592,0.4306557,-1.406298,0.2316236,1.5,1.8,-0.1832034,0.1275786,0.06683595,-0.678476,-4.567389,0.1089726,0.7650795,1.356528,0.3763313,-0.07190815,0.06667543,-0.08432369,-0.984022,-0.01132003,0.0731557,0.8514836,1.409308,0.1863158,0.4890251,0.9859104,0.2725766,299.2888,257.6709,343.8716,True
3,0.01111111,-0.1812343,-0.7419132,-0.000301986,-1.475451,-4.341847,-3.088286,0.7186424,1.125658,0.4302523,-1.407973,-0.1550043,1.5,1.8,-0.1599396,0.1351406,0.03796621,-0.6787103,-4.564597,0.1079187,0.7651086,1.356522,0.3763113,-0.09848052,0.09019008,-0.08410219,-0.9848897,-0.009120794,0.07414826,0.8518008,1.409415,0.1863291,0.4897976,0.9858214,0.2686118,299.2683,252.2452,347.8615,True
3,0.02222222,-0.1812343,-0.7419132,-0.000301986,-1.475451,-4.341847,-3.088286,0.7186424,1.125658,0.4302523,-1.408135,-0.01316764,1.5,1.8,-0.1599396,0.1351406,0.03796621,-0.6787103,-4.564597,0.1079187,0.7651086,1.356522,0.3763113,-0.09848052,0.09019008,-0.08410219,-0.9848897,-0.009120794,0.07414826,0.8518008,1.409415,0.1863291,0.4913954,0.9851636,0.2633577,299.753,250.5228,347.8879,True
3,0.03333334,-0.1942945,-0.4817389,0.04401674,-1.477316,-4.338349,-3.083789,0.7179636,1.125615,0.4294553,-1.410624,-0.2275601,1.5,1.8,-0.1140319,0.2342793,0.004210688,-0.678755,-4.551704,0.09915108,0.7651716,1.356321,0.3763332,-0.1131893,0.1360625,-0.07864867,-0.9861962,-0.003513109,0.07374399,0.8523319,1.409359,0.1865969,0.4935026,0.9842082,0.2579301,300.2961,249.5608,346.731,True
3,0.04444445,-0.21358,-0.366605,0.06146931,-1.478521,-4.338141,-3.080797,0.7178113,1.125631,0.4291451,-1.406379,0.3901527,0.9,1.8,-0.09024847,0.2734143,0.03626733,-0.676739,-4.544839,0.09397683,0.7654302,1.356225,0.3762443,-0.09809953,0.149887,-0.0659839,-0.9862421,-0.0005171859,0.07230482,0.8526342,1.409278,0.1866448,0.495608,0.9831816,0.2533066,300.7638,248.7101,345.6626,True
3,0.05555556,-0.2562983,-0.2622108,0.06726998,-1.479402,-4.33857,-3.076407,0.7176598,1.125565,0.4287856,-1.408013,-0.1529047,0.9,1.8,-0.07177907,0.2452294,0.102013,-0.6731209,-4.542708,0.09242661,0.7658473,1.356132,0.3760912,-0.04807759,0.1326754,-0.06427344,-0.986821,0.0003984089,0.07068136,0.8530308,1.409097,0.1867666,0.496949,0.9822711,0.2495249,301.3197,248.0395,345.1074,True
3,0.06666667,-0.3182001,-0.1407937,0.07295858,-1.480401,-4.340829,-3.070582,0.7178178,1.12528,0.4283667,-1.407951,0.007404994,0.9,1.8,-0.04417659,0.1415701,0.138442,-0.670519,-4.546162,0.09474302,0.7663822,1.355998,0.3760097,-0.005713128,0.09527782,-0.07953938,-0.9880967,0.0005877597,0.06921822,0.8534143,1.408945,0.1866596,0.4976361,0.9818488,0.2469236,301.682,247.6007,344.7751,True
3,0.07777778,-0.3844212,0.03396092,0.09114329,-1.482391,-4.346729,-3.063515,0.7180563,1.12494,0.4280052,-1.406748,0.1099489,0.9,1.8,0.0001875907,0.0103374,0.145815,-0.6691315,-4.553275,0.09883497,0.7668413,1.355915,0.3759561,-0.006002873,0.07077356,-0.1029794,-0.9900717,0.0006395581,0.06953913,0.8537551,1.409008,0.1865127,0.497609,0.9820507,0.2456453,301.8013,247.5227,344.5475,True
3,0.08888889,-0.4186356,0.1618719,0.109593,-1.48466,-4.352309,-3.057218,0.7181917,1.12472,0.4276228,-1.405623,0.1021073,0.9,1.8,0.02729782,-0.08430261,0.1055936,-0.6697978,-4.55933,0.1024441,0.7673527,1.355751,0.3758552,-0.009274788,0.06440295,-0.1093373,-0.9913601,0.001580719,0.06931196,0.8540608,1.409194,0.1867497,0.4967962,0.9828867,0.2455625,301.6603,247.7263,344.5307,True
3,0.1,-0.4186356,0.1618719,0.109593,-1.48466,-4.352309,-3.057218,0.7181917,1.12472,0.4276228,-1.404992,0.05720073,0.9,1.8,0.02729782,-0.08430261,0.1055936,-0.6697978,-4.55933,0.1024441,0.7673527,1.355751,0.3758552,-0.009274788,0.06440295,-0.1093373,-0.9913601,0.001580719,0.06931196,0.8540608,1.409194,0.1867497,0.4952561,0.984327,0.2464445,301.2994,248.2434,344.5876,True
3,0.1111111,-0.4828456,0.4741428,0.1451088,-1.490607,-4.371485,-3.04277,0.7184813,1.124552,0.4268348,-1.411734,-0.6166252,0.5,1.5,0.01803499,-0.1209628,0.01486943,-0.6722298,-4.564211,0.1062532,0.7683231,1.355445,0.3759131,0.04656909,0.08017875,-0.06080457,-0.9910735,0.004106861,0.06554865,0.8545419,1.409162,0.1868904,0.4931435,0.9863502,0.2480475,300.808,249.0273,344.6781,True
3,0.1222222,-0.4828456,0.4741428,0.1451088,-1.490607,-4.371485,-3.04277,0.7184813,1.124552,0.4268348,-1.400283,1.052406,0.5,1.5,0.01803499,-0.1209628,0.01486943,-0.6722298,-4.564211,0.1062532,0.7683231,1.355445,0.3759131,0.04656909,0.08017875,-0.06080457,-0.9910735,0.004106861,0.06554865,0.8545419,1.409162,0.1868904,0.491019,0.9886799,0.2501005,300.037,249.8047,344.8055,True
3,0.1333333,-0.4967327,0.5167539,0.1469987,-1.493051,-4.378592,-3.036191,0.7184224,1.12461,0.4264498,-1.411716,-1.054649,0.5,1.5,0.0222911,-0.1113531,0.009573163,-0.6723747,-4.56557,0.1069334,0.7689875,1.35529,0.3757906,0.06040729,0.07693915,-0.06092147,-0.9917052,0.005065599,0.06384689,0.8549232,1.409135,0.1868365,0.4880891,0.9912131,0.2522524,299.6042,251.3053,344.3592,True
3,0.1444445,-0.5169755,0.5187387,0.1246165,-1.494162,-4.383827,-3.029373,0.7182056,1.12484,0.4261539,-1.407143,0.4282208,0.5,1.5,0.03222932,-0.08073165,0.04592452,-0.6706138,-4.565745,0.1063264,0.7697539,1.35521,0.3756638,0.07083771,0.05453368,-0.07700546,-0.9934193,0.004873851,0.06312837,0.8553697,1.409076,0.1866159,0.4856564,0.9939238,0.2543418,298.7906,252.0636,344.6443,True
3,0.1555556,-0.5573838,0.44171,0.07390901,-1.493317,-4.385859,-3.021764,0.7177315,1.125084,0.4258134,-1.406747,0.03176137,0.1,1.5,0.05075301,-0.08439352,0.1086276,-0.6675879,-4.567853,0.1068537,0.77061,1.355289,0.3756247,0.1036364,0.0001409054,-0.08473092,-0.9944835,0.003423893,0.06156776,0.8558944,1.408626,0.1859291,0.4833055,0.9964707,0.2560593,298.1675,252.9936,344.4949,True
3,0.1666667,-0.6179904,0.3102551,0.009659931,-1.491152,-4.384842,-3.01283,0.7171822,1.125495,0.4255288,-1.406644,0.009603162,0.1,1.5,0.05840623,-0.1177351,0.1531066,-0.6647186,-4.572435,0.1095121,0.7715737,1.35534,0.3755634,0.1205304,-0.02227661,-0.09234083,-0.9958609,0.002497912,0.0604447,0.8563668,1.40858,0.1856084,0.4810849,0.9988586,0.2573069,297.6885,253.8406,344.2579,True
3,0.1777778,-0.680701,0.1585688,-0.05342141,-1.488,-4.381789,-3.003515,0.7162997,1.126015,0.4251108,-1.405908,0.06755649,0.1,1.5,0.0680161,-0.1840464,0.1888296,-0.6620213,-4.580002,0.1143971,0.772566,1.355528,0.3755734,0.1386488,-0.05216376,-0.07971111,-0.9963589,0.0007275756,0.05932964,0.8567575,1.408729,0.1855886,0.4790973,1.001105,0.2579962,297.2794,254.2397,344.2899,True
3,0.1888889,-0.8094596,-0.01263474,-0.1707289,-1.480722,-4.378256,-2.982449,0.714798,1.127423,0.4243994,-1.404663,0.1134608,0.1,1.5,0.06269757,-0.1968656,0.1973045,-0.6581459,-4.588615,0.1200883,0.7746403,1.355769,0.375428,0.1589908,-0.08525489,-0.0522149,-0.9972361,-0.002404435,0.05740017,0.8575954,1.408672,0.1852677,0.4774025,1.003246,0.258011,296.9016,254.1235,344.6364,True
3,0.2,-0.8435281,-0.03207736,-0.2132361,-1.47684,-4.377853,-2.972067,0.7138199,1.128265,0.4240057,-1.394308,0.9464623,0,1.1,0.05322929,-0.1702309,0.2018075,-0.6558524,-4.590422,0.1212452,0.7757219,1.355888,0.375397,0.1686837,-0.1087246,-0.0309932,-0.9969378,-0.004826314,0.0565437,0.8580983,1.408709,0.1849539,0.4759057,1.005386,0.2571951,296.6217,253.5003,345.2878,True
3,0.2111111,-0.8893334,-0.03775729,-0.2686092,-1.472076,-4.378182,-2.960802,0.7128751,1.129248,0.4237506,-1.403542,-0.8515228,0,1.1,0.04622088,-0.1332339,0.250036,-0.651495,-4.591756,0.1220457,0.7769179,1.356085,0.3751833,0.1888164,-0.1354343,-0.03329588,-0.9975381,-0.007847403,0.05552345,0.858587,1.408482,0.1847072,0.4739313,1.008026,0.2552253,296.7365,252.1597,346.3304,True
3,0.2222222,-0.9372887,-0.01244966,-0.3071218,-1.467488,-4.37974,-2.948751,0.7117146,1.130377,0.4233475,-1.406062,-0.221399,0,1.1,0.05095031,-0.08988662,0.2982274,-0.6464115,-4.592022,0.1215741,0.7782092,1.356396,0.3750238,0.1863501,-0.1599386,-0.06310908,-0.9994662,-0.01101111,0.0553538,0.8590813,1.408569,0.1845839,0.4721119,1.011667,0.2527349,296.4003,251.0139,346.8124,True
3,0.2333333,-0.9873905,0.02678056,-0.3307718,-1.463555,-4.382117,-2.935945,0.7106556,1.1316,0.4230931,-1.405864,0.01962421,0,1.1,0.08664258,-0.07983312,0.3715622,-0.6397887,-4.594283,0.1210369,0.7797856,1.356862,0.3747199,0.1797697,-0.1854985,-0.07584081,-1.000903,-0.01455018,0.05552371,0.859696,1.408489,0.1842284,0.4704926,1.016126,0.2502334,295.5712,250.0595,346.9626,True
3,0.2444444,-1.019367,0.0490563,-0.3436939,-1.4596,-4.384237,-2.923494,0.7095349,1.132807,0.4227386,-1.405552,0.02837881,0.1,0.8,0.08968267,-0.137404,0.3764915,-0.6361786,-4.601051,0.125408,0.7811653,1.357267,0.3744731,0.1872172,-0.2015133,-0.07058534,-1.001704,-0.01795796,0.05511199,0.8603355,1.408297,0.1836591,0.4688358,1.021118,0.2480811,294.4969,249.0112,347.2515,True
3,0.2555556,-1.068402,0.08508985,-0.3683962,-1.455353,-4.387376,-2.909741,0.7083117,1.134111,0.4225097,-1.405287,0.02431307,0.1,0.8,0.06221327,-0.3246027,0.344568,-0.6346904,-4.617973,0.1391408,0.7826707,1.357661,0.3742316,0.1870856,-0.2260301,-0.07698232,-1.002999,-0.02204152,0.05521585,0.8609438,1.408295,0.1832123,0.4668025,1.026413,0.2465029,293.408,248.0281,347.6816,True
3,0.2666667,-1.10037,0.09881924,-0.3865922,-1.450922,-4.390022,-2.896289,0.7071118,1.13535,0.4222407,-1.406026,-0.06749253,0.1,0.8,0.05346671,-0.3649691,0.3315774,-0.6323292,-4.627527,0.1465764,0.7840216,1.357951,0.3739722,0.1719837,-0.2472681,-0.08964819,-1.004643,-0.02561322,0.05595754,0.8614936,1.408093,0.1822419,0.4643632,1.03188,0.2456715,292.3706,247.271,348.2163,True
3,0.2777778,-1.16218,0.1262956,-0.4165791,-1.446006,-4.393755,-2.880817,0.7058024,1.136793,0.4221079,-1.40535,0.06278253,0.1,0.8,0.01022553,-0.4625487,0.2875631,-0.6319617,-4.642112,0.1597577,0.7853035,1.358157,0.3738053,0.1709143,-0.2600488,-0.08537956,-1.005651,-0.02946402,0.05617326,0.8620664,1.40805,0.1816652,0.461566,1.037378,0.2455629,291.3511,246.6283,348.9725,True
3,0.2888889,-1.188799,0.1283302,-0.4293782,-1.44149,-4.396486,-2.866822,0.7045515,1.138201,0.4219334,-1.405934,-0.05376171,0.1,0.8,-0.006887972,-0.4773784,0.2833186,-0.6298205,-4.652034,0.1682281,0.7866734,1.358494,0.373605,0.1805423,-0.2749916,-0.07375055,-1.00635,-0.03348579,0.05612293,0.8625978,1.408119,0.1812754,0.4584478,1.04282,0.2460759,290.4016,246.0171,349.9275,True
3,0.3,-1.226087,0.1314623,-0.4347256,-1.437124,-4.399408,-2.851537,0.7032492,1.139726,0.4217618,-1.404577,0.1249032,0,0.7,-0.02470011,-0.4188254,0.2987337,-0.6265023,-4.657635,0.1736876,0.7879691,1.358793,0.3733096,0.191212,-0.286744,-0.06745011,-1.007064,-0.03771662,0.05588324,0.8631234,1.408053,0.180742,0.4551825,1.048159,0.2470473,289.5045,245.3833,351.0591,True
3,0.3111111,-1.265509,0.134595,-0.4411433,-1.432727,-4.402484,-2.835812,0.7019989,1.141439,0.4215155,-1.406236,-0.1524105,0,0.7,-0.01342592,-0.3157869,0.3387401,-0.6214513,-4.658999,0.1744251,0.7893844,1.359163,0.3729682,0.1890788,-0.287791,-0.0695541,-1.007954,-0.04122533,0.05549468,0.8637755,1.407621,0.1802018,0.4517964,1.053452,0.2482798,288.7519,244.7248,352.2763,True
3,0.3222222,-1.288944,0.1334673,-0.4485966,-1.428211,-4.405478,-2.820343,0.7007475,1.143105,0.4212799,-1.405606,0.05929759,0,0.7,0.02450743,-0.2406526,0.3975639,-0.6152626,-4.661208,0.1747087,0.7907037,1.359584,0.3726282,0.1848794,-0.2824518,-0.06419127,-1.008634,-0.04464843,0.05542757,0.8643599,1.407551,0.1797328,0.4485377,1.058758,0.2495743,288.0127,244.0947,353.5179,True
3,0.3333333,-1.324101,0.1344029,-0.4656448,-1.42331,-4.408729,-2.804095,0.6994801,1.145007,0.4210944,-1.40551,0.008371447,0,0.7,0.04287136,-0.2131683,0.4210596,-0.610208,-4.665606,0.1772296,0.7920265,1.359999,0.3723042,0.1881602,-0.2760661,-0.05888557,-1.009175,-0.04784835,0.054651,0.8648731,1.407593,0.1795154,0.4454277,1.064139,0.2506783,287.3358,243.4565,354.7271,True
3,0.3444445,-1.356077,0.1513781,-0.4731953,-1.418935,-4.412828,-2.787379,0.6982826,1.146831,0.4207377,-1.406178,-0.06073472,0,0.7,0.03861468,-0.2291888,0.4295086,-0.6059123,-4.67265,0.1827765,0.7934142,1.360373,0.3719151,0.1838637,-0.2707364,-0.06843408,-1.010461,-0.05129475,0.05421051,0.8654778,1.40771,0.1793702,0.4425111,1.069712,0.2514191,286.679,242.5956,356.0424,True
3,0.3555556,-1.383794,0.1607801,-0.4998721,-1.413728,-4.417036,-2.770339,0.6970836,1.148756,0.4203973,-1.405906,0.02563756,0.1,0.5,0.02028155,-0.2684513,0.4144681,-0.6027011,-4.681661,0.1905287,0.795046,1.360792,0.371496,0.1848136,-0.2845876,-0.07696633,-1.011805,-0.05548776,0.05436817,0.8660905,1.40765,0.1788509,0.439832,1.075531,0.2517329,285.9626,241.3679,357.5352,True
3,0.3666667,-1.410448,0.1841647,-0.5053278,-1.40932,-4.421974,-2.752718,0.6958447,1.150737,0.4201753,-1.405917,-0.0009701992,0.1,0.5,-0.009725571,-0.2959931,0.4038339,-0.5994546,-4.690586,0.1991235,0.7967457,1.361125,0.3709555,0.1932428,-0.3027484,-0.08023731,-1.013074,-0.06055469,0.05469627,0.8667798,1.407689,0.1782238,0.4373341,1.081648,0.2516437,285.2136,239.7591,359.2205,True
3,0.3777778,-1.428611,0.2247061,-0.4916928,-1.406216,-4.427584,-2.735114,0.694858,1.152622,0.4200313,-1.406016,-0.008755655,0.1,0.5,-0.01286364,-0.3003129,0.4144804,-0.5952581,-4.698507,0.2059433,0.7983305,1.361331,0.3704839,0.2070365,-0.3230326,-0.07929052,-1.014173,-0.06553853,0.05457616,0.8673832,1.40766,0.1776168,0.4349529,1.088089,0.2512499,284.3896,237.8244,1.128366,True
3,0.3888889,-1.430832,0.3113744,-0.4229128,-1.406362,-4.434463,-2.717716,0.6938044,1.154557,0.4200525,-1.405955,0.005924694,0.1,0.5,0.02666703,-0.299477,0.4301896,-0.5907653,-4.706081,0.2105647,0.7998321,1.361512,0.3700402,0.225048,-0.3294425,-0.08159894,-1.015551,-0.0694125,0.05432928,0.8682514,1.407939,0.1763687,0.4326621,1.094839,0.2507034,283.5208,235.3386,3.498983,True
3,0.4,-1.42766,0.3409809,-0.4635587,-1.402389,-4.441641,-2.700651,0.6926836,1.156429,0.4198277,-1.406454,-0.0454185,0,0.2,0.08206856,-0.3124916,0.4371872,-0.5865506,1.568268,0.2151427,0.8013742,1.361767,0.3696275,0.2421033,-0.3316269,-0.07961233,-1.01654,-0.07381856,0.05332314,0.8688495,1.407923,0.1757252,0.4304424,1.101888,0.2502135,282.6226,232.6105,6.062527,True
3,0.4111111,-1.437232,0.3239402,-0.4623885,-1.398891,-4.446635,-2.68332,0.6915646,1.158353,0.4198411,-1.407241,-0.07127662,0,0.2,0.1147485,-0.3571611,0.4089742,-0.5842379,1.557124,0.2219961,0.8028593,1.361943,0.369117,0.2411332,-0.3177933,-0.07001226,-1.017138,-0.0775924,0.05298625,0.8692189,1.40762,0.1752276,0.4283477,1.109203,0.2500055,281.679,230.0321,8.500948,True
3,0.4222222,-1.469189,0.3207139,-0.4623712,-1.395958,-4.452116,-2.664824,0.6906762,1.160199,0.4194729,-1.407948,-0.06385702,0,0.2,0.07047325,-0.4440729,0.3639603,-0.5836477,1.542321,0.2351947,0.8043953,1.362078,0.3687108,0.2337125,-0.3071172,-0.06888109,-1.017998,-0.08114186,0.05258065,0.8697728,1.40757,0.1746264,0.4262206,1.116738,0.2502055,280.6504,227.4224,11.12087,True
3,0.4333333,-1.489444,0.3302892,-0.460294,-1.393303,-4.458256,-2.646282,0.6897033,1.162055,0.4193861,-1.407563,0.03556875,0,0.2,0.03718811,-0.5003587,0.353166,-0.5819358,1.52731,0.248487,0.805872,1.362271,0.3682969,0.2401007,-0.2996514,-0.07212941,-1.019031,-0.08433299,0.05138969,0.8704089,1.407439,0.1740952,0.4240342,1.124287,0.2508311,279.6233,223.0077,15.74953,True
3,0.4444444,-1.495843,0.3387882,-0.4635388,-1.390633,-4.464507,-2.628136,0.6888754,1.16392,0.4191668,-1.406644,0.08378177,0,0.2,0.03278637,-0.5279976,0.3466135,-0.5801622,1.51368,0.2596593,0.8072788,1.362417,0.3679125,0.2455279,-0.2889987,-0.06471397,-1.019601,-0.08748804,0.05004053,0.8708742,1.407345,0.1736126,0.4219253,1.131703,0.2517953,278.6873,218.0161,21.12134,True
3,0.4555556,-1.495843,0.3387882,-0.4635388,-1.390633,-4.464507,-2.628136,0.6888754,1.16392,0.4191668,-1.40689,-0.02291949,0,0.2,0.03278637,-0.5279976,0.3466135,-0.5801622,1.51368,0.2596593,0.8072788,1.362417,0.3679125,0.2455279,-0.2889987,-0.06471397,-1.019601,-0.08748804,0.05004053,0.8708742,1.407345,0.1736126,0.4198987,1.138964,0.2528834,277.8905,212.9849,26.64688,True
3,0.4666667,-1.468182,0.3793872,-0.4477726,-1.389502,-4.471726,-2.611425,0.6880739,1.165731,0.4188616,-1.424108,-1.574156,0.1,0.1,0.08403331,-0.4716345,0.3349186,-0.5777611,1.50608,0.2633408,0.8084913,1.36259,0.3674543,0.2307635,-0.272974,-0.05286833,-1.019957,-0.09043549,0.0494581,0.8713893,1.407334,0.1730602,0.4183481,1.145986,0.2540492,277.0788,206.999,33.1785,True
3,0.4777778,-1.447978,0.4146378,-0.4309122,-1.388846,-4.478918,-2.594628,0.6873317,1.167685,0.4184816,-1.408216,1.465932,0.1,0.1,0.1076615,-0.4088544,0.3330329,-0.5748417,1.499835,0.2666908,0.8098994,1.362776,0.3668423,0.2159336,-0.2643952,-0.04635523,-1.020469,-0.09343661,0.04910043,0.8720449,1.407427,0.1724303,0.4182291,1.15169,0.2552925,275.8944,196.115,44.55316,True
3,0.4888889,-1.421397,0.4691742,-0.3981895,-1.389671,-4.486919,-2.578174,0.6865803,1.16951,0.4181278,-1.407433,0.05728637,0.1,0.1,0.125053,-0.3141298,0.3377936,-0.5710973,1.497378,0.2667582,0.8109758,1.362939,0.3663616,0.1979332,-0.2611443,-0.03448421,-1.020604,-0.09672228,0.04924664,0.8725486,1.407414,0.1718521,0.4174016,1.156403,0.2559716,275.6306,189.8434,51.00266,True
3,0.5,-1.398004,0.5129596,-0.3802821,-1.390471,-4.494959,-2.561835,0.6858403,1.171314,0.4180057,-1.407636,-0.01755776,0.1,0.1,0.1040341,-0.2373796,0.3416329,-0.5673204,1.494806,0.2685244,0.8121673,1.363154,0.3658905,0.196916,-0.2590327,-0.02913956,-1.020817,-0.1004121,0.04893798,0.8729149,1.407184,0.1711996,0.4157595,1.160835,0.2562675,275.8246,188.4353,52.42641,True
3,0.5111111,-1.366071,0.5408488,-0.3516704,-1.391655,-4.502568,-2.546136,0.6850671,1.173217,0.4176967,-1.408292,-0.05960619,0,0.1,0.07651989,-0.191512,0.3463776,-0.5636746,1.491251,0.2715695,0.8131981,1.363449,0.3653779,0.2011911,-0.248394,-0.03130477,-1.021349,-0.1032562,0.04801573,0.8733493,1.407145,0.1706808,0.413624,1.165517,0.256449,276.0383,188.5935,52.30721,True
3,0.5222223,-1.344774,0.5600725,-0.348583,-1.39241,-4.510373,-2.530717,0.6843948,1.175066,0.4172661,-1.408581,-0.02583217,0,0.1,0.07141531,-0.1521793,0.3605164,-0.5596436,1.487875,0.2738062,0.8141974,1.363742,0.3648777,0.193723,-0.2419661,-0.03443269,-1.021904,-0.1059051,0.04760241,0.8739421,1.407129,0.1701391,0.4114351,1.170753,0.2567907,276.067,187.0035,53.99478,True
3,0.5333334,-1.302179,0.5773574,-0.3124568,-1.394634,-4.517591,-2.516437,0.6836932,1.176914,0.4167492,-1.409201,-0.05651999,0,0.1,0.07156688,-0.1256086,0.3702745,-0.5555439,1.484564,0.27579,0.8151997,1.363943,0.3642409,0.1767865,-0.2333913,-0.02469905,-1.021952,-0.1086141,0.04760187,0.8744086,1.407099,0.1696036,0.4095139,1.176648,0.2574782,275.9308,182.5314,58.65317,True
3,0.5444446,-1.268127,0.606215,-0.2976886,-1.396904,-4.525457,-2.502082,0.6832886,1.178611,0.4161572,-1.40956,-0.03236845,0,0.1,0.04196492,-0.1182362,0.3992888,-0.5506698,1.479868,0.2802641,0.8161125,1.364225,0.3636336,0.1555578,-0.237587,-0.01386734,-1.021867,-0.1118765,0.0482919,0.8748556,1.40713,0.1690521,0.407947,1.183188,0.258507,275.7081,174.9717,66.55465,True
3,0.5555557,-1.247905,0.6254684,-0.2871422,-1.399164,-4.533381,-2.487562,0.6826655,1.180263,0.4156661,-1.410525,-0.08814265,0,0.1,-0.01235327,-0.1330203,0.4070238,-0.5466633,1.473442,0.287521,0.8170069,1.364405,0.3630109,0.1502472,-0.2311891,-0.01488719,-1.022227,-0.1147973,0.04818963,0.8749437,1.406993,0.16853,0.4067338,1.190234,0.2597894,275.5509,164.533,77.44908,True
3,0.5666668,-1.209631,0.7077423,-0.2492509,-1.404306,-4.542737,-2.473909,0.6822021,1.181552,0.415127,-1.410501,0.00291176,0,0,-0.06125033,-0.1361651,0.4243805,-0.5421269,1.467528,0.2948231,0.8177223,1.364652,0.3625045,0.14188,-0.1992044,-0.008419831,-1.022123,-0.1161229,0.04763543,0.8752612,1.40695,0.1680655,0.4058299,1.197568,0.2612,275.5329,152.0586,90.43404,True
3,0.577778,-1.190523,0.775043,-0.2165774,-1.409992,-4.551973,-2.459859,0.6816009,1.182969,0.4145947,-1.410136,0.0331265,0,0,-0.06971623,-0.09772524,0.4150978,-0.5380549,1.465499,0.2974964,0.8184637,1.364828,0.3620389,0.1408382,-0.184296,-0.01053938,-1.022423,-0.1181353,0.0472008,0.8757068,1.406963,0.1676121,0.4051769,1.204916,0.2626398,275.8246,139.4502,103.5402,True
3,0.5888891,-1.1002,1.019848,-0.07942075,-1.430119,-4.573316,-2.434986,0.680503,1.186108,0.4131987,-1.410993,-0.07877648,0,0,0.001252344,0.03602641,0.2887125,-0.5340581,1.472805,0.2891596,0.8196969,1.365337,0.361222,0.09199058,-0.1415382,-0.007986416,-1.022695,-0.1205866,0.04769881,0.8763058,1.407169,0.1670771,0.4045451,1.212098,0.2640483,276.3757,128.8042,114.5736,True
3,0.6000003,-1.05443,1.061621,-0.04662865,-1.439244,-4.583092,-2.423519,0.6798639,1.187794,0.4124465,-1.399224,1.076817,0,0,0.04647684,0.04605227,0.1979169,-0.5348064,1.475202,0.2849196,0.8201656,1.365498,0.3607709,0.07844099,-0.1180617,0.01876453,-1.021623,-0.121263,0.04763969,0.8765718,1.40727,0.1667509,0.4033766,1.219203,0.2655151,276.7931,120.7963,122.7299,True
3,0.6111114,-1.05443,1.061621,-0.04662865,-1.439244,-4.583092,-2.423519,0.6798639,1.187794,0.4124465,-1.412287,-1.203279,0,0,0.04647684,0.04605227,0.1979169,-0.5348064,1.475202,0.2849196,0.8201656,1.365498,0.3607709,0.07844099,-0.1180617,0.01876453,-1.021623,-0.121263,0.04763969,0.8765718,1.40727,0.1667509,0.4007185,1.227353,0.2673761,276.5988,115.7629,128.0161,True
3,0.6222225,-0.9915306,1.00525,-0.03990573,-1.452448,-4.599146,-2.401193,0.678838,1.190876,0.4112229,-1.423674,-1.029815,0,0,-0.07532848,-0.06219772,0.1959093,-0.5320554,1.463917,0.2995103,0.8209535,1.36585,0.3596888,0.07913139,-0.05948593,0.07841943,-1.01814,-0.1211291,0.04568919,0.8769737,1.407459,0.1659713,0.3991985,1.235436,0.2700127,277.2951,107.542,137.1342,True
3,0.6333337,-1.001053,0.9348721,-0.05016619,-1.457291,-4.605693,-2.389001,0.6779802,1.192255,0.4106328,-1.404312,1.7773,0,0,-0.09644905,-0.06551073,0.2247955,-0.5290273,1.460345,0.3044033,0.8211632,1.36624,0.3592341,0.06474175,-0.07434767,0.01994522,-1.019718,-0.1225214,0.04609479,0.877164,1.407439,0.1655838,0.3993197,1.241964,0.2728318,278.7471,99.63804,145.9256,True
3,0.6444448,-1.001053,0.9348721,-0.05016619,-1.457291,-4.605693,-2.389001,0.6779802,1.192255,0.4106328,-1.410586,-0.5900941,0,0,-0.09644905,-0.06551073,0.2247955,-0.5290273,1.460345,0.3044033,0.8211632,1.36624,0.3592341,0.06474175,-0.07434767,0.01994522,-1.019718,-0.1225214,0.04609479,0.877164,1.407439,0.1655838,0.3980253,1.248566,0.2755071,279.0952,94.7239,151.4278,True
3,0.655556,-1.006311,0.8773684,-0.04771861,-1.462514,-4.611862,-2.377186,0.6770208,1.193597,0.4101152,-1.42199,-1.036393,0,0,-0.1017201,-0.07839216,0.2407328,-0.5264052,1.455767,0.3095698,0.8212987,1.366656,0.3587666,0.04418036,-0.07746958,-0.01716901,-1.021018,-0.1234752,0.04669294,0.8775313,1.407489,0.1652348,0.3972735,1.254521,0.2781563,279.8134,92.00117,155.006,True
3,0.6666671,-0.9881763,0.8519338,-0.02521065,-1.475312,-4.624936,-2.354401,0.6751652,1.196319,0.4090869,-1.410866,1.024798,0,0,-0.2015487,0.001793891,0.2472562,-0.5206336,1.455852,0.3168051,0.8208934,1.367821,0.3575811,-0.04101422,0.0005749315,-0.04200627,-1.0225,-0.1209465,0.04856674,0.8777224,1.407395,0.1646247,0.397718,1.258712,0.2803187,281.0451,89.76875,157.9798,True
3,0.6777782,-0.9466342,0.8573169,-0.02204454,-1.482207,-4.631963,-2.344508,0.6741191,1.197885,0.4085925,-1.398625,1.109175,0,0,-0.1978126,0.1305765,0.2640525,-0.5154836,1.464767,0.3112333,0.8205192,1.368263,0.3568952,-0.04926456,0.04960325,-0.02808017,-1.022234,-0.1183242,0.04803624,0.8777038,1.407485,0.1643786,0.3968394,1.262322,0.2815814,281.3663,88.24433,159.7234,True
3,0.6888894,-0.9466342,0.8573169,-0.02204454,-1.482207,-4.631963,-2.344508,0.6741191,1.197885,0.4085925,-1.409508,-1.003201,0,0,-0.1978126,0.1305765,0.2640525,-0.5154836,1.464767,0.3112333,0.8205192,1.368263,0.3568952,-0.04926456,0.04960325,-0.02808017,-1.022234,-0.1183242,0.04803624,0.8777038,1.407485,0.1643786,0.3939708,1.266951,0.2823542,280.7163,87.39967,160.5819,True
3,0.7000005,-0.8912209,0.8466912,-0.0283711,-1.488423,-4.638855,-2.33565,0.6730601,1.199618,0.4081991,-1.421291,-1.06756,0,0,-0.208007,0.2434559,0.2755092,-0.5104353,1.474579,0.3050947,0.8200228,1.368827,0.3563969,-0.06405319,0.05178031,-0.01304321,-1.021933,-0.1177498,0.04891774,0.8775477,1.407688,0.164233,0.392019,1.27177,0.2832218,280.7056,86.86447,161.378,True
3,0.7111117,-0.8155134,0.7828574,-0.03014719,-1.4994,-4.650418,-2.318567,0.6709489,1.203677,0.4072504,-1.412378,0.822543,0,0.1,-0.243494,0.3604158,0.3276516,-0.4987547,1.49102,0.2973004,0.8193059,1.370461,0.3552163,-0.1041744,0.06148493,0.02671893,-1.020323,-0.1162603,0.05149808,0.8770785,1.40799,0.1637268,0.392036,1.275517,0.2840619,281.619,86.08129,162.42,True
3,0.7222228,-0.7898738,0.7189832,-0.0319311,-1.503475,-4.654944,-2.310237,0.669809,1.20585,0.406764,-1.403487,0.8044204,0,0.1,-0.2209058,0.3815021,0.3489376,-0.4932196,1.497768,0.2929411,0.8188317,1.37143,0.3545823,-0.115667,0.07216929,0.04918559,-1.019097,-0.1150394,0.05239583,0.8770641,1.408038,0.1635497,0.3913433,1.279469,0.2847746,282.0199,84.87222,163.4842,True
3,0.7333339,-0.7706383,0.6518053,-0.04647186,-1.506527,-4.659011,-2.3021,0.6685949,1.208192,0.4062195,-1.411423,-0.7316902,0,0.1,-0.2001743,0.3766866,0.4233397,-0.4853329,1.501855,0.2907858,0.8184042,1.372559,0.353848,-0.1295044,0.05303682,0.05782233,-1.018141,-0.1151182,0.05434233,0.8768522,1.408216,0.1632087,0.3889467,1.285009,0.2858419,281.775,83.78703,164.5009,True
3,0.7444451,-0.7673857,0.605911,-0.06219894,-1.509678,-4.663357,-2.293612,0.6673992,1.21032,0.4056828,-1.412225,-0.06633265,0,0.1,-0.2266269,0.3466707,0.4638104,-0.4785349,1.503639,0.2925022,0.8179137,1.373509,0.3530655,-0.1436654,0.01259889,0.03662691,-1.018586,-0.116563,0.05717541,0.8765626,1.408454,0.1628695,0.3870422,1.291166,0.2874601,282.1021,83.02529,165.6997,True
3,0.7555562,-0.7406456,0.4852034,-0.125446,-1.508458,-4.666824,-2.286028,0.6659419,1.213042,0.4052536,-1.411989,0.02125908,0,0,-0.2980145,0.26463,0.5021101,-0.4719308,1.500028,0.3012126,0.8174679,1.374613,0.3522308,-0.1546599,-0.004407123,0.002626623,-1.019651,-0.1172406,0.05956293,0.8763195,1.408588,0.162487,0.3860197,1.297385,0.2893325,282.9455,82.08694,167.2944,True
3,0.7666674,-0.7256524,0.4072795,-0.1569726,-1.508393,-4.670248,-2.278429,0.6645975,1.21545,0.4048817,-1.41126,0.0661201,0,0,-0.3523712,0.2007318,0.5276304,-0.4656878,1.496377,0.3098047,0.8168406,1.37556,0.3513048,-0.1579376,0.009454519,-0.01226474,-1.020259,-0.1163917,0.06092487,0.8760096,1.408713,0.1620717,0.3856468,1.303423,0.2911385,284.018,81.28487,168.721,True
3,0.7777785,-0.7063643,0.2781484,-0.2009961,-1.505096,-4.672212,-2.271106,0.6629744,1.218222,0.4046383,-1.41171,-0.04188009,0,0,-0.4244893,0.1515021,0.5991759,-0.4570602,1.489916,0.3227328,0.8162485,1.376674,0.3503444,-0.1579505,0.03928453,-0.02504435,-1.020885,-0.114645,0.06172568,0.8756371,1.408776,0.1617496,0.3855055,1.309178,0.2926648,285.0591,80.90625,169.6069,True
3,0.7888896,-0.7020244,0.1874547,-0.2303092,-1.502528,-4.674447,-2.263243,0.6614838,1.220894,0.4044051,-1.411434,0.02522437,0,0,-0.4615143,0.153521,0.6356583,-0.4487655,1.488515,0.3300647,0.8155684,1.377825,0.349458,-0.1707443,0.04358858,-0.02813935,-1.021281,-0.1139029,0.06361227,0.875378,1.408976,0.1613996,0.3852105,1.31462,0.2937104,285.9371,81.36495,169.5164,True
3,0.8000008,-0.6987212,0.06258814,-0.271162,-1.496831,-4.675444,-2.255492,0.6596346,1.223761,0.4042704,-1.411283,0.01344367,0,0,-0.4779319,0.2042716,0.703218,-0.4377928,1.48975,0.334929,0.814859,1.378913,0.3485177,-0.1791629,0.0478753,-0.01741433,-1.021057,-0.1131131,0.06551589,0.874963,1.409104,0.161093,0.3846611,1.319656,0.2942543,286.6233,81.9233,169.1486,True
3,0.8111119,-0.6986393,-0.0334746,-0.3036456,-1.491572,-4.676687,-2.24763,0.6578799,1.226551,0.404088,-1.410487,0.07240426,0,0,-0.453966,0.2539277,0.7555753,-0.4267982,1.49257,0.3363383,0.8141122,1.379953,0.3475788,-0.1789798,0.04254578,0.007083286,-1.02015,-0.1128601,0.06742192,0.8745083,1.40935,0.1609077,0.3837738,1.324286,0.2942483,287.1078,82.76554,168.3797,True
3,0.8222231,-0.7113584,-0.1038746,-0.3192317,-1.486616,-4.677771,-2.239333,0.6561538,1.229401,0.4038484,-1.410234,0.02250632,0,0,-0.4067289,0.3100656,0.7822459,-0.4160252,1.497965,0.3341641,0.8133241,1.380943,0.3468556,-0.1724693,0.0318699,0.02513748,-1.01924,-0.1129692,0.06915963,0.8740889,1.409501,0.1606128,0.3826292,1.328539,0.2937663,287.4116,83.75526,167.3509,True
3,0.8333342,-0.7145269,-0.1359121,-0.3329029,-1.48199,-4.679434,-2.231168,0.6544237,1.232199,0.4035838,-1.409971,0.02375849,0,0,-0.3924025,0.2806394,0.7116469,-0.4101534,1.498169,0.3379514,0.8126253,1.381962,0.3462539,-0.1510481,0.028603,0.03880205,-1.018383,-0.1128542,0.06987016,0.873589,1.409672,0.1604066,0.3812729,1.332508,0.2928435,287.6236,85.09383,165.8998,True
3,0.8444453,-0.7134345,-0.154166,-0.359431,-1.477208,-4.681987,-2.223144,0.652689,1.235092,0.40329,-1.409392,0.05263856,0,0,-0.4005795,0.2108228,0.6398617,-0.4056287,1.494021,0.3465814,0.8117635,1.38305,0.3454757,-0.1597276,0.02222145,0.02289744,-1.018705,-0.1130893,0.07218658,0.8729764,1.409747,0.1599786,0.3798654,1.336277,0.2916172,287.7526,86.4516,164.3298,True
3,0.8555565,-0.7102546,-0.135024,-0.3659299,-1.473836,-4.6849,-2.215024,0.6510543,1.237729,0.4029989,-1.409447,-0.005508027,0.2,0,-0.4217939,0.1038899,0.5487518,-0.4038769,1.485058,0.3602429,0.8109027,1.384101,0.3448663,-0.1846257,0.01058733,-0.0195073,-1.020415,-0.1133005,0.07522231,0.8725735,1.409785,0.1596115,0.3784924,1.340025,0.2902476,287.8383,87.73212,162.7876,True
3,0.8666676,-0.7081404,-0.1264147,-0.3521129,-1.471044,-4.686979,-2.206905,0.6493611,1.240441,0.4027555,-1.409631,-0.01676779,0.2,0,-0.4326738,0.0613932,0.5368216,-0.3986081,1.478641,0.3713903,0.8100371,1.385228,0.3440392,-0.2170576,0.01070796,-0.07677279,-1.023267,-0.112685,0.07824048,0.8723826,1.409791,0.1591818,0.3772011,1.343911,0.2889171,287.9891,89.03081,161.2267,True
3,0.8777788,-0.6943249,-0.08680493,-0.3193074,-1.469852,-4.689215,-2.1994,0.6477141,1.242917,0.4025459,-1.40953,0.009388725,0.2,0,-0.4133081,0.06648849,0.5622918,-0.3916764,1.47407,0.3795681,0.8090781,1.386236,0.3432963,-0.2227267,0.01605767,-0.1193375,-1.026001,-0.1120172,0.08056755,0.8719469,1.409747,0.1588867,0.3760157,1.348028,0.2878144,288.2661,90.3054,159.7197,True
3,0.8888899,-0.6847796,-0.0258493,-0.2770404,-1.47005,-4.691623,-2.1919,0.6460052,1.245352,0.4022341,-1.409382,0.01341819,0.2,0,-0.4119814,0.1079104,0.5817268,-0.3840156,1.47378,0.3844454,0.8079605,1.38739,0.3424046,-0.215581,0.0277382,-0.1609416,-1.02893,-0.1112807,0.08224268,0.8713794,1.409637,0.1586344,0.3749931,1.352376,0.2871095,288.6573,91.16586,158.6942,True
3,0.900001,-0.6773531,0.01055387,-0.2452831,-1.470189,-4.69381,-2.184349,0.6442558,1.247789,0.4019723,-1.409928,-0.05010637,0.2,0,-0.4181969,0.132342,0.5957783,-0.3765012,1.472294,0.3907496,0.8069239,1.388471,0.3416607,-0.2060699,0.04901603,-0.1780642,-1.031415,-0.1095714,0.08335002,0.8709117,1.409674,0.1584296,0.3741091,1.356968,0.2868352,289.1249,91.55424,158.2634,True
3,0.9111122,-0.6678051,0.05662377,-0.1975907,-1.471546,-4.695443,-2.177086,0.6424234,1.250251,0.4017217,-1.409918,0.0011962,2.3,0.1,-0.4415836,0.1569462,0.5918302,-0.3697501,1.47198,0.3968315,0.8057929,1.389491,0.3407602,-0.2017994,0.08417791,-0.1898232,-1.033713,-0.1065958,0.08395882,0.8703743,1.409793,0.1581798,0.373352,1.361722,0.2869847,289.683,91.52795,158.363,True
3,0.9222233,-0.6678051,0.05662377,-0.1975907,-1.471546,-4.695443,-2.177086,0.6424234,1.250251,0.4017217,-1.409728,0.01731265,2.3,0.1,-0.4415836,0.1569462,0.5918302,-0.3697501,1.47198,0.3968315,0.8057929,1.389491,0.3407602,-0.2017994,0.08417791,-0.1898232,-1.033713,-0.1065958,0.08395882,0.8703743,1.409793,0.1581798,0.3725981,1.366597,0.287488,290.2845,91.23827,158.8418,True
3,0.9333345,-0.6591642,0.09971941,-0.1599494,-1.472443,-4.697289,-2.169693,0.6406485,1.252591,0.4014471,-1.416716,-0.6392997,2.3,0.1,-0.4691928,0.1858081,0.5911356,-0.3626075,1.472647,0.4024337,0.80469,1.390472,0.3399768,-0.2041959,0.1150817,-0.2324125,-1.037504,-0.1035859,0.08487175,0.8699082,1.409749,0.1579044,0.3723182,1.371076,0.2882744,290.9793,90.84492,159.5365,True
3,0.9444456,-0.6646932,0.1516897,-0.1512428,-1.475202,-4.700452,-2.161811,0.6389591,1.254754,0.4011712,-1.409899,0.6283634,2.3,0.1,-0.4884367,0.1859436,0.5806162,-0.3560423,1.471176,0.4098861,0.8035954,1.391455,0.3391433,-0.1938872,0.09480214,-0.2655231,-1.041529,-0.1029183,0.08635779,0.8692476,1.409893,0.1574996,0.3730357,1.374155,0.2892218,291.8893,90.17381,160.4971,True
3,0.9555568,-0.6743143,0.1889316,-0.1567731,-1.476763,-4.703921,-2.153613,0.6373653,1.256926,0.4008744,-1.408638,0.1091765,2.3,0.1,-0.5120787,0.1456324,0.5687858,-0.3506201,1.465061,0.4220072,0.8025367,1.392574,0.3384476,-0.2023187,0.04368053,-0.2345601,-1.042977,-0.1044209,0.08979247,0.8687549,1.410041,0.1572504,0.3726108,1.377346,0.2899519,292.2667,89.73398,161.1505,True
3,0.9666679,-0.6850101,0.2378958,-0.162371,-1.479339,-4.708055,-2.145264,0.6357038,1.25886,0.40061,-1.408236,0.03629796,4.2,0.1,-0.5038726,0.07323548,0.5576031,-0.3460341,1.453194,0.4385443,0.8014536,1.393693,0.3379018,-0.2153578,4.628301E-05,-0.2483056,-1.046302,-0.1059307,0.09340692,0.8681917,1.410153,0.1568608,0.3711509,1.380905,0.2904482,292.3232,89.7247,161.322,True
3,0.977779,-0.6839697,0.2592646,-0.1496997,-1.481624,-4.710928,-2.137416,0.6341494,1.260919,0.4003239,-1.407996,0.02190811,4.2,0.1,-0.4805197,0.07002246,0.5488855,-0.3404644,1.448343,0.4477362,0.8003651,1.39466,0.3372538,-0.2347055,-0.009481773,-0.2651913,-1.049917,-0.1059033,0.09663226,0.8676909,1.410156,0.1566045,0.3691896,1.384783,0.2908766,292.2849,89.81038,161.344,True
3,0.9888902,-0.6647935,0.2594237,-0.124134,-1.483827,1.570249,-2.130473,0.6324876,1.263048,0.399986,-1.407989,0.0004979463,4.2,0.1,-0.4445234,0.05729312,0.5219257,-0.3359556,1.442465,0.4569976,0.7992021,1.395673,0.336663,-0.255945,0.00549981,-0.2628789,-1.052712,-0.1049589,0.09975243,0.867063,1.41021,0.1563957,0.3672839,1.38883,0.2913609,292.3423,89.9837,161.2927,True
3,1.000001,-0.6317684,0.2509931,-0.1102387,-1.485413,1.568368,-2.1243,0.6308502,1.265325,0.399678,-1.40848,-0.04484448,4.2,0.1,-0.4394528,0.03510773,0.4919296,-0.3319598,1.435549,0.4681861,0.79799,1.39668,0.3359129,-0.2502655,0.04169145,-0.2341589,-1.054199,-0.1029055,0.1013708,0.8665807,1.410283,0.1562419,0.3657486,1.392964,0.2920078,292.5461,89.98709,161.4226,True
3,1.011112,-0.6147245,0.2520679,-0.1113102,-1.48716,1.565796,-2.117859,0.6291789,1.267433,0.399399,-1.409409,-0.08443917,4.2,0.1,-0.4566519,0.02569534,0.4738738,-0.3278612,1.428858,0.4801847,0.7967362,1.397651,0.3352046,-0.2340073,0.05868176,-0.2076607,-1.05549,-0.1013182,0.1026361,0.8659728,1.410413,0.1559803,0.3646967,1.397185,0.292771,292.8608,89.72781,161.8928,True
3,1.022224,-0.596634,0.266921,-0.1231123,-1.489173,1.562456,-2.1115,0.6274528,1.269441,0.3992832,-1.410217,-0.07318782,4.1,0.1,-0.4918004,0.07284129,0.4520361,-0.3229605,1.429888,0.4859672,0.7952781,1.398641,0.334404,-0.2272508,0.07036301,-0.1682906,-1.055798,-0.1001382,0.1043605,0.8653116,1.410596,0.1557033,0.3640142,1.401532,0.2935077,293.308,89.35099,162.5343,True
3,1.033335,-0.594498,0.2594177,-0.1315996,-1.490446,1.559638,-2.104822,0.6257658,1.271424,0.3990595,-1.409967,0.02330751,4.1,0.1,-0.509626,0.1581171,0.4537686,-0.3164347,1.435496,0.4868549,0.7940587,1.399651,0.3335812,-0.240993,0.06507614,-0.1532591,-1.056888,-0.0994656,0.1072045,0.8647033,1.410691,0.1554708,0.3635379,1.40597,0.294108,293.888,89.09702,163.0149,True
3,1.044446,-0.5785083,0.2424105,-0.125107,-1.491633,1.557682,-2.098748,0.624079,1.273484,0.398705,-1.409943,0.001754958,4.1,0.1,-0.4995314,0.205688,0.5051481,-0.3081634,1.435788,0.4917953,0.7929043,1.400774,0.332972,-0.267968,0.06408745,-0.1935157,-1.060341,-0.09844481,0.1105619,0.8641205,1.410772,0.1551988,0.3630879,1.410417,0.294591,294.5576,89.01019,163.2017,True
3,1.055557,-0.5593228,0.2275959,-0.1090427,-1.493071,1.556159,-2.093025,0.6224587,1.275477,0.3982766,-1.409476,0.04272458,4.1,0.1,-0.4555025,0.2041279,0.5591626,-0.3002805,1.429395,0.5015457,0.7917632,1.401734,0.3323956,-0.2778829,0.05558416,-0.2285854,-1.063972,-0.09778155,0.113603,0.8636502,1.410811,0.1550891,0.3625319,1.414774,0.2950727,295.2322,88.99788,163.2353,True
3,1.066668,-0.501786,0.2447898,-0.08385888,-1.495667,1.554604,-2.08853,0.6208575,1.277637,0.3978345,-1.409867,-0.0362105,4.1,0.1,-0.4319653,0.1379289,0.5429846,-0.2946756,1.420303,0.5143867,0.7906371,1.402691,0.3317811,-0.2961489,0.05457824,-0.2465416,-1.067286,-0.09674639,0.1170132,0.8630518,1.410951,0.1551118,0.3618328,1.418949,0.2955693,295.7948,88.94241,163.3855,True
3,1.077779,-0.470932,0.2576603,-0.0793794,-1.498283,1.552279,-2.084825,0.619257,1.27972,0.3974254,-1.410128,-0.02359945,2.1,0.1,-0.4466429,0.07332854,0.5177485,-0.2923917,1.406565,0.5328953,0.7894809,1.403588,0.3311706,-0.2895036,0.07691953,-0.2242232,-1.068702,-0.09477618,0.1190574,0.8625567,1.411103,0.1550431,0.361012,1.422889,0.2960013,296.2242,88.79204,163.7206,True
3,1.08889,-0.4251361,0.2725277,-0.09437966,-1.502733,1.546934,-2.076385,0.6156942,1.283857,0.3968706,-1.411213,-0.09918293,2.1,0.1,-0.5359006,-0.04843062,0.4525825,-0.2874419,1.378198,0.5741354,0.7867312,1.405891,0.3298597,-0.2619043,0.1758863,-0.146672,-1.068912,-0.08715142,0.1202987,0.8612915,1.411393,0.1550007,0.3601026,1.426585,0.2962904,296.5222,88.5827,164.1098,True
3,1.100002,-0.4251361,0.2725277,-0.09437966,-1.502733,1.546934,-2.076385,0.6156942,1.283857,0.3968706,-1.408265,0.2703408,2.1,0.1,-0.5359006,-0.04843062,0.4525825,-0.2874419,1.378198,0.5741354,0.7867312,1.405891,0.3298597,-0.2619043,0.1758863,-0.146672,-1.068912,-0.08715142,0.1202987,0.8612915,1.411393,0.1550007,0.3585916,1.430564,0.2964366,296.6987,88.40966,164.3372,True
3,1.111113,-0.4283189,0.2586942,-0.09110607,-1.504404,1.54498,-2.0714,0.6137758,1.285887,0.3965378,-1.414996,-0.618037,2.1,0.1,-0.5700107,-0.05043313,0.4506687,-0.2837076,1.366677,0.5926599,0.7852942,1.407164,0.3292768,-0.271352,0.1886987,-0.1348719,-1.069635,-0.08403405,0.1221009,0.8606611,1.411468,0.1548927,0.3564384,1.435106,0.2966692,296.7968,88.38071,164.3999,True
3,1.122224,-0.4261619,0.2289865,-0.06857236,-1.505635,1.54433,-2.066654,0.6118467,1.287829,0.3960433,-1.411098,0.3616299,1,0,-0.581231,0.03462619,0.4832525,-0.2763599,1.364096,0.6019236,0.7838348,1.408664,0.3285806,-0.2950905,0.1440195,-0.1538564,-1.07219,-0.08398159,0.1261688,0.859985,1.411496,0.1546664,0.3558564,1.437875,0.2970902,297.2816,88.34586,164.5459,True
3,1.133335,-0.3516145,0.2538514,-0.01438919,-1.511513,1.542508,-2.0606,0.6081212,1.292205,0.3947256,-1.409673,0.126337,1,0,-0.5393772,0.1784792,0.457274,-0.2639938,1.370438,0.6064414,0.7806609,1.411664,0.327069,-0.3847407,0.04308248,-0.2607085,-1.081262,-0.08506403,0.1377581,0.8585918,1.411879,0.1544051,0.3550661,1.440317,0.2975428,297.62,88.27375,164.7104,True
3,1.144446,-0.3143547,0.2848186,-0.007102095,-1.515293,1.540597,-2.058172,0.6063832,1.294586,0.3940985,-1.405636,0.3684564,1,0,-0.5563511,0.2073404,0.4522457,-0.2582233,1.369719,0.6139691,0.7790157,1.413182,0.3262579,-0.3899578,0.03988937,-0.2457354,-1.083157,-0.08427107,0.1418879,0.8577075,1.412162,0.1543636,0.3532658,1.443365,0.2979361,297.7104,88.09975,165.0453,True
3,1.155557,-0.2707079,0.3178724,-0.009417132,-1.519363,1.538199,-2.056584,0.6044627,1.29699,0.3934977,-1.412193,-0.6025521,1,0,-0.591354,0.2115876,0.4727509,-0.2519047,1.364194,0.627147,0.7772477,1.414915,0.3253138,-0.3854191,0.05052647,-0.217009,-1.084482,-0.08300607,0.1454456,0.8567669,1.412392,0.1542482,0.3500963,1.447904,0.298127,297.4904,87.72125,165.6843,True
3,1.166668,-0.2451478,0.3178201,-0.02220596,-1.522029,1.535968,-2.054415,0.6023712,1.299341,0.3931026,-1.412335,-0.007615262,0.5,0.1,-0.6164685,0.2005411,0.546342,-0.2439967,1.349329,0.6492347,0.7753503,1.416616,0.3243587,-0.380653,0.06861338,-0.1648432,-1.084366,-0.08147009,0.1486843,0.8557225,1.41259,0.1542456,0.3475768,1.452232,0.2982226,297.4848,87.3841,166.2348,True
3,1.17778,-0.2461697,0.2719806,-0.02727978,-1.523103,1.534862,-2.051546,0.6000749,1.301754,0.3926275,-1.412704,-0.03445577,0.5,0.1,-0.608559,0.2300031,0.5986828,-0.2351001,1.339415,0.6653937,0.7734233,1.418449,0.3233285,-0.3898193,0.07290149,-0.1168246,-1.083998,-0.080424,0.1528641,0.8545409,1.412904,0.1540813,0.3458503,1.456056,0.2983109,297.6801,87.16969,166.5192,True
3,1.188891,-0.2503703,0.2080559,-0.02692204,-1.523192,1.534535,-2.048598,0.5976417,1.304121,0.3919907,-1.411737,0.08832506,0.5,0.1,-0.5817523,0.2564965,0.6082624,-0.227386,1.334298,0.6758093,0.7713477,1.420299,0.322346,-0.3918414,0.06011796,-0.09976561,-1.084596,-0.08011881,0.1571167,0.8533231,1.413202,0.1539333,0.3445599,1.459494,0.298502,298.0574,87.046,166.6338,True
3,1.200002,-0.2545987,0.173975,-0.0246007,-1.523786,1.534022,-2.045607,0.595322,1.306506,0.3913016,-1.410532,0.109146,0.5,0.1,-0.5667319,0.3033748,0.6010056,-0.2194487,1.333116,0.6828052,0.7691778,1.422122,0.3212602,-0.3982809,0.05161172,-0.1018428,-1.085814,-0.07963597,0.1615252,0.8521103,1.413538,0.1536694,0.3432684,1.462715,0.2988219,298.4822,86.96317,166.7628,True
3,1.211113,-0.2439206,0.1526946,-0.02128462,-1.524694,1.533454,-2.043338,0.5929815,1.309031,0.3903682,-1.410075,0.0407588,0.2,0,-0.5900223,0.3706264,0.5909338,-0.2108744,1.337563,0.6858396,0.767071,1.423874,0.3201694,-0.4418151,0.02615881,-0.07590616,-1.085947,-0.0804545,0.1681909,0.8508389,1.413985,0.153373,0.3416775,1.465878,0.2991262,298.8311,86.8441,167.0813,True
3,1.222224,-0.2194375,0.1686191,-0.03415374,-1.526525,1.531685,-2.041627,0.5907245,1.311547,0.3894114,-1.40986,0.01928811,0.2,0,-0.6173405,0.4772301,0.5939461,-0.200152,1.350608,0.6809087,0.7648993,1.425482,0.3190649,-0.4619045,-0.002543062,-0.04803603,-1.085649,-0.08161697,0.1744541,0.8494414,1.414367,0.15311,0.3397508,1.468991,0.2992105,299.052,86.70915,167.4853,True
3,1.233335,-0.2003269,0.2344833,-0.07074165,-1.529821,1.527856,-2.039861,0.5884001,1.314007,0.3884134,-1.410433,-0.05258188,0.2,0,-0.6140822,0.5177812,0.5824621,-0.1909881,1.359305,0.6790667,0.7627701,1.427061,0.3178961,-0.4509001,0.0006150007,-0.008713931,-1.084507,-0.08179713,0.1790222,0.8479685,1.414765,0.1528654,0.3375846,1.472058,0.2989747,299.1154,86.58378,167.8181,True
3,1.244446,-0.2035141,0.2268701,-0.09840108,-1.53097,1.524983,-2.03731,0.5859767,1.316321,0.387537,-1.410936,-0.04562119,0.2,0,-0.617874,0.435014,0.534015,-0.1862796,1.352435,0.6926922,0.7606264,1.428794,0.3166149,-0.4548866,0.00593701,0.02114844,-1.08339,-0.08181737,0.1841714,0.8465602,1.415155,0.1525767,0.3352792,1.475103,0.2984067,299.0997,86.52129,167.981,True
3,1.255558,-0.2098839,0.2033625,-0.1099884,-1.531566,1.522898,-2.034682,0.5835371,1.318568,0.3867114,-1.410794,0.01311702,0.2,0,-0.6226398,0.3190184,0.5173101,-0.1825464,1.332624,0.7191762,0.7584878,1.430442,0.3154874,-0.4577201,0.01766378,0.05952505,-1.08125,-0.08152575,0.189257,0.8450353,1.415493,0.1522026,0.3329053,1.478126,0.2976679,299.0926,86.60625,167.8418,True
3,1.266669,-0.2300964,0.1681388,-0.1193791,-1.531458,1.521279,-2.031339,0.5810121,1.320521,0.3859839,-1.409746,0.09551314,0,0.1,-0.6049342,0.1675926,0.5321767,-0.1798731,1.295684,0.7614366,0.7560889,1.432084,0.3141935,-0.4726447,0.03473702,0.05219346,-1.080778,-0.08084199,0.1945855,0.8435067,1.415891,0.1518633,0.3304582,1.481142,0.2970425,299.1578,86.80025,167.5355,True
3,1.27778,-0.262041,0.1532712,-0.1033252,-1.532145,1.520212,-2.027325,0.5783195,1.322383,0.3851531,-1.409403,0.03043758,0,0.1,-0.5706852,0.1555648,0.5616978,-0.1738831,1.271637,0.7902422,0.7536409,1.433627,0.3129551,-0.4897106,0.05716079,0.04168579,-1.080451,-0.07929535,0.1998439,0.8419889,1.416319,0.1515441,0.3280273,1.48406,0.2966323,299.2697,86.9957,167.3314,True
3,1.288891,-0.2716408,0.1608302,-0.08418731,-1.533965,1.51906,-2.023928,0.5756688,1.324396,0.3841815,-1.408608,0.07259216,0,0.1,-0.5565553,0.2311472,0.5642276,-0.1654521,1.269122,0.7983976,0.7510293,1.435083,0.311687,-0.5252332,0.1243732,0.0995232,-1.076837,-0.07603724,0.2053119,0.840258,1.416811,0.1511917,0.3256857,1.486828,0.2963997,299.4117,87.10848,167.331,True
3,1.300002,-0.2727348,0.1918978,-0.05133671,-1.537055,1.518211,-2.020899,0.5729775,1.326291,0.3832061,-1.407873,0.06650041,0,0.1,-0.5636935,0.3890479,0.5322803,-0.1550919,1.29185,0.7824743,0.7484143,1.436459,0.3104067,-0.521607,0.1392722,0.1453026,-1.073386,-0.07458369,0.2103141,0.8386288,1.417235,0.1508176,0.3234325,1.489449,0.2962503,299.5793,87.13788,167.4814,True
3,1.311113,-0.2525311,0.2357196,-0.02921648,-1.540846,1.516692,-2.018827,0.570382,1.328269,0.3820076,-1.408514,-0.05899494,0,0.1,-0.6019921,0.4981665,0.4831899,-0.1461649,1.318274,0.7643741,0.7459797,1.437852,0.3090518,-0.4858042,0.1285022,0.224891,-1.068225,-0.07474268,0.2144835,0.8369245,1.417628,0.1503825,0.3211665,1.492113,0.2960893,299.7048,87.01139,167.7957,True
3,1.322224,-0.2355367,0.2891249,-0.00607381,-1.545595,1.515214,-2.016788,0.5679075,1.33003,0.3808858,-1.409014,-0.04512678,0.1,0.8,-0.6352026,0.5187733,0.4452031,-0.1390708,1.331782,0.7592262,0.7435404,1.439164,0.3077128,-0.4609924,0.08364761,0.2779476,-1.063718,-0.07659185,0.2196471,0.8352277,1.418029,0.1498961,0.3188782,1.494941,0.2958743,299.8053,86.79234,168.1692,True
3,1.333336,-0.227073,0.3403739,0.01282216,-1.550886,1.513606,-2.01433,0.5655345,1.331678,0.3796422,-1.410021,-0.0916783,0.1,0.8,-0.6259058,0.4719964,0.4256521,-0.1335511,1.33044,0.7672514,0.7412294,1.440698,0.3063047,-0.4641376,0.04639646,0.1714479,-1.065096,-0.07716203,0.225321,0.8337501,1.417931,0.1494799,0.3166149,1.497922,0.295616,299.9386,86.48782,168.586,True
3,1.344447,-0.2228471,0.3713145,0.02224366,-1.555596,1.512001,-2.01187,0.5630212,1.333462,0.3785377,-1.410058,-0.002740528,0.1,0.8,-0.5993927,0.4068387,0.4389005,-0.1279553,1.314125,0.7891058,0.7389372,1.442284,0.3048751,-0.4574395,0.00268054,0.09788425,-1.066885,-0.07842796,0.2308953,0.8323677,1.418205,0.1489656,0.3144308,1.50096,0.2953512,300.1351,86.19436,168.9738,True
3,1.355558,-0.2228471,0.3713145,0.02224366,-1.555596,1.512001,-2.01187,0.5630212,1.333462,0.3785377,-1.409515,0.04947905,0.1,0.8,-0.5993927,0.4068387,0.4389005,-0.1279553,1.314125,0.7891058,0.7389372,1.442284,0.3048751,-0.4574395,0.00268054,0.09788425,-1.066885,-0.07842796,0.2308953,0.8323677,1.418205,0.1489656,0.3123903,1.503899,0.2951541,300.3745,85.85337,169.3805,True
3,1.366669,-0.2143699,0.4172245,0.039033,-1.56176,1.510233,-2.009726,0.5606214,1.335004,0.3772902,-1.411723,-0.2023995,0.1,0.8,-0.5383774,0.3080157,0.5315942,-0.1216926,1.261525,0.8452189,0.7367768,1.443646,0.3033633,-0.5196277,-0.01630774,0.05793223,-1.067732,-0.07925954,0.2392778,0.8309328,1.41841,0.1484435,0.3109649,1.506208,0.2950664,300.5589,85.58684,169.7031,True
3,1.37778,-0.2058835,0.4557244,0.06437755,-1.568071,1.508888,-2.007676,0.5581086,1.336609,0.3759797,-1.409358,0.2178987,0.1,0.7,-0.5178986,0.3269824,0.5571421,-0.1134954,1.243762,0.8681911,0.7343557,1.44489,0.3017378,-0.5828109,0.03287488,0.002011325,-1.068771,-0.07655097,0.2466918,0.8293041,1.418717,0.1479359,0.3105997,1.507302,0.2950612,300.7632,85.57528,169.7514,True
3,1.388891,-0.1899274,0.4803116,0.07702632,4.709025,1.507434,-2.006101,0.5556422,1.338238,0.3747978,-1.409254,0.007375415,0.1,0.7,-0.5189834,0.3483818,0.5434397,-0.1063453,1.231489,0.8862044,0.7321491,1.446038,0.3002253,-0.6006711,0.1117567,0.003229365,-1.067615,-0.07243545,0.2517606,0.8276024,1.418983,0.1473894,0.3094182,1.509077,0.2951608,300.9673,85.24821,170.1759,True
3,1.400002,-0.1845442,0.4120483,0.06035809,4.701787,1.505085,-2.002085,0.5507677,1.341588,0.3725288,-1.409316,-0.005535772,0.1,0.7,-0.5192655,0.3165306,0.5198091,-0.0946562,1.184569,0.9444922,0.7276723,1.448329,0.2972553,-0.4776117,0.09538952,0.07249074,-1.063929,-0.0714618,0.2584465,0.8243902,1.419565,0.1462502,0.3074025,1.511585,0.295403,301.1549,84.69579,170.9172,True
3,1.411114,-0.1898218,0.362951,0.04465608,4.699626,1.504127,-1.999854,0.5484118,1.343154,0.3713775,-1.40793,0.1268174,0.1,0.7,-0.5012432,0.3005933,0.5121115,-0.08935545,1.154407,0.9794639,0.7254233,1.449331,0.2959104,-0.4582849,0.06124333,0.1021558,-1.06193,-0.07274158,0.2633531,0.82269,1.419816,0.1456623,0.3043415,1.51505,0.2957375,301.3758,84.00912,171.9188,True
3,1.422225,-0.2025288,0.2819602,0.04191166,4.69897,1.504242,-1.997176,0.5461433,1.344693,0.370203,-1.409099,-0.1080612,0.3,1.4,-0.4692493,0.3015423,0.5150973,-0.08337292,1.120527,1.017235,0.7233738,1.450223,0.2946527,-0.4869682,0.08154973,0.103473,-1.060449,-0.07139775,0.2690749,0.8210464,1.420049,0.1450469,0.3001068,1.519639,0.2961086,301.5843,83.25711,173.0861,True
3,1.433336,-0.2109726,0.2030791,0.03489757,4.699183,1.504657,-1.994583,0.5439613,1.346198,0.3689606,-1.409194,-0.007534981,0.3,1.4,-0.4299376,0.3325126,0.4841349,-0.07700051,1.105742,1.035469,0.7211977,1.451065,0.2932796,-0.4902001,0.1060606,0.09071599,-1.059409,-0.06936695,0.2735911,0.8195447,1.42029,0.1444705,0.2967818,1.523193,0.29627,301.6967,83.03905,173.6692,True
3,1.444447,-0.2130689,0.1624784,0.01488227,4.698798,1.503934,-1.992145,0.5417854,1.34765,0.3677168,-1.408748,0.04071601,0.3,1.4,-0.425898,0.3209604,0.4584554,-0.07213917,1.078645,1.067285,0.7192211,1.451991,0.2918911,-0.5069371,0.09009457,0.130296,-1.056538,-0.07012875,0.2797882,0.8179847,1.420372,0.1438696,0.2945191,1.525584,0.2960829,301.7799,82.98302,173.9746,True
3,1.455558,-0.1981109,0.1176095,-0.01043605,4.699452,1.50311,-1.990475,0.539627,1.349092,0.3665395,-1.408801,-0.00523736,0.3,1.4,-0.4645544,0.276497,0.436054,-0.06888479,1.037484,1.114697,0.7173253,1.452784,0.290668,-0.5218914,0.04539669,0.141079,-1.054899,-0.07190548,0.2869854,0.8165901,1.420402,0.1431715,0.292986,1.527237,0.2954352,301.8588,82.90359,174.2254,True
3,1.466669,-0.193826,0.08985372,-0.02092919,4.699426,1.502624,-1.98845,0.5374546,1.350277,0.3654776,-1.408973,-0.01563382,0.5,1.2,-0.4891591,0.2724124,0.423414,-0.06428924,0.9954908,1.162891,0.7154889,1.453636,0.289278,-0.499981,0.02076599,0.0929804,-1.055552,-0.0729332,0.2919261,0.8153079,1.420419,0.1424112,0.291724,1.528691,0.2942703,301.9587,82.91647,174.2782,True
3,1.47778,-0.2001995,0.07281344,-0.01763792,4.699187,1.502462,-1.986041,0.5354235,1.35145,0.3644705,-1.409743,-0.07029787,0.5,1.2,-0.4990813,0.2225342,0.3997171,-0.06210598,0.9477591,1.216373,0.7137829,1.454402,0.2880619,-0.490916,0.007952332,0.03644021,-1.057137,-0.07281815,0.2969845,0.8140612,1.420451,0.1417265,0.2903758,1.530319,0.2927053,302.0933,83.10347,173.9981,True
3,1.488891,-0.202333,0.07606639,-0.00700273,4.698209,1.502333,-1.983733,0.5334121,1.352564,0.3633757,-1.409421,0.03004027,0.5,1.2,-0.4715061,0.1937051,0.3961366,-0.05961433,0.8890426,1.279186,0.7120436,1.455213,0.2867656,-0.4553281,0.001458675,-0.035258,-1.060018,-0.07199536,0.3003928,0.8129221,1.420567,0.1408267,0.2888487,1.532123,0.2909078,302.2854,83.42303,173.4533,True
3,1.500003,-0.2098122,0.09852763,0.0109816,4.696227,1.502244,-1.981157,0.5315398,1.353448,0.3623166,-1.408947,0.04296193,0.5,1.2,-0.4152309,0.1348986,0.3985722,-0.05891551,0.8125921,1.358071,0.7104677,1.455806,0.2856505,-0.4502393,0.01828182,-0.07047452,-1.060865,-0.07040213,0.3042185,0.8117073,1.420572,0.1402066,0.287182,1.533964,0.2890817,302.4718,83.65965,172.9015,True
3,1.511114,-0.214117,0.1476754,0.03734287,4.692687,1.50213,-1.978706,0.5296482,1.354273,0.3611801,-1.40899,-0.004312958,0.5,1.2,-0.3783606,0.08065602,0.3659994,-0.05924202,0.7621452,1.411488,0.7088051,1.456304,0.2845664,-0.4428788,0.02278158,-0.08225697,-1.062543,-0.06911502,0.3084819,0.8104662,1.420589,0.1395993,0.2854642,1.535759,0.2873904,302.5829,83.77605,172.5026,True
3,1.522225,-0.2099107,0.204289,0.06366646,4.688308,1.501952,-1.976546,0.5277312,1.35516,0.3602087,-1.408744,0.02268777,0.9,2.7,-0.3574985,0.02865021,0.3271558,-0.06001806,0.7226232,1.454385,0.7070633,1.456776,0.2835464,-0.4340743,0.02596554,-0.05143577,-1.061842,-0.06880637,0.3127542,0.8091506,1.420602,0.1391954,0.2837895,1.537457,0.285951,302.6554,83.78957,172.2941,True
3,1.533336,-0.2110119,0.240549,0.07092206,4.684288,1.501351,-1.974166,0.5258386,1.355991,0.3591928,-1.408859,-0.01080279,0.9,2.7,-0.345904,0.0159024,0.3152766,-0.06001593,0.670764,1.509598,0.7053871,1.457296,0.2824998,-0.4241241,0.03765589,-0.013169,-1.060392,-0.06830396,0.316876,0.8079273,1.420667,0.1385412,0.2822397,1.539041,0.2848602,302.7188,83.66846,172.2936,True
3,1.544447,-0.2046474,0.2725193,0.07287975,4.680329,1.500616,-1.972231,0.5238854,1.356832,0.3582642,-1.409175,-0.02871045,0.9,2.7,-0.3526235,-0.00725919,0.2789499,-0.06052193,0.6387022,1.545871,0.7036712,1.457845,0.2814729,-0.4058148,0.03116557,0.0111948,-1.059528,-0.06898173,0.320965,0.8067586,1.420829,0.1381674,0.2807638,1.540639,0.284193,302.8043,83.39689,172.5132,True
3,1.555558,-0.2025197,0.2746279,0.0686069,4.677179,1.499963,-1.970057,0.522065,1.357547,0.3573751,-1.408972,0.01876933,0.9,2.7,-0.3515896,-0.004025564,0.272572,-0.06049317,0.5929292,1.595475,0.7020075,1.45837,0.2804241,-0.3802152,0.03002581,0.01523639,-1.059118,-0.06876362,0.3242196,0.8056692,1.420824,0.1375301,0.2793073,1.542336,0.2839862,302.9421,83.05865,172.8972,True
3,1.566669,-0.1982283,0.2436867,0.0581289,4.675515,1.499608,-1.967979,0.5203873,1.358293,0.3565614,-1.409368,-0.03643896,1.5,4.1,-0.3227274,0.0481604,0.2609926,-0.05813521,0.5483641,1.642643,0.7004128,1.458811,0.2792749,-0.3676373,0.0193049,-0.004046861,-1.059982,-0.06895524,0.3281212,0.804502,1.420866,0.1368248,0.2778619,1.544113,0.2841823,303.1381,82.74854,173.3895,True
3,1.577781,-0.1949974,0.208459,0.04447504,4.674502,1.499207,-1.965928,0.5186957,1.359111,0.3556626,-1.409153,0.02006717,1.5,4.1,-0.2907016,0.0918164,0.2693801,-0.05664277,0.4906075,1.702858,0.698769,1.459343,0.2781708,-0.3698042,0.02570248,-0.01042055,-1.060164,-0.06824697,0.3319827,0.8034219,1.420913,0.1362743,0.2764397,1.545891,0.2846754,303.3913,82.45374,173.9598,True
3,1.588892,-0.1832208,0.1487029,0.02456553,4.675035,1.499001,-1.964297,0.5172437,1.35996,0.3547244,-1.409199,-0.004483001,1.5,4.1,-0.2786576,0.1299285,0.2782697,-0.05398547,0.4178207,1.778076,0.6974025,1.459746,0.2770655,-0.3716436,0.06404939,0.01088833,-1.058769,-0.06641524,0.3353793,0.8024265,1.420947,0.135509,0.2751161,1.547516,0.2852867,303.6415,82.17596,174.5872,True
3,1.600003,-0.1661151,0.09000097,0.00252676,4.676094,1.498816,-1.963056,0.5157901,1.360706,0.3537474,-1.409211,-0.001011841,1.5,4.1,-0.2721268,0.1810953,0.2711083,-0.05100593,0.3474442,1.851191,0.6961095,1.46016,0.2759037,-0.3511661,0.08207533,0.03414144,-1.057255,-0.06545504,0.3383658,0.8013842,1.420826,0.1346953,0.2738958,1.548953,0.2857904,303.8537,81.97033,175.1794,True
3,1.611114,-0.1575642,0.06114727,-0.01542418,4.676747,1.498205,-1.961625,0.5143613,1.361467,0.3527772,-1.409598,-0.03547933,1.5,4.1,-0.2722387,0.1918927,0.2488068,-0.0491758,0.2942881,1.907333,0.6947919,1.460647,0.2747791,-0.337291,0.05646396,0.0457473,-1.056448,-0.06621431,0.3420119,0.8003138,1.42081,0.1339788,0.2727264,1.550256,0.2859815,304.015,81.83981,175.6762,True
3,1.622225,-0.1351563,0.02690019,-0.04719248,4.678061,1.497081,-1.960955,0.5131346,1.362044,0.352001,-1.40996,-0.03285742,2.4,3.4,-0.2661055,0.1247716,0.2461975,-0.05098142,0.2532847,1.951099,0.693663,1.461065,0.2737219,-0.3452509,-0.03833325,0.01920533,-1.058105,-0.07003594,0.3481745,0.7993352,1.420757,0.1331985,0.2716427,1.551387,0.2856783,304.1368,81.84187,175.9588,True
3,1.633336,-0.1170358,0.01618323,-0.06204814,4.678679,1.496053,-1.960301,0.5119093,1.362633,0.3512251,-1.409692,0.02467774,2.4,3.4,-0.2430073,0.05553685,0.2317455,-0.05337454,0.2274009,1.978858,0.6925312,1.461527,0.2726798,-0.3211704,-0.07036337,-0.0193522,-1.060133,-0.0714891,0.3516893,0.7984352,1.420834,0.1325095,0.2705833,1.552366,0.2848158,304.2503,81.96069,175.9481,True
3,1.644447,-0.1053057,0.004438616,-0.06837105,4.679269,1.49539,-1.959514,0.5106093,1.363257,0.3504214,-1.410288,-0.05478286,2.4,3.4,-0.2411426,0.02372031,0.2091556,-0.05451171,0.2056855,2.003211,0.6912125,1.461987,0.271661,-0.3145931,-0.05120829,-0.003423739,-1.059424,-0.0714044,0.3549685,0.7974498,1.420916,0.1318822,0.2694876,1.553243,0.283493,304.316,82.18887,175.6176,True
3,1.655559,-0.09037883,-0.00835925,-0.07362716,4.680129,1.494658,-1.959062,0.5093964,1.363816,0.3497605,-1.41024,0.004783823,2.4,3.4,-0.2484309,0.0128936,0.2400291,-0.05642546,0.1481528,2.063654,0.6900321,1.462372,0.2706268,-0.3090448,-0.02459019,0.01357258,-1.058473,-0.07098749,0.3580064,0.7965003,1.420958,0.1312413,0.2684009,1.553932,0.2819097,304.3462,82.54237,175.004,True
3,1.66667,-0.07546935,0.0001658387,-0.07581288,4.680203,1.493605,-1.958777,0.5081981,1.364306,0.3490174,-1.409962,0.02530474,2.4,3.4,-0.2320857,0.07127655,0.2637432,-0.05585394,0.06248016,2.151246,0.6888141,1.462621,0.2696502,-0.283415,-0.01401891,0.01761965,-1.058153,-0.07105993,0.3603928,0.7957264,1.421012,0.1306243,0.2672422,1.554527,0.2803007,304.3362,82.83652,174.4,True
3,1.677781,-0.06057965,0.02359613,-0.07914256,4.679651,1.492291,-1.958589,0.5070657,1.364798,0.3483775,-1.410129,-0.01562383,3,5,-0.1988765,0.1383241,0.2564957,-0.05424114,-0.01470038,2.22944,0.6876796,1.462896,0.2687433,-0.2781712,-0.01403452,0.007986462,-1.05842,-0.0711313,0.3632994,0.7948675,1.421001,0.1299837,0.2659812,1.5551,0.2788254,304.2953,83.05508,173.9304,True
3,1.688892,-0.05102227,0.04488287,-0.08457993,4.678903,1.490901,-1.958287,0.5060128,1.365212,0.3477759,-1.410173,-0.003920117,3,5,-0.1841023,0.1512463,0.2287835,-0.05358813,-0.062343,2.278602,0.6866245,1.463002,0.2678862,-0.2763348,-0.01405443,-0.02398257,-1.059802,-0.07090613,0.3664651,0.7940843,1.420964,0.1293416,0.264682,1.555612,0.2775928,304.2445,83.25924,173.555,True
3,1.700003,-0.04464738,0.06295741,-0.09107092,4.678239,1.489334,-1.958067,0.5049434,1.365601,0.3473284,-1.41012,0.004701793,3,5,-0.1823762,0.109946,0.1901516,-0.05430239,-0.07044434,2.28875,0.6855723,1.463171,0.2670214,-0.2298008,0.0006839782,-0.06806556,-1.061569,-0.06949266,0.3669506,0.7932973,1.420634,0.1286435,0.2633645,1.556077,0.2766991,304.1899,83.40009,173.3145,True
3,1.711114,-0.04570731,0.05759732,-0.09742918,4.678277,1.488006,-1.957556,0.5038812,1.36594,0.3468955,-1.409864,0.02322435,3,5,-0.1484582,0.05975201,0.1906657,-0.05652506,-0.08561157,2.304432,0.6845013,1.463271,0.2663348,-0.1804003,-0.03991599,-0.1313564,-1.066205,-0.07006737,0.3673168,0.792704,1.420634,0.1280088,0.2620588,1.556512,0.2762215,304.1278,83.467,173.2218,True
3,1.722225,-0.05525647,0.01812565,-0.1046722,4.680096,1.487135,-1.956568,0.5028815,1.366241,0.3465705,-1.409798,0.005823181,3.7,11,-0.08971487,0.08932609,0.1979251,-0.05675622,-0.1440927,2.361958,0.6835357,1.4633,0.2656333,-0.1631702,0.001568168,-0.1208562,-1.06642,-0.06831741,0.3682547,0.7918398,1.420499,0.1274199,0.2608088,1.556916,0.2761692,304.0773,83.48608,173.2781,True
3,1.733337,-0.06370952,-0.04801149,-0.1192163,4.683454,1.486555,-1.955618,0.5019423,1.366604,0.3462286,-1.40942,0.03443722,3.7,11,-0.04396673,0.1351854,0.1648898,-0.05522491,-0.193032,2.409819,0.6825481,1.463371,0.2650633,-0.1441796,-0.02511839,-0.1338017,-1.068639,-0.06874671,0.3694198,0.7910794,1.420489,0.1268964,0.2596216,1.557304,0.2764916,304.0696,83.4893,173.4582,True
3,1.744448,-0.05726975,-0.09493425,-0.129604,4.686445,1.485946,-1.955236,0.5010545,1.366884,0.3459501,-1.408871,0.04988298,3.7,11,-0.02289195,0.1182321,0.1401387,-0.05527764,-0.2124268,2.429011,0.6815151,1.463572,0.2643399,-0.1260046,-0.06460418,-0.1115864,-1.070032,-0.07132691,0.3719088,0.7901244,1.420584,0.1261015,0.258525,1.557642,0.2770306,304.101,83.48956,173.7617,True
3,1.755559,-0.05513841,-0.09604454,-0.1381204,4.688186,1.484664,-1.954711,0.5002684,1.367167,0.3455818,-1.408859,0.0006521044,3.7,11,-0.02651491,0.06841682,0.1025537,-0.05579109,-0.1976537,2.414642,0.6806016,1.463662,0.263751,-0.121414,-0.03478526,-0.08286438,-1.069774,-0.07066405,0.3726969,0.7893089,1.42064,0.1255658,0.2575562,1.557898,0.2775319,304.1389,83.55653,174.0802,True
3,1.76667,-0.03810612,-0.08216167,-0.1350005,4.688935,1.483531,-1.954978,0.4993377,1.36741,0.3451247,-1.409433,-0.05248065,3.7,11,-0.05538827,0.05152785,0.0951831,-0.05644783,-0.2095101,2.428196,0.6797093,1.463839,0.2630675,-0.1095088,-0.01140626,-0.07123552,-1.069858,-0.07008628,0.3729824,0.7884484,1.420348,0.1252646,0.2567161,1.558087,0.2777409,304.1695,83.72665,174.2586,True
3,1.777781,-0.02109553,-0.048026,-0.1298636,4.688741,1.482105,-1.955391,0.4985662,1.367689,0.3447437,-1.409308,0.01194984,3.9,19.6,-0.05203935,0.06954104,0.1080569,-0.05677966,-0.2470291,2.466034,0.6789508,1.464173,0.262362,-0.09840573,0.02585437,-0.03085247,-1.068126,-0.06864697,0.3729102,0.7876728,1.420368,0.1247435,0.2559705,1.558231,0.2775624,304.2009,83.94109,174.2123,True
3,1.788892,-0.009402482,-0.02130577,-0.1161619,4.68847,1.481118,-1.955669,0.4978221,1.367965,0.3444133,-1.410019,-0.06520019,3.9,19.6,-0.03684672,0.09166844,0.1379264,-0.05770271,-0.299344,2.518167,0.6781562,1.464382,0.2616918,-0.09817234,0.005589485,-0.004224703,-1.067839,-0.07016444,0.3739193,0.7870013,1.420238,0.12444,0.2552292,1.558427,0.2770672,304.2196,84.1543,173.9922,True
3,1.800003,0.00230742,-0.01163219,-0.1023667,4.688563,1.480443,-1.956116,0.4971701,1.368185,0.3441436,-1.410134,-0.01007152,3.9,19.6,-0.01115016,0.1042804,0.1506197,-0.05855812,-0.3428237,2.560806,0.6775002,1.464553,0.2610748,-0.09368874,-0.01144842,0.0234376,-1.066951,-0.07121279,0.3749068,0.7861804,1.420581,0.1243355,0.2544264,1.558695,0.2763888,304.2577,84.33202,173.6911,True
3,1.811115,0.007618071,0.004458174,-0.0832796,4.688208,1.47996,-1.956353,0.496599,1.368259,0.3437788,-1.409884,0.02285162,3.9,19.6,0.0005539525,0.09891363,0.1505019,-0.05937145,-0.3699336,2.587413,0.6768874,1.464627,0.2605429,-0.1012814,-0.04976635,0.01603406,-1.067884,-0.07279658,0.3765902,0.7855617,1.420253,0.1241784,0.2535698,1.558982,0.2756991,304.2614,84.47994,173.3644,True
3,1.822226,0.007612501,0.01192775,-0.08012327,4.688218,1.47912,-1.956465,0.4958955,1.36846,0.3434968,-1.409913,-0.002958257,5,24.9,0.0067164,0.0638473,0.134249,-0.06032806,-0.3718504,2.589101,0.676239,1.464542,0.2601337,-0.1033751,-0.0667951,0.02244313,-1.067883,-0.07415891,0.3780626,0.7847494,1.420442,0.1237819,0.2527066,1.559231,0.275116,304.2316,84.58802,173.1096,True
3,1.833337,0.007563532,0.0578298,-0.06333531,4.68624,1.478125,-1.956533,0.4951925,1.368373,0.3431358,-1.409611,0.02765265,5,24.9,0.003942035,0.001410093,0.07100879,-0.06037439,-0.3323731,2.549722,0.6754812,1.464616,0.2597301,-0.09480082,-0.1083623,0.04155063,-1.067829,-0.07739399,0.3803844,0.7840619,1.420557,0.1233723,0.2519176,1.55935,0.274684,304.1934,84.65779,172.9685,True
3,1.844448,0.003268362,0.09195849,-0.05499404,4.684433,1.477095,-1.956455,0.4945354,1.368392,0.3428326,-1.409364,0.0222073,5,24.9,-0.01031707,-0.04197775,0.03353041,-0.06068812,-0.2982205,2.516345,0.6746975,1.464669,0.2593474,-0.06470195,-0.07220239,0.06257449,-1.066578,-0.07711183,0.3800693,0.7833887,1.420459,0.1229851,0.2511962,1.559359,0.2744126,304.1596,84.67717,172.9513,True
3,1.855559,0.004289367,0.1356479,-0.05310541,4.681817,1.475472,-1.956592,0.4937926,1.368444,0.3425441,-1.409242,0.0109847,5,24.9,-0.02443672,-0.06197651,0.003665911,-0.06072913,-0.2684481,2.487399,0.6738704,1.464851,0.2589145,-0.06122486,-0.02320568,0.07958413,-1.064684,-0.07622819,0.3801798,0.7826853,1.420479,0.122685,0.2504443,1.559378,0.2743177,304.1426,84.70291,172.9546,True
3,1.86667,0.01066355,0.1494776,-0.05744152,4.680259,1.474027,-1.956921,0.4931805,1.368711,0.3422933,-1.409054,0.01705013,5,24.9,-0.0178055,-0.03014624,0.02087991,-0.06098692,-0.292147,2.510823,0.6731663,1.464985,0.2582874,-0.08773804,-0.006099757,0.08833828,-1.063342,-0.07641301,0.3822086,0.782151,1.420642,0.1219053,0.2496731,1.559412,0.2744569,304.1381,84.60834,173.0789,True
3,1.877781,0.01814122,0.1292106,-0.06265729,4.679969,1.472964,-1.957387,0.4926073,1.368919,0.3420939,-1.409212,-0.0145311,5.4,27.6,-0.01837588,0.03244694,0.06177119,-0.06128946,-0.344103,2.562885,0.6724758,1.465121,0.2576365,-0.1167183,-0.04224217,0.0747416,-1.063667,-0.0784205,0.385511,0.7815157,1.420641,0.121408,0.24886,1.559526,0.2748443,304.1182,84.4805,173.2883,True
3,1.888893,0.02032363,0.07483266,-0.07193889,4.681154,1.472356,-1.957628,0.4921049,1.369182,0.3419335,-1.409398,-0.01692486,5.4,27.6,-0.01905801,0.07804951,0.09509057,-0.06180398,-0.3958232,2.614805,0.6719266,1.465152,0.2570736,-0.09743227,-0.03058124,0.08416232,-1.062523,-0.07900001,0.386141,0.7807711,1.420819,0.1205702,0.247995,1.559765,0.2754853,304.0925,84.34832,173.5705,True
3,1.900004,0.01504683,0.02682898,-0.08232779,4.682703,1.471628,-1.95765,0.4914261,1.369396,0.3417649,-1.409517,-0.01082981,5.4,27.6,0.002608875,0.11611,0.1282188,-0.06284581,-0.450823,2.668885,0.6712961,1.465267,0.2565641,-0.08900281,-0.0401815,0.07876702,-1.06205,-0.07990402,0.3875523,0.7800586,1.420955,0.1201437,0.2471652,1.560059,0.2762801,304.0634,84.24788,173.9222,True
3,1.911115,0.005521366,-0.03510866,-0.107552,4.685828,1.470689,-1.957401,0.4908945,1.369708,0.3415864,-1.409267,0.02291562,5.4,27.6,0.04313735,0.1394399,0.1227698,-0.06289268,-0.4914687,2.707647,0.6706946,1.465218,0.2562566,-0.0731276,-0.04022255,0.06797457,-1.06191,-0.08053266,0.3883421,0.7792673,1.421107,0.1196132,0.2464634,1.560273,0.2770445,304.0688,84.20084,174.2865,True
3,1.922226,-0.004019119,-0.07889851,-0.1254237,4.68862,1.469661,-1.95713,0.4902945,1.369978,0.3414216,-1.408983,0.0257607,5.4,27.6,0.05566261,0.1214773,0.09379674,-0.06253581,-0.5027839,2.718049,0.6700637,1.465378,0.2560132,-0.04214828,-0.02432775,0.07411054,-1.060682,-0.08069737,0.3880066,0.7784755,1.421206,0.1191187,0.2458724,1.560389,0.2775774,304.1046,84.2362,174.5584,True
3,1.933337,-0.007199225,-0.09497539,-0.1423796,4.690892,1.468267,-1.956983,0.4897804,1.370326,0.3412583,-1.408682,0.02732369,4.8,28,0.04665627,0.04607827,0.06141322,-0.06296991,-0.4715741,2.686658,0.6694748,1.46553,0.2556665,0.008531049,0.07141279,0.1141523,-1.056908,-0.07765339,0.3847035,0.777796,1.421327,0.1187859,0.2452939,1.560457,0.2777536,304.1568,84.37185,174.6503,True
3,1.944448,-0.008258434,-0.1024785,-0.149794,4.69277,1.467086,-1.956882,0.4892072,1.370647,0.3411922,-1.40866,0.001794674,4.8,28,0.03162401,0.0173872,0.05919828,-0.06383757,-0.4679691,2.683306,0.6687723,1.465548,0.2552238,-0.02695385,0.01079666,0.09740853,-1.057271,-0.07982506,0.3876425,0.7773205,1.421343,0.1182065,0.2447024,1.560494,0.2775006,304.1632,84.66737,174.4699,True
3,1.955559,-0.005046308,-0.1184839,-0.1550319,4.695209,1.466018,-1.956955,0.4886944,1.371016,0.3410625,-1.408815,-0.01417485,4.8,28,0.01769561,0.01109909,0.05072853,-0.06414437,-0.468289,2.683915,0.6682073,1.465667,0.2547126,-0.03771697,-0.01580631,0.09324116,-1.056914,-0.08137915,0.3891845,0.7767705,1.421429,0.1176484,0.2440634,1.560556,0.2768773,304.127,85.02341,174.0621,True
3,1.966671,-0.007173271,-0.1227561,-0.1560771,4.69724,1.464934,-1.956787,0.4882242,1.371237,0.3409615,-1.408911,-0.008527652,4.8,28,0.007214399,0.03448293,0.06479932,-0.06460723,-0.4935399,2.709416,0.6677244,1.465851,0.254225,-0.03232023,-0.01049835,0.09959032,-1.055614,-0.08193295,0.3896053,0.7761331,1.421337,0.1172466,0.243382,1.560682,0.27604,304.058,85.39636,173.5047,True
3,1.977782,-0.01143024,-0.1270629,-0.1635104,4.69946,1.463577,-1.956522,0.4878356,1.371535,0.3407738,-1.409106,-0.01785303,4.2,27.5,0.0184448,0.09375145,0.1194383,-0.06637556,-0.5539211,2.769071,0.6672922,1.466037,0.2536678,-0.02483143,0.000142904,0.09952652,-1.054447,-0.0818207,0.3895403,0.7755518,1.421515,0.1168911,0.2426857,1.560863,0.275159,303.998,85.74526,172.9336,True
3,1.988893,-0.01464367,-0.1068145,-0.1614915,4.700545,1.462162,-1.956331,0.4875453,1.371739,0.3405285,-1.40889,0.01993784,4.2,27.5,0.03357577,0.1127352,0.1418236,-0.06772844,-0.592176,2.806368,0.6667575,1.466125,0.2532043,-0.01306745,0.0001081601,0.1047572,-1.053165,-0.08252204,0.3896735,0.7749928,1.421467,0.1165285,0.2420333,1.561026,0.2743308,303.9615,86.09755,172.4109,True
3,2.000004,-0.02004479,-0.03745639,-0.1395132,4.699131,1.460551,-1.95589,0.4872493,1.371798,0.3402145,-1.408403,0.04383127,4.2,27.5,0.0462203,0.1053454,0.1246417,-0.0680704,-0.6072153,2.820424,0.6663952,1.466126,0.252759,-0.03680448,-0.04350962,0.08471945,-1.053659,-0.0847053,0.392066,0.774544,1.421601,0.1160858,0.2414492,1.561117,0.2736392,303.9455,86.41781,171.9737,True
3,2.011115,-0.0254639,0.05219489,-0.1091146,4.695888,1.459017,-1.955464,0.4869773,1.371901,0.3399138,-1.407755,0.05811331,4.2,27.5,0.03947616,0.07684477,0.08721725,-0.06782325,-0.6041264,2.817139,0.6660067,1.466239,0.2524459,-0.02939606,-0.04779185,0.08039491,-1.053314,-0.0858141,0.3927598,0.7740421,1.421645,0.1156325,0.2409083,1.561151,0.2731338,303.9166,86.70321,171.6372,True
3,2.022226,-0.02661171,0.1333482,-0.07440539,4.6922,1.457835,-1.955167,0.4867532,1.371992,0.339678,-1.40636,0.1259674,4.2,27.5,0.03933898,0.05774035,0.07643935,-0.06832979,-0.6076688,2.820217,0.6657308,1.466275,0.252058,-0.0002954453,-0.01484564,0.1089034,-1.050871,-0.08567203,0.3916959,0.7735857,1.421679,0.1151721,0.2403931,1.561137,0.2728838,303.8805,86.86113,171.4445,True
3,2.033337,-0.03303879,0.1686612,-0.04477208,4.689194,1.457137,-1.954602,0.4865146,1.37205,0.3395555,-1.404807,0.1396649,2.8,25.7,0.04329887,0.01953271,0.05166497,-0.06838784,-0.5909552,2.802914,0.6655031,1.466331,0.2517784,0.0005939193,-0.05852616,0.1025076,-1.050714,-0.0881782,0.3928565,0.7731652,1.421733,0.1146829,0.2398375,1.561158,0.2730051,303.8278,86.79089,171.4844,True
3,2.044448,-0.03515618,0.1601899,-0.03513616,4.688065,1.456493,-1.954249,0.4861081,1.372193,0.3396525,-1.403058,0.1572272,2.8,25.7,0.04536207,0.005689986,0.04942185,-0.06885336,-0.5883725,2.79984,0.6651177,1.46645,0.2514429,0.006919648,-0.06919845,0.09819988,-1.050293,-0.08991564,0.3935265,0.772549,1.421873,0.1143179,0.239216,1.561274,0.2735783,303.7549,86.52762,171.7877,True
3,2.055559,-0.03934488,0.09089419,-0.04220854,4.689497,1.45632,-1.953676,0.4858939,1.372424,0.3396606,-1.400631,0.218856,2.8,25.7,0.08163628,0.01299183,0.05348706,-0.0694057,-0.5971818,2.806475,0.6648918,1.466541,0.2511225,0.0112641,-0.04896942,0.1013568,-1.049138,-0.09034441,0.3934618,0.7721039,1.421914,0.1139357,0.2385805,1.561414,0.2745672,303.7,86.17861,172.3089,True
3,2.06667,-0.04355913,0.04396642,-0.05153811,4.690688,1.45584,-1.953068,0.4855732,1.372667,0.3395765,-1.398381,0.2020102,2.8,25.7,0.1083869,0.01386072,0.07035648,-0.07054713,-0.6078539,2.815032,0.6646201,1.466706,0.2507706,0.01235319,-0.04472018,0.1034729,-1.048188,-0.09128491,0.3938602,0.771668,1.421968,0.1135499,0.2379416,1.561508,0.2758204,303.6906,85.86531,172.9211,True
3,2.077781,-0.04458285,0.003425624,-0.0619665,4.692354,1.455382,-1.952548,0.485296,1.372973,0.3394318,-1.395545,0.2556982,1.7,22.3,0.08704719,0.01718212,0.06307237,-0.07100573,-0.614887,2.821768,0.6643205,1.466784,0.2504535,0.01012668,-0.05962899,0.09710138,-1.047837,-0.09291703,0.3946493,0.7712857,1.42201,0.1132205,0.2372625,1.561482,0.2771092,303.7115,85.68396,173.4962,True
3,2.088892,-0.04134754,-0.03504523,-0.08412418,4.694426,1.454395,-1.952241,0.4849727,1.373492,0.3392215,-1.392644,0.2610179,1.7,22.3,0.05703132,0.004640758,0.04188621,-0.07087098,-0.6090779,2.816297,0.6640147,1.466977,0.2501411,0.01645967,-0.06710311,0.09278736,-1.04744,-0.09444848,0.3950472,0.7709219,1.422061,0.1129196,0.236552,1.561254,0.2781339,303.6774,85.62697,173.9751,True
3,2.100003,-0.03175817,-0.03729583,-0.1075488,4.695666,1.452719,-1.952226,0.4847094,1.373858,0.3389645,-1.389737,0.261452,1.7,22.3,0.03885557,-0.008056637,0.03873487,-0.07142705,-0.6043028,2.811623,0.6637228,1.46716,0.2497795,0.004619539,-0.0681361,0.07904153,-1.047298,-0.09547006,0.3959444,0.7706463,1.422113,0.1125877,0.2357226,1.560905,0.2787265,303.5737,85.61861,174.2926,True
3,2.111114,-0.02644791,-0.01597254,-0.1055299,4.695488,1.45159,-1.952208,0.484574,1.374155,0.3386343,-1.386808,0.2634034,1.7,22.3,0.02082844,-0.008073136,0.05164059,-0.07245449,-0.6085621,2.816258,0.6635306,1.467417,0.2493663,-0.007157058,-0.05958234,0.06955379,-1.047021,-0.09607899,0.3967029,0.7703547,1.422167,0.1122472,0.2347372,1.560508,0.2788123,303.3884,85.68715,174.3878,True
3,2.122225,-0.02219284,-0.008460086,-0.09598094,4.695664,1.450899,-1.9521,0.4844968,1.374379,0.338485,-1.383821,0.2685908,1.7,22.3,0.01460129,0.006749418,0.06882888,-0.07363693,-0.6219187,2.829605,0.6634108,1.467492,0.2489715,-0.008338381,-0.06064723,0.05678007,-1.047098,-0.09694652,0.3972957,0.7700191,1.422199,0.1118557,0.2335716,1.560132,0.2784298,303.1443,85.90482,174.1744,True
3,2.133336,-0.01474206,-0.001960434,-0.07790675,4.69558,1.450558,-1.952188,0.4842919,1.374669,0.3382828,-1.38044,0.304417,2.9,25.5,0.01688085,0.01835747,0.08486813,-0.07488489,-0.6353485,2.842721,0.663197,1.467654,0.2485642,-0.01920072,-0.06488346,0.03450276,-1.047803,-0.0977508,0.3984038,0.7697631,1.422197,0.1115272,0.2323351,1.559702,0.2777527,302.8676,86.14769,173.7663,True
3,2.144447,-0.0115438,-0.006158907,-0.06615941,4.69599,1.450386,-1.952101,0.4840644,1.374914,0.3381634,-1.376842,0.324034,2.9,25.5,0.01481245,0.03113822,0.08815362,-0.07555281,-0.6494984,2.856785,0.6629705,1.467816,0.2482336,-0.005392743,-0.06705604,0.03118281,-1.047925,-0.09872245,0.3985772,0.7694566,1.422219,0.1111486,0.2311459,1.559175,0.2769887,302.5602,86.26005,173.4002,True
3,2.155558,-0.01046627,-0.01784638,-0.06076815,4.696712,1.450133,-1.952026,0.4838619,1.375226,0.3379765,-1.373443,0.3055257,2.9,25.5,0.005281599,0.04501368,0.08937173,-0.07630596,-0.6651008,2.872614,0.6627764,1.467979,0.2478762,-0.007669851,-0.09368335,0.0226823,-1.048668,-0.1007237,0.3997245,0.7691687,1.422255,0.1107893,0.2300469,1.558569,0.2762917,302.2614,86.32813,173.1012,True
3,2.166669,-0.009378139,-0.03383962,-0.06280676,4.697864,1.449795,-1.952043,0.4835991,1.375574,0.337769,-1.369643,0.342383,2.9,25.5,0.0084879,0.05355234,0.0862092,-0.0768812,-0.6795977,2.886846,0.6625795,1.468155,0.2475336,-0.009941585,-0.1085858,0.01098289,-1.049558,-0.1023061,0.400691,0.7688986,1.422287,0.1104937,0.2289796,1.557976,0.2757543,302.0098,86.35958,172.9202,True
3,2.17778,-0.008288606,-0.05732774,-0.07119969,4.699645,1.449333,-1.951981,0.4833817,1.37589,0.3375883,-1.365934,0.3337496,2.9,29.2,0.005325567,0.05460158,0.09049955,-0.07785965,-0.6916323,2.898842,0.662396,1.468282,0.2473099,-0.01209453,-0.09686235,0.004608192,-1.049975,-0.1029485,0.4012097,0.7686266,1.422305,0.110204,0.2279272,1.557404,0.2754051,301.791,86.38489,172.8341,True
3,2.188891,-0.006134879,-0.08080438,-0.07958826,4.701509,1.448895,-1.95197,0.4831582,1.376188,0.3373849,-1.362287,0.3280792,2.9,29.2,0.006255765,0.04083502,0.07761518,-0.07819307,-0.6930863,2.900195,0.6621228,1.468425,0.2470207,-0.005705878,-0.0787704,-0.001839811,-1.050236,-0.1030642,0.4011285,0.7682763,1.422278,0.1099577,0.2268682,1.556872,0.275223,301.5837,86.4178,172.8291,True
3,2.200002,-0.001864857,-0.08725302,-0.09020258,4.703106,1.448121,-1.952127,0.482977,1.37651,0.3372617,-1.358438,0.3465357,2.9,29.2,0.01560319,-0.002792679,0.06449237,-0.07883596,-0.6744831,2.881101,0.6619849,1.468562,0.2467959,-0.005738463,-0.0702424,-0.009297499,-1.050703,-0.1033959,0.4012537,0.7679591,1.422341,0.1097546,0.2257938,1.556359,0.275154,301.3944,86.4808,172.8541,True
3,2.211113,0.002388902,-0.07874905,-0.09451008,4.704127,1.447239,-1.952342,0.4828188,1.376613,0.3370826,-1.35467,0.3390073,2.9,29.2,0.04307643,-0.0315351,0.04600544,-0.07905274,-0.657921,2.863196,0.6616987,1.468634,0.2465281,0.002818767,-0.06174659,-0.008304883,-1.05091,-0.1038807,0.4011432,0.7676206,1.422315,0.1094577,0.2247294,1.555802,0.2751276,301.2084,86.58136,172.8641,True
3,2.222224,0.00451719,-0.0766151,-0.09345835,4.705269,1.446607,-1.95245,0.4826373,1.376848,0.3369207,-1.350997,0.3303777,2.9,29.2,0.04958853,-0.006014526,0.05037897,-0.07940535,-0.6714074,2.875926,0.6614159,1.468811,0.2462423,0.0166979,-0.05965282,-0.005227745,-1.051089,-0.1045485,0.4008518,0.7673036,1.422347,0.1092238,0.2236666,1.555187,0.2750917,301.0084,86.68986,172.8446,True
3,2.233335,0.008759362,-0.05519687,-0.07546592,4.705115,1.446305,-1.952714,0.4825653,1.376884,0.3368065,-1.347195,0.3422164,3.4,28.4,0.06051811,0.05354159,0.06027523,-0.07975688,-0.7059571,2.909333,0.6612546,1.468913,0.245965,0.03068079,-0.04691492,0.006371347,-1.050718,-0.105005,0.4002739,0.7668945,1.42233,0.1089623,0.2226043,1.554499,0.2750506,300.7965,86.80651,172.7711,True
3,2.244446,0.01301996,-0.04766481,-0.06379176,4.705476,1.446041,-1.953096,0.4824761,1.377153,0.3366761,-1.343191,0.3605424,3.4,28.4,0.05216379,0.07800202,0.07220697,-0.08057766,-0.7296315,2.93265,0.6611514,1.468976,0.2456307,0.03498694,-0.0426689,0.0106007,-1.050589,-0.1056051,0.4001296,0.7665871,1.422337,0.1087036,0.2215492,1.553709,0.2750243,300.5812,86.87656,172.728,True
3,2.255557,0.02048394,-0.05394256,-0.04458145,4.706149,1.446528,-1.95358,0.4824196,1.377316,0.3365698,-1.339414,0.3395733,3.4,28.4,0.03394634,0.05785985,0.06687345,-0.0811561,-0.7305596,2.933859,0.6611058,1.46899,0.2453439,0.03930832,-0.03735365,0.0158898,-1.050374,-0.1060099,0.399745,0.7663461,1.422333,0.1084285,0.2204707,1.552868,0.2750151,300.3252,86.88869,172.7325,True
3,2.266668,0.02157305,-0.07307486,-0.03701632,4.707593,1.446911,-1.953877,0.4822909,1.377488,0.3364654,-1.335608,0.3425274,3.4,28.4,0.0283865,0.009994771,0.05808517,-0.0818432,-0.7111908,2.91452,0.6611663,1.468969,0.2451398,0.05107259,-0.03525707,0.02110746,-1.050258,-0.1065097,0.3990976,0.7660944,1.42235,0.1081741,0.2194138,1.551979,0.2750425,300.0359,86.79054,172.835,True
3,2.277779,0.02052908,-0.0922964,-0.04436576,4.709441,1.446845,-1.954074,0.4821109,1.377746,0.3363442,-1.331759,0.3462349,3.4,28.4,0.03564278,-0.01656237,0.04188664,-0.08207916,-0.6986281,2.901294,0.6611259,1.468999,0.2449412,0.05634145,-0.0395335,0.01573605,-1.050472,-0.1071359,0.3986001,0.7659221,1.42234,0.1078746,0.2183545,1.551113,0.2750815,299.7299,86.69609,172.9749,True
3,2.28889,0.0184035,-0.1061835,-0.05067773,4.711226,1.446764,-1.954072,0.4820144,1.377888,0.3361604,-1.327602,0.3745839,5.2,37.5,0.03446103,-0.0271371,0.03010027,-0.08203921,-0.690804,2.893164,0.6610986,1.469087,0.2446856,0.06055441,-0.04487687,0.0114334,-1.050892,-0.1078938,0.3981471,0.7657709,1.422346,0.1076102,0.2173462,1.55022,0.2750578,299.4606,86.62108,173.1208,True
3,2.300001,0.02054416,-0.1169005,-0.06233903,-1.569988,1.446347,-1.954347,0.4818895,1.378053,0.3359149,-1.323503,0.3689802,5.2,37.5,0.03012111,-0.03452912,0.02156102,-0.0822251,-0.6827368,2.884862,0.660985,1.469075,0.2444599,0.05513685,-0.05444832,0.002957238,-1.051454,-0.1087341,0.3980454,0.765579,1.422349,0.1073596,0.2163334,1.54933,0.2749065,299.2249,86.65028,173.1567,True
3,2.311112,0.01522027,-0.1169258,-0.06553154,-1.56846,1.446114,-1.954375,0.4818605,1.378129,0.3356678,-1.319334,0.375406,5.2,37.5,0.01947681,-0.02808181,0.01953593,-0.08226611,-0.6824153,2.884704,0.6607624,1.469087,0.2442729,0.04540898,-0.06507943,-0.009747565,-1.05245,-0.1096479,0.3983367,0.7653946,1.422388,0.1071219,0.2152834,1.548458,0.274615,298.9902,86.784,173.0429,True
3,2.322223,0.01200663,-0.1051653,-0.05707031,-1.56764,1.446141,-1.954321,0.4818444,1.378184,0.335505,-1.315636,0.332259,5.2,37.5,0.01969316,0.0112485,0.03150539,-0.08273643,-0.7004433,2.902446,0.6606581,1.469147,0.2440925,0.03260735,-0.0693058,-0.0107029,-1.052921,-0.1105505,0.3988289,0.7651907,1.422426,0.1068928,0.2142481,1.547561,0.2741994,298.7433,86.94011,172.8648,True
3,2.333334,0.008793102,-0.08804156,-0.04225077,-1.567263,1.446312,-1.954316,0.4817705,1.378139,0.3353834,-1.311461,0.3762788,5.8,36.1,0.02406161,0.0453357,0.02956358,-0.08261871,-0.7205028,2.922012,0.6604996,1.469131,0.2438948,0.02316652,-0.05862759,0.003225192,-1.052579,-0.1111129,0.399214,0.7650275,1.422375,0.106741,0.2132363,1.546623,0.2736956,298.4946,87.1211,172.6346,True
3,2.344445,0.004521727,-0.07622896,-0.02420867,-1.566913,1.446755,-1.954261,0.48158,1.37822,0.3353407,-1.307393,0.366103,5.8,36.1,0.02723743,0.04961131,0.0242462,-0.08263576,-0.7262342,2.927318,0.660441,1.469118,0.2437067,0.01901027,-0.046896,0.01072133,-1.052229,-0.1114074,0.3991255,0.7648195,1.422415,0.106616,0.212285,1.54563,0.2731597,298.2224,87.24203,172.42,True
3,2.355556,0.005583752,-0.0729376,-0.007181892,-1.566455,1.447486,-1.954345,0.4814332,1.378229,0.3352778,-1.303483,0.3517729,5.8,36.1,0.03014794,0.01994299,-0.002596827,-0.08185172,-0.7143586,2.915033,0.6603029,1.469153,0.2434931,0.01390058,-0.02131243,0.02780774,-1.051182,-0.1111401,0.3989879,0.7646694,1.422418,0.1063898,0.2113848,1.544633,0.2726685,297.949,87.27792,172.2594,True
3,2.366668,0.005587084,-0.07187866,-0.008250827,-1.565643,1.447632,-1.954475,0.4812945,1.378275,0.3352458,-1.299361,0.3710678,5.8,36.1,0.02365555,-0.004524445,-0.004840732,-0.08195239,-0.7025368,2.903232,0.6601781,1.469214,0.2431974,0.01081924,-0.006390514,0.03635271,-1.050471,-0.1110227,0.3988949,0.7644857,1.422451,0.1061716,0.2104908,1.543673,0.2722869,297.7109,87.25563,172.1674,True
3,2.377779,0.0002595008,-0.07088389,-0.01997477,-1.564749,1.447379,-1.954284,0.4811148,1.378367,0.3350761,-1.295286,0.3665306,5.8,36.1,0.01737211,-0.0003295112,0.009077763,-0.08249674,-0.7059281,2.90664,0.6600682,1.469241,0.2429466,-0.0008659773,0.002164186,0.03751737,-1.049913,-0.1108542,0.3992393,0.7643872,1.422464,0.1059237,0.2095425,1.542791,0.27204,297.4936,87.19068,172.1625,True
3,2.38889,-0.0008022824,-0.07309305,-0.03274517,-1.563508,1.447,-1.954263,0.4810089,1.37847,0.3348937,-1.291022,0.3837129,8.3,46.8,0.01742507,-0.00358418,0.01758306,-0.08305867,-0.7060781,2.906474,0.6599375,1.469315,0.2427573,-0.01168496,-0.0137865,0.0237562,-1.050515,-0.1115066,0.4000907,0.7642344,1.422483,0.1056542,0.2085833,1.541905,0.2718996,297.2935,87.12544,172.2151,True
3,2.400001,0.001323791,-0.06890643,-0.04661744,-1.562572,1.446297,-1.954361,0.4809037,1.378527,0.3347015,-1.286287,0.4266771,8.3,46.8,0.01867324,0.01547776,0.03474222,-0.08388105,-0.7179983,2.918094,0.6597773,1.469311,0.2425044,-0.02679386,-0.02652608,0.004710502,-1.051306,-0.1119412,0.4010377,0.7641258,1.422549,0.1054201,0.2075861,1.540989,0.2718476,297.0928,87.13716,172.2343,True
3,2.411112,0.002378694,-0.06145685,-0.04772906,-1.561926,1.44594,-1.95439,0.4809321,1.37846,0.3345187,-1.28193,0.3916765,8.3,46.8,0.01237451,0.0528276,0.02863227,-0.08357372,-0.7402323,2.940281,0.6595742,1.469265,0.2423213,-0.02583651,-0.03185781,-0.005948722,-1.051866,-0.1123572,0.4015355,0.7638651,1.422607,0.1051655,0.2065262,1.540049,0.2718589,296.8606,87.17902,172.2628,True
3,2.422223,0.00236871,-0.05285948,-0.03392982,-1.561643,1.446146,-1.954387,0.4809225,1.378456,0.3343248,-1.277506,0.3981186,8.3,46.8,0.01659759,0.07850677,0.009598318,-0.08281472,-0.7592297,2.958879,0.6595298,1.469201,0.2422445,-0.02360138,-0.01481806,0.0004224766,-1.051459,-0.1120171,0.4014904,0.7636834,1.422668,0.1049817,0.2054493,1.539047,0.2718981,296.6031,87.24535,172.2781,True
3,2.433334,-0.001898573,-0.04961253,-0.02436022,-1.561295,1.44635,-1.95418,0.4809206,1.378512,0.3341885,-1.272811,0.4226924,10.7,44.3,0.01653356,0.08070541,-0.001040619,-0.08226079,-0.7700016,2.969425,0.6594685,1.469171,0.2420864,-0.003160913,0.005367962,0.01728949,-1.050426,-0.1115458,0.4005778,0.7635149,1.42266,0.1048019,0.2043922,1.537946,0.2719561,296.333,87.28237,172.3041,True
3,2.444445,-0.001893844,-0.0537871,-0.008357167,-1.560733,1.44708,-1.954174,0.4809526,1.378602,0.3341045,-1.268078,0.4260341,10.7,44.3,0.02493789,0.06689477,-0.01077471,-0.08183042,-0.7725947,2.9715,0.6594889,1.469047,0.2419446,0.01622911,0.0106419,0.04055871,-1.049261,-0.1118586,0.3999397,0.7633631,1.422636,0.104584,0.2034054,1.536722,0.272014,296.0366,87.20948,172.428,True
3,2.455556,-0.002939291,-0.06761719,-0.005084572,-1.559593,1.44759,-1.954188,0.480974,1.378652,0.3339894,-1.263145,0.4442182,10.7,44.3,0.01080611,0.02980215,-0.03328904,-0.08082374,-0.7591876,2.958508,0.6596359,1.469021,0.241785,0.02484094,-0.006424606,0.05646684,-1.048418,-0.1130658,0.3999557,0.7632987,1.422678,0.1043282,0.2024324,1.53547,0.2720353,295.7122,87.04711,172.6411,True
3,2.466667,-0.005058858,-0.07721083,-0.005036572,-1.558405,1.447887,-1.954081,0.480925,1.378697,0.3337903,-1.258565,0.4117306,10.7,44.3,0.01072655,-0.02356029,-0.0165832,-0.08155665,-0.7371095,2.936435,0.6597744,1.469005,0.2416415,0.02489118,-0.01494459,0.06605149,-1.047741,-0.1139922,0.4003184,0.7632073,1.422722,0.1041324,0.2014558,1.534262,0.2719904,295.3658,86.90723,172.8169,True
3,2.477778,-0.00825025,-0.08151662,-0.01246991,-1.557281,1.447931,-1.953894,0.4809792,1.378741,0.3336086,-1.253818,0.4273617,10.7,44.3,0.02679277,-0.05362782,0.01188086,-0.08299901,-0.7208024,2.919364,0.6598959,1.468951,0.2414536,0.02706729,-0.0149499,0.07135954,-1.046908,-0.1146456,0.4002574,0.7631383,1.422772,0.1039417,0.2005174,1.533101,0.2718441,295.0433,86.81803,172.925,True
3,2.488889,-0.006117852,-0.08155446,-0.01992513,-1.556304,1.447835,-1.953941,0.480929,1.378717,0.3334334,-1.248876,0.4449459,14.1,62,0.03741563,-0.05470324,0.008604065,-0.08302138,-0.7160614,2.913889,0.6598717,1.468982,0.2412026,0.01851201,-0.004278962,0.06504323,-1.04632,-0.1145669,0.4004366,0.763066,1.422753,0.1037433,0.1996156,1.531965,0.2715742,294.7764,86.83653,172.9122,True
3,2.5,-0.008254009,-0.07626572,-0.02634633,-1.555476,1.447595,-1.953766,0.4809588,1.378736,0.3332756,-1.243818,0.4552098,14.1,62,0.0310485,-0.03973974,0.00448117,-0.0829287,-0.7166939,2.914394,0.659887,1.468898,0.2409782,0.02496948,0.01913588,0.06605621,-1.045174,-0.1139973,0.3997767,0.7628859,1.422664,0.1035159,0.1987152,1.530844,0.271194,294.5364,86.91276,172.8058,True
3,2.511111,-0.01252111,-0.07202106,-0.02849413,-1.554749,1.447576,-1.953461,0.4809892,1.37874,0.3332028,-1.238939,0.43879,14.1,62,0.03110615,-0.01626834,0.0003686342,-0.0825745,-0.725657,2.923042,0.6598343,1.46883,0.2407885,0.02917199,0.02764539,0.05643127,-1.044639,-0.1134949,0.3990632,0.7628185,1.422682,0.1032388,0.1978209,1.529706,0.2707563,294.2957,87.02335,172.6195,True
3,2.522222,-0.01785753,-0.06246227,-0.03280848,-1.554219,1.44723,-1.953087,0.4810154,1.378756,0.3331363,-1.233508,0.4892106,14.1,62,0.04069357,-0.01201982,-0.00179975,-0.08248875,-0.7258733,2.92249,0.6597611,1.468808,0.2405889,0.03017864,0.02337781,0.05109603,-1.044276,-0.1136448,0.3987903,0.7626888,1.422745,0.1029329,0.1968962,1.528527,0.2703336,294.0611,87.1301,172.4133,True
3,2.533333,-0.02851509,-0.05720945,-0.04455209,-1.553534,1.44661,-1.952423,0.480994,1.378744,0.3331094,-1.228011,0.4947945,13.1,52.1,0.03845847,0.003051199,-0.02512595,-0.08138248,-0.7290369,2.92526,0.659695,1.468745,0.2403207,0.02356401,0.005283274,0.03091319,-1.044774,-0.1140908,0.3989738,0.7627168,1.422772,0.1025455,0.1959376,1.527294,0.2699943,293.7844,87.20555,172.24,True
3,2.544444,-0.02851215,-0.06047522,-0.05625325,-1.552349,1.445981,-1.952109,0.4810029,1.37874,0.3329866,-1.222521,0.4941057,13.1,52.1,0.02356947,0.009497533,-0.0249832,-0.08107621,-0.7325211,2.928987,0.6596574,1.468719,0.2400906,0.01707201,-0.00428775,0.02244616,-1.044903,-0.1144435,0.3991948,0.7626961,1.422799,0.1022596,0.1949474,1.526017,0.2697863,293.4729,87.2387,172.1332,True
3,2.555555,-0.03063807,-0.06484376,-0.07540216,-1.551013,1.444985,-1.951686,0.4810372,1.378883,0.3329082,-1.216755,0.5192602,13.1,52.1,0.01963635,0.01882092,0.01878188,-0.08258569,-0.7426246,2.938995,0.6595978,1.468738,0.2398157,-0.004217505,-0.00848973,0.02582473,-1.044657,-0.1148648,0.4001567,0.7626993,1.422869,0.1019783,0.1939153,1.524727,0.2697473,293.1527,87.27193,172.0699,True
3,2.566666,-0.02317819,-0.06487619,-0.08286212,-1.549955,1.444185,-1.951699,0.4811094,1.378981,0.3327892,-1.211536,0.4690035,13.1,52.1,0.02722149,0.02401651,0.03474807,-0.08348371,-0.7491632,2.944901,0.6596937,1.46865,0.2395806,-0.01069038,-0.009538326,0.01735988,-1.04471,-0.1149591,0.4006145,0.7627797,1.422705,0.1017547,0.1928484,1.523433,0.2698871,292.8363,87.31841,172.0609,True
3,2.577777,-0.01572225,-0.06380896,-0.08393335,-1.548977,1.443557,-1.95174,0.4811366,1.379155,0.3327141,-1.205868,0.5105317,13.1,52.1,0.03052564,0.04634871,0.03912971,-0.08382246,-0.7651163,2.960334,0.6597244,1.468626,0.2393379,-0.01286263,-0.01805504,0.01524878,-1.044861,-0.1155604,0.4011323,0.7628339,1.422687,0.1015403,0.1917813,1.522116,0.2701555,292.5216,87.38581,172.1034,True
3,2.588888,-0.01465963,-0.06591979,-0.08072858,-1.54796,1.443132,-1.951525,0.481339,1.379226,0.3326273,-1.200607,0.4728684,9.8,41.6,0.0262314,0.05173867,0.03174096,-0.0837463,-0.7743468,2.969429,0.6597888,1.46863,0.2391047,-0.01490481,-0.005265777,0.0216559,-1.044274,-0.1153327,0.401239,0.7628548,1.422711,0.1013618,0.1907084,1.5208,0.2705117,292.1784,87.45792,172.1633,True
3,2.599999,-0.01466745,-0.05843923,-0.07650875,-1.547348,1.442634,-1.951338,0.4814681,1.379342,0.3325229,-1.194925,0.511574,9.8,41.6,0.01867554,0.02193055,0.03266696,-0.08426668,-0.7656657,2.960848,0.6599168,1.468634,0.2388706,-0.01267156,0.002178114,0.0312231,-1.043631,-0.1154728,0.4013477,0.7629259,1.422823,0.1011004,0.189665,1.51947,0.2709062,291.8411,87.45405,172.3023,True
3,2.61111,-0.01574783,-0.04350931,-0.07339706,-1.547114,1.441951,-1.951081,0.4816403,1.379429,0.332341,-1.188862,0.5460346,9.8,41.6,0.01429174,-0.01001256,0.03248513,-0.08471622,-0.7516533,2.94702,0.6600586,1.468666,0.2385962,-0.01154077,0.01602435,0.03440784,-1.042928,-0.1149906,0.4011996,0.7630153,1.422874,0.1008379,0.1886528,1.518116,0.2712866,291.5055,87.39496,172.4899,True
3,2.622221,-0.01468636,-0.03925653,-0.07448466,-1.546466,1.441302,-1.95094,0.4818458,1.379498,0.3320925,-1.183041,0.5237511,9.8,41.6,0.01960925,-0.01857384,0.03559072,-0.08532449,-0.7469009,2.94188,0.6601954,1.468643,0.2383032,-0.01471027,0.02562325,0.03443838,-1.042303,-0.1145302,0.4012545,0.7630944,1.422774,0.1005011,0.1877282,1.51671,0.2715971,291.1585,87.32396,172.6751,True
3,2.633332,-0.01894465,-0.04030716,-0.0712827,-1.545776,1.440844,-1.950609,0.4820242,1.379587,0.3318884,-1.177145,0.5307321,9.8,41.6,0.02505593,0.01870961,0.03365678,-0.08526909,-0.7661856,2.960547,0.6603956,1.46858,0.2378819,-0.02109886,0.02670619,0.0344929,-1.041809,-0.1143516,0.4016148,0.7632542,1.422761,0.1001658,0.1868277,1.515319,0.2718229,290.8106,87.23832,172.8441,True
3,2.644443,-0.01575038,-0.03923596,-0.07022499,-1.54505,1.440295,-1.950524,0.4821972,1.379702,0.331645,-1.171396,0.5171909,8.3,41.8,0.01020885,0.03366601,0.03491355,-0.08547042,-0.776769,2.971416,0.660567,1.468561,0.2375772,-0.01361488,0.02348674,0.03869248,-1.041222,-0.1145444,0.4016191,0.7634138,1.422738,0.09982872,0.185957,1.513954,0.2719658,290.4722,87.15117,173.0004,True
3,2.655554,-0.01149576,-0.03066475,-0.06281787,-1.544866,1.439853,-1.950564,0.4823602,1.379828,0.331305,-1.165338,0.5455406,8.3,41.8,-0.0024786,0.02613936,0.05306349,-0.08662304,-0.7795709,2.974659,0.6608658,1.468661,0.2372956,-0.001925573,0.003214216,0.04179082,-1.040951,-0.1154736,0.4017277,0.7635634,1.422774,0.09949923,0.1851278,1.512594,0.2720143,290.1555,87.13087,173.0832,True
3,2.666665,-0.01151676,-0.01143642,-0.05334003,-1.545276,1.439343,-1.950416,0.4825625,1.37992,0.331053,-1.159672,0.509468,8.3,41.8,-0.003568379,0.01761505,0.05407934,-0.08722385,-0.7796034,2.974763,0.6610492,1.468688,0.2370124,0.007579006,-0.02132118,0.03958413,-1.041039,-0.1169125,0.4020071,0.7636728,1.422733,0.0992775,0.1843082,1.511255,0.2719721,289.842,87.13403,173.114,True
3,2.677776,-0.008373377,0.03879442,-0.02485483,-1.547529,1.439155,-1.950432,0.4827912,1.37997,0.3307827,-1.153903,0.5192094,8.3,41.8,0.0004737303,-0.01960278,0.04103047,-0.08739004,-0.7623778,2.957453,0.6613743,1.468703,0.2368124,0.02665319,-0.05120247,0.03729378,-1.041379,-0.1188085,0.4020018,0.7637875,1.422778,0.09901381,0.1840258,1.51064,0.2718779,289.8954,87.34671,172.9514,True
3,2.688887,-0.007335296,0.06337368,-0.0122101,-1.549052,1.438769,-1.950339,0.4830454,1.380021,0.3306558,-1.147787,0.5508409,7,37.3,-0.001575328,-0.0260939,0.05698241,-0.08862947,-0.7583897,2.953596,0.6616086,1.468743,0.2366338,0.05844989,-0.06301447,0.02211595,-1.041988,-0.1199428,0.4009032,0.7638735,1.422692,0.09889817,0.1838958,1.510349,0.2717868,290.0865,87.52425,172.8206,True
3,2.699998,-0.01908479,0.09439808,0.01425299,-1.551328,1.439026,-1.949736,0.4832125,1.380063,0.3305786,-1.141968,0.5233394,7,37.3,-0.00145236,-0.01124568,0.06666581,-0.08965638,-0.7647089,2.959836,0.6618618,1.468737,0.2365472,0.06584832,-0.04705811,0.01033514,-1.042147,-0.1198039,0.399977,0.7639627,1.422684,0.09873867,0.1838207,1.510154,0.2717666,290.2741,87.4985,172.8507,True
3,2.711109,-0.03508135,0.1072789,0.0344239,-1.553271,1.439414,-1.948781,0.4834347,1.380069,0.330544,-1.135922,0.5443603,7,37.3,0.01009735,0.0006308611,0.03576831,-0.08904066,-0.7689739,2.963596,0.6621132,1.468724,0.2364929,0.06694712,-0.01829877,0.004995494,-1.041951,-0.1189598,0.3987263,0.7640817,1.42267,0.09866834,0.1837808,1.509992,0.2718698,290.4561,87.10558,173.2159,True
3,2.72222,-0.0467856,0.0977055,0.03873844,-1.554141,1.439595,-1.94799,0.4837009,1.380125,0.3304513,-1.129439,0.5841323,7,37.3,0.01414094,-0.02056733,0.01536754,-0.08878233,-0.7564475,2.950915,0.6624411,1.468667,0.2364905,0.06275899,0.006211653,0.006093454,-1.041535,-0.118185,0.3978699,0.7642148,1.422614,0.09852862,0.1837634,1.509829,0.2720692,290.6393,86.47675,173.7776,True
3,2.733331,-0.06273588,0.06993242,0.02823899,-1.554048,1.439626,-1.946771,0.4839157,1.380199,0.3304219,-1.123121,0.5687991,7,37.3,0.03620745,-0.06952626,-0.004269596,-0.08859644,-0.7283551,2.921799,0.6626648,1.468599,0.2365081,0.06603258,0.01792175,0.01139067,-1.041047,-0.1176842,0.3967753,0.7643116,1.422581,0.09837222,0.1837087,1.50968,0.2723175,290.8288,85.72375,174.4626,True
3,2.744442,-0.07654694,0.03248652,0.001817362,-1.553018,1.439174,-1.945504,0.4840888,1.380311,0.3303988,-1.117374,0.5167524,4.1,24.4,0.04761957,-0.09814098,-0.03435365,-0.08789603,-0.7032671,2.895941,0.6629224,1.468558,0.2364323,0.06604183,0.01578369,0.01245562,-1.040923,-0.1178591,0.3960171,0.7644888,1.422588,0.09812832,0.1837134,1.509536,0.2725375,290.9529,84.99763,175.1416,True
3,2.755553,-0.08504128,0.005739385,-0.01721022,-1.551941,1.438709,-1.944264,0.4843435,1.380427,0.3303409,-1.1111,0.5653672,4.1,24.4,0.04227296,-0.09168985,-0.04066855,-0.08743211,-0.6921918,2.884604,0.6631745,1.468532,0.2363169,0.0691572,-0.0002050251,0.008169547,-1.041161,-0.1184175,0.3953918,0.7645788,1.422581,0.09785962,0.1837258,1.509371,0.2726532,291.1353,84.60252,175.5196,True
3,2.766664,-0.0914076,-0.01679498,-0.04584689,-1.550654,1.437682,-1.943091,0.4845505,1.380536,0.3303428,-1.105275,0.5239851,4.1,24.4,0.04270846,-0.05576013,0.005365349,-0.08887874,-0.70551,2.897501,0.6634443,1.468502,0.2361894,0.06374872,-0.03002153,0.008220911,-1.041625,-0.1199582,0.3956666,0.7646363,1.422648,0.09770823,0.1837216,1.509201,0.2726558,291.3023,84.58865,175.5111,True
3,2.777775,-0.09246953,-0.02003321,-0.05328615,-1.550023,1.437013,-1.942006,0.4848359,1.380694,0.3303132,-1.099686,0.5029697,4.1,24.4,0.05695856,-0.01450361,0.04282094,-0.09036744,-0.7231521,2.913894,0.6637535,1.468329,0.2360132,0.05629521,-0.03213149,0.00935036,-1.041665,-0.1204902,0.3955652,0.7647123,1.422651,0.09750056,0.1836521,1.509033,0.2725841,291.4943,84.85891,175.2112,True
3,2.788886,-0.09034449,-0.01151413,-0.05440123,-1.550075,1.436347,-1.941142,0.4851172,1.380904,0.3303692,-1.094242,0.4898512,2,16.2,0.0537884,-0.01024336,0.04499535,-0.09079675,-0.7245026,2.9148,0.664049,1.468312,0.2358677,0.04252275,-0.02996313,0.01799036,-1.041285,-0.1209471,0.3958493,0.7647731,1.422694,0.09735227,0.1836261,1.50887,0.2724985,291.6035,85.1366,174.8818,True
3,2.799997,-0.09461781,0.002340971,-0.05234276,-1.550417,1.435773,-1.939976,0.4853916,1.381165,0.3304977,-1.088873,0.4831448,2,16.2,0.06329539,-0.03264821,0.04478703,-0.09145615,-0.7119692,2.901314,0.6643534,1.468323,0.2357881,0.03831253,-0.02142867,0.02122136,-1.040931,-0.1210211,0.3956113,0.7648622,1.422645,0.09715438,0.1835658,1.508713,0.2724609,291.7643,85.32162,174.6232,True
3,2.811108,-0.09673695,-0.006197501,-0.0554918,-1.549881,1.435228,-1.938845,0.4856566,1.381514,0.3306756,-1.083695,0.4657919,2,16.2,0.07277005,-0.05930525,0.04242539,-0.09228226,-0.695141,2.883461,0.6646155,1.468266,0.2357237,0.04780068,-0.0353016,0.01474798,-1.041331,-0.1217962,0.3952003,0.764982,1.422598,0.09697819,0.1835222,1.508593,0.2725024,291.8688,85.25005,174.6067,True
3,2.822219,-0.09989935,-0.03716709,-0.06810215,-1.548076,1.43467,-1.937616,0.486006,1.381846,0.3308299,-1.078054,0.5082806,2,16.2,0.08026312,-0.06577814,0.05086086,-0.09343221,-0.6879395,2.875117,0.6649311,1.468203,0.2354846,0.05724535,-0.04172155,0.0008087885,-1.042127,-0.1223073,0.3946016,0.7651392,1.422555,0.09671998,0.1834918,1.508505,0.2726466,291.976,85.00687,174.7528,True
3,2.83333,-0.1094365,-0.08525623,-0.09340356,-1.545065,1.433833,-1.936058,0.4863259,1.382265,0.3309376,-1.072874,0.4659248,2,16.2,0.08162988,-0.03187658,0.07876625,-0.09502371,-0.7007038,2.886994,0.6653232,1.468171,0.2353182,0.05824346,-0.03959499,-0.007722722,-1.042612,-0.1225306,0.3940395,0.7652563,1.422517,0.09649754,0.1833889,1.508448,0.2728563,292.0197,84.49867,175.1298,True
3,2.844441,-0.1115362,-0.1152096,-0.1156102,-1.5423,1.432753,-1.934729,0.4867661,1.382609,0.3310578,-1.06778,0.4586882,3.1,14.4,0.08394767,-0.01389198,0.09697458,-0.09649804,-0.7095695,2.894833,0.6656936,1.468117,0.2352011,0.06462714,-0.04494352,-0.006719919,-1.042994,-0.123246,0.3935249,0.7654241,1.422547,0.096349,0.1833264,1.508345,0.2730199,292.0726,84.29209,175.228,True
3,2.855552,-0.1147096,-0.1366188,-0.1336022,-1.539388,1.431576,-1.9333,0.4871629,1.383029,0.3310966,-1.062605,0.466086,3.1,14.4,0.08957638,0.008249208,0.1301035,-0.09883044,-0.7247772,2.90878,0.6660557,1.468067,0.2351019,0.05615179,-0.05450663,0.001876617,-1.043077,-0.1243761,0.3937417,0.7655251,1.422571,0.09620738,0.183296,1.508245,0.2729981,292.1381,84.40617,175.1089,True
3,2.866663,-0.1157719,-0.1387627,-0.1357218,-1.537515,1.430707,-1.932008,0.4875226,1.383431,0.3311663,-1.058103,0.4046324,3.1,14.4,0.09712454,0.0198964,0.1375788,-0.1002781,-0.734365,2.917016,0.6663639,1.468064,0.2350702,0.0477554,-0.04489467,0.01366394,-1.042655,-0.1247751,0.393738,0.7656143,1.422595,0.0960784,0.1833106,1.508179,0.2729105,292.1933,84.77386,174.6885,True
3,2.877774,-0.1157968,-0.115244,-0.1209375,-1.536858,1.430103,-1.930717,0.4878348,1.383885,0.3312659,-1.053435,0.4203786,3.1,14.4,0.09046178,0.01055583,0.1024078,-0.10017,-0.7322692,2.914161,0.6667309,1.467966,0.2351003,0.04372442,-0.034227,0.03713451,-1.041484,-0.1253273,0.3936815,0.7657804,1.422602,0.09596634,0.1833548,1.508133,0.2728505,292.269,85.02277,174.3809,True
3,2.888885,-0.1222147,-0.09059015,-0.09231052,-1.536715,1.4301,-1.929145,0.4880566,1.384399,0.3314147,-1.049155,0.3849325,3.1,14.4,0.07940412,-0.038191,0.0680789,-0.1001285,-0.7090709,2.890627,0.6670949,1.467887,0.2351596,0.05132719,-0.02359051,0.0509202,-1.040467,-0.1256403,0.3930022,0.7659582,1.42253,0.09588289,0.1833837,1.50811,0.2728274,292.3103,85.10936,174.2325,True
3,2.899997,-0.1285999,-0.08633541,-0.09233413,-1.53563,1.42945,-1.927631,0.4882666,1.384864,0.331537,-1.045327,0.3446505,1.9,18.9,0.0717244,-0.07643288,0.05510263,-0.1008241,-0.6873938,2.868556,0.667487,1.467937,0.2351551,0.05027332,-0.01613066,0.04986292,-1.039954,-0.1257784,0.3925566,0.7662227,1.422508,0.09574246,0.1833832,1.508112,0.2728419,292.2958,85.02572,174.2508,True
3,2.911108,-0.1403003,-0.103404,-0.09437032,-1.533631,1.42904,-1.925663,0.4885401,1.385422,0.3316514,-1.041728,0.3243227,1.9,18.9,0.07587296,-0.1255089,0.06434517,-0.1026846,-0.6613674,2.841688,0.667861,1.468112,0.2350216,0.04253956,-0.01398385,0.01690347,-1.040879,-0.1254654,0.3921356,0.7666053,1.42253,0.09564233,0.1833264,1.508153,0.2728644,292.2168,84.84046,174.277,True
3,2.922219,-0.1424184,-0.1162362,-0.1028207,-1.531429,1.428286,-1.92399,0.4887893,1.385961,0.3317235,-1.03896,0.2487918,1.9,18.9,0.076098,-0.1235827,0.09631184,-0.1050846,-0.6568059,2.836268,0.6682466,1.468164,0.2349429,0.02741873,-0.006490307,-0.009602321,-1.041829,-0.1248513,0.3920429,0.7668536,1.422591,0.09559083,0.1832162,1.508173,0.2728721,292.0575,84.93605,174.1281,True
3,2.93333,-0.1487765,-0.1482543,-0.1122313,-1.528317,1.427777,-1.922091,0.4890258,1.386635,0.3317001,-1.036116,0.2566335,1.9,18.9,0.05115056,-0.04284476,0.1460007,-0.1077179,-0.6859211,2.865459,0.6685345,1.468192,0.23469,0.00718244,0.01806617,-0.01688954,-1.041878,-0.1235366,0.3920104,0.7671129,1.422673,0.09557557,0.1830197,1.508256,0.2729908,292.0033,85.81005,173.2427,True
3,2.944441,-0.1530294,-0.1546678,-0.1153943,-1.525988,1.427075,-1.920266,0.4893008,1.387293,0.331708,-1.034342,0.1589203,1.4,15.8,0.03124271,0.002873272,0.17093,-0.109833,-0.7052743,2.88498,0.6688634,1.468273,0.2346096,0.005229108,0.0521629,-0.00728536,-1.040904,-0.1218003,0.3911459,0.767256,1.422693,0.09554315,0.1828908,1.508461,0.2731204,291.816,85.35739,173.6112,True
3,2.955552,-0.1583571,-0.1535551,-0.1058127,-1.524101,1.426835,-1.918312,0.489595,1.387924,0.3316517,-1.032409,0.174583,1.4,15.8,0.02104196,0.07516564,0.200224,-0.1122277,-0.7415548,2.921184,0.669216,1.468235,0.2345917,0.01921062,0.057453,0.006443634,-1.040105,-0.1211239,0.3901488,0.767502,1.422687,0.0955348,0.1828748,1.508638,0.2731438,291.5783,84.98771,173.947,True
3,2.966663,-0.1626341,-0.1406572,-0.08457854,-1.523014,1.426997,-1.916355,0.4900035,1.38854,0.3315961,-1.030979,0.1283663,1.4,15.8,0.01777119,0.08913438,0.1822207,-0.1131886,-0.7541814,2.933603,0.6696918,1.468201,0.2346179,0.032005,0.05529053,0.008463316,-1.039686,-0.1206387,0.3890442,0.7678623,1.422638,0.09551573,0.1827762,1.508812,0.2730535,291.3817,85.2894,173.6486,True
3,2.977774,-0.1690384,-0.1288633,-0.06972945,-1.521949,1.4271,-1.914243,0.4903515,1.389104,0.3315537,-1.029573,0.1268899,1.4,15.8,0.01614118,0.03195282,0.1286004,-0.1130325,-0.7386722,2.91808,0.6702353,1.468123,0.2347152,0.04470208,0.03394908,0.005161335,-1.03987,-0.1210148,0.3882641,0.7681726,1.422641,0.09540462,0.1826616,1.509001,0.2728847,291.1763,85.8,173.1649,True
3,2.988885,-0.1882433,-0.1042023,-0.03790956,-1.522019,1.427799,-1.911466,0.4908003,1.389555,0.3314807,-1.028456,0.1004145,1.4,15.8,0.02827817,-0.08505974,0.09369086,-0.1142166,-0.6937345,2.872676,0.6710508,1.468204,0.2346811,0.06380578,0.0083321,0.004998505,-1.040249,-0.1219113,0.3873783,0.7684855,1.422591,0.09528923,0.1825483,1.50921,0.2726926,290.9698,86.32735,172.7009,True
3,2.999996,-0.2053086,-0.08492577,-0.01671163,-1.521818,1.428305,-1.908649,0.491263,1.390054,0.331337,-1.027386,0.0964577,1,12.4,0.03779893,-0.116032,0.09982517,-0.1162715,-0.6795245,2.857808,0.6716841,1.468176,0.2346044,0.08616325,-0.006643884,0.008004032,-1.040291,-0.1225552,0.3860151,0.7688167,1.422569,0.09512973,0.1824435,1.509437,0.2725126,290.7704,86.79401,172.3213,True
3,3.011107,-0.2191722,-0.07104459,-0.008266073,-1.52156,1.428578,-1.905761,0.4917032,1.390516,0.3312032,-1.025926,0.1323317,1,12.4,0.05271097,-0.1428048,0.1134031,-0.118647,-0.6631129,2.840387,0.6724488,1.468232,0.2345247,0.1042195,-0.02267326,0.006786174,-1.040575,-0.1234335,0.3846654,0.7691563,1.422545,0.09499812,0.1823443,1.509668,0.2723598,290.5809,87.17319,172.0289,True
3,3.022218,-0.2277317,-0.03903461,0.002211973,-1.522232,1.428682,-1.902941,0.4922063,1.390934,0.3310256,-1.025229,0.06230252,1,12.4,0.06232807,-0.1653141,0.1291683,-0.121242,-0.6485329,2.824912,0.6729969,1.468243,0.2343736,0.1125452,-0.05146611,-0.007135188,-1.041727,-0.1248394,0.3838489,0.7696423,1.422485,0.09486318,0.1822492,1.509933,0.2722359,290.3872,87.42861,171.8851,True
3,3.033329,-0.2341674,0.002557598,0.01156975,-1.523695,1.428641,-1.900108,0.4925671,1.391351,0.3308508,-1.024699,0.04775195,1,12.4,0.05385572,-0.1674692,0.1377342,-0.1235962,-0.6379281,2.814028,0.6735876,1.468215,0.2342265,0.09974034,-0.04610504,-0.01128758,-1.042102,-0.1250875,0.383288,0.7700646,1.422489,0.09473276,0.1821415,1.510223,0.2721094,290.175,87.6777,171.7592,True
3,3.04444,-0.2352581,0.0228534,0.02104426,-1.524722,1.428829,-1.897475,0.4929051,1.391771,0.3307414,-1.02438,0.02856945,0.7,7.9,0.02821349,-0.1587559,0.1219814,-0.1247739,-0.6292052,2.805937,0.6741381,1.468287,0.234133,0.08062784,-0.02687856,-0.01005617,-1.04192,-0.1246519,0.3829159,0.7704357,1.422454,0.09459543,0.1820268,1.510519,0.2719803,289.9525,87.97169,171.5651,True
3,3.055551,-0.235284,0.04741374,0.03156162,-1.526266,1.429057,-1.894895,0.4931784,1.392242,0.3305953,-1.024047,0.02999942,0.7,7.9,-0.009116367,-0.1532366,0.11268,-0.1260767,-0.6204183,2.798644,0.6745795,1.468392,0.2340162,0.07209929,-0.02259421,-0.01211439,-1.042142,-0.1246905,0.3824142,0.7708807,1.422413,0.09445381,0.1819016,1.510828,0.2718937,289.7153,88.16553,171.4423,True
3,3.066662,-0.2342387,0.05595177,0.03364819,-1.527151,1.429226,-1.892236,0.493534,1.392748,0.3304563,-1.023939,0.009457137,0.7,7.9,-0.02072929,-0.1404718,0.1213601,-0.1280203,-0.6159098,2.794704,0.6750244,1.46846,0.2339227,0.06570029,-0.02470251,-0.01205591,-1.042303,-0.1249722,0.3820358,0.7713394,1.422352,0.094311,0.1818326,1.511138,0.2719254,289.3923,88.36683,171.3362,True
3,3.077773,-0.2331711,0.05379867,0.02939884,-1.527685,1.429235,-1.889691,0.493817,1.39322,0.3302772,-1.023746,0.01748045,0.7,7.9,-0.02381068,-0.1245361,0.1300057,-0.129925,-0.6145729,2.793753,0.6754781,1.468545,0.2337461,0.04859922,-0.03211321,-0.01616994,-1.042833,-0.1255044,0.3823655,0.7718428,1.422309,0.09412026,0.1819948,1.511426,0.2720348,288.9402,88.18365,171.586,True
3,3.088884,-0.2395542,0.04310042,0.0209352,-1.527852,1.429142,-1.886796,0.4940842,1.393945,0.3307917,-1.023435,0.02812487,0.7,7.9,-0.03005601,-0.1064909,0.1418838,-0.1320603,-0.6146048,2.794236,0.675927,1.468628,0.2335072,0.01433816,-0.04161002,-0.03291408,-1.04391,-0.1260293,0.3836038,0.7722661,1.422225,0.09390879,0.182206,1.511709,0.2721743,288.571,87.84366,172.0056,True
3,3.099995,-0.2448761,0.03346204,0.01353604,-1.527848,1.429115,-1.883835,0.4943733,1.394488,0.3306346,-1.023337,0.008550694,1.7,4.3,-0.03715673,-0.07364206,0.1751683,-0.134797,-0.6249053,2.804919,0.6763972,1.468551,0.233386,-0.01344016,-0.04473072,-0.0411987,-1.044829,-0.1263643,0.3849045,0.772717,1.42216,0.09374022,0.1824956,1.511992,0.2722805,288.2105,87.58646,172.3532,True
3,3.111106,-0.2480708,0.03238161,0.0114113,-1.528165,1.42907,-1.880999,0.4946021,1.395054,0.3304415,-1.02283,0.04615666,1.7,4.3,-0.05302498,-0.03841841,0.1733694,-0.1363032,-0.6350671,2.816129,0.6767524,1.468515,0.2332103,-0.03370097,-0.04147209,-0.0452906,-1.045541,-0.1263096,0.3858095,0.7731169,1.422244,0.09425712,0.182749,1.512273,0.2723514,287.8398,87.59481,172.3592,True
3,3.122217,-0.2470229,0.04198869,0.01561524,-1.528943,1.429114,-1.878208,0.4949127,1.395674,0.3301499,-1.022593,0.02122943,1.7,4.3,-0.06474264,-0.02979564,0.1639195,-0.1377467,-0.6370335,2.818691,0.6771501,1.46852,0.2332659,-0.03118631,-0.002062092,-0.01229068,-1.044202,-0.1255109,0.3856625,0.7735046,1.42229,0.09416986,0.1828993,1.512589,0.2724715,287.4169,87.592,172.2879,True
3,3.133328,-0.2438373,0.05157972,0.01556238,-1.529826,1.429011,-1.875625,0.4951723,1.396325,0.3299186,-1.022616,-0.002287539,1.7,4.3,-0.07554176,-0.04244688,0.1489976,-0.1391353,-0.6339058,2.816785,0.6775835,1.468547,0.2332089,-0.03416521,0.01712459,0.006908251,-1.043248,-0.1249471,0.3858476,0.7739009,1.422258,0.09406924,0.1830118,1.512901,0.2725682,287.0087,87.39352,172.5338,True
3,3.144439,-0.2374485,0.05264296,0.01341454,-1.530392,1.428734,-1.87317,0.4955078,1.39692,0.3297319,-1.022586,0.002688132,0.8,2.2,-0.07241026,-0.06587812,0.1477693,-0.1412035,-0.6281449,2.811392,0.6780761,1.468646,0.2331104,-0.04252559,0.01288103,0.02827923,-1.042526,-0.1255409,0.3870138,0.774385,1.422041,0.09380746,0.1830804,1.513203,0.2727412,286.5962,88.26928,171.9702,True
3,3.15555,-0.2385046,0.04409592,0.009200505,-1.530553,1.428641,-1.870466,0.4958503,1.397571,0.3296115,-1.022719,-0.01223175,0.8,2.2,-0.06193693,-0.1042246,0.1410629,-0.1432701,-0.6147381,2.798438,0.6785954,1.468658,0.2329812,-0.0415187,-0.01162351,0.02933923,-1.042525,-0.1266681,0.3879693,0.774809,1.421983,0.09358287,0.1831667,1.51353,0.2730315,286.1563,89.09525,171.5269,True
3,3.166661,-0.2448803,0.02381429,0.002917191,-1.530117,1.42857,-1.867437,0.4961898,1.398176,0.329607,-1.022781,-0.005680371,0.8,2.2,-0.0436907,-0.1183193,0.1696239,-0.1467253,-0.6106414,2.794361,0.6791825,1.468666,0.2326553,-0.03525152,-0.02974699,0.02076441,-1.042982,-0.1275382,0.388577,0.7751634,1.422005,0.09368801,0.1833057,1.514154,0.2733179,285.9168,88.87798,171.948,True
3,3.177772,-0.250186,0.004604083,-0.002303311,-1.529468,1.428548,-1.864458,0.4964774,1.398791,0.3295422,-1.022447,0.03058457,0.8,2.2,-0.03818211,-0.109958,0.1920118,-0.1497911,-0.6114137,2.795365,0.6796874,1.468638,0.2325003,-0.02572125,-0.03723105,0.01642256,-1.043235,-0.1282963,0.3889331,0.7755486,1.421952,0.09350252,0.1836252,1.51509,0.2735331,285.8541,88.66795,172.2695,True
3,3.188883,-0.26081,-0.02635443,-0.01065724,-1.527971,1.428574,-1.861129,0.4967679,1.399417,0.3295746,-1.022029,0.03784738,0.8,2.2,-0.02533232,-0.08439182,0.1856966,-0.151568,-0.6161375,2.799674,0.6801572,1.468562,0.232455,-0.009720854,-0.03515023,0.01628187,-1.043197,-0.1287303,0.3885067,0.7758969,1.422012,0.09329653,0.1841465,1.516343,0.2736392,285.9392,88.68556,172.3109,True
3,3.199994,-0.2703649,-0.05838643,-0.02219718,-1.526191,1.428464,-1.85779,0.4970761,1.400028,0.329556,-1.022017,0.000779792,0.6,1.1,-0.01909997,-0.09388626,0.1674825,-0.1531477,-0.6103886,2.794031,0.6805849,1.46857,0.2323837,0.004079223,-0.02772864,0.007637185,-1.043376,-0.1286496,0.3879131,0.7762387,1.422007,0.09320927,0.1848566,1.517879,0.2736194,286.1518,88.88146,172.1387,True
3,3.211105,-0.2756687,-0.07875038,-0.04339107,-1.524338,1.427748,-1.854487,0.4973917,1.400647,0.3295243,-1.021676,0.03121671,0.6,1.1,-0.01410614,-0.1363298,0.1384173,-0.1547142,-0.5939199,2.777559,0.6810118,1.468627,0.2323513,0.01562855,-0.0298952,-0.01163491,-1.044248,-0.128772,0.3874138,0.7766242,1.421931,0.09310341,0.1857006,1.51963,0.2734607,286.4694,89.18244,171.8418,True
3,3.222216,-0.2777993,-0.0799067,-0.05830501,-1.523134,1.426892,-1.851271,0.4977731,1.401254,0.3294973,-1.021664,0.0009186523,0.6,1.1,-0.005709395,-0.1704389,0.1360238,-0.1574147,-0.5793332,2.762816,0.6814985,1.468653,0.2321682,0.007967468,-0.02988807,-0.03712558,-1.045464,-0.1288068,0.3874372,0.777061,1.422127,0.09272051,0.1866298,1.521496,0.2731615,286.8385,89.63695,171.3634,True
3,3.233327,-0.2756794,-0.06933402,-0.07327773,-1.52234,1.425752,-1.848189,0.4981276,1.401823,0.3295009,-1.021768,-0.009480659,0.6,1.1,0.009450004,-0.1525508,0.1626678,-0.1603314,-0.5787305,2.761617,0.6819386,1.46872,0.2320042,-0.003890023,-0.03092327,-0.053004,-1.046679,-0.1287356,0.387878,0.7773903,1.422099,0.09253669,0.1875927,1.523385,0.2727449,287.2223,90.189,170.7551,True
3,3.244438,-0.2725005,-0.05869275,-0.07653528,-1.521843,1.424896,-1.845121,0.4985276,1.402368,0.329505,-1.021902,-0.01213533,0.6,1.1,0.01825884,-0.1111571,0.18206,-0.1629551,-0.5871208,2.769313,0.6824507,1.468775,0.2317445,0.01413261,-0.03309835,-0.06273937,-1.047603,-0.1287186,0.3870489,0.7776663,1.421885,0.09265733,0.1885328,1.525223,0.2722898,287.5792,90.7723,170.0679,True
3,3.255549,-0.2672019,-0.033085,-0.07028486,-1.522176,1.424181,-1.842287,0.4989942,1.402879,0.3294971,-1.022076,-0.01583008,0.3,0.9,0.03669564,-0.05594862,0.2014619,-0.1652491,-0.601135,2.782095,0.6829494,1.468811,0.2315483,0.0335039,-0.02462585,-0.04266506,-1.047465,-0.1287644,0.3860249,0.777935,1.421865,0.09253836,0.1894262,1.526961,0.2719022,287.8842,91.23956,169.4679,True
3,3.26666,-0.2587267,0.005356926,-0.05771753,-1.523513,1.423522,-1.839594,0.4994549,1.403314,0.3294883,-1.02209,-0.001175473,0.3,0.9,0.04416405,-0.02928551,0.1909305,-0.1667139,-0.6068788,2.787152,0.6834815,1.468889,0.2312787,0.0358576,-0.02142985,-0.01818476,-1.046899,-0.1291412,0.3857085,0.7782921,1.421688,0.09244442,0.1902465,1.528568,0.2716787,288.1405,91.58068,169.0186,True
3,3.277771,-0.2481226,0.0459255,-0.04303328,-1.525084,1.422972,-1.837096,0.4998959,1.403718,0.3294978,-1.0223,-0.01913208,0.3,0.9,0.04521959,-0.03035454,0.1898582,-0.1689413,-0.6079232,2.787685,0.6840526,1.468966,0.2310841,0.03055811,-0.0448501,-0.007482611,-1.047067,-0.1306809,0.3863405,0.7785702,1.421638,0.09226418,0.1910215,1.530026,0.2716537,288.3267,91.74093,168.8166,True
3,3.288882,-0.2449545,0.07263186,-0.03040052,-1.526788,1.422547,-1.834454,0.5003611,1.404202,0.3294351,-1.022427,-0.011549,0.3,0.9,0.05372836,-0.03892975,0.1929443,-0.1714149,-0.6086466,2.787552,0.6846156,1.469066,0.2308977,0.02615331,-0.06401469,-0.01809239,-1.048195,-0.1319492,0.3868692,0.7788599,1.421508,0.0921154,0.1917818,1.531347,0.2718272,288.4541,91.68002,168.8949,True
3,3.299993,-0.2343221,0.09082457,-0.01559406,-1.528186,1.422373,-1.83219,0.5007522,1.40481,0.3293929,-1.022573,-0.01328068,0.1,1.3,0.05579598,-0.03569062,0.1844279,-0.1731523,-0.6104936,2.788886,0.6850783,1.469018,0.2306945,0.02168922,-0.09381132,-0.03190289,-1.049687,-0.1334049,0.3874891,0.7791067,1.421387,0.09209681,0.1925235,1.532573,0.2721863,288.5553,91.42892,169.2082,True
3,3.311104,-0.2236674,0.08875851,-0.005994286,-1.529141,1.422395,-1.830029,0.5011989,1.405338,0.3293602,-1.022378,0.01783485,0.1,1.3,0.04714668,-0.04088457,0.168473,-0.1745793,-0.6100062,2.78819,0.6856722,1.468953,0.2305751,0.02818078,-0.09063143,-0.02130559,-1.049916,-0.13442,0.3874716,0.7794276,1.421271,0.09195852,0.1932382,1.533748,0.2726862,288.6429,91.09454,169.6555,True
3,3.322215,-0.2183215,0.07063823,-0.009088419,-1.529272,1.422138,-1.827747,0.5017018,1.405892,0.3294418,-1.022659,-0.02582583,0.1,1.3,0.05459486,-0.05908614,0.1778952,-0.1772195,-0.6074838,2.784987,0.6862165,1.468889,0.2305636,0.03881844,-0.09705304,-0.02139972,-1.050647,-0.1356419,0.387254,0.779766,1.42122,0.09169912,0.1939089,1.534944,0.2732461,288.6976,90.73353,170.1767,True
3,3.333326,-0.2140217,0.03543562,-0.01848129,-1.528403,1.421842,-1.825515,0.5021372,1.406442,0.3294036,-1.022714,-0.004788316,0.1,1.3,0.05645795,-0.1058699,0.1626681,-0.179431,-0.5957513,2.77273,0.686786,1.468863,0.2304373,0.03992114,-0.07681572,-0.02354272,-1.051072,-0.135711,0.3868265,0.7801145,1.421103,0.09154272,0.1945521,1.536194,0.2737665,288.7682,90.436,170.6488,True
3,3.344437,-0.2118478,-0.003019588,-0.03638428,-1.52678,1.421157,-1.823167,0.502607,1.406984,0.3294079,-1.022525,0.01716753,0.1,1.3,0.05410892,-0.1323864,0.1454641,-0.1812121,-0.5854952,2.762245,0.6872488,1.468833,0.2304087,0.03770737,-0.07787672,-0.03310985,-1.052015,-0.1363858,0.3867879,0.7803693,1.420974,0.09134436,0.1952533,1.537434,0.2741553,288.881,90.27921,170.9447,True
3,3.355548,-0.208594,-0.05532097,-0.05527038,-1.524103,1.420526,-1.820949,0.5029984,1.407497,0.329396,-1.022485,0.00344869,0,1.4,0.05423599,-0.1271624,0.1614768,-0.1837927,-0.5837082,2.759894,0.6877204,1.468953,0.2303162,0.03759896,-0.08746571,-0.04269562,-1.053253,-0.1374291,0.3868806,0.7806978,1.420941,0.09122396,0.1960159,1.538641,0.2743735,289.025,90.35323,170.9593,True
3,3.366659,-0.2000231,-0.09689742,-0.06143705,-1.521541,1.420266,-1.819076,0.5034864,1.407944,0.3294022,-1.022327,0.01437431,0,1.4,0.05986573,-0.08151881,0.1830394,-0.1861859,-0.5935146,2.768709,0.6882693,1.46898,0.2302101,0.03869197,-0.08426447,-0.04057249,-1.053829,-0.1380557,0.3867288,0.7808462,1.420879,0.09114933,0.1967981,1.539802,0.27439,289.1983,90.64203,170.7294,True
3,3.37777,-0.1861334,-0.1341844,-0.0633606,-1.518823,1.420213,-1.817465,0.5039781,1.408291,0.3294168,-1.022391,-0.005950592,0,1.4,0.05565262,-0.03131335,0.1642134,-0.1866785,-0.6037578,2.778316,0.6887029,1.469053,0.2300882,0.03989097,-0.08533048,-0.02460257,-1.0539,-0.1392195,0.3868282,0.7811112,1.420808,0.09105563,0.1975674,1.540896,0.2742161,289.3806,91.13068,170.2528,True
3,3.388881,-0.1722614,-0.1554631,-0.06111134,-1.516299,1.420246,-1.816035,0.5044585,1.408673,0.3294246,-1.022674,-0.02586721,0,1.4,0.03736097,-0.02466393,0.1334787,-0.1869225,-0.6034592,2.778198,0.6891769,1.469236,0.2299347,0.03460164,-0.08957228,-0.0192363,-1.054407,-0.1403117,0.3871115,0.7814194,1.420674,0.0910759,0.1983064,1.541883,0.2738658,289.5601,91.72141,169.6339,True
3,3.399992,-0.1573126,-0.1873974,-0.05987012,-1.513091,1.420392,-1.814794,0.5049291,1.408938,0.3294122,-1.022875,-0.01830809,0.1,1.1,0.03205864,-0.02146302,0.1346061,-0.1886408,-0.6049716,2.7794,0.6897387,1.469307,0.2298989,0.02701782,-0.09594509,-0.03195724,-1.055642,-0.1413061,0.3875589,0.7817002,1.420578,0.0909133,0.1990591,1.542696,0.2733652,289.7172,92.24837,169.0325,True
3,3.411103,-0.141303,-0.2151502,-0.07250571,-1.509544,1.419954,-1.813673,0.505411,1.408924,0.3293931,-1.022967,-0.008222403,0.1,1.1,0.03942725,-0.03209405,0.1270307,-0.1899808,-0.6039327,2.777694,0.6902452,1.469307,0.2296259,0.01725289,-0.1150969,-0.04572365,-1.05732,-0.142886,0.3885677,0.782069,1.420287,0.09066391,0.1997999,1.543315,0.2727511,289.8438,92.73261,168.4444,True
3,3.422215,-0.128519,-0.2140727,-0.07250558,-1.50715,1.419786,-1.812595,0.5057954,1.409032,0.3294156,-1.023037,-0.00650524,0.1,1.1,0.04349141,-0.04689118,0.105604,-0.1908831,-0.5997391,2.772938,0.6906264,1.4693,0.2294121,0.004310668,-0.1289138,-0.05946435,-1.059107,-0.1444017,0.3896995,0.7823107,1.420297,0.09046555,0.2004766,1.543765,0.2720712,289.9326,93.22239,167.8431,True
3,3.433326,-0.1114924,-0.197045,-0.07899058,-1.505279,1.419135,-1.811872,0.5060816,1.408966,0.3294222,-1.023072,-0.003234015,0.1,1.1,0.04951082,-0.05190518,0.05332926,-0.1901028,-0.5938689,2.766415,0.6908424,1.469298,0.2292428,-0.03195056,-0.1277494,-0.06448101,-1.060595,-0.1455339,0.3917747,0.7825594,1.420242,0.09025073,0.2011058,1.544003,0.2713524,290.0334,93.83486,167.1329,True
3,3.444437,-0.1019123,-0.1896236,-0.08542545,-1.503088,1.418469,-1.810976,0.5063801,1.409049,0.3293741,-1.022973,0.009025983,0.1,1.1,0.04832421,-0.04965562,0.03417511,-0.1900858,-0.590824,2.762929,0.6911786,1.469448,0.2290914,-0.03823018,-0.1138885,-0.05590601,-1.06115,-0.1462798,0.3927225,0.7828857,1.420334,0.08998227,0.2016661,1.544005,0.2706589,290.1214,94.49368,166.3496,True
3,3.455548,-0.07316623,-0.1736483,-0.09190382,-1.501467,1.417591,-1.811111,0.5065817,1.40893,0.3294227,-1.023216,-0.02238623,0.1,0.6,0.03135223,-0.004772622,0.02179366,-0.1893699,-0.597789,2.769992,0.6911758,1.469495,0.2289195,-0.05348292,-0.05204868,0.009201609,-1.058299,-0.1456442,0.3935516,0.7830713,1.42024,0.08979988,0.2020491,1.543897,0.2700865,290.1337,94.97004,165.7239,True
3,3.466659,-0.03695684,-0.1651149,-0.0962081,-1.499585,1.416849,-1.811802,0.5067883,1.408737,0.329483,-1.02294,0.02525383,0.1,0.6,0.006965183,0.05184211,0.009531619,-0.188269,-0.6090166,2.781799,0.6911719,1.469481,0.2286265,-0.06505967,-0.03816439,0.02102031,-1.057734,-0.1459071,0.3946853,0.7832443,1.42017,0.08973694,0.2022563,1.543714,0.2697114,290.1084,95.36102,165.232,True
3,3.47777,0.003518941,-0.1618817,-0.09621945,-1.497571,1.416314,-1.813008,0.5070789,1.40861,0.3294909,-1.023799,-0.07881693,0.1,0.6,-0.004571311,0.1040769,0.008876719,-0.1874136,-0.6221018,2.795001,0.6912518,1.469483,0.2283435,-0.086547,-0.03810865,-0.0001025917,-1.058575,-0.1460249,0.3964438,0.7834296,1.420038,0.08955407,0.2023305,1.5435,0.2695462,290.039,95.77415,164.7969,True
3,3.488881,0.02802433,-0.1650565,-0.09726551,-1.495426,1.415705,-1.814118,0.5073056,1.408462,0.329509,-1.024238,-0.03953451,0.1,0.6,-0.0001376197,0.1220687,0.02494257,-0.1875355,-0.633645,2.806189,0.6913388,1.469461,0.2281051,-0.1070329,-0.03912055,-0.02762372,-1.060029,-0.1460284,0.3984049,0.7836245,1.419923,0.08941269,0.202369,1.543186,0.2696014,290.0252,96.12708,164.4635,True
3,3.499992,0.07064165,-0.1714014,-0.09616093,-1.493029,1.415259,-1.816247,0.5076417,1.408303,0.3295059,-1.024505,-0.02445147,0,0.2,0.008476675,0.1337087,0.03241651,-0.1875291,-0.6445252,2.816463,0.6914424,1.469431,0.2278655,-0.1049821,-0.03167103,-0.03936102,-1.060862,-0.1457376,0.3993639,0.7837529,1.419866,0.08925152,0.2026266,1.542616,0.2699089,290.0941,96.37692,164.2787,True
3,3.511103,0.1164613,-0.1820034,-0.09609893,-1.490464,1.414822,-1.819091,0.5078365,1.408115,0.3294539,-1.024151,0.03238333,0,0.2,0.0231775,0.1146094,0.0108814,-0.1867387,-0.6451839,2.816354,0.6915586,1.469373,0.2277961,-0.0781734,-0.02215401,-0.0214831,-1.060417,-0.1458006,0.3992752,0.7838689,1.419941,0.08904147,0.20264,1.54185,0.2702245,290.0112,96.99197,163.8668,True
